timestamp,emg1,emg2,emg3,emg4,emg5,emg6,emg7,emg8
1537911365423706,-2,-2,-1,-1,-9,0,-4,-4
1537911365423706,-3,-4,-5,-3,-9,-2,-2,-2
1537911365424703,1,0,-2,-3,-2,-16,-3,5
1537911365424703,1,2,3,8,-13,37,-1,-3
1537911365425701,-1,-1,1,8,-8,-5,2,0
1537911365425701,-1,2,-1,-9,9,-14,0,-1
1537911365429690,-1,-1,-1,2,-14,28,-14,-1
1537911365429690,-4,-3,-2,-8,8,-29,-8,-1
1537911365435674,-1,2,1,3,10,-4,-4,-3
1537911365435674,2,-2,-1,-3,46,40,0,2
1537911365444651,-2,0,1,-1,-35,-10,-10,-7
1537911365444651,3,3,2,1,2,8,20,11
1537911365450634,-5,-3,-1,6,29,-6,-7,-27
1537911365450634,7,1,3,0,-43,-31,-7,12
1537911365466591,-1,-3,-4,-3,26,7,1,1
1537911365466591,-5,-3,-4,-4,-48,0,-5,-10
1537911365475567,4,0,-2,-1,-4,-1,2,11
1537911365475567,-3,-2,-3,1,0,3,2,-7
1537911365490527,-3,0,2,9,19,-16,3,-7
1537911365490527,-1,-2,0,3,-11,-13,-1,-6
1537911365497508,-2,1,0,-3,-52,14,3,17
1537911365497508,-3,-1,1,13,-17,10,-6,-4
1537911365518453,0,1,0,3,7,-25,-11,1
1537911365518453,-1,-3,-4,-3,-19,-16,13,1
1537911365553359,-3,-1,-3,-4,-20,-25,9,-1
1537911365553359,-2,0,2,-1,21,8,-3,-5
1537911365556351,-2,-2,-1,-3,6,14,-2,-1
1537911365556351,-2,0,-1,-5,11,-13,2,-1
1537911365557349,1,0,2,-2,-18,-6,-6,-5
1537911365557349,-2,-2,-4,-9,-20,-37,-3,2
1537911365558346,0,1,2,2,23,14,4,-2
1537911365558346,-2,0,-1,-2,-37,-6,-2,-1
1537911365563333,-3,-3,-1,2,43,0,-8,-3
1537911365563333,2,-1,-2,4,22,15,2,-2
1537911365570314,0,-1,-1,-3,2,-19,-4,-1
1537911365570314,-1,0,0,2,-5,15,-2,0
1537911365578293,1,1,-1,-4,17,4,0,-1
1537911365578293,1,0,-2,-6,-21,0,5,5
1537911365593252,-3,-1,-3,-4,0,-6,-1,-1
1537911365593252,2,-1,-2,-5,-10,16,-19,-6
1537911365600234,-1,0,-2,-3,-47,-5,13,5
1537911365600234,-1,-1,1,10,56,-9,4,1
1537911365624170,2,-1,0,-5,26,63,17,7
1537911365624170,-1,0,1,-1,-16,25,-4,-2
1537911365625167,2,-1,0,-3,-1,-15,-4,0
1537911365625167,-4,-3,-3,-6,2,-20,-4,-3
1537911365638132,-2,0,-1,-6,-66,1,-10,-1
1537911365638132,-2,-2,0,10,53,-28,14,1
1537911365646111,0,0,-1,-5,6,25,3,4
1537911365646111,-1,0,-1,-1,0,17,3,-1
1537911365661071,1,0,3,5,5,-27,-3,-2
1537911365661071,0,-1,0,-5,-13,-6,-5,-1
1537911365662069,-2,-1,-1,-3,28,0,-9,-6
1537911365662069,1,3,4,0,-68,-8,0,0
1537911365684010,-1,-1,-2,12,1,16,-2,-3
1537911365684010,0,-3,-1,-7,15,-9,4,-1
1537911365685007,-1,-1,-2,2,17,-12,-1,1
1537911365685007,1,0,-1,-7,-35,22,5,0
1537911365698970,-1,-1,3,8,62,-19,-4,-2
1537911365698970,-1,-3,-3,-1,-53,-17,1,1
1537911365698970,0,-1,0,13,12,12,-5,-1
1537911365698970,0,1,4,-3,-13,27,-4,-2
1537911365720911,0,-1,-3,-4,-7,13,1,-3
1537911365720911,-1,-5,-8,-9,25,-18,-3,-1
1537911365721909,0,-1,1,-9,-45,0,-5,0
1537911365721909,-2,-1,5,27,50,5,-4,-3
1537911365744847,-3,0,6,53,-19,-47,-19,-8
1537911365744847,0,1,-3,-16,-51,-18,18,2
1537911365744847,-2,-1,-8,-50,-52,46,4,-1
1537911365744847,0,-1,5,-19,77,-43,-13,-2
1537911365758810,-5,-11,-35,-83,-37,24,9,5
1537911365758810,-4,-1,8,43,-66,-36,-9,-5
1537911365759808,1,4,11,50,74,40,22,2
1537911365759808,-4,-10,-26,-116,-2,6,-13,-6
1537911365783743,-1,5,23,116,-31,-59,-11,-1
1537911365783743,1,-3,-27,-117,8,36,21,9
1537911365784741,0,-1,2,-6,58,8,-5,-3
1537911365784741,1,12,44,84,-61,-40,-32,-9
1537911365797706,-4,-13,-46,-109,-59,-14,44,10
1537911365797706,-4,-9,-17,-22,11,-63,-12,-3
1537911365803690,-2,-11,-31,-60,40,-52,-17,-6
1537911365803690,-1,9,34,103,-22,0,0,-5
1537911365810671,-6,-11,-39,-86,-66,13,-5,-4
1537911365810671,-4,6,22,90,106,86,-9,-10
1537911365826629,3,4,-21,-106,-41,-69,-2,1
1537911365826629,-8,-27,-60,-44,-100,26,-3,2
1537911365832613,0,4,41,122,79,30,8,-2
1537911365832613,2,1,-1,-47,-53,-23,23,7
1537911365840591,9,33,106,127,-29,-17,-2,1
1537911365840591,2,3,-29,-94,72,51,8,0
1537911365855551,-1,-6,-26,7,-45,30,2,-1
1537911365855551,-2,-7,3,7,-73,-47,-30,-6
1537911365863530,-1,-4,-10,86,83,71,3,-2
1537911365863530,13,34,94,119,-22,-73,6,9
1537911365870511,-9,-22,-49,-49,-48,-92,-30,-11
1537911365870511,-1,-2,-5,-61,127,-59,-18,-3
1537911365886468,0,-6,-14,-118,-56,64,33,12
1537911365886468,-9,-23,-48,39,52,17,23,-6
1537911365893450,8,28,60,105,117,-52,-11,-1
1537911365893450,2,-15,-52,-57,17,-8,-8,3
1537911365900431,-10,-18,-32,30,-105,-89,-24,-7
1537911365900431,4,5,4,0,-25,42,35,5
1537911365924368,9,22,40,81,58,3,7,5
1537911365924368,6,16,24,9,-93,-2,18,6
1537911365925365,-11,-18,-51,-58,127,-21,8,-5
1537911365925365,-1,-6,-20,17,-63,-40,-17,-2
1537911365930352,0,-4,2,-120,89,11,-10,1
1537911365930352,6,24,76,127,-50,48,-1,-1
1537911365946310,-13,-38,-85,-108,-30,-61,-30,-8
1537911365946310,-10,-23,-55,-128,30,38,-10,-8
1537911365953292,6,21,50,88,-97,-18,-2,-1
1537911365953292,6,-1,3,-8,37,-6,-1,4
1537911365960274,11,35,97,117,-86,5,4,5
1537911365960274,-7,-16,-25,-9,38,-8,-28,-11
1537911365975233,-2,-8,-13,104,83,-5,-28,-7
1537911365975233,-2,5,9,71,-3,58,3,-4
1537911365984208,-2,2,6,-3,-106,-40,-9,-6
1537911365984208,3,5,16,69,118,8,31,13
1537911365990193,-4,-4,-7,-86,-128,-6,1,-3
1537911365990193,0,-5,-21,-59,-78,34,-11,-3
1537911366006149,3,6,13,90,88,25,10,7
1537911366006149,-2,-8,-24,-55,-52,34,1,-1
1537911366013131,-5,-11,-16,-51,-46,0,0,-6
1537911366013131,-5,1,5,92,48,-60,-5,-2
1537911366020112,2,0,-1,-3,-52,49,2,-3
1537911366020112,4,8,25,79,98,-22,12,9
1537911366035072,0,-1,21,110,29,27,17,5
1537911366035072,-5,-23,-66,-128,77,-17,-3,0
1537911366044048,3,5,31,104,-71,-19,-11,0
1537911366044048,5,9,14,8,18,-31,22,8
1537911366050032,4,12,27,48,8,13,-4,-1
1537911366050032,-9,-11,-13,-8,121,60,11,-7
1537911366065989,3,10,19,31,-34,-4,9,5
1537911366065989,-5,-8,-35,-120,-128,-17,21,2
1537911366072970,4,7,17,20,21,49,19,10
1537911366072970,0,7,15,16,74,54,13,-2
1537911366080949,0,-1,2,8,-11,12,-2,0
1537911366080949,-1,7,23,95,-56,-13,-36,-9
1537911366095909,-4,-9,-22,-91,95,6,10,1
1537911366095909,-8,-23,-59,-102,-94,-32,-6,-5
1537911366103888,-3,4,17,68,26,-19,-7,-5
1537911366103888,-3,-8,-20,-44,76,-35,-12,-6
1537911366110870,-1,-7,-16,-88,-113,-49,-19,-4
1537911366110870,5,14,37,74,-43,6,-2,3
1537911366125831,-4,-11,-27,-66,0,-9,5,-4
1537911366125831,-4,2,18,20,19,-15,-5,-3
1537911366132812,1,2,-1,-11,-4,29,8,-1
1537911366132812,-2,-1,7,12,-5,-32,2,1
1537911366140790,0,1,0,-14,32,9,-4,-3
1537911366140790,0,2,6,4,-17,2,-12,-2
1537911366155750,0,-5,-12,-26,9,5,8,1
1537911366155750,-1,6,22,55,-19,-6,-6,0
1537911366163730,-1,-4,-12,-29,49,9,-1,0
1537911366163730,3,1,7,7,-19,6,-2,-1
1537911366171709,-3,-5,-11,-12,-20,-17,-2,-3
1537911366171709,-1,2,10,22,5,7,-6,-5
1537911366186668,-2,-4,-7,-16,-14,8,31,8
1537911366186668,-2,1,1,-2,-4,-1,-2,0
1537911366192651,0,0,2,11,-3,-1,-2,-1
1537911366192651,1,0,5,15,-12,-6,2,2
1537911366200631,-2,0,-8,-19,25,-1,-13,-5
1537911366200631,0,1,7,18,-29,-6,-6,-2
1537911366215592,-3,-2,-6,0,-10,-4,-3,-1
1537911366215592,0,1,4,13,31,18,1,1
1537911366223568,-1,-2,-4,-4,30,2,-3,-2
1537911366223568,-1,1,4,-12,-29,4,2,1
1537911366230549,0,-2,-2,-5,31,9,-2,1
1537911366230549,-1,0,2,8,-27,0,2,-1
1537911366246507,0,0,2,-7,26,10,-5,-1
1537911366246507,0,2,10,54,1,-12,-2,0
1537911366253488,-2,-4,-11,-43,-24,-6,-4,-4
1537911366253488,-2,0,2,8,26,-11,-1,0
1537911366260469,-1,0,-5,7,13,-10,2,0
1537911366260469,0,2,3,2,11,15,-2,-2
1537911366275429,0,0,-4,7,-23,12,-1,-1
1537911366275429,0,1,0,-2,-30,-12,4,1
1537911366283408,-2,-2,-3,-2,-16,-5,-4,-2
1537911366283408,0,1,0,-6,5,-3,-4,-2
1537911366290389,-2,-1,-2,-1,9,-16,-3,-2
1537911366290389,2,1,2,6,3,4,1,-1
1537911366306347,1,-3,-1,-3,-3,7,-3,0
1537911366306347,-1,-2,-2,-8,-18,-5,0,1
1537911366313328,-2,-2,1,15,24,4,-2,-1
1537911366313328,-2,1,4,27,-39,-14,-4,-1
1537911366329286,-1,-3,-2,-20,8,15,1,1
1537911366329286,-3,-4,-5,-9,8,5,2,0
1537911366335269,-1,-1,2,16,-10,-7,-3,-2
1537911366335269,0,0,-1,4,1,7,0,0
1537911366345243,0,1,5,10,-22,-14,2,0
1537911366345243,-2,-5,-6,-7,1,5,-1,0
1537911366350230,-2,-3,-1,-5,19,3,-1,-1
1537911366350230,-2,-2,-1,-9,-16,-9,-4,-4
1537911366367185,-1,-3,-1,-3,5,6,-3,-1
1537911366367185,1,4,4,0,6,2,0,3
1537911366373168,0,-1,1,0,-2,-3,0,-2
1537911366373168,-2,-1,-3,-8,7,5,0,0
1537911366389125,1,1,-2,-6,-5,-1,-3,-2
1537911366389125,-1,-1,0,-2,-1,3,2,-2
1537911366395117,0,-1,-1,-2,-4,-2,-3,0
1537911366395117,-1,-1,0,-1,5,3,0,0
1537911366404086,-4,-1,-4,-4,2,2,-3,-3
1537911366404086,-2,-2,-1,-5,-9,-6,-5,-3
1537911366410069,0,1,0,4,8,1,1,1
1537911366410069,0,-1,-2,-2,4,1,4,0
1537911366427024,0,-2,-2,-1,-2,2,1,0
1537911366427024,1,0,2,2,2,2,-1,-2
1537911366433008,-3,0,-1,0,1,-4,8,3
1537911366433008,0,-2,0,-1,-1,-2,-1,1
1537911366448965,-2,-3,0,-6,-5,2,-4,-3
1537911366448965,-1,-1,8,-2,0,-2,0,0
1537911366455947,-2,1,8,12,9,3,-10,-5
1537911366455947,-2,1,7,33,1,-60,-9,-4
1537911366465920,3,13,38,114,30,42,16,3
1537911366465920,-7,-9,-28,-88,-40,-90,-32,-7
1537911366480880,14,13,9,-56,2,-1,14,12
1537911366480880,-5,5,37,82,24,-98,-38,-8
1537911366481877,14,13,9,-56,2,-1,14,12
1537911366481877,-5,5,37,82,24,-98,-38,-8
1537911366481877,-2,-2,-3,-2,-16,-5,-4,-2
1537911366481877,0,1,0,-6,5,-3,-4,-2
1537911366487862,-2,-1,-2,-1,9,-16,-3,-2
1537911366487862,2,1,2,6,3,4,1,-1
1537911366488859,1,-3,-1,-3,-3,7,-3,0
1537911366488859,-1,-2,-2,-8,-18,-5,0,1
1537911366494843,5,-2,-25,-125,-74,-39,60,8
1537911366494843,-18,-31,-64,32,87,-51,-51,-23
1537911366495840,4,0,-4,-89,-118,14,41,14
1537911366495840,-1,-14,-61,-18,80,53,-6,-11
1537911366509803,8,37,107,114,76,9,-22,3
1537911366509803,-2,-18,-78,-91,-84,-3,48,9
1537911366515786,-14,-11,4,125,127,-111,-48,-21
1537911366515786,25,11,25,42,-30,59,5,8
1537911366524762,-27,-33,-64,-60,-27,49,-6,-3
1537911366524762,13,44,123,127,26,22,-6,1
1537911366537727,-9,-12,-34,-102,-6,41,-14,-6
1537911366537727,-11,-13,-8,12,-8,-47,-3,-7
1537911366546704,6,14,60,64,34,-25,-25,-2
1537911366546704,-11,-13,-37,-6,31,0,15,-6
1537911366560666,4,9,3,63,62,-53,-31,-8
1537911366560666,-8,-17,-46,-128,-117,57,24,10
1537911366569643,-2,-19,-30,11,38,3,8,1
1537911366569643,8,11,43,99,-55,-20,21,9
1537911366575626,1,-8,-14,67,54,-14,16,0
1537911366575626,2,13,19,85,113,19,8,4
1537911366584603,-3,-16,-61,-128,-123,12,10,3
1537911366584603,2,13,28,54,35,-51,-36,-12
1537911366597568,3,9,-1,-10,-23,19,32,12
1537911366597568,-1,17,44,99,-108,-9,-19,-1
1537911366606544,-6,-13,-50,-44,-6,-9,-23,-11
1537911366606544,-5,-13,-45,-128,54,12,-4,-2
1537911366620509,3,9,36,109,-20,27,-4,-3
1537911366620509,-6,0,29,76,78,-5,-3,-4
1537911366629484,-1,-5,-18,-28,-39,-30,-4,-4
1537911366629484,2,-6,10,43,-41,87,11,4
1537911366635468,-8,-10,1,65,-10,-34,-46,-12
1537911366635468,6,-1,-15,-110,32,62,57,13
1537911366644443,-4,-5,-2,68,33,-27,-15,-7
1537911366644443,-1,-3,-5,-17,29,19,19,4
1537911366658406,0,8,38,33,-33,13,5,0
1537911366658406,-7,-13,-37,-62,-61,18,11,0
1537911366667381,3,7,13,101,-16,-51,-6,-1
1537911366667381,-1,-4,-5,-21,16,26,-3,0
1537911366689322,4,7,9,-101,-73,60,29,8
1537911366689322,-1,-1,-5,-58,-9,-45,-4,3
1537911366690320,0,3,4,81,97,28,-24,-7
1537911366690320,-1,0,-6,35,-110,-64,-5,-2
1537911366703285,-4,-8,-4,-34,-49,6,-2,1
1537911366703285,-2,-1,1,-15,57,16,-19,-8
1537911366712261,1,-2,4,-94,-26,17,9,4
1537911366712261,3,12,24,29,-9,-24,-14,-2
1537911366726224,-5,-16,-40,-76,-9,29,11,0
1537911366726224,-2,-1,6,18,-32,-6,-6,-4
1537911366733205,-1,3,4,23,-34,-53,-8,-2
1537911366733205,4,8,14,0,38,31,19,5
1537911366749163,-1,2,3,40,-22,-19,-11,-1
1537911366749163,-4,-8,-24,-31,-7,-7,0,-3
1537911366751157,-2,-5,-24,-77,16,-5,15,-3
1537911366751157,-2,-5,-6,-34,1,11,-7,-2
1537911366772101,-4,-1,3,63,29,4,-3,-1
1537911366772101,-2,0,-3,-14,-49,-34,-11,-7
1537911366773099,0,1,8,15,-10,24,-12,2
1537911366773099,0,-6,-13,-54,7,-47,4,0
1537911366786064,0,0,-4,-24,17,62,9,1
1537911366786064,-4,-4,0,-14,-4,-20,-20,-5
1537911366793045,-4,-5,-12,-3,-39,-31,-6,-4
1537911366793045,0,8,28,122,4,36,2,0
1537911366809003,-1,-5,-18,-50,20,-43,0,0
1537911366809003,1,2,6,16,10,-12,-13,-5
1537911366810997,2,3,5,18,27,29,4,5
1537911366810997,1,4,19,104,27,25,-3,0
1537911366831942,-4,-7,-22,-94,-17,-45,-9,-5
1537911366831942,-2,-3,-2,37,42,71,31,6
1537911366832939,-1,-2,-4,-10,-7,-25,-11,-1
1537911366832939,1,3,7,34,-10,41,26,5
1537911366845904,2,6,21,65,3,-14,-13,-5
1537911366845904,-5,-8,-6,27,5,-16,3,0
1537911366861862,1,4,10,38,26,22,-1,-1
1537911366861862,-1,-6,-20,-74,59,7,-6,-1
1537911366870837,-4,-7,-9,-42,-58,-30,-13,-4
1537911366870837,1,1,2,24,-26,1,10,2
1537911366871835,-3,-6,-19,-72,17,14,-1,-2
1537911366871835,0,6,13,8,7,38,-1,-1
1537911366891781,0,4,8,39,33,-16,-9,-1
1537911366891781,-3,-4,-1,-26,-8,-30,-3,-3
1537911366893776,4,9,30,98,11,-1,13,3
1537911366893776,-5,-18,-47,-98,-80,-23,7,-3
1537911366906741,-1,-3,-4,-20,4,0,1,0
1537911366906741,1,0,-5,-19,-25,-3,-4,1
1537911366912725,1,5,16,52,1,11,7,3
1537911366912725,0,-1,2,-21,-8,-3,10,0
1537911366929680,-1,0,0,56,-1,14,8,-3
1537911366929680,2,4,9,34,10,-48,-11,-1
1537911366930677,-2,-6,-12,-100,-21,0,-2,-4
1537911366930677,1,1,11,28,7,36,-11,-1
1537911366951621,-2,-5,-11,-28,-5,10,9,0
1537911366951621,2,5,9,25,3,28,-5,1
1537911366953616,-1,-2,-8,-10,5,-21,-8,-1
1537911366953616,-2,-2,-1,-10,0,-10,-3,1
1537911366966581,-2,1,3,28,14,5,5,1
1537911366966581,0,0,-3,-23,-5,14,-3,-2
1537911366972565,-1,-2,0,4,-13,8,5,0
1537911366972565,-1,0,0,-8,-14,-13,-5,-2
1537911366989520,1,1,2,16,11,14,0,1
1537911366989520,-1,0,0,-8,1,-2,3,1
1537911366990517,-1,-1,-3,-4,-10,3,-11,-4
1537911366990517,1,1,8,15,1,-10,7,4
1537911367011461,-1,-3,-4,-3,13,13,5,-1
1537911367011461,-1,-2,-2,-9,-3,-3,-2,0
1537911367013456,0,-3,1,11,0,17,6,-1
1537911367013456,-1,0,-4,-12,-4,-6,-7,-1
1537911367025424,-2,1,2,3,0,-7,4,1
1537911367025424,-1,-1,-1,-5,-7,-9,-4,-2
1537911367034401,-1,0,-1,18,-4,-13,5,-1
1537911367034401,-2,-2,-1,-20,0,-9,-9,-3
1537911367049360,1,-1,-2,4,1,4,2,0
1537911367049360,-2,1,3,16,1,5,0,0
1537911367050358,-2,-2,-2,0,2,-7,-4,0
1537911367050358,-1,1,0,15,-1,12,-8,-2
1537911367073296,-3,-1,-2,-2,-6,-3,-1,0
1537911367073296,1,-2,-4,-4,0,10,0,-1
1537911367074293,0,-2,-1,1,-5,-8,2,-1
1537911367074293,-1,0,2,6,-1,-7,-3,0
1537911367085264,-2,-1,2,4,4,-2,-3,-3
1537911367085264,0,-2,-1,-8,-2,-5,-3,-1
1537911367094240,0,1,0,-3,-3,-1,0,1
1537911367094240,-1,-1,1,-3,-1,-8,2,-1
1537911367109201,-2,-2,-2,-5,1,-5,-2,-1
1537911367109201,-1,1,1,-10,0,-1,1,-2
1537911367111195,1,-1,3,-2,-2,1,-1,1
1537911367111195,-1,-3,-1,-5,-3,-2,1,-3
1537911367132139,0,0,-1,-2,-2,-3,-3,-1
1537911367132139,-1,-3,-2,-2,0,0,2,0
1537911367133136,0,1,2,-3,-3,-2,0,-1
1537911367133136,-2,-5,-4,-5,-2,-7,-2,-2
1537911367145104,0,-2,-1,-1,1,3,-2,1
1537911367145104,-2,1,2,0,0,7,0,-2
1537911367154080,-1,1,2,-2,-1,10,3,0
1537911367154080,-1,0,3,-3,1,4,0,-1
1537911367169040,-1,-1,1,1,1,4,1,-2
1537911367169040,-3,-1,2,-4,-9,-10,-24,-9
1537911367171035,3,0,2,5,10,17,21,8
1537911367171035,1,0,-2,-1,-3,-5,-3,-3
1537911367191979,-1,-2,-3,1,2,-17,2,2
1537911367191979,-1,1,-2,-2,0,8,-2,0
1537911367192977,-2,6,3,-12,-26,14,-24,-13
1537911367192977,1,-4,-4,1,11,8,25,12
1537911367205943,-2,-1,-2,-5,-3,-2,-5,-4
1537911367205943,0,-1,-1,-1,-4,-8,9,1
1537911367214919,-2,-1,-3,0,1,-15,-8,-3
1537911367214919,1,2,0,0,-1,-1,-3,0
1537911367229879,0,2,0,-1,-6,-6,-8,-5
1537911367229879,-1,-1,-3,-5,-4,-17,-2,-1
1537911367230877,1,-4,-5,7,16,11,12,10
1537911367230877,-3,-2,-1,-1,-1,-12,-6,-4
1537911367251820,-3,-3,-4,-3,3,13,4,2
1537911367251820,-1,-4,-4,-5,2,-1,1,-3
1537911367253814,-2,0,-4,-11,-3,-12,-9,-5
1537911367253814,-1,-3,-5,-9,-1,-2,-9,-5
1537911367265782,1,0,-7,-5,-2,6,11,5
1537911367265782,1,-3,-11,-8,-1,8,5,1
1537911367274758,-3,-4,-5,-2,2,-6,-4,-4
1537911367274758,-2,1,0,2,-2,-16,4,0
1537911367289717,0,-2,5,2,-6,-1,-13,-6
1537911367289717,-2,-1,5,13,3,3,8,4
1537911367290715,-1,-2,5,6,1,-11,-2,-1
1537911367290715,-3,-2,2,4,-6,-24,-13,-7
1537911367311659,-1,-4,2,9,4,20,20,7
1537911367311659,-1,1,3,1,-4,-6,-8,-3
1537911367313654,1,2,5,3,-3,-22,2,1
1537911367313654,-2,-1,2,0,-5,14,-4,-2
1537911367325621,-1,1,1,0,1,-12,-5,0
1537911367325621,0,-2,0,0,1,7,5,0
1537911367334598,-3,-2,-1,0,-2,-2,6,1
1537911367334598,-1,0,0,1,-2,4,-3,-2
1537911367356539,0,3,2,0,3,-22,-19,-6
1537911367356539,-1,-2,-3,-2,1,-3,0,1
1537911367358534,-1,-2,-4,-3,-3,-8,-3,-3
1537911367358534,0,-3,-2,-2,-1,23,2,1
1537911367371500,-2,-1,-2,-4,-4,-3,-5,-2
1537911367371500,-1,0,1,-2,-3,-3,0,0
1537911367373495,-2,-6,-4,0,1,3,3,1
1537911367373495,0,-1,0,-2,-4,-6,1,0
1537911367385462,-1,0,-2,0,0,-1,0,-1
1537911367385462,0,0,-2,-2,-2,-6,-7,-2
1537911367394439,0,0,-3,-2,-2,11,5,1
1537911367394439,1,2,1,2,1,1,2,-1
1537911367408401,-2,-3,-2,-2,-1,3,-2,-3
1537911367408401,2,1,0,1,1,2,2,0
1537911367417377,1,0,-1,-1,-1,5,-2,-3
1537911367417377,0,-2,-2,0,0,-1,1,0
1537911367432337,-1,-1,-3,1,1,0,0,-1
1537911367432337,-1,-1,-1,0,0,0,-1,0
1537911367433336,-1,0,-2,-2,-3,0,-4,-4
1537911367433336,0,0,1,1,0,-3,0,1
1537911367445304,-1,0,1,1,1,3,3,2
1537911367445304,0,-1,1,0,1,3,-1,0
1537911367454279,-1,-1,1,0,0,2,-2,0
1537911367454279,0,1,1,0,1,-4,-4,-1
1537911367468241,1,-4,1,1,0,3,0,1
1537911367468241,-2,-1,-1,0,-2,-1,2,0
1537911367475222,0,-1,-1,-1,1,-1,0,-1
1537911367475222,-2,0,0,-3,-2,1,-1,-1
1537911367492177,-2,0,0,-2,-2,0,-1,-2
1537911367492177,0,1,0,0,-1,-3,-1,-1
1537911367493174,-1,-2,-2,-2,-1,2,1,1
1537911367493174,-1,0,-1,-1,-1,-1,0,-2
1537911367505142,1,0,0,-1,0,-1,-1,-2
1537911367505142,-1,0,2,0,0,1,0,-2
1537911367514119,-1,-2,-4,-1,-1,-1,-2,-1
1537911367514119,0,-1,0,0,0,0,1,-1
1537911367528080,1,0,-1,-2,-2,-1,0,-1
1537911367528080,-2,-1,-2,-3,0,-3,0,-2
1537911367537057,-1,0,2,0,-1,1,1,-1
1537911367537057,0,-1,-1,-1,-1,1,0,0
1537911367552017,-1,-2,-2,-1,-2,1,0,-2
1537911367552017,-1,-2,-2,0,-1,-4,-2,-1
1537911367553014,-1,-2,-1,-1,-1,1,-2,0
1537911367553014,-2,-1,-2,-1,-1,0,0,0
1537911367564982,-2,-2,1,-2,0,-2,0,-2
1537911367564982,1,-1,-2,-1,-2,-1,-1,0
1537911367573958,-1,0,-1,-1,-3,1,0,0
1537911367573958,0,1,0,-2,-1,-3,-3,-1
1537911367588918,-1,-1,-2,0,-1,0,1,-1
1537911367588918,-1,1,-1,-1,-1,2,-2,0
1537911367595900,0,0,0,0,-2,-1,-1,0
1537911367595900,-2,-1,-2,1,-2,1,1,0
1537911367611856,-1,-1,-2,-1,0,0,1,0
1537911367611856,-1,0,-1,0,0,-1,1,-1
1537911367612854,-1,-1,1,-1,-1,-2,0,-1
1537911367612854,0,-3,-1,-1,0,0,1,-2
1537911367625819,-2,0,-1,-1,-1,-2,-2,-1
1537911367625819,-1,0,0,1,-2,0,2,1
1537911367634795,-1,-1,-2,-1,-1,-1,-2,1
1537911367634795,0,-3,1,0,-2,0,-1,-1
1537911367649755,-1,-1,-2,0,-1,-2,0,-1
1537911367649755,-1,0,1,3,2,-1,-3,-1
1537911367650753,-1,0,6,59,-2,-6,-2,-1
1537911367650753,-1,0,3,20,30,31,-1,-2
1537911367671697,2,8,18,83,-21,-24,-8,-2
1537911367671697,-2,-4,-2,-64,1,-37,2,1
1537911367673691,3,13,32,64,-102,-7,-3,-3
1537911367673691,-1,5,23,-17,95,57,-2,1
1537911367694635,-5,-11,-9,94,-69,-61,-1,-3
1537911367694635,-7,-16,-51,-71,91,47,-22,-6
1537911367695633,-11,-38,-87,-128,8,59,45,8
1537911367695633,1,4,36,69,76,-16,-27,-10
1537911367708598,6,7,10,-31,-44,4,-3,6
1537911367708598,0,-6,-14,-41,-63,-78,26,2
1537911367715580,4,22,56,106,-30,-100,-24,-8
1537911367715580,-9,-17,-54,-118,-126,-52,31,8
1537911367731536,1,9,28,4,-8,-46,-11,-4
1537911367731536,1,7,8,-43,30,-33,-12,0
1537911367733531,-1,4,3,52,59,-35,1,0
1537911367733531,14,43,98,127,-98,-38,9,7
1537911367754475,-24,-53,-102,-128,18,-11,-11,-11
1537911367754475,-6,-10,-15,101,72,51,-12,-8
1537911367755473,2,5,23,93,-93,2,-6,-4
1537911367755473,-4,-18,-42,-96,75,58,-10,-4
1537911367768438,7,18,32,88,8,58,11,2
1537911367768438,2,0,-12,-22,31,37,-23,-3
1537911367775419,-1,-2,-9,12,112,104,4,-3
1537911367775419,-1,-4,-29,-50,-69,15,-7,0
1537911367791376,3,5,-16,-79,84,38,25,3
1537911367791376,1,2,20,-32,-84,0,5,2
1537911367793371,-5,-12,-21,-87,62,12,3,2
1537911367793371,3,1,0,49,-20,32,-16,-6
1537911367814315,5,10,28,94,88,24,-1,2
1537911367814315,-1,-1,-5,-13,-14,-2,2,-3
1537911367815313,1,2,1,2,34,-22,2,2
1537911367815313,-8,-17,-32,-36,-7,-53,-6,-4
1537911367828278,-3,2,3,-61,-23,-23,-15,-5
1537911367828278,12,31,76,127,-37,8,18,10
1537911367837254,-9,-17,-42,-128,-72,-14,-10,-5
1537911367837254,-11,-20,-25,-26,35,-34,-6,-8
1537911367852214,5,13,35,95,13,14,3,3
1537911367852214,-6,-14,-33,-81,-1,5,-1,-1
1537911367853212,5,8,16,50,1,0,-1,1
1537911367853212,3,10,17,51,-23,8,3,-2
1537911367875153,-5,-16,-55,-124,68,33,3,-1
1537911367875153,-1,0,10,40,-44,-3,-3,-2
1537911367877148,-2,-3,2,49,24,15,-10,-3
1537911367877148,-1,-7,-27,-52,-57,2,11,4
1537911367888118,0,2,15,58,47,1,2,0
1537911367888118,-4,-3,-8,-56,-77,-6,13,3
1537911367897094,5,14,34,63,-27,-5,-5,-3
1537911367897094,1,-6,-35,-56,75,-4,15,6
1537911367912054,-1,-7,0,2,-128,-6,-6,-2
1537911367912054,4,10,23,116,4,10,-16,-3
1537911367913052,-2,-9,-23,-92,-107,0,4,1
1537911367913052,1,7,23,-19,-37,-2,-1,0
1537911367933996,-3,-2,-7,-10,-25,-3,0,2
1537911367933996,-2,-5,-15,16,115,16,1,-4
1537911367935992,3,10,19,87,81,19,0,0
1537911367935992,1,7,22,125,19,7,-3,-1
1537911367947960,-2,-13,-33,-81,-16,9,-1,1
1537911367947960,-1,3,16,58,-42,0,9,0
1537911367956935,-2,0,0,66,-48,-13,-8,-2
1537911367956935,-3,-11,-22,-66,65,-6,0,-2
1537911367971895,2,9,18,55,-16,-10,-3,-2
1537911367971895,3,6,12,38,18,-9,1,0
1537911367972893,-3,-8,-11,-20,-56,-13,-3,-2
1537911367972893,-4,-4,-3,-20,8,-6,-8,-4
1537911367994833,0,5,13,15,-1,-1,9,1
1537911367994833,-1,-7,-13,-45,19,-6,-3,2
1537911367995832,-2,-2,-6,-32,5,0,15,4
1537911367995832,1,6,17,93,-42,-2,-1,0
1537911368016774,-3,-5,-10,-30,-4,1,-3,-4
1537911368016774,-1,-3,-5,-34,-45,2,-11,-5
1537911368018769,4,6,14,31,12,-3,1,4
1537911368018769,1,4,16,120,21,-2,-6,-3
1537911368031735,-2,-4,-11,-89,14,4,-1,-2
1537911368031735,1,4,24,99,19,8,-8,-4
1537911368033730,-7,-15,-40,-128,-12,-4,-13,-10
1537911368033730,-4,-8,-16,-67,-73,-20,-8,-4
1537911368054674,0,5,8,102,-10,-11,-7,-1
1537911368054674,0,-2,-5,-50,-87,-9,5,3
1537911368055671,-1,4,8,27,70,-1,-8,-5
1537911368055671,2,7,23,76,39,-5,-1,4
1537911368068637,-5,-9,-5,-55,-76,-2,-8,-7
1537911368068637,-2,-8,-32,-115,61,-4,-4,-2
1537911368075619,1,2,17,68,-7,-13,11,5
1537911368075619,0,-3,2,9,-84,11,-4,3
1537911368091574,4,8,23,122,-10,2,6,2
1537911368091574,0,3,12,102,17,-9,6,0
1537911368093569,0,1,2,28,-31,32,-5,-1
1537911368093569,-10,-15,-25,-9,47,-13,-15,-9
1537911368114513,-1,-3,-24,-53,-43,0,8,4
1537911368114513,-4,-7,-9,28,-9,-14,0,-1
1537911368115510,0,2,9,10,52,4,-5,-2
1537911368115510,6,11,18,16,49,6,5,2
1537911368128475,1,3,17,57,115,1,-1,1
1537911368128475,-6,-12,-17,-55,-101,6,1,-5
1537911368135456,0,-1,-7,-5,36,2,2,2
1537911368135456,-1,0,-7,-1,23,1,17,6
1537911368151414,4,6,20,48,35,-2,4,0
1537911368151414,-4,-5,-6,-37,38,0,-5,1
1537911368153409,-1,-2,-3,23,-9,9,6,-2
1537911368153409,0,2,-1,-81,27,2,3,-1
1537911368174353,-6,-11,-20,-68,-80,-8,-5,-5
1537911368174353,-1,1,-3,-47,-43,-4,4,4
1537911368175350,0,-1,-2,-5,-18,-10,-4,-1
1537911368175350,1,6,8,64,53,8,1,1
1537911368188316,-2,-4,1,-21,-27,-15,-7,-2
1537911368188316,1,2,3,61,8,1,12,1
1537911368197292,-2,-6,-18,-65,70,-2,-5,-2
1537911368197292,2,3,11,38,-17,11,4,2
1537911368212252,-1,-3,-4,10,54,-1,-4,-1
1537911368212252,1,6,10,28,28,5,-1,1
1537911368213249,-1,2,10,-32,-20,-14,-5,-3
1537911368213249,-1,-4,-8,-22,-35,-7,6,0
1537911368234193,0,3,-1,7,-26,8,4,-1
1537911368234193,0,-1,-3,-32,44,2,-1,-1
1537911368236188,-1,-3,-1,-4,8,20,-1,0
1537911368236188,-3,-5,-7,7,-38,-2,-8,-3
1537911368248157,0,0,0,-75,-55,6,-3,0
1537911368248157,2,4,6,77,61,-1,-4,-3
1537911368257134,0,2,-10,-76,-63,-15,0,-1
1537911368257134,-2,-4,5,25,34,-5,-1,0
1537911368272093,-3,-4,-14,-10,36,2,-2,-2
1537911368272093,-1,3,17,62,-16,1,-10,-1
1537911368273090,-3,-10,-19,-69,-35,-2,16,2
1537911368273090,0,5,3,9,-27,-1,5,-1
1537911368294033,1,-2,-3,3,0,-4,-2,-1
1537911368294033,0,2,2,5,-39,0,-2,0
1537911368296028,0,2,5,18,28,-1,-9,-2
1537911368296028,-1,0,0,19,-22,-8,-2,-1
1537911368307995,0,1,2,8,18,15,2,2
1537911368307995,1,1,9,39,-60,7,-4,-2
1537911368316972,2,2,22,127,-29,7,-1,2
1537911368316972,-5,-16,-35,-128,-18,96,-3,-5
1537911368331931,0,0,5,61,3,57,1,1
1537911368331931,2,9,22,-12,-7,21,1,0
1537911368332929,-11,-23,-59,-83,71,-65,-2,-6
1537911368332929,-3,-4,-13,-37,-5,-128,-4,-2
1537911368353873,1,8,25,116,76,-105,9,4
1537911368353873,-10,-22,-60,-128,-75,-99,-4,-6
1537911368355868,6,13,32,127,3,2,0,4
1537911368355868,-2,-4,-15,5,-66,11,0,-3
1537911368367836,-1,-2,1,4,-5,76,-4,-2
1537911368367836,4,8,14,52,11,82,3,1
1537911368376812,0,3,6,-19,5,3,-6,-1
1537911368376812,3,10,25,124,-12,-9,0,0
1537911368390775,-2,-3,-14,-70,-29,20,5,1
1537911368390775,0,-3,2,15,30,43,-1,-2
1537911368397756,-2,-3,-14,-1,-10,31,-14,-6
1537911368397756,3,12,38,120,33,16,-5,-1
1537911368414711,-7,-21,-50,-83,-91,4,-14,-8
1537911368414711,-1,-3,0,26,25,67,4,1
1537911368415708,-2,-3,-15,-67,56,60,9,3
1537911368415708,2,7,15,48,0,-21,-3,0
1537911368427676,2,3,14,19,12,-37,4,2
1537911368427676,-1,-2,-1,17,30,-35,-6,-3
1537911368436652,2,3,1,-48,2,-11,-2,0
1537911368436652,-2,-5,-13,-84,6,35,0,-2
1537911368451612,1,0,-3,-58,-8,15,-3,-2
1537911368451612,-2,0,7,13,23,24,0,0
1537911368457595,-3,2,16,39,-29,32,-2,0
1537911368457595,-1,-6,-14,-47,8,5,4,2
1537911368474550,-2,2,4,24,45,-37,-3,-2
1537911368474550,0,3,6,4,-8,-77,-1,0
1537911368475547,-2,-3,-1,-2,-13,-64,1,-1
1537911368475547,0,-1,-3,-31,5,-39,-1,-1
1537911368487515,1,3,11,33,-15,-52,-4,-2
1537911368487515,1,-2,-4,4,4,-50,3,0
1537911368496492,0,-1,0,10,-11,-44,-1,1
1537911368496492,-2,-3,-5,-18,-4,-60,-2,-1
1537911368511451,2,4,5,30,12,-35,4,1
1537911368511451,-1,-4,-7,-12,9,-14,10,3
1537911368517436,-2,-1,0,8,4,4,-5,-2
1537911368517436,1,1,1,-3,-5,24,1,0
1537911368534391,-2,-3,1,10,6,16,-2,-1
1537911368534391,1,1,-2,-18,-7,2,-5,-1
1537911368535388,2,-2,3,21,-16,-1,0,2
1537911368535388,2,-1,-3,-2,6,19,-2,-9
1537911368548353,2,-2,-1,6,-9,-5,-6,15
1537911368548353,-18,3,-3,-8,4,-5,9,-19
1537911368557329,14,-12,8,12,7,-4,-1,12
1537911368557329,-38,-3,-4,-35,-10,-4,-9,1
1537911368571292,100,39,5,0,13,28,15,4
1537911368571292,-34,-18,-10,-15,-15,3,-10,27
1537911368578274,-23,9,12,2,-10,19,10,-70
1537911368578274,-24,-22,-10,-3,6,27,4,26
1537911368594232,25,71,1,9,-4,18,-2,-2
1537911368594232,12,-32,-11,14,9,17,-1,10
1537911368596227,-61,-44,-10,11,2,11,8,-27
1537911368596227,7,-32,7,9,6,6,-3,3
1537911368617169,-15,-17,-3,7,0,13,7,23
1537911368617169,24,50,4,-12,-11,17,-10,-11
1537911368618167,7,12,6,-9,-14,0,-14,-2
1537911368618167,104,-4,-12,-16,-23,-23,-2,34
1537911368632129,-27,35,3,20,24,20,19,-67
1537911368632129,-14,-55,5,-8,-8,-19,-3,45
1537911368639110,-7,15,0,-2,-12,5,-14,16
1537911368639110,-24,-60,-11,21,23,16,14,-10
1537911368654070,-4,-21,-2,-13,-11,-16,-15,44
1537911368654070,-12,-1,-11,-15,-10,2,-13,-47
1537911368656065,-9,30,9,18,17,10,9,-4
1537911368656065,30,36,8,-4,-4,7,4,36
1537911368677009,-34,-29,-2,-9,-13,-3,-9,39
1537911368677009,-23,3,2,17,17,28,13,-89
1537911368678006,23,10,-4,-4,-2,-1,9,52
1537911368678006,63,47,13,2,1,-10,-22,-40
1537911368690972,-10,-47,-1,3,0,-27,-9,59
1537911368690972,52,112,40,6,-3,-12,-3,-3
1537911368697953,9,-100,-48,-8,-8,12,-6,28
1537911368697953,16,40,14,-7,-6,64,14,102
1537911368713910,75,40,10,4,5,98,0,27
1537911368713910,-11,17,-2,0,4,56,-2,15
1537911368715905,-55,21,14,21,16,97,-21,-54
1537911368715905,-65,83,5,22,13,61,2,-25
1537911368736849,-69,-122,-76,-14,-4,8,-15,-35
1537911368736849,-42,-43,7,-5,-4,87,-11,-4
1537911368737847,81,107,4,6,9,108,12,41
1537911368737847,-54,-49,8,-4,-5,127,13,-113
1537911368758791,34,13,53,15,8,-11,-4,-7
1537911368758791,8,73,11,10,5,-105,25,50
1537911368759788,-30,-35,-51,-8,-4,-128,-12,-90
1537911368759788,77,42,16,3,7,-121,22,91
1537911368773751,-65,-48,9,-2,-1,-48,-22,-83
1537911368773751,35,-120,-27,5,2,-33,39,45
1537911368774749,33,78,23,-4,-3,-41,-13,26
1537911368774749,-17,15,-3,-4,-4,-52,2,-7
1537911368795693,-17,6,0,6,4,-38,8,-69
1537911368795693,41,17,36,1,-4,-66,-24,73
1537911368796690,-2,-3,6,-2,-3,-52,-5,-105
1537911368796690,-44,-56,-34,-10,-4,-58,-18,12
1537911368819630,76,123,74,18,10,-34,54,108
1537911368819630,-67,-42,-62,-8,1,-9,-24,-114
1537911368819630,26,-14,-11,-11,-9,-24,-1,127
1537911368819630,-51,-19,6,-5,-7,-21,-12,-7
1537911368833592,62,27,47,11,2,9,32,64
1537911368833592,-41,-40,-58,-15,-8,14,-1,-24
1537911368834590,41,-16,17,0,0,4,-4,8
1537911368834590,30,-66,13,6,4,12,17,3
1537911368856531,-46,5,-30,-12,-8,16,-10,-28
1537911368856531,35,15,15,4,-2,11,-6,64
1537911368856531,-13,-76,12,7,8,28,30,-57
1537911368856531,31,0,13,-1,-2,1,-18,35
1537911368879468,7,-5,-29,-7,-4,-2,-19,-20
1537911368879468,28,29,12,-2,-1,0,-5,0
1537911368880465,-36,-40,8,7,5,10,25,-4
1537911368880465,-20,46,-6,-4,-6,-5,-10,-47
1537911368893431,-46,-34,-23,-6,-4,-1,-19,-44
1537911368893431,31,78,24,-1,0,5,10,42
1537911368894429,-56,-21,-2,1,-6,0,-23,-34
1537911368894429,-31,-36,-27,0,2,3,-4,-56
1537911368916369,-35,-14,-20,1,-4,-6,-22,47
1537911368916369,5,32,25,12,2,8,20,46
1537911368923351,-26,40,6,10,-6,-4,-10,-38
1537911368923351,-4,-90,-39,-8,-7,-6,-13,-17
1537911368930332,41,50,10,-3,-1,-2,-7,12
1537911368930332,-31,-72,0,-1,4,8,4,14
1537911368938311,-16,14,-2,-9,-3,-3,-4,32
1537911368938311,19,40,8,-8,-4,-4,-3,-8
1537911368953271,-30,25,3,-5,1,11,15,-56
1537911368953271,25,-15,-14,-9,-4,-2,-17,29
1537911368954269,-3,-4,2,-6,0,-2,9,64
1537911368954269,-8,15,1,2,3,5,-3,-43
1537911368976210,2,-39,-4,-2,-3,2,2,64
1537911368976210,-1,9,-7,-3,1,6,-4,-77
1537911368977208,3,17,19,-2,-3,-4,4,63
1537911368977208,-12,12,1,2,3,8,0,-21
1537911368990172,9,-1,-4,-2,-2,1,-7,3
1537911368990172,-39,2,-5,-4,-5,-1,-8,-12
1537911368998151,25,-41,-22,1,3,6,10,13
1537911368998151,24,28,-4,-1,1,2,3,-10
1537911369014108,-43,-42,-22,-9,-6,-3,-11,-37
1537911369014108,-4,-15,2,-1,2,2,6,-5
1537911369014108,47,34,11,-1,-2,-3,-11,-15
1537911369014108,-18,-13,-4,-3,-2,-1,3,-14
1537911369037047,-4,-3,-1,1,-2,0,3,-4
1537911369037047,21,30,5,3,4,1,-6,-14
1537911369038044,2,4,4,0,1,5,2,9
1537911369038044,-1,-29,-6,-1,0,0,0,-9
1537911369050012,15,7,-1,-7,-4,-4,1,-3
1537911369050012,-5,-14,-2,2,-1,-2,9,4
1537911369058988,4,4,-1,1,1,1,-2,-11
1537911369058988,2,11,6,1,2,-3,-3,37
1537911369073948,-2,-3,-2,1,3,6,6,2
1537911369073948,-3,-16,-5,-1,-1,-1,-2,-15
1537911369073948,2,-2,-5,-2,1,0,1,8
1537911369073948,1,13,3,-1,-2,0,1,-2
1537911369095890,-12,-16,-5,-2,-1,0,-8,-16
1537911369095890,7,5,2,0,-1,1,8,15
1537911369096887,5,-5,-1,-1,-2,-1,-2,14
1537911369096887,-8,6,0,-1,0,5,2,9
1537911369118828,20,3,1,2,1,0,-1,-4
1537911369118828,-1,-9,-2,-1,1,1,-1,6
1537911369119825,-2,3,-5,-4,-3,-2,0,5
1537911369119825,-9,2,0,0,-3,-5,-6,5
1537911369133788,-12,-4,-1,2,0,1,1,-5
1537911369133788,7,4,1,0,-1,-3,-2,-15
1537911369134786,-2,-6,-5,-1,-3,-2,-3,3
1537911369134786,-5,9,0,-1,-1,-2,-2,7
1537911369155729,-1,-1,1,0,-3,-1,1,0
1537911369155729,-5,-5,-1,-1,-1,0,-5,-6
1537911369156727,-2,0,-1,0,1,1,-1,-10
1537911369156727,-1,-1,3,-1,-1,-1,2,11
1537911369170689,-2,1,-1,-1,-1,5,-1,-6
1537911369170689,-3,-6,-3,-2,-1,1,-4,-8
1537911369178668,-1,-3,-2,-3,-1,2,-1,-2
1537911369178668,2,4,2,-1,-1,-8,0,6
1537911369193628,-4,-6,-4,-1,2,3,0,-5
1537911369193628,-2,-2,-2,0,-1,-4,-2,-3
1537911369194625,0,-1,-1,0,-2,-7,0,1
1537911369194625,-5,2,1,-1,-3,-18,-3,1
1537911369216567,-4,-2,-3,-3,-2,12,-1,-5
1537911369216567,-1,-4,-1,-1,-1,0,-1,1
1537911369216567,-2,2,-1,-2,-3,-7,0,-1
1537911369216567,-2,-1,-1,0,2,6,-2,0
1537911369230529,-3,1,2,1,-2,-4,-3,-2
1537911369230529,0,-3,-5,-3,-3,-5,1,-2
1537911369238508,-1,0,-2,2,1,-14,-3,0
1537911369238508,0,0,0,-4,-7,5,-5,2
1537911369254465,-1,-4,-3,-8,9,-22,0,-1
1537911369254465,-1,-1,-1,1,-3,18,3,-3
1537911369255463,-2,-3,0,1,1,-12,-3,-3
1537911369255463,-2,0,-1,2,-7,-10,-1,0
1537911369276407,-3,-5,-4,-2,-11,-9,-11,-4
1537911369276407,2,5,12,68,-2,19,-2,0
1537911369276407,-3,-2,-3,-45,9,-23,-32,-8
1537911369276407,0,-1,-7,-36,-17,14,13,3
1537911369290369,-6,-11,-9,-1,10,10,-4,-3
1537911369290369,4,7,10,32,17,2,-1,0
1537911369298348,0,5,20,57,-54,0,13,-3
1537911369298348,0,1,-16,-23,91,33,17,7
1537911369313308,0,-2,-13,-66,30,59,12,3
1537911369313308,-4,-7,-22,-91,0,-55,-26,-7
1537911369314306,-9,-13,-10,19,53,17,0,-4
1537911369314306,8,18,39,54,-22,-5,15,7
1537911369336247,-4,-1,-1,49,-90,-25,-19,-10
1537911369336247,-1,-6,-12,6,103,-9,4,3
1537911369337244,0,-6,-26,-128,-9,23,10,0
1537911369337244,-10,-18,-46,-35,67,-61,-8,-7
1537911369350209,7,27,93,104,-88,-33,-26,-2
1537911369350209,8,9,-20,-114,14,-6,16,9
1537911369358188,-7,-20,-41,85,69,-78,-23,-7
1537911369358188,3,3,15,-20,-103,63,5,4
1537911369373148,-8,-16,-41,73,103,-22,26,-2
1537911369373148,7,23,85,127,-57,-31,-8,-2
1537911369374146,4,6,11,16,73,21,21,9
1537911369374146,-16,-44,-107,-64,-53,-29,-17,-10
1537911369396087,5,-2,17,72,8,-3,-6,2
1537911369396087,-1,-5,-7,-14,-125,-10,4,1
1537911369397084,6,17,37,-34,84,31,-16,-1
1537911369397084,13,35,93,38,-115,13,-4,10
1537911369410050,-20,-33,-85,-91,118,64,-13,-14
1537911369410050,-2,8,29,127,-36,79,0,-5
1537911369419025,-4,-18,-65,-85,-111,43,15,6
1537911369419025,0,15,66,127,76,-26,-8,-5
1537911369433985,-11,-19,-52,-74,50,-73,0,-6
1537911369433985,11,36,94,116,34,-21,3,0
1537911369433985,-5,-16,-30,-66,5,-61,-11,-1
1537911369433985,-13,-24,-20,-28,7,-7,11,-7
1537911369455927,17,26,40,90,79,-81,-22,2
1537911369455927,-3,-21,-59,-87,8,-43,6,8
1537911369456924,2,2,15,94,-40,-36,-7,-6
1537911369456924,4,10,8,94,120,-52,-16,1
1537911369478865,7,18,35,41,-128,-69,10,3
1537911369478865,-11,-25,-79,-95,19,-54,-5,-4
1537911369479863,3,13,29,127,-27,25,0,-2
1537911369479863,-2,-5,-16,-16,82,-10,-12,-5
1537911369493825,7,25,68,111,-39,-2,20,12
1537911369493825,-4,-1,7,-14,18,48,-13,-5
1537911369493825,-21,-33,-60,-40,-52,-91,-4,-13
1537911369493825,-2,4,5,112,-46,-44,-28,-8
1537911369517762,1,-4,-19,-56,29,76,17,8
1537911369517762,-10,-18,-23,57,108,11,-4,-11
1537911369517762,24,50,103,127,109,69,25,20
1537911369517762,-13,-34,-74,-115,-128,-9,-5,-7
1537911369539703,-5,-10,-15,27,10,31,-6,-7
1537911369539703,-8,-14,-24,73,14,-24,-6,-6
1537911369539703,11,32,77,127,-57,5,-1,-1
1537911369539703,7,6,-4,-29,-10,-5,33,16
1537911369554663,-8,-18,-41,-128,-48,41,-12,-3
1537911369554663,-2,-4,-5,43,-80,73,7,1
1537911369554663,1,0,11,21,-35,52,11,3
1537911369554663,2,8,18,-24,-27,39,2,-1
1537911369575607,-3,-6,-4,50,44,9,-14,-6
1537911369575607,-1,-4,-10,-74,-82,9,6,2
1537911369576604,1,-1,-9,11,70,10,-2,2
1537911369576604,-3,-7,-15,-70,53,37,2,1
1537911369599543,2,7,13,-9,27,-8,-9,-2
1537911369599543,5,9,19,11,-2,-22,3,4
1537911369599543,-1,2,12,73,27,8,3,2
1537911369599543,-13,-17,-33,-53,17,15,-27,-11
1537911369613505,2,2,8,59,-17,7,13,3
1537911369613505,1,0,-7,-20,-25,-27,-17,-3
1537911369614503,-8,-14,-34,-50,31,-17,7,-3
1537911369614503,4,13,36,49,20,10,-4,0
1537911369636444,0,-1,-7,-32,-32,9,12,4
1537911369636444,-3,-7,-6,-14,-17,1,6,2
1537911369636444,0,0,6,51,-115,24,6,-1
1537911369636444,5,11,13,13,50,-14,0,-1
1537911369659383,2,1,11,67,-7,-5,-3,2
1537911369659383,-3,-10,-15,3,-28,-8,6,-3
1537911369660380,-2,5,9,21,-61,-12,-18,-5
1537911369660380,2,0,6,38,-6,23,41,10
1537911369674343,-3,-2,-4,16,47,21,-5,-2
1537911369674343,1,2,7,29,18,14,-8,-1
1537911369675341,1,1,-2,-18,27,13,6,2
1537911369675341,-3,-6,-5,35,-55,13,-10,-5
1537911369696284,1,3,-3,-85,8,-10,-1,-1
1537911369696284,-2,0,7,1,24,19,7,-1
1537911369696284,-3,-8,-20,-76,10,3,-6,-2
1537911369696284,1,6,7,18,23,4,1,0
1537911369719223,2,4,17,34,-34,0,9,3
1537911369719223,-6,-5,-14,-72,25,-13,-10,-3
1537911369720220,-2,-5,-15,-43,19,-7,2,-2
1537911369720220,1,2,5,16,8,8,-8,-2
1537911369733186,-4,-7,-15,-27,-41,15,3,-1
1537911369733186,-2,1,2,-2,34,14,0,-2
1537911369734183,-2,-5,1,0,-43,-8,-8,-2
1537911369734183,-1,0,-11,-18,32,7,-1,0
1537911369756125,0,1,8,-17,-1,9,1,-3
1537911369756125,-4,-5,-11,-18,7,-17,-1,-4
1537911369757122,-2,-3,-8,-30,-7,43,4,-2
1537911369757122,3,4,8,11,-24,76,-1,1
1537911369779063,0,0,-4,-12,5,44,4,1
1537911369779063,4,8,16,31,23,-29,-3,2
1537911369780060,-3,-5,-9,-22,-7,-126,-4,-2
1537911369780060,-1,-3,3,14,1,15,-4,-1
1537911369794023,-2,-1,-4,-7,-5,106,-1,-3
1537911369794023,0,3,6,2,-4,127,-1,-2
1537911369794023,-3,-7,-11,-24,12,-55,-2,0
1537911369794023,0,1,3,7,-5,-128,3,1
1537911369815965,-1,-3,-2,-8,-14,-61,0,3
1537911369815965,1,0,5,4,0,101,3,3
1537911369816962,1,4,2,-14,13,127,2,2
1537911369816962,-2,-4,0,-2,-6,98,7,5
1537911369840898,2,4,3,-3,-5,98,0,0
1537911369840898,-2,-6,-12,-10,3,77,1,-1
1537911369840898,1,3,-3,1,4,61,-7,-2
1537911369840898,-3,-3,-6,5,-10,-89,-3,-3
1537911369853863,-4,0,-4,-2,-3,-128,-4,-3
1537911369853863,-1,-4,-3,3,-1,-128,-3,-2
1537911369853863,-3,0,-1,1,-4,-118,-5,-3
1537911369853863,-2,-1,-1,5,-6,-98,-5,-1
1537911369876802,-3,-4,-7,-3,-2,-123,-3,-3
1537911369876802,-2,-1,-1,2,-3,-109,-2,-3
1537911369877799,0,-1,-4,-6,-1,-66,-4,-2
1537911369877799,-1,-1,-1,4,-1,-36,-1,0
1537911369899740,1,-1,0,-8,-4,-18,-2,0
1537911369899740,-1,-3,-3,-2,-2,-28,1,0
1537911369899740,-1,-2,-2,-3,3,6,-3,1
1537911369899740,0,0,3,2,-1,23,-2,-2
1537911369913703,-1,-2,-1,0,-2,3,0,0
1537911369913703,-1,1,2,-1,0,-11,-2,-1
1537911369914701,0,-4,-2,-3,1,9,1,0
1537911369914701,1,3,3,1,-2,16,-1,-4
1537911369935644,-1,-3,-5,-1,-4,-3,-3,-7
1537911369935644,2,-1,2,-3,1,-14,0,10
1537911369936642,3,-2,-4,0,0,6,1,10
1537911369936642,1,-4,-4,-3,-3,12,-1,6
1537911369959580,-15,2,1,-2,1,-1,-3,-32
1537911369959580,-14,-3,2,6,2,0,0,-7
1537911369959580,23,3,-4,-11,-7,3,-2,12
1537911369959580,-8,-4,-2,-2,-2,12,-1,-10
1537911369973543,7,-2,-3,-3,-2,-2,-4,7
1537911369973543,-8,0,-1,-1,-1,-2,-2,-5
1537911369974541,-8,-1,0,2,2,9,1,-1
1537911369974541,1,1,1,1,1,9,-1,4
1537911369996482,-4,-4,1,1,-1,11,-1,5
1537911369996482,5,3,1,1,-1,8,2,2
1537911369996482,-6,-4,-3,-1,0,7,0,-5
1537911369996482,1,0,1,-1,-2,10,1,-1
1537911370019420,-1,1,1,1,0,5,-2,-8
1537911370019420,6,3,0,-2,-3,0,-2,18
1537911370020418,-1,-1,0,0,1,5,-1,-2
1537911370020418,-6,-2,-1,-1,0,5,-1,-6
1537911370033384,4,0,1,1,-1,3,0,9
1537911370033384,2,-1,-1,-2,0,-2,-3,-10
1537911370034381,-8,-2,0,-1,-2,2,-3,-9
1537911370034381,0,2,1,1,1,-1,-1,6
1537911370056322,4,-2,-3,-3,-3,-3,-2,1
1537911370056322,-1,-1,0,-1,1,-3,2,-7
1537911370056322,0,0,-1,0,-2,-7,0,3
1537911370056322,-1,-5,-4,-6,-3,2,2,-3
1537911370079261,3,2,2,0,-3,-4,0,3
1537911370079261,-3,1,-1,-3,-3,-10,-7,-7
1537911370080258,-5,-6,-4,-2,2,2,3,0
1537911370080258,2,1,-1,0,-3,-6,-7,0
1537911370093223,-2,-3,-3,-1,-1,0,0,-1
1537911370093223,0,-1,0,-1,0,0,1,0
1537911370094221,-1,0,0,2,-1,-1,-2,-9
1537911370094221,-1,0,1,2,1,1,-5,-4
1537911370117159,1,0,-2,1,-2,-12,10,14
1537911370117159,2,2,0,2,-1,11,2,0
1537911370118157,-4,-4,-5,-3,-2,13,-3,-2
1537911370118157,0,4,-2,2,0,-22,-1,-3
1537911370139100,-1,4,10,57,-2,31,-15,-1
1537911370139100,4,8,33,107,-7,28,49,1
1537911370140098,-3,2,-12,-52,83,1,-27,-4
1537911370140098,3,3,23,94,-74,-52,40,9
1537911370153063,-8,-14,-36,-127,71,33,-38,-11
1537911370153063,3,-2,-3,101,29,-111,-34,4
1537911370161042,-2,-7,-30,-90,35,71,32,3
1537911370161042,-10,-15,-32,72,111,47,15,-4
1537911370176002,5,9,14,-43,-111,-64,-17,0
1537911370176002,-16,-35,-80,-25,80,44,-20,-15
1537911370176999,17,30,80,127,-119,-126,-17,8
1537911370176999,0,-3,-31,-128,127,-99,-27,5
1537911370198941,-1,0,27,127,25,74,31,0
1537911370198941,3,10,24,-121,-108,-9,-15,0
1537911370199938,4,13,39,120,56,21,13,2
1537911370199938,3,20,72,126,-128,31,-20,-6
1537911370212903,-6,-18,-69,-67,31,28,17,6
1537911370212903,-11,-23,-45,-68,-82,82,5,-7
1537911370220882,3,11,25,72,-12,10,-1,-2
1537911370220882,-15,-19,-21,-93,8,-56,-21,-8
1537911370235842,2,7,14,122,89,-14,7,-3
1537911370235842,6,13,20,92,27,-32,36,6
1537911370236839,0,-9,-38,-106,-76,11,42,3
1537911370236839,11,14,26,7,49,69,10,6
1537911370258780,-9,-11,-22,-71,64,-26,-12,-1
1537911370258780,-4,0,22,78,-28,44,-7,-3
1537911370259778,-1,-6,-14,-63,88,-88,-33,-1
1537911370259778,-2,-1,-1,19,43,-48,-24,-9
1537911370272743,2,-14,-51,-72,-75,-6,34,14
1537911370272743,4,5,51,120,86,-107,-4,2
1537911370280722,-6,-5,1,73,-40,46,-21,-10
1537911370280722,-1,-8,-28,47,4,56,-7,-3
1537911370295682,3,13,41,101,-20,-41,-9,-4
1537911370295682,2,7,-9,-77,12,-10,-20,-3
1537911370296680,-9,-15,-38,-85,-24,36,17,-2
1537911370296680,8,17,24,111,-41,-1,-6,2
1537911370319618,0,-7,-30,-69,-119,0,49,9
1537911370319618,-1,2,3,56,64,6,6,3
1537911370320615,-10,-10,-10,16,-20,-21,-17,-13
1537911370320615,3,3,-1,-51,4,49,2,0
1537911370332584,2,6,30,80,13,49,-16,-1
1537911370332584,-2,-7,-30,-121,-21,34,-16,-5
1537911370341559,-4,-4,-3,31,37,23,-14,-6
1537911370341559,5,6,27,40,-64,16,38,9
1537911370355522,-6,-10,-21,-11,58,4,-25,-10
1537911370355522,2,6,4,-20,-14,15,1,3
1537911370364498,-1,1,13,14,-24,-4,-8,3
1537911370364498,-3,-6,-16,-39,-53,15,11,3
1537911370380456,-1,2,17,-8,-21,-27,-14,-4
1537911370380456,-1,3,-1,5,-30,31,1,-2
1537911370382450,-3,-8,-22,-60,13,3,13,0
1537911370382450,-2,-4,-2,-22,-23,-9,-9,-2
1537911370401399,2,12,25,100,-55,-24,2,-2
1537911370401399,-7,-14,-40,-125,30,16,-6,-3
1537911370403394,4,5,9,24,21,-40,50,9
1537911370403394,-2,-3,0,8,23,-1,-2,0
1537911370415362,-1,-1,9,34,40,-2,-14,-3
1537911370415362,2,-1,3,-1,-74,15,6,4
1537911370424338,0,1,8,6,30,20,-8,-2
1537911370424338,-4,-9,-21,-40,17,0,-8,-6
1537911370439298,2,4,10,-33,-38,2,18,4
1537911370439298,-1,2,7,33,6,-2,-3,-1
1537911370440296,-2,-2,-6,14,-13,14,-3,0
1537911370440296,0,-1,-5,-10,14,40,5,0
1537911370453261,-1,-2,-6,-21,2,26,-15,-2
1537911370453261,1,1,8,21,7,-18,3,2
1537911370462237,-1,0,-1,12,-19,55,-12,-4
1537911370462237,1,1,-1,3,6,-49,7,3
1537911370476199,0,2,7,14,-4,-49,10,3
1537911370476199,-1,0,5,12,14,-63,-5,-2
1537911370483181,1,-2,-7,-15,-25,-53,-29,-2
1537911370483181,-4,-4,-9,-7,-10,53,-4,-3
1537911370499138,0,2,7,-6,1,-71,-3,-2
1537911370499138,0,0,5,10,-5,45,4,1
1537911370501133,-2,-4,1,28,7,17,-8,-3
1537911370501133,-1,-2,-1,-1,-14,41,0,2
1537911370522077,1,3,4,-16,9,118,-4,0
1537911370522077,3,3,9,2,13,123,6,5
1537911370523074,-1,-4,-3,-10,-23,127,5,-1
1537911370523074,1,-2,-5,1,11,-101,3,1
1537911370536040,-3,2,1,-11,1,121,1,-2
1537911370536040,-2,-3,-5,12,3,73,-4,-4
1537911370543021,-2,1,-3,0,-12,123,4,-2
1537911370543021,1,-1,0,4,-8,-52,-3,-3
1537911370558978,1,-3,3,11,13,-128,-6,-2
1537911370558978,0,3,3,2,-5,-128,-4,-2
1537911370560973,-2,0,2,5,6,-128,-2,-2
1537911370560973,-5,-4,-6,-1,-4,-74,-2,-1
1537911370580920,-3,-3,-6,-4,10,-92,-2,-2
1537911370580920,-1,-2,-6,-10,-4,-37,-1,-2
1537911370588898,-1,2,-2,7,6,-46,2,0
1537911370588898,0,-1,-1,-2,-3,6,-2,-1
1537911370594882,0,-2,-2,-3,-2,-5,1,0
1537911370594882,0,0,0,3,-1,-53,0,-2
1537911370603858,-2,-1,2,5,5,-90,-2,-1
1537911370603858,1,1,0,-2,-6,-37,-2,0
1537911370618819,-1,2,4,-1,3,-37,-4,-3
1537911370618819,0,1,2,3,2,-55,0,-1
1537911370620813,-1,-6,-4,-3,3,-57,1,-2
1537911370620813,0,-2,5,-6,-4,5,-1,-1
1537911370641757,1,-3,6,2,0,-3,3,1
1537911370641757,0,-1,5,-1,2,-18,0,3
1537911370642754,1,2,3,3,-1,-7,1,-1
1537911370642754,-4,-6,-8,-2,-3,25,-2,-2
1537911370655719,-1,1,-2,1,2,6,-3,-1
1537911370655719,-1,3,1,5,0,7,-3,-1
1537911370664696,-1,-6,-8,-5,0,3,0,0
1537911370664696,-1,-1,-3,0,-1,17,0,-1
1537911370679655,-1,2,1,1,1,7,-2,-3
1537911370679655,0,-3,-7,-9,-3,6,-1,-1
1537911370680653,-1,0,-1,2,2,3,0,-1
1537911370680653,-2,-1,-3,-3,-4,10,-1,0
1537911370701597,-1,-1,0,5,2,8,-1,-1
1537911370701597,2,3,0,-6,-14,5,0,-2
1537911370703592,-2,-3,-6,-5,11,-4,-2,-3
1537911370703592,-2,1,-2,-5,-2,4,0,1
1537911370715560,-1,2,4,9,4,7,-2,-3
1537911370715560,-1,-1,0,-3,-2,2,-2,-1
1537911370724536,1,1,6,18,2,0,0,-1
1537911370724536,-2,1,0,-33,-13,12,-1,-3
1537911370739496,-2,-6,-4,-7,3,4,2,1
1537911370739496,-1,-3,8,64,-2,-4,-1,0
1537911370740493,-3,-2,-13,-80,-4,2,-1,-2
1537911370740493,1,-1,-3,-10,2,5,-2,-2
1537911370761437,0,1,4,2,-2,5,2,1
1537911370761437,0,-3,-4,-9,1,-2,-2,-2
1537911370763433,0,0,7,42,7,2,2,4
1537911370763433,0,3,2,14,2,7,-2,-1
1537911370775399,-2,-1,-6,-9,-1,7,-5,-3
1537911370775399,-1,-2,-2,-4,3,5,2,1
1537911370784376,0,-1,-3,4,-6,-5,-2,-1
1537911370784376,0,5,4,-1,2,-1,1,-1
1537911370800333,-1,-4,-5,0,-3,-4,-1,0
1537911370800333,-1,2,2,-7,4,-2,-2,0
1537911370802328,-2,-3,-3,-1,-6,-4,-3,-3
1537911370802328,-1,-4,-2,0,0,1,-1,1
1537911370821277,-2,2,4,12,3,1,-1,-3
1537911370821277,-1,-2,-3,-1,3,-2,-2,-3
1537911370823272,0,-2,-1,-15,-6,1,3,2
1537911370823272,-1,1,1,10,1,2,-2,-1
1537911370835240,1,-3,-4,-16,-9,-1,-2,-1
1537911370835240,-3,-1,-4,-11,1,-1,-3,-2
1537911370844216,-1,0,1,0,-1,-2,-3,-5
1537911370844216,0,-2,-2,10,3,2,2,-1
1537911370859175,-1,3,3,-3,-2,-2,-3,-1
1537911370859175,-1,-1,0,-6,-1,2,6,2
1537911370861170,1,4,4,16,0,-3,-5,0
1537911370861170,1,-1,-3,-2,-1,1,2,1
1537911370882115,-1,-1,-3,-4,0,0,-1,0
1537911370882115,-1,-4,-6,-7,-1,-2,-2,-1
1537911370883112,-1,-1,2,6,0,-1,-1,-1
1537911370883112,0,0,0,-1,-2,-1,0,-2
1537911370895080,1,0,-2,3,0,1,-2,-1
1537911370895080,0,1,2,-4,-2,0,-1,-3
1537911370904056,-1,-3,-5,-5,-4,2,1,1
1537911370904056,-3,-1,-2,2,-2,-3,-4,-2
1537911370919016,-1,-1,0,0,2,1,3,1
1537911370919016,-2,0,0,-5,-1,1,-1,-2
1537911370921011,-1,1,0,3,-1,0,0,-2
1537911370921011,-1,-1,2,14,6,-1,-1,0
1537911370941955,-1,-2,-4,-12,-13,0,0,-1
1537911370941955,0,-3,-6,-11,4,-2,-2,-3
1537911370942952,1,0,1,5,2,2,3,2
1537911370942952,-1,0,3,8,6,0,-1,-2
1537911370954920,1,2,11,78,24,-1,1,0
1537911370954920,0,-7,-28,-98,-52,-2,0,1
1537911370963896,-2,-2,-1,-6,-9,-2,-2,-1
1537911370963896,-1,0,0,-2,10,1,-1,0
1537911370978856,-2,-3,0,8,8,-1,-2,0
1537911370978856,-1,4,9,35,19,2,0,-1
1537911370980851,-1,0,-1,2,5,1,-2,-1
1537911370980851,0,2,2,14,-5,-1,-1,0
1537911371001795,-1,-2,-6,-37,-19,-1,-1,0
1537911371001795,1,0,3,20,22,1,1,1
1537911371002792,-2,-3,1,12,-5,-3,-2,-2
1537911371002792,-1,-5,-11,-47,-10,0,2,-1
1537911371015757,-3,-4,-9,-54,-32,-5,-3,-3
1537911371015757,1,1,9,32,18,3,3,0
1537911371024733,1,0,4,-11,-19,0,-1,0
1537911371024733,-1,0,-2,-9,3,0,-1,2
1537911371038696,0,0,0,33,16,5,2,0
1537911371038696,-2,-3,-4,-38,-26,-4,-2,0
1537911371045677,-2,-4,-11,-23,8,0,0,-4
1537911371045677,-1,-1,2,3,-10,0,-1,-1
1537911371061634,-1,0,1,-9,14,0,0,2
1537911371061634,-1,1,10,25,-16,-2,-3,-1
1537911371063630,2,2,1,15,-1,-1,1,0
1537911371063630,-2,-7,-15,-23,-27,-2,-3,-2
1537911371075597,1,1,1,16,11,-1,0,-2
1537911371075597,-1,2,4,23,5,2,-2,0
1537911371084573,-1,-2,-2,-8,-7,-3,-1,-2
1537911371084573,-3,-3,-6,-16,-22,0,0,-2
1537911371099533,1,4,12,42,52,2,-1,1
1537911371099533,-2,-2,-10,-31,-5,-1,0,0
1537911371100531,0,0,-1,1,0,-1,-1,-1
1537911371100531,-1,-3,1,24,-9,-1,0,1
1537911371121474,0,2,0,-31,-22,-1,-2,-1
1537911371121474,-4,-9,-15,-11,0,0,0,-2
1537911371123469,-1,1,-1,14,18,1,2,-1
1537911371123469,0,1,3,5,5,2,-2,-1
1537911371135437,-2,-2,0,-1,-9,-1,3,-1
1537911371135437,1,2,1,4,2,-1,-2,-1
1537911371144413,-1,-1,4,8,-4,0,-1,0
1537911371144413,0,-1,6,13,14,-1,1,0
1537911371158376,-1,-3,-4,-16,-6,2,-1,0
1537911371158376,1,-1,4,11,2,-2,-1,-3
1537911371165357,-2,-2,1,-1,1,-1,1,1
1537911371165357,0,1,1,1,12,-2,-2,-2
1537911371181315,-2,-4,-6,-11,-14,-2,-2,-1
1537911371181315,0,-1,0,7,1,0,0,-1
1537911371183309,-1,-1,-2,3,3,-1,-2,1
1537911371183309,1,-1,0,-1,3,0,-1,0
1537911371195278,-1,-2,-3,-3,-8,1,0,0
1537911371195278,-1,-1,1,4,4,5,0,-1
1537911371204253,-2,2,1,-4,0,6,1,-2
1537911371204253,-1,2,4,5,2,4,0,-2
1537911371218216,-1,-2,-4,-3,-6,-2,0,1
1537911371218216,-2,1,2,0,5,-7,-3,-2
1537911371225197,-2,-5,-2,-3,-3,-7,-3,-1
1537911371225197,1,-5,-1,1,1,-7,-1,-1
1537911371242152,0,-4,-1,-3,-2,-4,-2,0
1537911371242152,1,-2,-2,-2,-1,-3,1,2
1537911371243150,1,-1,-2,1,-1,-1,-1,0
1537911371243150,-1,2,-1,2,3,2,-1,-1
1537911371255117,0,0,-6,-4,-1,1,1,-3
1537911371255117,-1,2,-3,3,1,1,-1,-2
1537911371264094,-2,-1,-4,-1,0,1,-2,-1
1537911371264094,-1,1,-1,1,2,0,1,-1
1537911371279053,-1,1,1,-2,-3,0,-2,-2
1537911371279053,-2,-1,2,3,-2,-1,-2,0
1537911371285038,-1,-1,0,-2,-2,0,-2,-1
1537911371285038,-1,-3,0,-1,-1,-2,-1,-1
1537911371301992,-1,-3,0,0,-4,-2,-1,0
1537911371301992,1,-1,-1,2,-2,0,0,0
1537911371302989,0,-1,0,-2,-1,0,-1,-1
1537911371302989,-1,0,-1,0,1,-2,-1,-1
1537911371314957,-2,-3,0,-2,-1,-1,0,-1
1537911371314957,-2,0,-2,-3,3,-2,-1,-2
1537911371323933,0,-1,-3,-2,0,-3,0,-2
1537911371323933,-1,0,1,-1,0,0,-1,0
1537911371338893,-3,-1,-1,-2,-1,-1,-1,-1
1537911371338893,0,0,-1,-2,1,1,-1,1
1537911371345875,0,0,-1,-1,0,0,0,-2
1537911371345875,-1,1,-1,1,-1,-2,-1,-1
1537911371361832,0,-1,-2,-1,0,-2,-1,-1
1537911371361832,0,-3,-1,0,0,-2,1,0
1537911371362831,-1,-2,0,-1,-2,-1,-1,-1
1537911371362831,-1,0,0,-1,0,-1,-2,1
1537911371375794,0,-1,0,-1,-2,2,-1,-1
1537911371375794,-1,-2,-1,0,-1,1,-1,-2
1537911371384771,0,-3,-1,0,-1,0,-1,0
1537911371384771,-2,-2,-3,-3,-1,0,0,0
1537911371398733,-2,0,-3,0,-2,-1,-1,0
1537911371398733,-1,0,2,0,-1,-1,-1,-1
1537911371405715,-1,-1,0,-2,0,-3,1,-1
1537911371405715,-1,-1,1,-2,0,-1,-1,1
1537911371422670,1,0,1,-2,0,-2,0,-1
1537911371422670,2,1,0,-2,0,-2,1,-2
1537911371423667,-2,-1,-1,1,-1,-2,0,-1
1537911371423667,-1,-1,-2,-1,1,-1,-1,-2
1537911371444611,-1,0,1,0,-3,-2,0,0
1537911371444611,-2,-1,-1,-2,-1,-1,0,-2
1537911371445609,-2,-1,1,-1,-1,0,-1,1
1537911371445609,0,-1,-1,-1,0,0,-1,-1
1537911371458573,-2,0,-2,0,0,0,-1,-3
1537911371458573,-1,-2,0,0,-1,-1,0,-1
1537911371465555,0,0,0,-1,-2,0,0,0
1537911371465555,0,-2,0,1,-1,-1,0,-2
1537911371481512,0,-1,1,0,0,-2,-1,-1
1537911371481512,-1,0,0,-1,-2,-1,-1,1
1537911371483507,0,-2,-1,0,0,0,-1,-2
1537911371483507,0,-1,-1,0,-2,-1,-2,0
1537911371504451,-1,-1,-1,-2,0,0,-1,-2
1537911371504451,-1,0,-3,0,0,-1,-2,-3
1537911371505448,0,0,-2,-1,-1,-1,1,0
1537911371505448,-2,0,0,1,-3,-1,0,1
1537911371519411,-2,-1,-1,-3,-1,-1,-1,-1
1537911371519411,-2,-3,-2,-1,0,0,-2,-1
1537911371520408,0,0,0,-1,0,0,0,0
1537911371520408,-2,-1,0,0,0,-1,-1,-1
1537911371541352,-2,-1,-1,0,-2,0,0,-1
1537911371541352,-1,-2,-2,0,-1,-2,0,-1
1537911371543347,-1,-1,-1,0,-2,-2,-1,-2
1537911371543347,-1,-2,0,-2,1,-1,-2,-1
1537911371564291,0,-2,-1,-1,0,-1,-1,0
1537911371564291,-1,-2,-1,-1,0,1,-4,-1
1537911371565288,-2,0,-2,-1,1,-1,-2,-1
1537911371565288,-1,0,-2,-1,-2,-2,1,-2
1537911371579252,-1,-1,-1,-2,0,1,1,0
1537911371579252,0,0,0,0,0,-1,-2,-1
1537911371585235,0,-1,-1,0,-2,-1,0,1
1537911371585235,-2,-1,-1,0,-1,-1,0,0
1537911371602190,0,0,-1,0,0,-1,-1,-1
1537911371602190,-1,0,-1,-1,-2,-2,2,0
1537911371603187,-2,0,0,-1,-1,-1,-1,-2
1537911371603187,0,-1,-2,-1,-1,0,-1,-3
1537911371624131,-2,-1,-2,-1,0,0,-1,-1
1537911371624131,0,0,-1,1,-2,-1,-1,0
1537911371626126,1,-2,-1,-1,0,-2,-1,-1
1537911371626126,0,-1,0,1,1,0,0,-2
1537911371638093,2,-1,-2,1,-1,-2,-3,-1
1537911371638093,-1,-1,0,-1,0,0,-2,-1
1537911371645075,1,0,-1,-1,-1,0,-2,0
1537911371645075,-2,-2,-1,-2,-1,-1,0,1
1537911371662030,0,0,-1,-1,-1,-1,-1,-1
1537911371662030,-1,-2,0,-3,-2,1,-1,-2
1537911371663027,-2,-2,-2,-1,-1,-1,-2,-1
1537911371663027,0,0,0,-1,0,0,0,-1
1537911371683971,0,1,1,-1,-2,0,-1,1
1537911371683971,0,-1,-1,1,-3,-2,0,0
1537911371685965,-2,-1,-2,-1,-2,1,-1,-1
1537911371685965,0,-2,2,-1,-1,-1,-1,-1
1537911371698931,-1,-2,0,1,-1,-1,-1,-1
1537911371698931,0,0,-2,-2,-1,-1,-2,0
1537911371704915,-1,-1,1,-2,0,-2,0,0
1537911371704915,0,-1,-2,0,-2,-2,-2,1
1537911371721869,1,-1,-1,-1,-3,-1,0,-1
1537911371721869,0,-2,-1,-1,0,0,0,-1
1537911371722867,-1,0,0,1,-1,-1,0,0
1537911371722867,0,-2,0,-1,-1,-1,-1,-1
1537911371743811,-1,-2,0,-2,-1,-1,0,1
1537911371743811,-3,-1,-2,0,0,-1,0,-1
1537911371745806,-2,0,-1,0,-1,1,0,0
1537911371745806,-1,0,-1,0,-3,0,0,-1
1537911371758771,-1,-1,0,1,0,-2,-2,-3
1537911371758771,-1,-1,-1,-1,0,-1,1,0
1537911371765753,1,-1,-1,0,-1,-2,-2,1
1537911371765753,0,-1,-1,-2,-3,-1,0,1
1537911371781710,0,1,-2,-2,-1,-1,0,0
1537911371781710,-1,0,0,-1,-1,-1,-1,-1
1537911371782707,-1,-2,-1,-2,-1,-1,-2,-2
1537911371782707,0,-1,-1,0,1,-1,-1,-1
1537911371804648,-2,0,0,0,-1,-1,-2,0
1537911371804648,-1,-2,1,-2,-1,0,-2,-1
1537911371805646,-1,-1,-1,1,1,-1,-2,-3
1537911371805646,-1,-2,-1,0,0,0,-2,-2
1537911371818611,-2,-2,-1,-1,-2,0,-1,-2
1537911371818611,-1,0,-2,-1,-1,-2,0,-1
1537911371825592,-2,0,-2,0,-1,-1,0,-1
1537911371825592,-1,1,-3,-1,0,0,-2,-1
1537911371841549,1,-1,0,-2,1,-1,-1,-1
1537911371841549,0,-1,-1,-1,-1,-2,0,0
1537911371843544,0,0,-3,-2,-2,0,-1,-2
1537911371843544,0,0,1,0,-2,-2,-1,-3
1537911371864488,-1,-3,-1,0,0,-2,0,-1
1537911371864488,-3,0,0,-1,-2,-1,-2,-1
1537911371865486,0,-1,-2,-1,-1,1,-1,2
1537911371865486,-1,0,-1,-1,-1,-2,-1,-2
1537911371878451,-1,1,-3,0,-1,0,0,0
1537911371878451,0,0,-1,0,-1,-1,0,-2
1537911371885432,-1,-1,-1,0,-1,-1,-2,-1
1537911371885432,-1,-1,0,1,0,-1,2,0
1537911371901390,-3,-3,-1,-2,-1,1,-2,-1
1537911371901390,-1,-2,-1,-1,-1,0,-1,1
1537911371903384,-1,-1,1,-1,-1,0,0,-1
1537911371903384,-1,-1,0,-1,0,-2,-2,-2
1537911371924328,-1,0,-2,-1,-3,0,-1,-1
1537911371924328,0,-2,1,-1,-3,1,-1,-3
1537911371925326,-2,-4,-2,-1,-1,-1,1,-1
1537911371925326,0,-1,-1,-2,0,0,-1,0
1537911371938291,-1,-1,0,-1,2,-2,-1,0
1537911371938291,-1,0,0,1,-1,-2,-1,0
1537911371946270,0,-2,-2,-1,-2,-1,0,-2
1537911371946270,-1,-1,-2,0,-2,-1,0,0
1537911371961230,1,-1,-1,0,-2,-2,-1,-1
1537911371961230,0,-1,-1,1,0,-1,1,0
1537911371963225,-1,-1,0,1,-1,-1,-1,-1
1537911371963225,-1,-2,-1,-1,0,-2,-1,0
1537911371984168,-1,-1,0,0,-2,-2,-1,0
1537911371984168,-2,-1,-2,-1,0,-2,-1,-1
1537911371985166,-3,0,-2,-1,-1,-2,0,-1
1537911371985166,-1,-2,-1,0,-1,-1,0,-1
1537911371998131,0,-1,-1,-1,0,0,0,-1
1537911371998131,-1,0,-1,-1,0,0,0,0
1537911372014089,1,0,-1,-1,-2,-2,-1,0
1537911372014089,0,0,0,-2,-2,-2,0,-1
1537911372022067,-1,-1,-2,-2,-1,0,0,-1
1537911372022067,2,0,1,0,-1,-2,-1,-1
1537911372023065,-1,-1,1,0,0,-1,-1,-1
1537911372023065,-3,-1,-2,-2,-1,1,-1,1
1537911372044008,-1,0,0,-1,1,0,0,-1
1537911372044008,-1,-2,-1,-1,-1,0,0,-1
1537911372046003,0,0,-1,-2,-1,0,-2,-1
1537911372046003,-1,-1,-1,0,-1,-1,0,0
1537911372057971,-1,-1,-1,0,-1,0,-1,-2
1537911372057971,0,-2,0,0,-1,-1,0,-1
1537911372066947,0,-1,0,-1,-2,1,-1,-2
1537911372066947,-2,-1,-1,-1,0,0,-1,0
1537911372081907,-1,-1,0,-3,-3,0,-2,-1
1537911372081907,-1,-1,-2,0,-1,3,-3,0
1537911372082905,1,0,0,-1,0,1,1,1
1537911372082905,0,0,-2,-1,-2,1,0,-1
1537911372103848,0,0,-1,-1,-1,-1,1,0
1537911372103848,0,-2,-1,-2,0,-2,-1,-1
1537911372105844,-2,-1,-2,-1,-1,-4,-2,-2
1537911372105844,-1,2,-3,0,1,-3,0,-1
1537911372117811,-3,-1,-2,1,0,-1,0,-2
1537911372117811,0,-1,0,-1,-2,-3,1,-1
1537911372132772,-2,-1,1,0,-1,-2,-1,-1
1537911372132772,0,0,1,1,-1,-1,-1,-2
1537911372141748,-3,-2,-1,0,-1,-1,0,-1
1537911372141748,0,-1,-2,0,0,-1,0,-1
1537911372143743,-1,0,-1,-2,-2,-2,0,1
1537911372143743,1,-1,0,0,-1,0,-1,-1
1537911372164688,-1,0,1,-1,-1,-1,-1,1
1537911372164688,-1,-2,-2,-1,-1,0,0,-1
1537911372165686,-1,-1,-1,-1,-1,-1,0,-2
1537911372165686,-2,0,-2,-1,-3,-1,-2,-2
1537911372177653,0,-2,-1,-1,0,-1,-1,1
1537911372177653,-1,1,-2,-1,-2,0,-1,-2
1537911372186629,0,-2,-1,-1,0,-3,0,1
1537911372186629,-1,-2,0,-2,0,-2,0,0
1537911372201588,-2,-2,0,1,-1,0,0,1
1537911372201588,-1,-1,-1,0,-3,-3,-2,0
1537911372203583,0,-1,0,0,-2,-1,-2,1
1537911372203583,0,-2,0,0,-1,-1,-1,-1
1537911372224526,-1,0,-2,-1,-1,-2,0,-1
1537911372224526,-1,-1,-1,-1,-1,-1,-1,-1
1537911372225524,-1,-1,-2,0,0,1,-1,-2
1537911372225524,0,-1,-1,-2,-1,-2,0,-1
1537911372237492,0,-1,-2,-3,-2,-3,-1,-1
1537911372237492,-2,-2,-1,0,0,1,-1,-1
1537911372246467,0,-2,-2,-1,1,1,-1,0
1537911372246467,0,-1,-1,0,-1,0,-1,0
1537911372261427,1,-1,-1,-1,2,-1,-2,0
1537911372261427,0,0,1,-2,-1,-1,-1,1
1537911372263422,-2,0,0,1,-2,0,-1,0
1537911372263422,0,0,-2,-1,-1,-2,-2,-3
1537911372284367,-1,1,-1,-2,0,-1,0,-2
1537911372284367,-1,-2,1,0,0,-2,0,-1
1537911372285364,-1,-1,1,-2,0,1,0,0
1537911372285364,-2,-1,-1,-1,0,-1,-2,-1
1537911372298330,1,-2,-2,1,-1,-2,-3,-1
1537911372298330,-1,-1,-2,-2,0,-2,0,-2
1537911372307305,-1,0,-2,-1,-3,-1,2,-1
1537911372307305,-1,0,1,0,-1,1,1,-1
1537911372321268,-1,-2,0,-1,-1,-1,-1,0
1537911372321268,-1,-1,0,0,0,-1,-1,-2
1537911372323262,0,-1,1,0,0,0,-3,-2
1537911372323262,-2,-1,-2,0,0,0,-1,-2
1537911372344206,0,1,1,0,-1,-1,0,-2
1537911372344206,0,0,-1,-1,0,-1,-1,-2
1537911372345203,0,0,-4,-3,0,-1,0,-2
1537911372345203,-1,-1,-2,-1,-1,-1,-1,-1
1537911372367144,0,-3,1,0,-1,1,0,0
1537911372367144,0,0,-1,0,-1,-1,-1,-2
1537911372368142,-2,0,-2,0,0,0,-1,-1
1537911372368142,0,-1,-1,-2,1,0,-1,-1
1537911372382105,-1,0,-1,-1,-1,-1,0,-2
1537911372382105,-1,0,1,-1,-2,1,-1,1
1537911372383102,-1,-2,-1,1,0,-2,-1,-1
1537911372383102,-2,-1,0,0,-1,0,0,0
1537911372412025,-1,-2,-2,0,-1,0,-2,-1
1537911372412025,0,-1,-1,0,0,-1,0,0
1537911372413022,-1,0,0,0,0,-1,0,-2
1537911372413022,-1,-2,1,0,-1,-1,-1,-1
1537911372426985,-2,1,0,-1,0,-1,0,-1
1537911372426985,0,-2,-4,-1,-2,0,-1,0
1537911372427982,0,-1,-2,-2,0,-1,-2,-1
1537911372427982,1,1,0,-3,1,-2,-2,-1
1537911372440947,-1,1,-1,-1,-1,0,0,-2
1537911372440947,0,-1,1,0,-1,-1,-1,-3
1537911372447928,0,-2,1,-1,-2,-1,-1,-1
1537911372447928,0,-1,-1,0,0,0,1,1
1537911372463886,-2,-2,1,-1,-2,-1,-1,-1
1537911372463886,0,1,-2,-1,0,-1,-1,-1
1537911372465881,-1,0,-1,-1,-2,0,-2,-1
1537911372465881,-1,-1,1,0,-1,-1,-2,-1
1537911372486825,-1,-1,0,-2,-1,-1,-1,0
1537911372486825,-1,-1,-1,-1,1,-1,-1,-1
1537911372487822,0,-1,0,-1,0,-2,0,-1
1537911372487822,-2,-2,-2,-1,-1,-1,-2,1
1537911372500787,0,0,-1,-1,-1,-1,-1,0
1537911372500787,-2,-2,-1,0,0,-2,-2,-1
1537911372507769,0,-1,-1,0,-2,-3,-1,-1
1537911372507769,0,0,-3,-1,-2,-3,-1,-2
1537911372523726,-2,-4,-1,-1,-1,-2,-1,-1
1537911372523726,0,0,1,-2,-2,0,0,-2
1537911372531705,-2,-1,0,-1,2,-1,0,-1
1537911372531705,1,-1,-1,0,-1,0,2,-2
1537911372546665,-1,1,-2,0,-1,-2,-1,0
1537911372546665,0,0,-1,-2,-2,-1,-1,0
1537911372547662,0,-2,-1,-1,-2,1,0,-1
1537911372547662,0,-1,-1,-2,-1,-2,-2,0
1537911372560627,0,-1,1,0,1,0,-2,0
1537911372560627,-1,-2,-1,1,-1,-2,-1,1
1537911372567609,0,0,-1,-1,0,-1,0,0
1537911372567609,-1,-1,-2,-1,-1,-1,0,0
1537911372584563,-3,-2,-1,-1,0,-1,0,-2
1537911372584563,-3,-1,0,-2,-1,-2,0,-3
1537911372585561,-2,-2,-2,0,-1,-1,0,1
1537911372585561,-2,-2,0,-1,0,0,0,0
1537911372606505,0,-1,0,1,0,-1,1,0
1537911372606505,0,-1,-3,-1,-1,0,-1,0
1537911372608500,0,0,-1,-1,-1,1,-1,-2
1537911372608500,-1,-2,-2,-2,-1,0,0,0
1537911372621465,0,1,1,0,-2,1,-1,-2
1537911372621465,-1,-2,0,0,0,0,1,-1
1537911372627449,-3,-2,-1,-2,-2,-2,-3,-2
1537911372627449,-2,-1,-1,0,0,-2,0,-1
1537911372644403,1,-3,-3,-2,-2,-1,-1,-1
1537911372644403,0,3,2,3,1,-1,-1,-1
1537911372645401,1,0,1,1,-1,-1,0,0
1537911372645401,-4,-5,-7,-4,-2,-2,-2,-1
1537911372666345,-1,-1,0,-1,-1,-2,0,0
1537911372666345,-2,-3,-3,-2,-1,-1,-1,-2
1537911372668340,1,0,0,0,0,-1,-1,-1
1537911372668340,6,6,6,5,0,-2,-1,4
1537911372680308,-3,-4,-5,-3,-1,0,0,-6
1537911372680308,-4,0,0,-1,0,-1,-2,-7
1537911372689284,0,1,4,0,0,0,-1,0
1537911372689284,-2,-4,-5,-1,0,0,-1,-1
1537911372704243,1,5,5,1,-2,0,0,2
1537911372704243,-3,-3,-3,-4,-3,-2,1,3
1537911372705241,-3,-4,-3,-4,-4,-35,-5,-3
1537911372705241,0,2,3,-2,4,11,-12,-2
1537911372727182,-2,8,39,99,-11,-80,-6,-2
1537911372727182,10,9,12,17,51,-63,2,7
1537911372728180,-3,2,21,109,1,-1,5,-4
1537911372728180,9,17,38,101,28,44,8,5
1537911372740148,-8,-23,-67,-128,-92,98,-8,-8
1537911372740148,-6,-7,-10,73,-29,20,6,-4
1537911372749124,-10,-13,-2,67,45,-60,-24,-9
1537911372749124,-7,-16,-65,-111,-13,35,-4,-4
1537911372764084,11,34,74,127,68,2,34,13
1537911372764084,0,-16,-42,-126,-97,37,4,8
1537911372766078,-16,-35,-96,-92,-99,6,-21,-16
1537911372766078,7,1,3,75,20,-40,-2,-9
1537911372787022,8,12,27,73,36,-67,-15,0
1537911372787022,-2,13,21,-20,59,-2,-9,-2
1537911372788020,-13,-4,6,-30,-59,-2,26,4
1537911372788020,10,3,7,-1,-37,-49,-14,-1
1537911372799988,-20,-11,-25,-25,78,27,27,5
1537911372799988,-7,-4,11,-19,-42,12,-12,-9
1537911372808963,30,34,95,94,62,36,37,25
1537911372808963,-11,-17,-41,-88,-73,-76,-13,-11
1537911372823924,-7,-33,-65,-99,-75,16,20,2
1537911372823924,-6,-4,-5,92,54,-34,-2,-1
1537911372825919,-6,1,-8,-83,48,7,-10,-4
1537911372825919,13,21,85,127,32,30,25,17
1537911372846862,-2,-4,-11,32,23,-32,-32,-6
1537911372846862,10,7,19,67,-49,-79,8,2
1537911372847860,-9,-29,-79,-94,-98,-17,-14,-8
1537911372847860,-1,20,53,118,18,-23,30,12
1537911372860825,17,37,64,20,68,51,35,12
1537911372860825,-16,-30,-64,-68,-29,33,-10,-15
1537911372868804,13,16,47,127,84,-25,1,3
1537911372868804,-15,-13,-33,4,-3,-34,-10,-4
1537911372883764,1,27,77,122,57,33,-5,-2
1537911372883764,11,5,2,-21,-9,-32,-18,0
1537911372885759,0,-4,-10,-13,19,-10,7,3
1537911372885759,-12,-18,-42,-69,33,14,-15,-11
1537911372906702,-4,-21,-42,-27,-90,-12,1,2
1537911372906702,1,8,32,110,35,73,0,2
1537911372908697,-4,-3,-10,43,-3,65,-11,-4
1537911372908697,1,4,-10,82,26,13,-5,-4
1537911372920665,5,2,7,-24,24,-44,-18,-3
1537911372920665,-1,-4,-14,-90,54,24,8,1
1537911372929642,2,13,34,55,-9,-83,-3,3
1537911372929642,8,13,24,-8,123,73,5,3
1537911372944601,-4,-3,8,62,-21,-20,-18,-4
1537911372944601,-7,-21,-32,-87,40,-44,-23,-6
1537911372950585,3,5,-3,6,55,25,37,-1
1537911372950585,12,29,89,41,-65,24,17,14
1537911372966542,-22,-58,-125,-128,53,26,-10,-15
1537911372966542,-2,5,22,106,52,-60,1,-1
1537911372968537,1,9,18,44,-15,59,11,4
1537911372968537,5,6,28,94,62,-39,-34,-6
1537911372980505,-4,-1,-19,-82,-70,43,-17,-7
1537911372980505,-4,0,9,46,-2,25,16,5
1537911372989481,18,19,33,17,75,-43,-44,-9
1537911372989481,-18,-31,-83,-106,-128,-34,5,-2
1537911373003444,3,5,11,57,43,-51,-29,-9
1537911373003444,-9,1,-30,-108,16,64,-4,0
1537911373011422,4,3,-3,-59,-103,58,-14,-1
1537911373011422,-11,-29,-67,-128,-23,20,-5,-10
1537911373026383,4,-1,4,19,-19,16,14,7
1537911373026383,-1,9,30,113,-25,-26,3,-1
1537911373028377,-7,-6,-2,-39,11,-14,20,5
1537911373028377,-1,-5,-1,41,21,44,11,-1
1537911373040345,4,1,0,-45,-70,-89,7,8
1537911373040345,4,4,13,69,-26,81,-19,-8
1537911373049321,-6,-15,-24,-64,5,-90,-4,-4
1537911373049321,-3,-8,-31,-74,-45,-49,13,1
1537911373063284,1,0,16,86,-16,-26,10,0
1537911373063284,8,12,22,86,-6,33,-8,3
1537911373070265,-2,-2,-12,20,13,-3,-1,1
1537911373070265,0,19,58,58,40,11,11,3
1537911373086223,4,7,13,-26,-14,89,-2,1
1537911373086223,2,-14,-36,-87,-28,10,1,1
1537911373088217,-2,5,18,72,16,4,4,1
1537911373088217,-4,-7,-26,-87,47,-19,-11,-6
1537911373100185,-3,-1,2,-24,7,-25,-2,-1
1537911373100185,-10,3,10,-17,7,15,5,-4
1537911373109161,7,4,9,60,19,-11,-13,-1
1537911373109161,4,6,7,-44,48,2,-25,-2
1537911373124121,-4,-13,-32,-81,-7,8,7,-1
1537911373124121,0,-7,-18,27,-11,-94,3,0
1537911373126116,-8,-7,-30,-30,-41,-14,-24,-11
1537911373126116,0,-3,0,-23,-56,-5,10,3
1537911373147060,5,11,15,26,21,9,5,1
1537911373147060,4,2,24,50,9,-11,32,15
1537911373148057,0,6,12,87,-26,30,-3,-1
1537911373148057,0,1,6,40,29,-22,-7,-5
1537911373160025,-7,-12,-34,-85,-52,-24,-14,-8
1537911373160025,1,1,5,24,14,29,18,-1
1537911373169001,-4,-8,-28,-128,2,99,-2,2
1537911373169001,-4,-7,-12,-30,-16,-96,-13,-6
1537911373183961,0,4,17,56,46,49,17,4
1537911373183961,-1,0,-5,-62,-17,-22,-9,-1
1537911373185956,-5,-3,8,18,15,1,3,-3
1537911373185956,-5,-1,-10,-2,24,40,3,-3
1537911373206900,0,-5,0,-1,-46,3,6,7
1537911373206900,11,4,13,71,17,-13,20,0
1537911373207897,2,9,24,88,-11,5,-29,-9
1537911373207897,-1,-4,0,-23,-14,54,8,-1
1537911373219865,-4,6,10,19,-22,-20,8,2
1537911373219865,-6,-4,-8,-56,-12,-8,0,1
1537911373228842,2,2,1,-4,-2,-36,19,6
1537911373228842,8,26,79,127,94,29,-11,-1
1537911373244799,-6,-20,-50,-60,25,-26,-12,-6
1537911373244799,1,6,20,66,-25,30,15,1
1537911373245797,1,-3,-1,37,-19,14,-1,2
1537911373245797,0,-2,-3,53,9,-7,17,7
1537911373266740,4,8,16,10,22,-40,-8,0
1537911373266740,-2,0,0,-8,-18,-25,-10,-1
1537911373267737,-2,-2,-6,-29,11,30,6,4
1537911373267737,-4,-11,-18,-38,-39,-11,1,0
1537911373289678,0,-3,-14,10,30,-18,-15,-9
1537911373289678,0,3,-1,-12,27,-33,-32,-11
1537911373290676,-2,-5,-10,-73,-64,59,42,10
1537911373290676,-5,-12,-21,-4,-49,-25,-6,-3
1537911373304638,5,14,26,69,-13,-15,-3,-2
1537911373304638,-6,-8,-13,-10,-1,-2,20,7
1537911373305636,0,2,-2,-55,14,-19,-3,-2
1537911373305636,3,7,29,78,-26,1,-1,-1
1537911373326580,-1,-5,-10,-42,4,-29,-13,-5
1537911373326580,-11,-3,-5,-3,-14,26,-6,-5
1537911373328575,4,-5,-6,-17,14,-33,-9,-3
1537911373328575,0,-3,-2,11,-2,-25,23,7
1537911373349519,0,3,5,5,2,72,-14,2
1537911373349519,1,0,1,-58,14,-16,-1,3
1537911373350516,-7,-3,-5,37,2,35,-2,-2
1537911373350516,-11,-19,-58,-108,-18,-62,-14,-12
1537911373364479,5,8,19,14,-18,8,2,0
1537911373364479,-2,-8,-21,-42,-16,9,12,2
1537911373365476,0,3,7,-1,4,9,-8,0
1537911373365476,4,7,10,-8,22,7,-23,-7
1537911373386420,-2,-2,0,21,9,-15,-1,3
1537911373386420,2,2,5,-33,12,-1,-5,-2
1537911373388415,-5,-8,-14,-36,11,-42,0,-3
1537911373388415,0,-2,0,20,-4,17,-1,-2
1537911373409359,-2,-2,-2,-14,6,9,5,-2
1537911373409359,3,2,2,-2,-10,-4,-3,1
1537911373410356,-2,-4,-4,8,9,-32,-2,0
1537911373410356,0,1,-5,-21,-10,24,1,1
1537911373423321,1,-1,5,23,-4,12,8,1
1537911373423321,2,0,-2,3,8,-8,-10,-2
1537911373430303,-2,0,0,0,7,1,1,-1
1537911373430303,-1,0,-4,-5,-19,20,5,2
1537911373446261,-2,-2,-1,-6,11,-2,4,-2
1537911373446261,2,0,3,13,3,3,-7,-3
1537911373448255,0,-3,-2,-10,-2,-3,0,-1
1537911373448255,-1,-3,-4,-13,-13,15,2,0
1537911373469198,-1,0,3,13,7,3,0,-1
1537911373469198,-1,0,-1,-1,4,13,-8,-1
1537911373470196,-1,-2,-2,-1,-5,10,2,1
1537911373470196,-2,-2,-2,-9,-2,11,0,-1
1537911373483161,-1,2,4,8,7,-1,0,-1
1537911373483161,-1,1,3,5,-3,-9,3,2
1537911373490143,-1,-2,-2,-9,3,-17,-1,-1
1537911373490143,1,1,-2,0,-4,-8,-3,2
1537911373507097,-2,-4,-5,0,-1,-10,2,-3
1537911373507097,-1,-3,-1,0,-2,-9,-5,0
1537911373508095,-3,0,-1,1,1,-15,-8,-3
1537911373508095,2,1,0,-2,-1,2,1,-2
1537911373530036,-5,-4,-1,1,-2,4,14,-14
1537911373530036,-9,-1,-2,0,3,-6,-21,1
1537911373532031,5,0,0,-2,0,-6,1,11
1537911373532031,-4,1,1,0,-2,5,-4,-2
1537911373543001,-11,-3,0,-1,2,-3,14,-7
1537911373543001,14,3,2,1,-1,-3,0,-31
1537911373551977,-1,-5,-4,-4,-2,-6,-20,16
1537911373551977,2,-2,-2,-7,-5,-6,-9,3
1537911373566937,0,2,2,4,3,-5,5,9
1537911373566937,-7,-2,-2,-5,-2,3,13,7
1537911373567935,-1,-1,-3,0,-14,-9,-2,-7
1537911373567935,-3,-4,-2,-1,-1,1,-5,-9
1537911373588879,1,-1,2,0,-5,1,-13,6
1537911373588879,0,-1,-2,4,15,-1,-1,-1
1537911373590873,2,2,0,-3,5,-7,7,-2
1537911373590873,-2,-4,-5,-3,-5,0,16,12
1537911373602841,1,-1,-1,-3,-2,-15,-22,-9
1537911373602841,2,0,-2,1,-2,10,5,7
1537911373611818,-3,2,3,12,6,12,4,-11
1537911373611818,-2,-2,-8,-29,-12,-2,1,-3
1537911373626777,5,0,-2,14,13,6,0,7
1537911373626777,1,0,-2,-14,-24,-6,-4,-1
1537911373627775,-4,-2,4,35,38,-5,4,1
1537911373627775,1,-1,-5,-39,-14,3,-12,-6
1537911373649716,2,0,-3,-8,-5,-2,9,7
1537911373649716,-4,-1,0,6,1,-3,0,4
1537911373650714,-1,-1,-3,-7,-16,-1,5,-4
1537911373650714,2,2,5,24,10,5,-4,-1
1537911373670660,1,1,2,7,8,-4,-9,-3
1537911373670660,-2,-2,-1,-3,0,-4,-8,-3
1537911373671658,1,0,-3,3,-18,0,21,7
1537911373671658,-2,-3,-7,5,-2,0,5,0
1537911373685620,-1,-1,-4,-11,-4,3,-3,1
1537911373685620,-1,-2,-1,5,6,2,1,-1
1537911373686618,-1,-2,-4,-18,-2,0,-6,-4
1537911373686618,-4,0,2,14,31,-2,2,0
1537911373708559,0,0,-1,-5,-8,1,0,-2
1537911373708559,0,-1,-1,0,5,0,-4,2
1537911373709556,-1,-1,-1,-10,-10,-2,-5,-3
1537911373709556,-1,-1,1,1,-11,-1,2,0
1537911373731497,-2,0,1,5,13,3,-3,-1
1537911373731497,0,0,2,0,-9,-2,1,1
1537911373731497,0,-2,-3,-8,-5,-1,-2,0
1537911373731497,-2,0,1,4,-2,1,2,-1
1537911373746458,-1,0,-2,1,0,-2,-3,0
1537911373746458,-2,-1,-2,-1,-3,-1,1,1
1537911373746458,-1,-2,-1,-4,0,-5,0,-3
1537911373746458,1,-1,1,4,0,2,-2,-1
1537911373768399,0,-1,-1,-3,-4,1,0,0
1537911373768399,0,1,0,-1,-1,-3,0,0
1537911373769396,0,-2,-2,-1,4,3,-4,-2
1537911373769396,-3,-5,-4,-4,-2,8,0,-1
1537911373791337,-1,2,2,-4,-4,16,-1,-1
1537911373791337,-2,3,10,3,0,19,0,-1
1537911373791337,-2,3,12,1,4,6,-2,-1
1537911373791337,-1,-1,4,3,-3,-11,-1,-3
1537911373806297,-3,-5,-4,1,-3,-19,-2,-5
1537911373806297,0,-6,-5,0,2,-17,-3,-2
1537911373806297,-3,-4,-8,-3,-3,-13,-3,0
1537911373806297,3,-2,-4,-1,-5,-7,0,3
1537911373828239,2,0,-5,-3,-1,-6,-1,1
1537911373828239,0,2,-8,-2,-3,-4,0,0
1537911373829237,-2,0,-14,-3,0,2,0,-2
1537911373829237,-3,2,-8,0,-1,3,-2,-2
1537911373851178,-2,3,-3,1,0,3,0,-2
1537911373851178,-3,-4,-2,-2,-2,1,0,0
1537911373852176,-3,0,2,-2,0,3,-1,-2
1537911373852176,-2,0,5,0,-1,1,-1,-1
1537911373866138,-1,0,11,-1,0,1,0,-1
1537911373866138,-2,0,7,-1,-1,-1,1,0
1537911373867135,0,0,2,0,0,-1,-2,-2
1537911373867135,1,-2,0,1,-3,-1,0,-1
1537911373888079,1,-4,-6,-1,-4,0,-2,1
1537911373888079,0,-1,-6,-2,0,-1,0,-1
1537911373889076,0,-2,-1,-1,1,0,-2,-1
1537911373889076,-2,-2,-3,-1,-1,-1,0,0
1537911373911018,0,0,-1,1,-1,-2,-1,0
1537911373911018,-2,-1,-3,0,-1,-2,-1,-1
1537911373912015,-2,-1,-1,-2,-1,1,-1,-3
1537911373912015,0,1,1,0,0,1,-1,0
1537911373925978,-1,-1,0,0,1,-1,-1,-2
1537911373925978,0,1,1,1,-1,-1,0,-1
1537911373926975,-2,-2,-1,-3,-2,-2,-1,0
1537911373926975,-1,-1,0,-1,1,-2,-2,-2
1537911373948916,1,0,-2,0,0,2,-3,0
1537911373948916,1,-2,-2,-1,-1,0,-1,-2
1537911373948916,0,-1,1,-2,-1,0,-1,0
1537911373948916,-1,0,-1,0,-3,-1,0,-1
1537911373978837,-1,0,1,0,-2,0,-2,-1
1537911373978837,0,-1,0,-1,-1,0,-2,0
1537911373979834,0,0,0,-2,0,-1,0,-2
1537911373979834,0,-2,0,0,0,-1,-2,0
1537911373985818,0,-1,0,-1,-2,-2,1,-1
1537911373985818,1,-2,0,-2,-1,1,0,0
1537911373986815,0,1,1,1,-1,-2,0,-1
1537911373986815,-1,-1,-1,-3,-2,0,-3,-2
1537911374008756,-2,-2,-1,-3,-1,-1,-1,-2
1537911374008756,-2,-2,0,-1,0,0,-1,0
1537911374008756,-1,0,0,-1,-1,-1,-1,-2
1537911374008756,-1,2,0,1,-1,-1,0,0
1537911374031695,0,-1,-3,-2,-1,0,0,-2
1537911374031695,0,-1,-2,-1,1,-1,0,-1
1537911374032692,-2,-1,0,1,0,1,-1,-1
1537911374032692,0,0,-1,-1,-1,1,0,-1
1537911374045658,-1,-1,-1,-1,-1,-1,0,0
1537911374045658,-2,-1,-2,-1,-1,0,-1,-2
1537911374046655,1,0,0,-2,0,-1,0,0
1537911374046655,0,-1,-2,-2,-1,-2,-1,-2
1537911374076575,-2,-1,2,1,0,1,-1,-2
1537911374076575,-3,-1,3,-1,0,0,-2,-1
1537911374077573,0,-2,-4,-2,-2,-3,-1,0
1537911374077573,0,-3,-2,-2,-1,1,0,-1
1537911374082559,0,-1,-2,0,-1,-1,-1,-1
1537911374082559,0,0,-2,2,0,-1,-2,-1
1537911374090538,0,-1,0,-1,0,-2,-1,0
1537911374090538,0,0,2,0,0,-2,-1,-1
1537911374105498,-1,-2,0,1,0,1,0,0
1537911374105498,0,-3,-1,-2,-1,-2,0,1
1537911374106495,1,-1,-1,0,-1,1,1,-3
1537911374106495,0,-1,0,0,0,0,0,1
1537911374128436,-1,0,-1,-2,-1,-1,0,-1
1537911374128436,1,1,-1,-1,-1,0,-3,-1
1537911374129434,-1,0,-1,0,-2,0,-3,0
1537911374129434,0,0,0,-1,-1,-2,-2,0
1537911374142399,0,0,0,-1,-2,0,0,-2
1537911374142399,-3,-1,-3,0,0,-1,-1,-1
1537911374151375,-1,-1,-2,-2,0,-2,0,-1
1537911374151375,-3,1,0,0,0,1,-2,0
1537911374166335,0,-2,-1,-3,-1,-1,-3,-1
1537911374166335,2,0,2,-1,-2,-2,-1,-3
1537911374166335,-2,-2,-2,-2,-1,0,-1,1
1537911374166335,-1,-1,0,-1,-1,-1,-1,-1
1537911374196255,-3,-1,-3,-2,-2,-2,0,-1
1537911374196255,-1,-2,-1,0,-1,-2,-1,1
1537911374197252,-1,-1,-1,-1,-1,-3,-1,-2
1537911374197252,-1,-1,-4,-3,-2,0,0,0
1537911374211215,0,0,0,0,0,-2,0,0
1537911374211215,-1,-3,-4,-3,-2,-1,0,-1
1537911374212213,-2,0,1,1,-1,-1,-3,-1
1537911374212213,0,1,-1,-1,0,-3,0,-2
1537911374226175,0,1,2,0,-1,1,0,-1
1537911374226175,0,1,-2,-2,-2,-1,0,-1
1537911374226175,0,-1,-2,0,-2,-2,-1,-1
1537911374226175,0,-1,-1,-1,0,-1,1,-1
1537911374248116,-1,-2,0,-1,-1,-1,-1,0
1537911374248116,0,0,1,0,0,1,-1,-1
1537911374249114,-1,-2,-2,1,-3,2,0,-2
1537911374249114,-2,-2,0,0,0,0,0,-1
1537911374272053,0,-2,-1,-1,0,-1,-1,0
1537911374272053,1,0,0,-1,-2,-1,1,-2
1537911374272053,1,0,0,-3,-1,-1,1,-1
1537911374272053,-1,-1,0,0,-1,-1,0,-2
1537911374286015,0,-1,-1,-2,0,0,0,0
1537911374286015,-2,-1,-2,-2,-1,-1,-2,1
1537911374287013,-2,0,2,0,-1,0,0,0
1537911374287013,-2,-2,-1,-3,-2,-3,-1,0
1537911374308954,-1,0,-1,-2,-2,0,-1,1
1537911374308954,-1,0,-1,1,0,-2,-2,-1
1537911374308954,0,-2,-2,1,-1,-1,0,-1
1537911374308954,0,-1,0,-1,-1,-3,1,0
1537911374331893,1,-1,0,0,-1,-2,-2,0
1537911374331893,-1,-3,-2,0,-2,-1,-1,-1
1537911374331893,1,0,-3,-2,2,-1,-2,0
1537911374331893,0,-1,1,0,-2,1,0,-1
1537911374345855,0,0,0,0,-1,-1,-1,0
1537911374345855,1,-1,-1,-1,0,-1,1,-1
1537911374346853,-1,-1,0,-1,-2,0,0,-1
1537911374346853,0,-1,-2,0,-1,0,-2,-1
1537911374368794,-3,-2,-1,-2,0,-2,-2,-2
1537911374368794,1,0,1,-1,-2,0,1,-1
1537911374368794,1,-2,0,-1,-1,0,-1,0
1537911374368794,0,0,-2,-2,-1,-2,-1,-1
1537911374391733,-1,1,-1,0,1,0,1,0
1537911374391733,-3,-3,0,-2,1,0,-1,0
1537911374392730,-2,-1,-2,-1,-1,-1,0,0
1537911374392730,-1,-2,1,0,1,-2,0,-2
1537911374405695,0,-2,-1,0,-2,-1,-1,-1
1537911374405695,-1,0,-1,0,-2,0,0,-1
1537911374406693,-1,-1,0,-1,-1,0,-1,1
1537911374406693,-1,-1,-1,0,-1,0,-1,0
1537911374428634,-2,-1,-2,-1,-2,1,-1,-2
1537911374428634,-1,0,1,0,1,-1,-3,-1
1537911374429632,0,0,-1,0,-1,-1,-2,-2
1537911374429632,-1,-1,-1,-1,-1,0,0,-1
1537911374451572,-2,-3,0,0,0,-1,-1,-1
1537911374451572,-1,-2,-2,-2,-1,-1,-1,0
1537911374452570,-3,-1,-4,-1,-1,-1,-1,-1
1537911374452570,-1,-1,0,-1,0,-1,-1,-1
1537911374465535,-1,1,1,-1,-1,0,-1,-1
1537911374465535,-1,0,-1,-2,-2,-1,-2,0
1537911374466533,0,-1,0,-1,-1,0,1,0
1537911374466533,0,0,-2,-1,-2,1,-1,1
1537911374488474,1,-1,-1,0,-1,-1,-1,-1
1537911374488474,-1,-1,-1,0,-1,-1,0,0
1537911374489471,-1,-1,0,0,-1,-2,-1,-1
1537911374489471,-2,-1,-5,2,-3,-1,-1,0
1537911374511413,0,0,0,-2,-1,-1,-1,-1
1537911374511413,-1,0,0,0,0,0,1,0
1537911374512410,0,-1,-2,-1,0,-1,0,-1
1537911374512410,1,-1,0,-1,0,-1,-1,-3
1537911374526373,-2,-3,-1,-1,0,0,-1,-1
1537911374526373,0,1,0,1,-3,-1,-1,-3
1537911374526373,-1,-2,-2,-3,-1,-1,0,-1
1537911374526373,-1,1,-1,0,-1,0,-3,0
1537911374548314,-2,-2,-4,-4,0,-1,-1,0
1537911374548314,-1,-1,-2,-1,1,-1,0,0
1537911374549311,-3,0,1,2,0,-1,-1,-1
1537911374549311,0,-2,-3,-3,-1,-1,1,-1
1537911374571253,-1,-1,-2,-1,-1,-1,0,1
1537911374571253,0,1,2,2,0,0,-2,1
1537911374572250,0,-4,-4,-4,-3,1,0,-5
1537911374572250,-1,-1,0,1,-1,1,-2,-1
1537911374586213,-2,0,-3,2,0,-1,0,-1
1537911374586213,-2,-2,-2,-2,-2,0,0,-1
1537911374586213,1,0,2,1,0,1,1,2
1537911374586213,0,0,0,-2,-2,-1,0,-1
1537911374608154,0,-1,-1,1,-3,-1,-1,-1
1537911374608154,0,-2,-2,-1,-1,-2,0,-2
1537911374609152,0,-1,4,2,-6,-3,-1,1
1537911374609152,0,4,15,46,6,-1,-1,0
1537911374632090,0,-4,-20,-54,-8,0,-2,-1
1537911374632090,-3,-6,-19,-56,-1,-1,-1,-2
1537911374632090,0,0,-1,-27,-5,-1,-1,0
1537911374632090,-2,-2,6,51,3,-1,-1,-1
1537911374646053,3,4,14,0,4,-1,0,2
1537911374646053,-2,2,7,78,-9,-5,-3,-4
1537911374647051,-5,-9,-28,-55,16,19,-5,-7
1537911374647051,1,0,-5,-19,3,-26,-12,-2
1537911374667994,-3,-9,-39,-74,-65,-44,22,2
1537911374667994,-3,1,29,67,21,-66,-18,-2
1537911374675973,0,-1,-1,41,-52,78,45,5
1537911374675973,0,11,32,84,70,-50,-3,6
1537911374691930,0,-17,-57,-69,54,25,-12,-8
1537911374691930,2,5,8,35,-8,59,5,-2
1537911374691930,5,11,30,116,-12,-47,18,16
1537911374691930,1,9,41,63,-7,-25,-27,-9
1537911374705893,-10,-9,-22,-20,-35,-36,-7,-6
1537911374705893,-21,-41,-96,-117,53,-37,-1,-2
1537911374706890,15,21,83,116,39,32,-17,-2
1537911374706890,-4,-6,-22,-128,-12,58,28,7
1537911374728832,2,-2,30,3,15,-8,-17,-8
1537911374728832,13,11,34,77,-32,7,-1,2
1537911374728832,-2,3,27,51,-24,-26,8,8
1537911374728832,-9,6,5,-63,100,13,11,5
1537911374751770,-2,4,8,34,22,-13,-18,-1
1537911374751770,14,-11,-63,-128,-107,19,20,-2
1537911374752768,-9,0,2,15,-21,-13,3,1
1537911374752768,-3,-10,-13,116,-2,28,-2,-6
1537911374765733,7,22,69,89,73,4,3,9
1537911374765733,-10,-17,-63,-104,-35,-14,-10,-6
1537911374766730,31,11,3,16,-43,-40,-26,-4
1537911374766730,-13,-16,-31,8,-36,-37,23,6
1537911374788671,-5,7,21,30,-16,96,7,3
1537911374788671,2,17,61,127,-11,-34,-5,4
1537911374788671,-19,-16,-56,-116,48,-49,-41,-20
1537911374788671,1,0,-3,24,-40,-30,-9,-6
1537911374811610,2,-16,-46,-32,23,-4,24,2
1537911374811610,-12,-6,9,-45,-41,24,1,0
1537911374812608,-6,-2,-3,33,44,25,7,-9
1537911374812608,17,18,35,52,-9,26,31,17
1537911374825573,-11,-12,-9,29,-66,-39,-14,-2
1537911374825573,-9,1,30,92,58,-32,9,-1
1537911374833551,-2,-10,-32,34,75,-32,-3,1
1537911374833551,11,15,23,-44,6,39,-23,-4
1537911374848511,-5,8,11,48,-13,-25,-8,-3
1537911374848511,-1,3,0,-14,26,14,-11,0
1537911374849509,0,4,28,-21,74,-17,-5,1
1537911374849509,0,2,31,79,-85,-19,-5,-2
1537911374873445,-10,-10,-37,-46,50,-30,-4,-10
1537911374873445,-22,-24,-73,-103,-39,26,-9,-6
1537911374873445,-18,2,-1,-10,-27,29,7,1
1537911374873445,21,-1,-9,88,-15,24,-10,-5
1537911374885413,13,-2,3,25,9,-48,-2,5
1537911374885413,10,16,21,-32,-23,81,6,8
1537911374893392,-1,5,18,64,37,-87,-31,-5
1537911374893392,-30,-43,-116,-128,-97,53,2,-10
1537911374909349,3,20,58,127,26,0,-6,-3
1537911374909349,7,-8,-27,-36,39,-7,15,3
1537911374909349,-7,-15,-25,-22,-40,9,-1,-2
1537911374909349,-2,0,-4,20,18,6,-15,-5
1537911374931290,11,20,58,127,42,-11,6,4
1537911374931290,-1,-1,-3,51,-14,38,22,5
1537911374932288,-4,-9,-28,-55,-53,49,9,-1
1537911374932288,3,12,26,43,47,-43,-5,-3
1537911374945253,6,-3,-7,-49,-5,39,10,3
1537911374945253,19,30,85,127,96,-56,-23,2
1537911374953231,-26,-22,-54,-118,-108,9,6,-3
1537911374953231,10,-15,-53,-79,-24,-50,4,-1
1537911374968192,-6,-1,1,46,18,87,18,1
1537911374968192,-7,-3,-1,-14,-20,-40,-15,-8
1537911374969189,3,-3,-15,-28,16,-1,-2,-1
1537911374969189,-10,-1,11,10,47,-1,10,-1
1537911374992127,-13,-11,-22,-67,-32,3,-5,-6
1537911374992127,24,9,16,-34,-45,5,-3,1
1537911374992127,8,8,28,72,57,21,14,6
1537911374992127,-10,-9,-23,-50,6,-32,-16,-3
1537911375005093,2,2,7,-60,-22,-7,-11,-2
1537911375005093,0,12,38,127,-19,51,25,4
1537911375013072,-1,-12,-28,-67,-70,-45,-15,-5
1537911375013072,0,-7,-17,-60,7,64,-4,-1
1537911375028032,7,23,74,127,52,-63,-11,1
1537911375028032,-14,-19,-50,-65,-36,-17,-11,-11
1537911375029030,5,4,9,53,-9,21,8,3
1537911375029030,2,7,27,78,4,-7,7,4
1537911375051970,-13,-5,-16,-27,-46,-10,4,-1
1537911375051970,8,0,6,-34,36,6,-4,4
1537911375051970,6,-2,1,-9,-3,-19,2,2
1537911375051970,-5,-3,-11,-49,36,37,12,1
1537911375064936,1,-3,-16,-60,-77,1,-1,-3
1537911375064936,-4,2,-7,5,10,-30,-9,-3
1537911375073912,2,9,36,74,85,29,10,-1
1537911375073912,-1,-8,-10,-34,-37,-5,-1,0
1537911375088872,-4,-11,-33,-56,-9,-19,2,-2
1537911375088872,-6,6,24,53,56,29,6,-1
1537911375089870,9,2,-1,17,21,-28,-28,-5
1537911375089870,0,3,10,40,-39,-12,2,1
1537911375111808,5,-4,-9,23,22,0,-2,2
1537911375111808,-4,0,7,-62,-8,-35,-14,-1
1537911375112806,-2,1,1,-4,5,-8,-5,-3
1537911375112806,-1,6,19,35,7,18,-9,1
1537911375133749,-1,-7,-17,-42,-29,65,19,0
1537911375133749,0,1,8,31,22,1,3,0
1537911375134747,-2,0,-9,1,-32,5,3,2
1537911375134747,0,-4,-3,-22,2,-25,-8,-2
1537911375148709,1,0,2,16,3,-3,-2,2
1537911375148709,-9,-4,-14,-39,-10,0,-1,-2
1537911375149706,8,0,-7,-29,-12,13,11,3
1537911375149706,-1,6,18,41,22,-21,-1,0
1537911375171648,-4,-6,-14,-13,-15,3,-8,-2
1537911375171648,-2,1,-1,7,12,3,2,-1
1537911375172645,-5,-4,-5,-7,-6,-34,-3,1
1537911375172645,-1,3,5,20,7,-3,-2,-4
1537911375194586,1,-1,-3,-4,-1,16,-2,0
1537911375194586,1,-1,1,-4,-2,-10,-2,-2
1537911375194586,-1,0,10,34,5,23,4,-1
1537911375194586,-1,-2,-5,-9,1,-6,-2,1
1537911375209547,-2,-3,-7,0,-3,2,-1,-1
1537911375209547,0,1,4,11,5,-8,0,-1
1537911375209547,1,1,-1,-1,3,14,2,-2
1537911375209547,0,1,2,3,1,1,1,-1
1537911375231490,-2,-7,-8,-4,-3,-8,-2,-1
1537911375231490,1,0,3,2,4,7,-3,-2
1537911375233485,-3,-1,-2,-9,-4,12,2,-1
1537911375233485,-1,-2,0,0,-2,-2,-1,1
1537911375254428,-1,3,7,13,2,2,-4,-3
1537911375254428,1,1,0,2,0,1,4,0
1537911375255426,-2,-3,0,-3,-1,12,0,-1
1537911375255426,-1,-1,2,7,0,-8,-1,-1
1537911375269388,0,-2,-1,4,2,-2,-1,2
1537911375269388,-2,-4,-3,-4,1,-2,0,-2
1537911375276369,0,0,1,-4,0,-4,0,-1
1537911375276369,0,0,-2,2,1,-8,-9,-5
1537911375291330,0,-1,-1,-2,0,-3,8,7
1537911375291330,0,-3,-4,0,0,-4,1,-2
1537911375293324,0,1,1,2,-2,0,6,5
1537911375293324,-1,2,4,3,1,-5,2,-3
1537911375314267,-2,1,1,1,1,-1,-14,-6
1537911375314267,-2,-3,-3,0,-1,-3,-1,2
1537911375315264,-1,-2,-1,-2,-4,3,7,-1
1537911375315264,-1,-2,-1,-10,-26,-1,-6,-4
1537911375328229,0,-3,-2,11,46,-4,18,7
1537911375328229,-1,1,3,6,15,1,-6,2
1537911375336208,-1,-1,2,4,-3,1,-8,-5
1537911375336208,-1,-2,-1,-5,-41,-1,18,6
1537911375351168,-3,0,1,4,19,-2,-21,-11
1537911375351168,3,-1,2,-2,-2,-1,7,2
1537911375353163,-2,-2,-5,-3,8,2,0,1
1537911375353163,0,-1,-2,-1,6,1,-1,1
1537911375374106,-1,1,3,-7,-20,1,2,2
1537911375374106,1,-2,0,-3,4,-1,-1,0
1537911375375104,-4,-4,-4,-7,-5,-6,-6,-3
1537911375375104,-2,0,1,4,9,-2,2,1
1537911375388069,-2,-2,-3,-6,-10,-3,-2,-3
1537911375388069,1,1,7,1,-4,-1,-3,-2
1537911375397046,-1,0,4,2,-3,-1,0,-2
1537911375397046,1,-3,-3,1,11,-2,-2,0
1537911375412006,-1,1,0,1,-5,1,-1,-2
1537911375412006,-1,0,-1,0,-8,-2,2,-2
1537911375413003,-2,-1,-5,1,-1,-2,1,0
1537911375413003,-2,-1,-4,2,13,-2,-5,-2
1537911375433947,0,0,-4,-2,-12,-2,1,-2
1537911375433947,0,-1,-3,-3,-8,1,1,1
1537911375435943,0,0,-1,-4,-2,1,-4,-1
1537911375435943,-2,-2,-1,4,14,-2,-1,-2
1537911375447911,0,0,0,-1,-10,-1,1,1
1537911375447911,-2,0,0,0,2,-3,-1,-2
1537911375456887,-1,0,1,1,-1,-3,-1,-2
1537911375456887,-1,1,-2,-1,-1,-1,-1,-1
1537911375471847,0,-1,-3,-1,-4,-2,1,1
1537911375471847,-2,0,-4,0,0,-1,-2,-2
1537911375472845,0,-2,-2,0,-1,0,0,-1
1537911375472845,-1,-4,-4,-3,1,2,-1,1
1537911375493787,1,-1,2,-1,-3,1,-1,-1
1537911375493787,-3,-1,0,-1,-2,0,-3,0
1537911375495783,-1,0,0,-1,-2,-1,-1,0
1537911375495783,-1,0,1,1,3,-1,-1,-3
1537911375507749,-2,0,1,-3,-2,-1,-3,-1
1537911375507749,0,0,4,-1,-2,-3,0,-2
1537911375516725,0,-2,1,0,-1,-2,-1,-1
1537911375516725,0,0,3,0,2,-1,-4,0
1537911375531685,-2,-2,-4,-1,-4,-2,-1,1
1537911375531685,-1,-3,-3,-2,-3,0,-1,-2
1537911375532683,-2,0,-3,-1,1,-1,-2,1
1537911375532683,0,-3,-5,-2,-1,-3,-1,-3
1537911375554624,-1,-1,1,1,-3,-1,0,-3
1537911375554624,-1,-2,-2,-2,0,-1,-2,0
1537911375555621,0,-2,-2,-2,1,-1,-2,-1
1537911375555621,-1,0,0,2,-2,0,-1,0
1537911375567589,-1,1,-1,-1,0,0,-1,-2
1537911375567589,-2,-2,-1,1,0,0,-1,-1
1537911375576565,-1,0,0,-1,-1,0,-1,-1
1537911375576565,-2,-1,-2,-2,-1,0,1,-1
1537911375591525,1,-1,-1,-2,-3,-2,-1,0
1537911375591525,-1,0,-3,-1,-2,-1,1,1
1537911375593520,0,-1,0,-1,0,-1,-1,-1
1537911375593520,-1,-1,2,1,0,-2,-2,1
1537911375614464,0,-3,-2,-2,-2,-3,1,-1
1537911375614464,-1,0,-1,-1,0,0,-2,-1
1537911375615462,0,1,1,2,-1,-2,0,0
1537911375615462,-1,0,-3,-3,0,-1,-1,1
1537911375627429,-1,-2,0,-2,-1,-1,-1,0
1537911375627429,-1,-3,-4,-3,-4,-2,0,1
1537911375636406,0,0,2,0,-1,-1,-1,-1
1537911375636406,-1,-2,4,0,1,-1,-1,-1
1537911375651366,-1,0,-2,0,-2,-1,-1,-1
1537911375651366,0,-1,1,-1,0,0,0,-1
1537911375653361,0,-1,-1,-3,-2,-2,0,1
1537911375653361,0,0,-2,-2,-1,0,0,-2
1537911375674306,1,-1,-1,0,1,1,-2,-2
1537911375674306,0,0,0,0,2,-2,0,-2
1537911375675303,-3,-3,-5,-3,-3,1,-2,-2
1537911375675303,0,1,-1,2,-1,-1,0,-1
1537911375688267,-1,-1,0,0,-2,0,-1,0
1537911375688267,0,-1,1,-1,-2,0,-1,0
1537911375697245,1,-1,0,0,2,0,-1,-1
1537911375697245,-2,2,2,1,-1,0,0,-1
1537911375711206,-2,-4,-2,-2,0,0,-1,-1
1537911375711206,0,0,1,0,-3,-1,-2,-2
1537911375713201,-2,0,0,0,-2,-1,0,0
1537911375713201,-1,-1,-2,0,0,-1,0,1
1537911375734145,1,1,2,2,-3,0,0,0
1537911375734145,-3,-4,-2,-2,0,-1,0,-2
1537911375735142,-1,-3,-2,-3,-1,-1,1,-1
1537911375735142,-2,-2,1,-2,-1,-1,-1,-1
1537911375748107,-1,0,-4,-1,0,1,-3,0
1537911375748107,0,-1,-3,-1,-1,0,-2,1
1537911375757083,-1,-1,2,0,-2,0,1,-1
1537911375757083,-1,-4,-2,-2,-2,0,1,-2
1537911375772043,-1,0,-3,-3,0,-1,0,-2
1537911375772043,0,2,0,1,0,-1,0,1
1537911375773040,-3,-2,-2,-1,0,-1,-1,-1
1537911375773040,-1,-1,1,-1,-1,0,-1,-1
1537911375793984,-1,-2,-1,0,0,0,0,-1
1537911375793984,-1,-2,-1,-2,0,-1,0,-1
1537911375795979,1,0,0,-1,-1,-1,0,0
1537911375795979,0,-3,-3,-1,-2,-1,-2,-1
1537911375807947,-1,0,0,2,-1,-1,-2,-1
1537911375807947,-1,-3,-5,-3,-4,-1,1,0
1537911375816924,-2,1,0,-1,1,-1,-2,-1
1537911375816924,0,-1,-2,-3,1,0,-3,-1
1537911375831884,-1,0,1,0,2,0,-1,1
1537911375831884,0,1,1,1,-1,-1,-1,-1
1537911375832882,-1,0,-2,-1,-1,0,0,-1
1537911375832882,-2,-1,-1,0,-1,-1,1,1
1537911375852828,-1,0,2,-1,-1,0,0,0
1537911375852828,-1,0,-1,-1,-1,-1,-2,-1
1537911375861805,-1,-1,1,-3,-1,0,-1,0
1537911375861805,0,0,-2,-2,-1,-1,-2,0
1537911375867788,0,0,-1,-1,1,-1,-2,-1
1537911375867788,1,-2,-1,0,-1,0,-1,0
1537911375876766,0,-1,-4,-2,1,0,0,-2
1537911375876766,0,2,1,-1,0,0,-1,-1
1537911375891724,-3,-1,-3,-2,-2,0,0,1
1537911375891724,-2,-2,0,-1,0,-1,-1,0
1537911375892721,-1,-2,-3,-1,-1,-1,-1,0
1537911375892721,-2,0,1,1,-2,-2,-2,-1
1537911375913665,-1,0,-2,-1,-2,-2,-2,-2
1537911375913665,-1,-1,0,1,1,0,-1,-2
1537911375915659,-2,-3,-4,0,-4,-2,1,-1
1537911375915659,-2,-1,-2,-2,0,-2,-1,0
1537911375927627,0,-2,2,1,-3,0,-1,0
1537911375927627,0,0,0,0,-2,0,-1,-1
1537911375936603,-1,1,0,0,0,-1,-1,-2
1537911375936603,1,0,-1,1,0,-1,-2,-2
1537911375951563,-2,-1,-1,-1,0,-1,-1,-1
1537911375951563,0,-1,-1,0,1,0,-2,-1
1537911375953558,-1,0,-1,0,-2,-1,-2,-2
1537911375953558,0,-2,0,0,0,-1,0,-2
1537911375974501,-1,-2,2,-1,-1,-1,-1,-1
1537911375974501,-1,-2,-3,-3,-2,-2,0,0
1537911375975499,-1,0,-1,-1,-2,-2,-1,-1
1537911375975499,-1,-1,0,-1,0,-1,-1,-2
1537911375987467,-2,-2,-2,0,0,-1,-2,-3
1537911375987467,-1,0,-3,-2,-1,-1,0,-1
1537911375996443,-1,-1,-1,0,-1,-1,-2,0
1537911375996443,0,-1,-1,-1,-2,1,0,-1
1537911376011403,1,0,-1,0,-1,-2,-1,1
1537911376011403,-2,1,-2,-1,-2,-2,0,-2
1537911376013397,-1,-2,-1,-1,0,-1,-1,0
1537911376013397,0,1,1,1,-2,0,0,0
1537911376034341,-2,-2,-2,-2,0,-2,1,-1
1537911376034341,0,0,1,1,0,1,-2,-1
1537911376035339,0,-1,0,0,0,-1,0,1
1537911376035339,0,-3,0,-2,-2,0,-1,0
1537911376056283,0,-3,-3,-2,0,-1,0,-1
1537911376056283,0,-1,-3,-1,-1,-1,2,-1
1537911376058278,-1,1,-2,-1,-2,-1,-2,-2
1537911376058278,-1,-1,-2,-1,-1,-1,0,0
1537911376071243,0,2,0,1,-1,0,1,-1
1537911376071243,-3,-3,-3,-2,-2,1,-1,0
1537911376073239,0,-2,1,1,-1,0,1,2
1537911376073239,-2,-1,-2,-1,0,-2,-2,-1
1537911376094184,0,-2,-1,-2,0,1,2,-1
1537911376094184,-1,1,2,-5,1,-1,-1,-1
1537911376095182,1,7,23,65,3,-2,-6,1
1537911376095182,-1,-5,-20,-9,-1,-6,5,7
1537911376117122,-1,3,21,35,29,2,-15,-6
1537911376117122,0,-16,-43,-40,-12,-8,25,7
1537911376118121,1,1,18,79,-1,-28,5,-4
1537911376118121,-9,-3,5,-35,-14,31,-3,1
1537911376131085,3,-2,0,61,-16,-13,-19,-3
1537911376131085,9,14,20,61,19,-24,-9,0
1537911376138067,1,-8,-25,-51,4,42,-6,0
1537911376138067,7,1,-6,-47,-23,-26,21,8
1537911376154022,-10,-13,-32,-54,-17,-16,-7,-6
1537911376154022,-18,5,34,37,-62,-34,-11,-1
1537911376156017,5,4,-2,93,49,32,11,0
1537911376156017,1,12,28,69,28,-21,-20,-7
1537911376176960,4,5,4,52,28,35,19,4
1537911376176960,-3,-6,-9,-49,-4,17,-2,-8
1537911376177958,-14,-6,1,-48,-10,-8,-2,-4
1537911376177958,4,-7,-32,9,25,5,4,-5
1537911376190923,1,2,-6,-53,-93,-24,-13,-2
1537911376190923,-7,-15,-43,-99,7,34,2,-4
1537911376197904,7,11,23,66,42,-23,-23,-5
1537911376197904,0,-11,-35,-33,-5,-11,-4,1
1537911376213862,3,9,38,67,12,9,0,1
1537911376213862,-1,3,7,118,112,4,2,0
1537911376215858,-9,1,-4,-128,-102,-17,-12,-5
1537911376215858,-1,-4,-10,16,-19,22,-3,-5
1537911376236801,-3,-6,-4,0,13,16,12,3
1537911376236801,-1,-3,-5,-33,-56,-26,-14,-5
1537911376237800,-5,5,30,127,36,-27,23,8
1537911376237800,8,3,-3,-81,25,24,-10,0
1537911376250764,2,5,-13,-21,-10,-24,1,-3
1537911376250764,12,-1,8,18,22,-1,8,4
1537911376259740,-7,-7,-12,-14,-34,-10,-2,2
1537911376259740,-9,1,20,39,-9,-13,-1,-4
1537911376273704,-2,5,22,75,-1,-11,0,0
1537911376273704,-4,-4,-13,-29,14,8,-11,-5
1537911376275699,1,-13,-53,-116,-26,12,-4,-6
1537911376275699,-10,-9,6,29,-50,14,2,-2
1537911376296642,-5,-8,-16,-42,49,-44,0,-1
1537911376296642,1,3,-6,-22,38,66,4,2
1537911376298638,5,1,5,11,0,42,2,5
1537911376298638,2,4,17,57,11,27,3,-3
1537911376310605,-7,-3,-8,-29,-16,-1,-1,-1
1537911376310605,3,5,19,52,-13,-7,-2,-1
1537911376319582,0,-8,-19,-48,15,-1,-3,-2
1537911376319582,-1,1,3,2,6,-16,2,-1
1537911376334541,2,2,11,20,-5,18,5,2
1537911376334541,-2,1,6,8,2,-14,2,2
1537911376336537,3,7,21,87,-15,-4,5,1
1537911376336537,-6,-6,-17,-51,-16,-21,-6,-6
1537911376356481,4,-4,-9,-43,-42,3,12,7
1537911376356481,5,6,11,32,-39,-1,-4,2
1537911376358475,1,2,5,48,-11,-18,-1,0
1537911376358475,-1,-3,5,9,9,-13,-9,0
1537911376370443,-3,-2,-4,-1,16,8,4,0
1537911376370443,1,1,4,-6,-5,15,4,-1
1537911376379419,0,-5,-8,-39,-2,-13,-3,-3
1537911376379419,2,8,25,44,23,8,-1,0
1537911376394379,-5,-11,-23,-45,2,4,2,2
1537911376394379,0,2,14,0,10,-14,2,2
1537911376395377,-4,-8,-14,-6,-6,-9,-2,-2
1537911376395377,-2,-1,-5,3,-16,-3,3,0
1537911376416320,0,2,2,-18,15,7,-8,-4
1537911376416320,-3,-5,-7,-7,7,-23,-4,-4
1537911376418315,-2,0,-1,7,18,-9,0,-1
1537911376418315,0,2,3,10,1,0,-2,-2
1537911376430283,1,0,0,-2,0,-14,-1,-1
1537911376430283,-4,-2,2,23,-15,-1,-2,-2
1537911376439259,-1,0,0,-14,19,25,-2,-1
1537911376439259,2,2,-1,2,5,4,-2,-1
1537911376454219,-3,-4,0,28,-2,12,-7,0
1537911376454219,-1,-3,-4,-10,-6,2,-1,-2
1537911376455217,1,-2,-3,-18,-6,-11,-5,-1
1537911376455217,0,0,5,4,25,0,2,2
1537911376476161,-2,-3,-12,-44,-8,17,-9,-2
1537911376476161,-1,-1,3,5,-6,-9,-3,0
1537911376478157,-1,0,6,-28,22,16,1,-2
1537911376478157,-3,-7,-26,-41,-49,-23,-2,-1
1537911376491122,0,1,8,7,-1,0,2,0
1537911376491122,0,1,3,24,-13,12,-2,-1
1537911376498104,-1,-1,-6,-29,9,-11,5,1
1537911376498104,-7,-3,-3,14,1,-5,-3,-2
1537911376514123,7,1,3,19,10,-9,-1,-1
1537911376514123,-2,-1,-4,-11,-26,5,4,-1
1537911376516055,0,-5,-1,-5,12,15,-4,0
1537911376516055,1,0,4,14,1,-5,3,1
1537911376536998,-5,-2,-3,17,11,15,0,-3
1537911376536998,-2,-3,-5,-36,-1,-10,0,0
1537911376537996,0,-2,-1,-11,-10,-16,-2,-1
1537911376537996,-1,2,13,22,4,-4,5,2
1537911376549964,-3,-2,-8,-25,3,7,0,-3
1537911376549964,2,0,0,21,11,-4,-1,1
1537911376558939,-2,-1,-1,-8,-9,-5,-1,-1
1537911376558939,0,-4,-6,-38,-2,13,1,0
1537911376573899,2,4,14,30,-6,0,5,1
1537911376573899,-3,-2,-2,-2,2,-15,-5,-3
1537911376575894,-2,-2,-4,-20,-33,-2,0,-1
1537911376575894,1,2,1,5,2,-8,-2,0
1537911376596838,-2,1,4,20,3,4,0,-1
1537911376596838,-2,-1,-2,-7,-1,3,1,-2
1537911376597835,0,0,-4,-2,4,-10,-4,-1
1537911376597835,2,1,8,19,6,-7,-3,-1
1537911376609803,-1,0,0,-4,-5,-5,-3,0
1537911376609803,-1,-2,-6,-3,-4,10,0,-1
1537911376618779,0,-1,0,14,1,-1,-1,-1
1537911376618779,1,-2,-1,0,-3,3,-1,0
1537911376633739,-2,-2,-3,-5,-1,-8,-1,-2
1537911376633739,0,1,0,-2,-3,0,-2,0
1537911376635734,-1,1,3,9,1,6,2,-1
1537911376635734,-3,-3,-1,-4,-2,-6,2,-2
1537911376656679,-2,-3,-4,-10,-2,-3,-1,-3
1537911376656679,1,-1,2,9,-1,-1,0,1
1537911376657677,0,-2,-3,-4,-8,2,2,0
1537911376657677,0,-2,-1,-2,-1,3,-2,-2
1537911376670641,1,1,2,14,2,-3,2,0
1537911376670641,-1,0,-3,-13,-30,0,-1,0
1537911376679646,-2,-3,-1,16,40,-4,-3,-1
1537911376679646,1,-1,-2,-8,-34,3,-1,-2
1537911376694577,1,-2,-5,-14,20,1,2,-1
1537911376694577,0,-1,4,16,-21,-9,0,-1
1537911376695575,0,3,5,19,19,1,1,-1
1537911376695575,-1,-3,-3,18,47,0,-1,1
1537911376716518,0,-2,-1,0,6,0,-5,-3
1537911376716518,-1,-3,-5,-16,-18,2,2,0
1537911376718513,2,0,-3,-6,-34,-2,1,-1
1537911376718513,-2,0,-3,-4,-5,1,0,-2
1537911376730483,-1,1,0,-4,-22,-2,0,0
1537911376730483,-1,1,1,-4,9,0,-2,-3
1537911376739458,-2,-4,-2,0,-5,0,2,1
1537911376739458,0,-1,-2,-4,5,0,0,0
1537911376754417,-1,-1,0,-2,-8,0,-2,2
1537911376754417,0,0,0,5,13,-1,2,-1
1537911376755415,-1,-1,-1,-5,10,4,-3,-1
1537911376755415,0,3,1,-1,-12,2,1,0
1537911376776359,-1,0,-1,4,-2,-2,0,-1
1537911376776359,-1,-2,-1,7,13,-4,-1,2
1537911376778354,-1,0,-1,-6,-12,-1,1,-1
1537911376778354,-4,-5,-6,-5,-1,-3,-4,0
1537911376790321,0,0,1,1,1,-3,-1,-2
1537911376790321,0,0,1,0,10,-2,-3,-2
1537911376799297,1,0,2,-3,-8,-1,-1,1
1537911376799297,-1,-1,1,2,-1,-1,0,-1
1537911376814257,-2,-2,1,1,5,-2,-1,-1
1537911376814257,-1,-1,-1,-3,-1,1,-1,-1
1537911376815255,-1,-2,-3,-3,-1,-2,1,0
1537911376815255,1,2,1,-1,0,-3,0,-2
1537911376836199,-1,-4,-3,-2,-5,-1,-1,0
1537911376836199,0,0,-1,-1,5,2,-1,-1
1537911376838195,-1,-2,-2,-1,-2,-1,0,1
1537911376838195,-1,1,1,1,0,-1,0,-1
1537911376850163,0,1,-2,1,-2,0,-1,0
1537911376850163,-1,-2,-1,0,2,-1,-1,1
1537911376859140,-2,-1,-4,-3,2,-1,-1,-1
1537911376859140,0,-1,2,1,-5,1,-1,-1
1537911376873101,-2,-1,0,-4,-1,0,-1,-1
1537911376873101,-2,-2,0,-2,1,-1,-4,-1
1537911376880082,0,1,1,0,-2,0,0,0
1537911376880082,-2,0,1,1,-1,-4,0,0
1537911376897037,1,-2,-7,-1,-1,-3,-1,-2
1537911376897037,1,0,-4,-1,0,-1,-1,-1
1537911376898034,1,-1,-3,0,-3,-1,-1,0
1537911376898034,1,0,-1,-1,0,-1,0,-1
1537911376910001,1,-1,3,1,1,-1,-1,0
1537911376910001,1,0,2,0,0,-2,0,-1
1537911376918977,-2,-1,0,-2,-2,0,-3,-2
1537911376918977,-3,-4,-6,-5,-2,-1,-1,0
1537911376933937,-1,1,-1,-1,-2,-2,0,-1
1537911376933937,-2,-2,-1,-2,0,0,0,0
1537911376939921,-1,0,4,1,0,0,0,-1
1537911376939921,1,1,2,1,2,1,-3,0
1537911376956875,-2,-2,-1,-2,-3,0,-1,-2
1537911376956875,-1,1,0,-1,-1,-1,0,-1
1537911376957873,-3,-4,-4,-4,-3,0,0,-1
1537911376957873,0,-1,1,-1,0,-2,-2,-2
1537911376969841,-2,0,-2,0,0,-2,-2,0
1537911376969841,-2,-1,-2,0,1,0,-1,-3
1537911376978817,0,1,1,2,-1,-2,-1,-2
1537911376978817,-1,-2,-4,-1,-3,-2,-1,0
1537911376993777,0,1,0,-1,-1,-1,0,-1
1537911376993777,-1,-2,-2,0,0,-1,-1,-1
1537911376999761,-2,1,1,-1,-1,0,-2,0
1537911376999761,1,0,0,-1,1,1,0,1
1537911377016715,0,-2,-1,0,-2,0,1,-1
1537911377016715,-1,0,-1,0,-2,0,0,0
1537911377017713,0,-4,-5,-3,-2,0,0,-1
1537911377017713,-1,1,0,0,0,-1,1,-1
1537911377038657,-2,-3,-3,-3,-2,1,-1,1
1537911377038657,-1,-3,-2,-2,-1,-1,-1,1
1537911377040653,0,1,2,0,1,0,0,0
1537911377040653,0,-2,2,1,0,-1,-1,-1
1537911377053617,0,1,1,2,0,0,0,1
1537911377053617,0,-1,-2,0,-3,-1,0,-1
1537911377060598,-1,-2,0,1,-2,-1,-2,0
1537911377060598,-2,0,-2,-1,0,-1,-2,1
1537911377076555,-2,-2,0,-2,-1,-2,-1,-2
1537911377076555,0,0,-1,-1,-1,-1,-1,-1
1537911377078550,0,1,0,-1,0,-1,-1,-1
1537911377078550,-1,-2,-2,0,-1,1,-3,-2
1537911377099494,0,0,0,-1,-1,0,1,-1
1537911377099494,-2,-2,-2,-2,-1,0,-1,-1
1537911377100492,-1,-2,-3,-1,0,-1,0,-1
1537911377100492,-1,0,0,0,-2,-2,0,-2
1537911377114454,-2,2,1,0,2,-1,-2,0
1537911377114454,-1,-2,-1,-1,-1,0,-2,-1
1537911377115452,0,2,1,-1,0,-1,-1,0
1537911377115452,-1,-2,-1,-2,0,0,0,-1
1537911377136396,-1,-4,-2,-1,-1,-1,-1,0
1537911377136396,-1,-2,-1,-1,-1,0,-1,-1
1537911377138391,0,-1,-1,1,0,0,0,-1
1537911377138391,0,0,-1,0,-1,0,-1,-2
1537911377159335,-1,1,0,0,-2,-2,-1,-1
1537911377159335,0,1,0,-1,-1,-1,1,-1
1537911377160333,-1,-2,-2,-3,-2,-2,-2,0
1537911377160333,-1,-2,-2,-2,-1,-2,0,-2
1537911377173298,0,-3,-1,-2,0,-3,-1,0
1537911377173298,0,0,0,2,0,0,-2,-2
1537911377180280,0,0,-1,-2,-2,0,-1,-1
1537911377180280,-2,0,0,0,-2,-1,-2,-1
1537911377196237,-2,-3,-1,-2,-1,-1,-2,0
1537911377196237,-1,-2,-1,-1,0,1,-1,-1
1537911377198232,-1,-2,-1,-2,-1,-2,-1,-1
1537911377198232,-3,-3,-1,-1,0,-2,1,1
1537911377219175,2,0,0,0,0,0,-2,0
1537911377219175,-1,-1,-2,-1,-2,-2,-1,-1
1537911377220172,-1,0,-1,-1,0,0,-1,-1
1537911377220172,-2,-1,-1,-1,-2,-1,0,-1
1537911377233137,-2,3,0,3,0,-2,-2,-1
1537911377233137,-2,-4,-3,-3,-1,0,-1,0
1537911377248098,-2,1,1,1,1,0,1,-1
1537911377248098,0,0,-1,-2,0,-1,-2,0
1537911377257073,0,0,-3,0,-1,-1,0,0
1537911377257073,0,0,1,0,0,0,1,-1
1537911377258072,-1,-1,-1,0,1,-2,-2,0
1537911377258072,-1,0,-1,-1,1,0,0,-2
1537911377279016,-1,-1,-2,-1,-3,1,-1,-2
1537911377279016,0,0,-3,0,-2,-3,-1,-1
1537911377281011,0,-1,1,0,-1,-1,0,-1
1537911377281011,2,-1,-3,-2,-1,-1,1,1
1537911377292978,-2,-1,-3,-4,-3,-1,-1,-1
1537911377292978,-1,-2,-4,-2,-1,-1,-1,-1
1537911377299960,-2,-2,-3,0,-3,0,-2,-2
1537911377299960,-1,-1,1,1,0,-2,-1,-2
1537911377316914,0,0,0,-1,0,0,-1,-1
1537911377316914,0,0,0,0,0,-1,0,0
1537911377317912,1,0,-2,-1,1,-1,0,-1
1537911377317912,1,-2,0,0,0,0,-1,1
1537911377338855,-2,-2,1,-2,0,1,-2,0
1537911377338855,-1,2,2,1,-1,-1,0,0
1537911377340851,0,0,-1,-1,-1,0,-4,-1
1537911377340851,-1,-2,-4,-1,-2,-2,1,0
1537911377353816,-1,-2,0,0,0,0,-1,0
1537911377353816,-2,-2,-2,-1,-2,0,0,-2
1537911377360800,-1,-1,1,0,-2,-1,-1,-1
1537911377360800,-1,1,-1,1,0,0,0,-1
1537911377376754,0,-2,-2,-3,-1,-1,1,-1
1537911377376754,-1,-1,0,-1,-1,0,0,1
1537911377377751,1,1,2,1,-1,-1,0,-2
1537911377377751,-1,-2,-3,-3,-1,2,0,0
1537911377397697,0,0,1,-1,0,0,1,-2
1537911377397697,0,-1,-1,0,0,-2,0,-1
1537911377406673,0,2,-1,-2,-1,-2,1,0
1537911377406673,-2,-1,1,0,-2,-2,-1,-1
1537911377413655,-1,-1,-2,0,1,0,-1,-2
1537911377413655,-2,-1,-2,-1,-1,-2,-1,-1
1537911377420636,-2,-2,-2,0,-2,-1,-2,-1
1537911377420636,0,1,3,0,1,-1,0,-3
1537911377436593,-1,-3,-6,-3,-2,0,-2,0
1537911377436593,0,1,2,0,1,-2,-2,-1
1537911377437591,-1,0,0,1,0,0,0,-1
1537911377437591,-2,-3,-4,-4,-1,0,1,-1
1537911377459532,-2,1,2,1,-1,-1,-1,0
1537911377459532,0,-1,-1,-2,0,1,0,0
1537911377460530,-3,-1,1,-1,0,1,0,0
1537911377460530,0,-1,0,-1,0,-2,0,-2
1537911377473496,0,-2,1,-1,-1,-2,0,0
1537911377473496,0,0,-1,-1,-2,0,-1,-2
1537911377480477,1,-3,-2,-3,-2,0,-1,0
1537911377480477,-1,2,3,3,-1,1,-2,-2
1537911377496434,0,-2,-3,-3,-2,-2,-1,-1
1537911377496434,0,0,0,0,-1,0,-2,-1
1537911377498430,-1,-1,-1,-2,1,-1,-1,0
1537911377498430,-1,-1,-2,-1,-1,-1,-1,1
1537911377519373,0,1,1,0,-1,0,-1,-1
1537911377519373,-1,-2,-3,0,-1,-1,0,0
1537911377520371,-1,-1,-1,-1,-1,-1,-1,-2
1537911377520371,-1,-1,-3,-2,-2,-2,-2,0
1537911377532339,-1,-2,-1,1,0,0,0,-1
1537911377532339,-1,-1,-1,-1,-2,-1,-1,-1
1537911377541315,-1,-2,-1,-1,-1,-1,-1,-2
1537911377541315,0,-2,-1,-3,-1,0,-1,0
1537911377556274,-1,1,0,1,0,-1,-1,-1
1537911377556274,0,-2,1,-1,0,-1,-1,-1
1537911377558270,-1,-2,-1,1,-1,0,0,0
1537911377558270,0,1,1,0,0,0,-1,-1
1537911377579213,0,-2,-2,-2,0,-1,-1,0
1537911377579213,-3,-1,-1,-2,0,-2,-1,-1
1537911377580211,0,-1,-1,-2,-2,-1,0,0
1537911377580211,-1,0,0,1,-1,1,-1,-1
1537911377593174,-2,-1,0,-1,1,-1,0,-1
1537911377593174,-1,-1,-4,-1,-1,-1,-2,-1
1537911377601154,-1,-1,-1,0,-1,0,-2,0
1537911377601154,-1,0,-2,-2,-1,-3,-3,-1
1537911377616114,0,2,4,8,-10,2,2,0
1537911377616114,-2,-1,2,4,20,-7,0,-1
1537911377618108,-2,-3,-7,-2,-11,2,-2,-4
1537911377618108,1,1,9,-3,-31,-7,-3,-1
1537911377639052,3,6,14,83,58,-7,5,1
1537911377639052,-5,-11,-23,-69,-33,24,-3,-2
1537911377640050,-3,-5,-18,-93,2,-26,-7,-1
1537911377640050,-4,-6,-11,-20,0,-36,-1,-5
1537911377653016,-5,-2,4,-64,-24,84,-3,-1
1537911377653016,10,19,50,126,84,-20,-11,-1
1537911377661993,6,-12,-29,-66,-94,-30,15,6
1537911377661993,20,10,13,68,90,80,28,14
1537911377676952,2,-8,-32,-94,6,-8,-12,-4
1537911377676952,-4,4,13,49,37,-42,5,0
1537911377677950,-2,6,27,73,-37,34,-9,-5
1537911377677950,-6,4,9,24,65,-22,-7,-3
1537911377699889,5,-3,-10,-57,-26,-26,12,6
1537911377699889,-4,-9,-39,-128,-37,54,1,-4
1537911377700887,9,22,66,127,104,-64,-1,6
1537911377700887,-14,-18,-25,-8,-36,-13,-3,-2
1537911377712855,-2,1,1,-17,-15,43,-3,2
1537911377712855,-3,-4,10,73,24,27,11,-1
1537911377721831,-9,-16,-73,-101,-67,-31,5,-6
1537911377721831,12,21,71,88,-1,12,0,3
1537911377735793,-8,6,25,94,35,-39,-9,-3
1537911377735793,2,-18,-64,-56,-72,-27,-6,1
1537911377742775,-26,-19,-14,18,30,3,-16,-16
1537911377742775,-11,4,1,0,-59,20,2,-1
1537911377758732,15,2,-10,27,1,-45,9,9
1537911377758732,-5,17,61,127,16,-25,-7,3
1537911377760727,11,5,-10,-35,-34,97,39,9
1537911377760727,-6,-25,-55,-111,-76,-59,-38,-15
1537911377772695,-8,3,52,127,11,-13,0,2
1537911377772695,0,-9,-29,-56,-38,-41,2,1
1537911377781672,-7,5,24,63,24,-1,-4,1
1537911377781672,-4,7,14,45,20,-21,4,-1
1537911377795634,2,-10,-46,-110,-23,9,-8,-5
1537911377795634,10,7,23,52,23,-15,5,5
1537911377802615,-1,4,44,64,75,22,1,0
1537911377802615,1,-4,-24,-28,-61,11,-3,-3
1537911377819569,2,13,32,68,-5,-32,-3,-2
1537911377819569,-15,-17,-42,-114,-14,22,-10,-5
1537911377820567,1,2,5,-56,29,-31,-8,-4
1537911377820567,5,-4,-25,-52,14,50,-8,1
1537911377842508,-2,5,25,-19,26,16,14,4
1537911377842508,5,5,33,89,8,4,-4,-2
1537911377844503,2,2,7,69,-12,-8,-8,0
1537911377844503,-3,-7,-14,-13,-4,-14,5,1
1537911377855473,-5,-5,-20,-15,-25,-5,-9,-8
1537911377855473,0,4,9,-14,-7,-9,0,-1
1537911377862456,-1,-1,-11,-18,10,5,-2,0
1537911377862456,2,7,19,36,29,3,1,-1
1537911377879411,-3,-6,0,25,12,20,-10,-5
1537911377879411,-3,-6,-33,-25,-45,-21,5,1
1537911377880407,-8,-9,-14,-12,-32,11,-7,-4
1537911377880407,3,6,11,-24,33,-5,8,-1
1537911377892375,-4,-11,-27,-23,-22,7,-17,-7
1537911377892375,1,4,9,16,13,6,0,-1
1537911377901352,3,-1,3,22,-12,13,7,4
1537911377901352,-1,-4,-11,0,-3,23,-7,-1
1537911377916312,-8,-3,-7,-3,4,-9,5,-1
1537911377916312,5,3,6,-14,10,-2,-5,-4
1537911377922295,6,4,6,14,7,22,2,2
1537911377922295,-3,-5,-2,-1,-4,-16,-2,-3
1537911377939249,-2,-1,-3,0,-7,-11,6,-1
1537911377939249,-1,2,2,-10,4,16,-7,-4
1537911377940247,3,1,-1,-1,-11,-24,-1,0
1537911377940247,-1,-3,1,2,-12,17,-9,-1
1537911377962188,0,1,2,44,-10,-23,-2,0
1537911377962188,-4,-4,-21,-77,3,10,-2,-3
1537911377963186,3,0,-4,2,-15,-4,6,5
1537911377963186,-3,-5,-5,-8,6,-4,3,-2
1537911377976150,4,2,14,41,19,0,2,-1
1537911377976150,-1,-4,1,12,-9,28,3,0
1537911377983132,-1,0,0,9,20,-4,-9,-4
1537911377983132,-1,1,-1,-26,-21,9,10,4
1537911377998092,0,-3,-13,-50,-23,-11,-2,1
1537911377998092,2,2,10,30,12,-4,5,2
1537911378007068,-1,-1,-7,-25,-5,-5,-11,-2
1537911378007068,2,1,3,21,12,-3,0,-1
1537911378021031,-1,-3,-8,-20,2,6,-3,-3
1537911378021031,-2,-2,-1,0,-5,29,1,-1
1537911378023026,1,2,2,4,0,-19,-2,1
1537911378023026,-3,-2,-1,10,-1,-21,2,0
1537911378035991,0,0,-3,-3,-1,0,4,1
1537911378035991,0,0,4,4,-1,21,5,-3
1537911378043970,0,-1,2,-1,-2,8,0,-1
1537911378043970,-1,1,0,12,8,-10,-3,0
1537911378058930,-2,-5,-9,-20,-6,12,-4,-6
1537911378058930,-1,-1,3,10,-7,-22,0,1
1537911378060925,2,-1,-4,-11,-5,39,2,0
1537911378060925,-2,0,3,13,25,-5,-1,-3
1537911378081868,0,-2,-1,-2,-2,-3,-6,-1
1537911378081868,1,1,1,2,0,-9,10,6
1537911378082866,-1,1,-2,-1,-8,-13,-1,-1
1537911378082866,-2,-1,0,5,-8,1,4,-2
1537911378094833,-1,0,-1,3,12,10,1,-1
1537911378094833,-1,-2,-3,-2,-14,-3,-1,1
1537911378103809,-3,-3,-2,-6,-8,-5,-6,-3
1537911378103809,0,0,0,1,0,0,-2,2
1537911378118769,-2,0,2,-2,1,-3,-3,-1
1537911378118769,-2,0,2,2,3,-5,-4,-1
1537911378120764,1,-1,-3,-4,8,2,5,-1
1537911378120764,0,1,-1,2,-1,-8,0,-1
1537911378141708,-2,2,3,2,-7,4,1,0
1537911378141708,-2,-4,-3,-1,-2,-1,-8,-3
1537911378142706,3,0,-2,-5,5,-4,-3,3
1537911378142706,-2,-2,-2,-3,-31,-7,3,12
1537911378156668,-1,0,0,1,33,3,-5,-18
1537911378156668,-5,-2,0,2,-2,2,5,-8
1537911378164647,2,1,-1,1,9,-4,1,0
1537911378164647,2,-1,-1,-2,-6,-1,-5,-3
1537911378178611,-1,-2,-4,-5,-14,1,1,7
1537911378178611,-1,0,0,0,2,1,-12,-2
1537911378180605,-3,-2,1,3,-2,-1,5,-3
1537911378180605,-1,-1,-2,-2,6,5,3,-2
1537911378201549,0,-1,-1,-6,-10,-1,2,1
1537911378201549,2,0,2,6,7,-3,-6,-2
1537911378203544,-4,-6,-7,-5,-4,-1,1,0
1537911378203544,-5,0,0,-1,2,-2,-3,-3
1537911378215512,-2,-2,-4,-2,1,-4,-2,1
1537911378215512,2,2,1,0,-4,-5,5,2
1537911378224488,-1,1,2,0,1,-4,-3,-2
1537911378224488,-2,-2,0,-1,4,-5,-4,-4
1537911378239447,-1,-3,-2,-2,-8,-2,1,0
1537911378239447,-1,-1,0,0,1,-2,2,2
1537911378240445,-1,-1,-3,-1,-2,-1,-3,-2
1537911378240445,-1,0,0,2,3,1,-2,-2
1537911378261388,3,0,-1,-3,-6,0,2,3
1537911378261388,-1,1,-3,-2,-2,-1,0,1
1537911378263384,-1,-4,-1,0,1,-1,-3,-2
1537911378263384,0,-2,-3,-3,-1,-1,1,-1
1537911378276349,0,-1,-2,0,-3,0,1,2
1537911378276349,-1,2,1,3,0,-2,0,-2
1537911378282333,0,2,0,1,-1,-3,-4,-2
1537911378282333,1,-2,-2,-3,1,-1,2,0
1537911378299288,-3,-3,-1,-2,-4,-1,3,1
1537911378299288,0,-4,-2,-2,-1,1,-3,-2
1537911378300286,-2,1,-1,-1,-1,-2,-4,-3
1537911378300286,-1,-4,-1,-1,-1,0,1,0
1537911378321230,-1,0,0,0,1,-1,-1,0
1537911378321230,0,0,-1,1,0,-2,0,1
1537911378323225,-3,-4,-3,-2,2,-1,1,0
1537911378323225,1,0,-2,-1,-1,-1,-2,-2
1537911378336189,0,0,0,0,-2,-1,-2,-1
1537911378336189,0,0,0,-3,0,-1,1,1
1537911378343170,-1,-1,-2,1,-1,1,0,0
1537911378343170,-2,-1,1,0,1,0,1,-1
1537911378359128,0,2,-1,1,-4,-1,2,-1
1537911378359128,0,-1,-1,-2,-2,-1,-3,-2
1537911378360126,-1,-1,-3,-3,-1,-1,0,-2
1537911378360126,0,0,0,-2,-2,-1,-1,1
1537911378382067,-1,-2,0,-1,0,0,-1,0
1537911378382067,-1,-1,-2,2,1,-2,0,0
1537911378383065,-1,0,0,1,0,-1,0,-2
1537911378383065,0,-1,-1,0,0,1,-1,-1
1537911378395031,0,-2,-4,-2,-2,-1,-2,0
1537911378395031,1,0,0,0,-1,0,-1,-1
1537911378404007,0,0,2,0,-1,0,-1,0
1537911378404007,-2,1,0,0,-1,-1,-1,-1
1537911378418967,-2,0,-2,-2,0,1,-1,0
1537911378418967,-3,0,-2,-2,0,-1,-2,-2
1537911378420962,0,0,-1,-1,1,1,-2,-1
1537911378420962,0,0,1,2,0,0,0,-1
1537911378441906,0,-1,0,-2,2,-1,1,0
1537911378441906,-2,-1,0,1,0,0,-1,0
1537911378442903,-1,-2,-2,-3,-1,-1,-1,-1
1537911378442903,0,-1,0,0,-2,-2,-1,-1
1537911378454871,-2,-3,-3,-4,0,-3,0,-1
1537911378454871,-2,-1,1,-1,-1,-2,-2,-1
1537911378463847,-1,1,0,0,-1,-2,0,0
1537911378463847,-1,-4,-2,-2,0,-2,0,-1
1537911378478807,-1,0,0,0,-3,1,-1,1
1537911378478807,-2,-2,-1,-2,-2,0,-3,-3
1537911378480803,-1,-2,-1,-2,-1,0,-1,-1
1537911378480803,-1,0,0,0,1,0,-1,-1
1537911378501746,-1,0,1,0,0,-2,0,-1
1537911378501746,1,0,0,-1,-2,0,1,0
1537911378502744,1,0,-1,0,0,-1,-3,-4
1537911378502744,-1,-1,-2,-3,0,-1,0,-1
1537911378515710,0,0,1,0,-1,-1,-1,-1
1537911378515710,-2,-1,-4,-2,-1,-1,0,-1
1537911378523688,-1,-2,-1,-2,-2,-2,0,0
1537911378523688,0,0,-1,0,1,-1,1,-1
1537911378538648,1,0,-3,0,-1,-2,-2,-1
1537911378538648,-2,1,0,2,-1,0,0,0
1537911378540643,-2,0,-3,-1,-1,-1,-1,1
1537911378540643,-3,-2,-4,-1,-3,-1,-1,0
1537911378560589,-1,0,-2,-1,1,0,-1,-2
1537911378560589,1,-1,-1,0,0,0,1,-1
1537911378561586,-1,-1,0,0,0,0,0,-3
1537911378561586,0,-1,0,0,-1,0,-1,0
1537911378584525,0,0,-1,1,-1,0,0,0
1537911378584525,0,-2,-1,-4,-3,-2,-2,0
1537911378584525,-2,1,1,0,-1,-1,1,-1
1537911378584525,-3,-3,-3,-3,-1,1,0,0
1537911378598489,0,-1,-1,-1,-1,1,0,-1
1537911378598489,-2,0,-3,0,0,-1,-2,-1
1537911378599485,1,0,-1,3,-2,-1,-2,1
1537911378599485,0,1,-1,-1,-1,-1,0,0
1537911378620428,1,2,-1,0,1,1,0,-1
1537911378620428,-1,-2,0,0,0,0,0,-2
1537911378621427,-2,0,-1,-2,0,-1,0,-1
1537911378621427,1,1,3,2,1,-2,-1,-1
1537911378644365,0,-2,-2,-3,-2,-2,-5,-5
1537911378644365,-2,-4,-6,-3,-3,-1,0,0
1537911378644365,-1,0,-4,-1,0,1,-2,-2
1537911378644365,-1,0,1,-1,0,0,-1,-3
1537911378658328,-2,0,-2,-1,0,-1,0,1
1537911378658328,1,0,1,-1,0,0,-1,-1
1537911378659326,-1,-2,1,-2,-1,-2,0,0
1537911378659326,0,-1,-1,1,0,0,0,0
1537911378681267,-3,-2,-1,-1,-1,0,0,-1
1537911378681267,-1,-1,0,-1,0,-1,0,0
1537911378681267,-1,2,1,0,-1,0,-3,0
1537911378681267,-3,-4,-4,-6,-2,-2,-2,0
1537911378704205,-1,-1,0,-2,-2,0,1,1
1537911378704205,1,-1,-1,-1,0,0,0,-2
1537911378705203,0,-1,-1,1,-1,1,1,0
1537911378705203,-1,0,-1,1,-1,-1,-1,0
1537911378718168,-1,-2,-1,-1,-2,-1,0,0
1537911378718168,-2,1,1,-1,-1,-2,-2,0
1537911378719166,-2,0,-1,-1,1,-1,-1,1
1537911378719166,0,-2,-2,-1,0,0,-2,0
1537911378741106,0,-1,-1,-1,0,-1,0,-1
1537911378741106,-2,1,1,0,-1,-1,0,1
1537911378741106,-1,-2,-2,-1,0,-3,0,-1
1537911378741106,0,-2,-1,1,0,-1,1,-2
1537911378764046,0,-2,0,0,-1,-2,-2,-2
1537911378764046,0,-1,-1,-1,-1,-1,-1,-1
1537911378765043,1,-1,-1,-2,-1,0,-1,-1
1537911378765043,-1,0,3,-1,0,-2,0,-1
1537911378778008,-3,-4,-2,-1,-2,0,1,2
1537911378778008,-1,-1,-1,-1,-2,-1,-2,-1
1537911378779005,-3,-1,-1,-1,-2,-1,-1,0
1537911378779005,0,2,1,2,0,0,-1,0
1537911378800947,0,0,1,-1,0,-1,0,-1
1537911378800947,0,-2,0,1,1,0,-1,-2
1537911378801945,-1,-2,-3,-2,0,0,-2,-2
1537911378801945,-1,-2,-2,-2,0,-2,-3,0
1537911378823885,0,1,0,-2,0,-1,-2,1
1537911378823885,-2,-2,-4,-3,-2,-2,0,0
1537911378824883,0,-1,0,-1,-1,0,-2,-1
1537911378824883,0,0,1,-2,0,1,0,0
1537911378838845,0,0,0,1,0,0,0,-4
1537911378838845,0,-4,-1,0,-2,-1,0,0
1537911378838845,1,0,-2,-1,-2,-1,1,-1
1537911378838845,-1,-1,-1,-2,0,0,0,0
1537911378860787,-1,-1,2,-1,-1,0,0,0
1537911378860787,-1,0,0,0,-1,0,-2,-2
1537911378861784,-1,-2,0,-1,-3,-2,0,0
1537911378861784,0,-1,-2,-1,-2,0,-1,0
1537911378883725,-1,0,1,-1,1,-1,-2,-2
1537911378883725,0,0,-2,-1,0,0,0,-1
1537911378884723,-2,-2,-2,-3,-1,0,-1,0
1537911378884723,-1,-2,-1,0,-2,-1,1,-3
1537911378898685,0,-1,-1,1,-1,-1,0,-1
1537911378898685,0,0,1,0,-1,0,1,-3
1537911378898685,0,-1,1,-1,-1,-1,-2,-1
1537911378898685,-2,0,-1,-2,-1,-2,-2,-1
1537911378920628,0,1,-2,1,-1,-1,1,0
1537911378920628,0,-3,-3,-4,-2,-1,-2,-2
1537911378921625,-1,0,-1,0,-1,-1,-2,0
1537911378921625,-1,0,-1,-1,0,-1,-1,-2
1537911378944562,-1,-2,1,-1,0,0,-2,1
1537911378944562,-1,-1,-1,-2,0,-1,-1,-2
1537911378944562,1,0,1,1,-1,-1,-1,-1
1537911378944562,-1,0,-1,0,-1,-1,-1,-1
1537911378958525,-2,0,-2,-1,-1,-1,-2,-1
1537911378958525,0,2,-1,1,0,-1,-1,2
1537911378959523,-3,-4,-2,-1,0,0,-1,-2
1537911378959523,-2,-3,-5,-3,0,-2,0,-1
1537911378980466,-1,-2,-2,0,-1,1,0,1
1537911378980466,0,-2,-1,0,0,-3,0,-1
1537911378981464,0,0,0,0,0,0,1,-2
1537911378981464,-1,-1,-1,-2,-1,-1,0,-2
1537911379004402,0,-2,-1,-4,-1,-1,-2,0
1537911379004402,-1,0,-2,-1,-1,0,0,0
1537911379004402,-1,-1,0,0,0,0,0,0
1537911379004402,1,-1,-1,-1,0,1,-3,0
1537911379018365,0,-1,-3,-2,-1,-2,-1,-1
1537911379018365,-1,0,-1,-1,0,0,2,-1
1537911379019363,0,0,-2,-2,-1,-1,0,0
1537911379019363,0,0,0,-3,-2,1,0,-1
1537911379041303,-1,-2,0,0,0,-1,-2,-2
1537911379041303,0,1,0,0,1,-2,-2,0
1537911379041303,-2,-1,-1,-3,-1,-3,1,0
1537911379041303,0,0,0,0,-1,0,-1,1
1537911379064243,0,0,0,1,-1,-2,-3,-2
1537911379064243,-2,-3,-2,-4,-3,-2,-2,-1
1537911379065240,-1,-2,-2,-1,-1,0,0,-1
1537911379065240,-1,1,-1,0,-1,0,0,-2
1537911379078205,-1,0,2,1,0,-1,0,-2
1537911379078205,0,-1,0,0,2,0,-1,-2
1537911379079203,0,-3,0,-1,-1,1,-3,-1
1537911379079203,1,-3,-1,-1,-1,-1,-1,-1
1537911379101145,1,-1,-1,-1,-1,-1,-1,1
1537911379101145,-1,0,-1,0,-1,-2,0,1
1537911379101145,0,0,1,0,-1,-1,1,0
1537911379101145,-1,-1,0,-1,0,-2,-2,0
1537911379124083,0,-4,-4,-2,-1,-1,0,-1
1537911379124083,-1,-1,0,0,-1,0,-1,0
1537911379125081,-1,-1,-3,-1,0,0,-1,-2
1537911379125081,1,1,0,1,-1,-2,-2,-1
1537911379138045,-2,0,0,-1,-2,-1,2,0
1537911379138045,-1,0,1,1,-1,0,-1,-1
1537911379139043,-1,-1,0,0,0,-1,-1,-1
1537911379139043,-3,-1,-1,0,-1,0,0,1
1537911379160984,0,-3,-1,-1,-1,1,-1,-1
1537911379160984,-3,-2,-1,-2,-2,0,-1,0
1537911379161981,0,2,4,10,3,-2,-3,-2
1537911379161981,1,1,5,26,9,0,1,1
1537911379191901,-3,-6,-14,-7,-17,-12,-4,-4
1537911379191901,0,3,16,14,1,-13,10,3
1537911379191901,1,3,9,16,36,25,-7,-1
1537911379191901,0,1,9,55,-19,17,-3,-1
1537911379197885,-1,-2,2,-81,35,5,8,3
1537911379197885,-7,-22,-54,-71,-23,-86,-28,-10
1537911379198882,-3,4,21,77,8,15,2,-1
1537911379198882,-1,-2,-6,-115,-2,5,3,2
1537911379220823,0,9,18,122,6,-9,-11,-3
1537911379220823,5,8,6,-18,4,62,25,7
1537911379221821,-23,-5,-2,6,-24,-1,-2,-15
1537911379221821,23,10,9,57,3,-21,-16,3
1537911379243762,1,3,5,26,26,-27,2,2
1537911379243762,-7,-22,-61,-47,-42,22,-2,-3
1537911379243762,1,0,-2,-20,-29,-30,-1,3
1537911379243762,-8,-3,0,-17,-5,10,-3,-13
1537911379258722,0,3,13,35,17,12,5,3
1537911379258722,0,6,22,43,20,1,4,6
1537911379258722,8,4,7,37,-15,-4,-1,8
1537911379258722,1,-6,-17,-51,-12,-7,-5,-1
1537911379280663,3,0,-11,-32,-18,10,5,-1
1537911379280663,-2,1,10,20,-2,4,-1,1
1537911379281661,-7,-4,-12,-33,3,15,-2,-8
1537911379281661,0,-2,0,8,8,-10,6,1
1537911379303602,-3,-3,-12,-13,-13,3,-6,-3
1537911379303602,1,6,19,12,3,11,-1,0
1537911379304600,2,-2,-3,1,11,-23,-1,1
1537911379304600,-7,-5,-10,1,2,0,2,-1
1537911379318563,-1,-4,-1,-17,-19,0,1,0
1537911379318563,0,2,8,-1,18,-5,-8,-4
1537911379319561,4,-1,4,12,25,-5,-1,2
1537911379319561,-6,-2,-11,1,-17,2,6,0
1537911379340504,-2,-3,-8,-35,-19,5,-3,-1
1537911379340504,2,0,5,-12,12,-4,-3,-3
1537911379341502,1,-2,-5,-1,-13,0,1,1
1537911379341502,-4,0,3,-8,33,-1,5,0
1537911379364442,-1,2,6,5,5,8,-1,-1
1537911379364442,-2,0,-1,22,-7,18,-3,-1
1537911379364442,2,-2,-4,-17,-5,-6,5,2
1537911379364442,-3,-1,5,21,3,13,0,1
1537911379377407,-2,-3,-5,-4,-9,-12,-3,-2
1537911379377407,-1,2,6,10,5,3,-2,-4
1537911379386382,0,-2,-6,-17,-2,-9,-1,-2
1537911379386382,-1,-3,-1,1,-8,-10,-1,-1
1537911379401342,0,-2,-6,-5,-1,6,0,0
1537911379401342,2,2,9,19,3,-10,-1,0
1537911379401342,-2,-6,-14,-39,-9,-6,2,-1
1537911379401342,-1,-1,1,7,0,-2,4,2
1537911379424280,2,5,9,26,32,12,0,-1
1537911379424280,-2,-6,-14,-52,-39,-20,-3,-2
1537911379424280,0,1,-2,-9,25,13,2,0
1537911379424280,-2,-5,-2,-18,-14,-9,-4,-1
1537911379438243,-1,-1,4,2,-5,-1,-2,-1
1537911379438243,1,4,9,35,-2,4,2,0
1537911379446222,-1,-3,-11,-9,9,-8,-5,-2
1537911379446222,-1,-3,-3,5,-4,5,-2,-1
1537911379461181,-2,-2,-3,-3,-3,-18,2,-2
1537911379461181,0,2,5,25,12,15,-4,0
1537911379461181,0,-4,-4,-13,-21,8,9,0
1537911379461181,0,4,5,18,7,-20,-8,-3
1537911379484120,-1,-2,-1,-8,-8,-8,-6,-2
1537911379484120,0,0,-1,-4,7,2,-1,-1
1537911379485117,1,3,7,25,-5,9,1,1
1537911379485117,-4,-6,-6,-18,-8,-4,-1,-2
1537911379498082,0,0,6,24,5,5,2,2
1537911379498082,-2,-5,-15,-46,-9,9,1,-3
1537911379506061,0,0,3,3,6,5,-3,0
1537911379506061,0,1,8,70,6,-3,2,1
1537911379521021,-2,-4,-10,-63,-28,-2,-5,-1
1537911379521021,1,2,7,27,9,-5,-1,0
1537911379522018,-1,-2,-7,-31,-9,-2,-2,-1
1537911379522018,0,0,1,2,5,-13,-4,-2
1537911379543962,0,-2,-10,7,-1,21,1,0
1537911379543962,-2,0,-1,4,7,-3,1,-1
1537911379544959,-1,0,-3,-10,-6,3,0,1
1537911379544959,0,0,1,-10,-1,-4,-4,0
1537911379557923,-1,2,3,12,7,-3,-4,-1
1537911379557923,1,1,4,-6,-5,1,9,3
1537911379565902,-2,-2,-2,11,-4,-5,-6,-2
1537911379565902,0,-1,1,-13,6,11,8,1
1537911379580862,0,-1,-3,-6,7,-4,1,0
1537911379580862,-2,-2,3,16,1,-4,-1,-2
1537911379581861,0,1,4,5,-3,-4,-4,0
1537911379581861,-1,-1,-3,-17,-2,6,-1,1
1537911379603801,-1,1,3,-2,-6,-2,0,0
1537911379603801,-1,2,6,29,7,-5,-1,-2
1537911379604799,-1,-3,-17,-38,-13,-1,-2,-1
1537911379604799,-1,-1,1,-3,-6,1,-1,-3
1537911379626741,-2,-2,-1,-1,-4,-9,-5,-1
1537911379626741,-2,-4,-5,-6,2,13,-2,-1
1537911379627737,0,-2,2,10,4,-5,-3,-1
1537911379627737,0,1,1,0,-2,6,-1,-1
1537911379640702,-1,-1,-1,1,-4,-5,0,-2
1537911379640702,-1,-4,-4,-3,1,-6,-1,-1
1537911379641700,-1,1,4,0,0,-6,3,0
1537911379641700,-1,0,-3,-6,4,13,1,1
1537911379662643,0,1,8,20,-16,13,2,2
1537911379662643,-2,0,-7,-15,6,-31,-9,-2
1537911379670621,-2,-1,-1,-14,-8,4,0,-2
1537911379670621,-2,1,1,-14,4,-7,-3,-2
1537911379677603,0,0,3,19,1,-6,-5,-2
1537911379677603,1,1,14,61,22,21,8,1
1537911379685581,-1,-6,-23,-78,-26,-14,0,1
1537911379685581,-2,-1,0,3,-7,-1,1,-1
1537911379700541,0,-1,-3,-13,0,4,2,-1
1537911379700541,0,0,1,-8,-5,-5,-5,-3
1537911379701539,1,0,8,38,10,-3,-2,-1
1537911379701539,-1,3,3,6,1,4,-5,-1
1537911379724477,-5,-10,-19,-5,2,-9,5,0
1537911379724477,-2,1,-1,-16,-14,1,-1,1
1537911379724477,-2,0,2,15,4,0,1,-1
1537911379724477,-1,-2,-4,-13,-7,-5,-6,-2
1537911379737443,2,2,4,4,24,3,-1,1
1537911379737443,-1,-4,-7,-19,2,-6,0,-2
1537911379745421,2,1,8,23,10,4,1,1
1537911379745421,-2,-4,-3,24,-16,-2,1,-2
1537911379761379,0,0,-5,-56,-8,6,-1,-1
1537911379761379,-1,0,0,1,-3,2,1,-2
1537911379761379,-1,3,7,46,16,-1,-2,-1
1537911379761379,-1,-2,-10,-41,-19,-2,0,0
1537911379784320,-2,-3,-1,0,13,5,2,2
1537911379784320,0,2,-1,-2,-16,9,-2,0
1537911379784320,-2,0,0,6,12,-14,-2,1
1537911379784320,-2,-2,1,8,8,-5,-2,0
1537911379797286,1,3,-2,9,-6,-5,1,-1
1537911379797286,-1,-2,-3,-21,-6,-17,-7,-3
1537911379806260,1,-1,5,18,-6,13,-1,0
1537911379806260,0,-4,-7,-8,3,-5,3,1
1537911379821220,-1,2,1,-4,1,-4,-5,-2
1537911379821220,-1,0,-1,9,4,-2,2,-1
1537911379821220,-2,-1,-1,-13,-10,-8,-7,-3
1537911379821220,0,0,-2,-6,2,0,0,0
1537911379844159,-1,-2,5,17,-2,-6,-3,-2
1537911379844159,-2,-2,-6,-6,-2,9,1,1
1537911379845157,-2,-4,-8,-18,-2,9,4,2
1537911379845157,-1,2,10,16,-7,6,2,0
1537911379866099,-4,-8,-26,-61,3,-11,-1,-2
1537911379866099,1,-1,1,0,-5,-15,-3,-1
1537911379867097,2,-1,-2,-13,-2,9,0,-2
1537911379867097,2,1,2,25,5,0,1,1
1537911379881059,0,0,5,15,-6,-1,-1,-1
1537911379881059,0,1,0,-11,-3,-12,-4,-2
1537911379881059,-3,-3,-5,-6,-1,5,-1,0
1537911379881059,-1,-1,0,5,4,-3,-2,-1
1537911379903997,-1,-1,2,8,-9,10,2,-1
1537911379903997,1,-4,-3,-6,-1,10,6,1
1537911379904995,0,1,1,8,1,-26,-5,-2
1537911379904995,-1,1,-2,-8,1,2,2,-1
1537911379926936,0,0,2,8,-3,-3,-4,-2
1537911379926936,-2,1,0,4,1,-3,-1,1
1537911379926936,-1,0,-2,-3,-1,3,-1,-1
1537911379926936,-1,-2,-2,-7,-5,5,-3,-2
1537911379940901,-2,-3,1,5,-5,1,-2,-2
1537911379940901,-1,0,0,5,3,1,0,-2
1537911379941899,-1,-1,-2,5,1,-2,2,-1
1537911379941899,-1,1,2,12,-4,16,-5,1
1537911379963838,-1,-4,-2,-7,8,-1,0,-1
1537911379963838,1,-3,-5,-19,10,5,-3,-1
1537911379964835,0,1,5,10,-4,-3,3,1
1537911379964835,0,-2,1,5,5,-15,-8,-4
1537911379986776,1,1,3,14,1,10,4,1
1537911379986776,0,-1,2,4,-1,-12,0,2
1537911379986776,1,-1,-4,-5,-3,0,1,-2
1537911379986776,-1,-1,0,-12,6,1,3,0
1537911380000739,-3,1,-1,7,-10,-6,-5,-1
1537911380000739,-2,-2,1,6,-2,-2,-2,-3
1537911380001736,-1,2,3,-4,0,7,1,1
1537911380001736,1,1,-2,-4,-5,-10,0,0
1537911380023677,-2,0,0,6,0,-3,-1,-1
1537911380023677,0,0,0,6,-1,6,-3,0
1537911380024675,-2,-2,-3,-11,-3,-1,-4,0
1537911380024675,-2,-1,2,5,7,8,0,-2
1537911380046617,-2,-2,-5,-11,-5,-3,1,0
1537911380046617,-1,1,0,-7,-6,-17,-1,-1
1537911380047614,-1,-1,-1,11,-6,17,-1,-2
1537911380047614,-2,-4,-10,-21,8,-6,1,-1
1537911380060580,0,-1,4,5,7,-5,-3,1
1537911380060580,0,1,6,6,-2,-1,0,1
1537911380061577,-2,-4,-1,2,1,-1,0,0
1537911380061577,0,2,3,12,3,1,2,-1
1537911380084515,0,1,-1,-2,2,-6,-3,-3
1537911380084515,-3,-6,-9,-41,-14,16,11,0
1537911380084515,-3,-4,-3,-6,0,-6,-4,-2
1537911380084515,0,0,1,3,-1,0,-1,-2
1537911380106456,-1,-1,-4,8,-1,2,1,0
1537911380106456,0,0,-2,4,1,2,1,-2
1537911380107454,-1,1,0,-1,-2,-1,-2,-3
1537911380107454,-1,-1,0,-5,-3,-4,-1,-2
1537911380120419,-1,0,1,5,-1,-1,-3,0
1537911380120419,-2,-1,-2,10,0,1,-4,1
1537911380129395,-1,-1,-1,-10,-3,-2,2,-1
1537911380129395,-3,-1,-1,3,0,0,-2,-2
1537911380144355,2,2,3,0,-2,3,1,-1
1537911380144355,-1,-2,-1,1,-2,-1,-1,-1
1537911380145353,0,-1,-1,-4,2,-2,-1,-1
1537911380145353,-1,0,-3,-6,-4,-3,1,2
1537911380166296,0,1,1,0,-3,1,1,0
1537911380166296,-3,-1,0,2,2,-1,-4,-2
1537911380168292,0,1,-1,0,2,-3,0,-1
1537911380168292,1,-1,-3,-2,-2,0,0,1
1537911380181258,-2,0,2,-2,-3,-1,-4,2
1537911380181258,-1,0,-1,7,2,0,1,-4
1537911380189237,-3,0,0,-1,-1,-2,-3,-6
1537911380189237,-1,-1,-3,-4,-2,-1,0,-1
1537911380204195,-1,0,0,0,-2,-1,2,-1
1537911380204195,-2,-1,-1,-3,0,-3,-1,3
1537911380205193,0,1,-2,-5,0,1,-3,3
1537911380205193,-3,-1,-1,-1,-1,-1,0,-3
1537911380226136,-1,-2,-3,-1,-2,-1,-1,0
1537911380226136,0,0,0,4,-1,0,-1,-1
1537911380228131,1,2,-1,0,-1,-2,-1,-1
1537911380228131,-2,-3,-3,-2,-1,-2,-2,0
1537911380240099,-1,-1,1,-1,0,-1,-1,-3
1537911380240099,0,0,3,3,1,0,1,0
1537911380249075,-2,-6,-5,-7,-2,-2,1,0
1537911380249075,1,-1,-2,-2,-1,-2,-3,0
1537911380264035,-1,-3,1,-1,-2,1,2,-2
1537911380264035,-2,-1,-1,1,1,-2,-3,-3
1537911380265032,0,1,-1,1,1,0,-3,-2
1537911380265032,-2,-1,-1,-1,0,-1,1,-1
1537911380286973,-2,-1,0,-1,0,0,0,0
1537911380286973,4,1,1,2,-1,-3,-1,3
1537911380287971,0,-3,-2,0,0,1,-1,0
1537911380287971,-2,-3,-2,-3,-2,-3,-2,-1
1537911380299939,-2,-1,0,0,-1,0,0,0
1537911380299939,-5,-3,-1,-4,-1,-1,-3,-1
1537911380308915,0,1,-1,0,-2,-2,1,2
1537911380308915,0,-1,-1,0,-1,1,0,-1
1537911380323875,-1,1,-1,1,-1,-2,-1,-1
1537911380323875,1,0,2,0,1,0,-1,-1
1537911380325870,0,-4,-3,-2,-1,1,0,0
1537911380325870,-1,1,1,1,-1,0,1,0
1537911380346814,-1,-2,-3,-2,-1,0,0,0
1537911380346814,-1,-1,-1,-1,-1,1,-1,0
1537911380347812,-1,-1,2,0,1,1,-2,-1
1537911380347812,-1,1,1,1,-1,-1,-6,-3
1537911380359780,-3,-4,-7,-4,-3,-1,-1,-1
1537911380359780,-2,1,1,-1,-2,0,0,0
1537911380368756,-1,-1,0,-1,-1,-4,1,-1
1537911380368756,0,0,2,0,-1,-1,0,0
1537911380383716,0,1,1,2,-1,-1,-2,0
1537911380383716,-3,-1,-2,0,-1,-1,-1,-2
1537911380385713,0,0,-3,-2,-2,-1,0,-1
1537911380385713,-2,-3,-2,-1,0,0,0,0
1537911380406653,-2,1,0,-1,-1,0,0,-1
1537911380406653,-2,-2,-1,-1,-1,-1,-2,1
1537911380407651,-2,3,3,-1,0,-3,-4,-3
1537911380407651,-1,-1,-2,-1,-1,0,0,2
1537911380420616,0,-1,1,-1,-1,0,-3,0
1537911380420616,-1,-1,-1,-1,0,0,-2,-2
1537911380428595,-1,-1,0,0,0,0,2,0
1537911380428595,0,-2,0,-2,-3,1,-1,-2
1537911380443555,1,0,0,-1,-1,-1,-1,-1
1537911380443555,1,-4,-3,-2,-3,0,-1,-1
1537911380445550,0,-1,0,0,-1,0,-1,-1
1537911380445550,0,-2,-2,0,0,-1,-2,-1
1537911380466494,-1,0,-3,0,-1,0,0,-1
1537911380466494,-1,-1,-1,-1,-2,-1,-2,-3
1537911380468489,-2,-1,-1,-1,-1,-1,-2,-1
1537911380468489,-1,0,1,0,-1,-3,-1,-1
1537911380480457,0,-2,-1,-1,-1,-1,0,1
1537911380480457,0,0,-3,-2,-2,-1,-1,-1
1537911380489433,-1,-1,-1,0,-1,-1,0,-1
1537911380489433,0,-1,-2,-1,0,0,0,1
1537911380504392,-2,-1,-2,-2,0,0,1,-1
1537911380504392,-1,3,-1,-1,0,-1,0,0
1537911380505390,-1,-1,0,0,0,-1,-2,-2
1537911380505390,-1,-1,-2,-1,0,-1,0,0
1537911380526334,0,-2,0,-2,-2,0,-2,-2
1537911380526334,0,-1,1,0,-2,0,-2,1
1537911380528329,-1,-1,-2,-3,-1,-1,0,-1
1537911380528329,-2,-1,0,1,0,-1,-1,-1
1537911380540297,-1,-2,1,-1,-1,-2,0,-2
1537911380540297,-1,0,1,0,0,-1,-1,-2
1537911380549273,0,0,1,1,-1,-2,-2,1
1537911380549273,-3,0,-4,-2,0,1,-1,0
1537911380564233,-1,1,-1,-2,-1,-1,-3,-1
1537911380564233,-3,-2,-1,0,0,0,0,-1
1537911380565232,-1,-1,-1,1,-1,-1,2,-1
1537911380565232,-1,-1,0,0,-1,-1,-1,0
1537911380586174,0,-2,1,0,-2,-1,0,0
1537911380586174,-1,-2,-1,0,0,0,-2,1
1537911380588171,-1,0,0,0,1,-2,0,0
1537911380588171,0,-1,-1,-1,-2,0,0,0
1537911380600138,1,-2,-3,-2,1,0,0,1
1537911380600138,-1,-4,-2,-3,-3,-1,1,-2
1537911380609114,-1,0,-1,0,-1,0,-2,-1
1537911380609114,0,0,-1,-1,-1,-2,-1,-2
1537911380624074,0,0,1,1,-1,0,1,-1
1537911380624074,-1,-2,0,-2,0,-1,0,0
1537911380625072,-2,0,0,-1,0,1,0,0
1537911380625072,0,-1,0,-1,-2,-1,0,0
1537911380647012,-1,-1,-2,0,0,-2,-2,0
1537911380647012,0,0,-1,-1,0,-2,-1,1
1537911380648011,0,-2,-2,-1,-3,0,-1,0
1537911380648011,-1,-1,-2,-1,0,-1,-2,-1
1537911380676933,0,1,-1,0,-1,0,-1,-1
1537911380676933,1,-1,-2,1,-2,-1,-1,-1
1537911380677931,-1,0,1,-1,0,-3,0,-1
1537911380677931,-1,-1,-1,-3,-1,0,0,0
1537911380683914,-2,0,2,0,1,-1,-1,-2
1537911380683914,-2,1,-1,-1,-2,0,-1,0
1537911380685909,0,-2,-2,-1,-3,1,-1,-2
1537911380685909,-1,-1,-3,0,0,-2,-1,0
1537911380706851,0,0,0,-1,-1,-1,-2,-2
1537911380706851,-1,2,1,-1,-1,-1,-3,-1
1537911380707849,0,-1,-2,-1,-3,-2,-3,-1
1537911380707849,1,0,0,1,2,1,0,-1
1537911380719816,-1,-1,0,-1,-1,0,0,1
1537911380719816,-1,-2,-1,-1,0,-2,2,-2
1537911380728792,-1,0,0,1,-1,1,-1,0
