timestamp,emg1,emg2,emg3,emg4,emg5,emg6,emg7,emg8
1537911438681380,0,0,0,15,12,-5,-1,0
1537911438681380,1,2,7,45,15,-19,-2,1
1537911438684373,-1,0,5,15,34,-1,-7,-1
1537911438684373,1,2,-6,26,-43,-7,7,2
1537911438684373,-2,-6,-18,-98,-52,-5,2,-4
1537911438684373,-2,-2,0,2,54,12,-1,-4
1537911438687365,-1,1,18,78,-38,-21,-6,-1
1537911438687365,-1,1,-5,-19,24,-41,-9,3
1537911438687365,-3,-7,-24,-36,-58,1,6,1
1537911438687365,0,-1,-6,-19,-2,32,1,-1
1537911438702326,0,0,0,9,23,5,1,-1
1537911438702326,1,1,12,46,19,9,-5,-4
1537911438710303,-1,2,7,31,14,-6,-4,-1
1537911438710303,-2,-3,-8,-30,-14,-8,-3,1
1537911438716287,0,0,0,13,41,10,0,-1
1537911438716287,0,-2,-3,-17,-14,17,5,1
1537911438731248,0,-1,2,5,43,-6,-3,-2
1537911438731248,-1,-1,1,6,-22,0,2,-2
1537911438747204,0,2,4,8,33,-9,-2,-2
1537911438747204,1,-2,-3,-18,-49,4,2,0
1537911438755183,-1,-2,6,18,20,0,-3,0
1537911438755183,-2,-1,0,6,-41,-7,-4,-1
1537911438795076,-1,0,0,9,45,17,4,-1
1537911438795076,2,3,5,3,-23,9,8,2
1537911438795076,-2,-2,-2,-1,-4,2,0,-3
1537911438795076,0,-1,-1,-4,-23,-9,0,2
1537911438796074,-1,-1,-2,-3,-16,-8,-3,-2
1537911438796074,-2,-1,0,8,-6,-18,-6,-6
1537911438799067,-1,0,-1,-11,-19,11,3,3
1537911438799067,-5,-3,-3,29,69,-4,-3,-4
1537911438806048,-2,-1,0,-31,-21,-5,-4,-6
1537911438806048,-1,0,4,13,11,4,5,1
1537911438814026,0,-3,-8,-7,13,-4,1,-3
1537911438814026,-1,-1,0,-35,-20,1,-1,0
1537911438823004,-2,-4,-1,7,9,-3,-6,-1
1537911438823004,-3,-2,-1,4,4,-12,-8,-4
1537911438835967,1,3,7,20,-22,16,7,-1
1537911438835967,2,2,2,3,-30,-6,1,1
1537911438844943,0,1,0,4,50,12,-1,1
1537911438844943,0,0,-1,-11,-44,0,-1,2
1537911438867881,-1,-2,-2,-2,11,-16,1,0
1537911438867881,-1,-3,-5,-6,21,11,0,-4
1537911438868879,0,0,0,0,-33,1,2,-1
1537911438868879,0,-2,-7,-7,27,-13,-11,-6
1537911438881844,1,5,6,10,12,30,8,5
1537911438881844,3,1,8,2,-32,7,9,7
1537911438888825,-4,-6,-5,-5,5,-15,-6,-6
1537911438888825,-4,-5,-9,-17,21,11,7,2
1537911438904783,0,-2,3,4,-3,-16,-9,-6
1537911438904783,-1,1,-4,-13,-3,0,-13,-7
1537911438906777,2,0,-2,6,-5,11,5,0
1537911438906777,-2,-2,-2,-8,-18,-14,-1,-1
1537911438927721,-1,0,6,16,-13,-4,-3,-4
1537911438927721,-1,-3,1,23,-10,-12,-2,1
1537911438928719,1,3,-2,-17,47,25,23,8
1537911438928719,-3,-8,-9,-28,-20,11,3,5
1537911438941685,-2,2,3,-11,16,-23,-20,-22
1537911438941685,1,3,1,0,-49,10,8,-6
1537911438948666,1,-1,0,13,53,-14,-15,0
1537911438948666,1,1,2,15,23,4,-1,2
1537911438964623,-1,-1,3,-1,5,11,-23,1
1537911438964623,-1,-1,-1,-7,9,-9,-9,-6
1537911438966619,-2,0,0,3,-51,2,-13,-7
1537911438966619,5,-1,-2,-3,15,-2,-11,-11
1537911438987562,2,2,1,-3,-13,-5,12,11
1537911438987562,-5,-4,-5,-1,41,1,25,11
1537911438988560,-1,1,2,-5,-65,-17,31,1
1537911438988560,1,2,4,9,2,2,-6,3
1537911439001525,0,-4,-6,-9,2,-3,5,-1
1537911439001525,-5,-8,-6,-1,-11,-1,-60,-23
1537911439010502,-1,-1,-1,6,-21,-3,15,-6
1537911439010502,-5,-2,-2,-8,-37,-23,9,-19
1537911439025461,-3,-5,-8,-15,25,8,66,45
1537911439025461,2,1,0,-3,-25,-6,-20,0
1537911439026459,1,0,2,7,12,-4,-20,2
1537911439026459,-5,-2,0,0,21,9,-7,-7
1537911439047401,-3,-5,-8,-4,-49,-9,-23,-4
1537911439047401,-3,-1,3,12,22,-1,5,-11
1537911439049396,1,0,1,-16,-27,-4,3,5
1537911439049396,0,1,3,7,2,3,-5,1
1537911439062361,1,-2,-7,1,37,3,-11,-5
1537911439062361,0,2,4,9,17,-2,-8,-17
1537911439068345,-6,-1,-1,-8,-60,2,0,-16
1537911439068345,2,4,3,-2,28,5,-1,6
1537911439085299,1,2,6,4,12,19,5,0
1537911439085299,4,3,2,6,1,2,-14,-4
1537911439086297,4,2,9,42,27,-1,-4,6
1537911439086297,-6,-7,-14,-45,-45,-12,-1,-4
1537911439107241,0,3,7,3,25,1,-21,-5
1537911439107241,-2,0,-4,-10,5,-3,16,3
1537911439109235,0,-5,-15,-32,36,-1,2,8
1537911439109235,1,2,6,14,-59,-6,-14,-17
1537911439130180,4,-3,-9,-6,-13,-13,-7,4
1537911439130180,-7,2,6,11,4,8,-5,-10
1537911439131177,0,-1,-2,0,21,-5,8,12
1537911439131177,8,3,3,12,21,9,-11,-17
1537911439145140,-11,-3,9,-1,-16,-12,-11,15
1537911439145140,-2,-9,-12,28,3,-2,-21,-20
1537911439146138,4,4,14,32,-29,-12,27,14
1537911439146138,-37,-9,-10,-23,14,2,-28,-31
1537911439168081,22,9,2,-50,-13,5,-19,0
1537911439168081,12,-6,-27,-59,40,-26,31,20
1537911439169078,6,-12,-9,58,-13,10,16,5
1537911439169078,-25,-10,33,-85,-54,-34,-19,-27
1537911439183040,40,43,25,102,83,71,10,6
1537911439183040,-37,-9,22,-16,23,-12,-10,6
1537911439190021,17,7,-57,-111,-92,-36,12,12
1537911439190021,31,-3,73,82,109,-8,29,29
1537911439204981,-6,-31,-94,88,25,33,-20,-19
1537911439204981,48,49,67,-108,-64,-17,33,49
1537911439206977,-66,7,80,-19,-27,5,2,-21
1537911439206977,-59,-59,-100,11,10,3,34,-9
1537911439228917,38,-23,2,-100,-12,-30,-28,-58
1537911439228917,2,-17,-66,-37,-43,-4,18,-9
1537911439231908,43,25,69,-30,18,-3,-4,26
1537911439231908,36,69,121,82,57,24,13,56
1537911439234905,-39,11,34,122,-4,0,35,-31
1537911439234905,-57,-12,69,104,-8,31,-47,-22
1537911439244873,20,-11,-27,29,31,9,-16,-14
1537911439244873,32,-4,-120,-43,-62,-33,-40,10
1537911439256841,21,2,31,-46,54,61,54,7
1537911439256841,-78,-9,-21,-20,30,-28,-8,10
1537911439263822,-26,-4,49,52,36,-1,-33,-50
1537911439263822,62,0,18,11,-24,-5,52,30
1537911439278782,-13,-4,-60,-8,-16,-59,-46,-5
1537911439278782,-63,-45,-89,-40,-30,-5,26,-7
1537911439287758,71,36,70,48,-15,-14,44,56
1537911439287758,20,-9,-105,-57,9,33,-27,-70
1537911439293742,-30,-7,24,-105,-98,-80,1,39
1537911439293742,29,14,49,4,113,3,11,7
1537911439302718,-38,1,22,71,-34,-20,14,-5
1537911439302718,7,15,19,17,74,12,-25,-6
1537911439316681,-89,-24,3,22,-30,24,8,-19
1537911439316681,107,19,-10,24,-64,-32,-18,4
1537911439323662,-10,-16,-53,-106,-7,22,33,11
1537911439323662,-79,-22,31,80,45,27,-12,6
1537911439339619,67,36,42,60,28,20,6,11
1537911439339619,0,3,-28,-8,-21,-10,-25,13
1537911439346601,-35,-22,7,-29,10,28,-13,-51
1537911439346601,14,5,-77,-52,-28,16,16,39
1537911439353582,-9,-13,78,29,-10,-15,-7,-17
1537911439353582,-47,-1,-16,88,-11,48,15,0
1537911439362558,46,-4,-41,12,47,-20,19,28
1537911439362558,-36,-12,41,-78,-39,7,-23,13
1537911439376521,-3,5,-32,19,10,-2,18,-6
1537911439376521,43,14,24,-70,-74,-36,-2,10
1537911439383502,-20,0,-16,50,119,75,-40,-11
1537911439383502,-15,5,19,-29,-28,33,5,-11
1537911439399460,-4,-14,7,-48,-40,-3,-20,4
1537911439399460,41,-8,-27,35,-7,16,30,6
1537911439406441,-23,-10,-38,5,0,-23,-28,-30
1537911439406441,13,30,59,23,-30,-24,16,-9
1537911439413423,-22,-16,-20,-11,7,-26,-14,12
1537911439413423,-29,-37,10,39,32,23,-1,-10
1537911439428383,7,-25,-24,-35,-59,-27,-13,6
1537911439428383,43,28,23,40,48,6,15,3
1537911439437358,-22,11,-11,-23,17,-27,-9,-2
1537911439437358,19,17,21,12,-20,-17,-9,2
1537911439443342,3,5,8,-22,-50,-3,-17,-11
1537911439443342,-27,-25,-19,91,77,20,24,2
1537911439459300,35,-8,-59,-90,25,9,-18,-1
1537911439459300,19,19,46,-29,-14,6,-5,-6
1537911439466282,-16,-11,-30,-65,-1,10,5,8
1537911439466282,-4,-6,2,0,-54,-30,-21,-7
1537911439473263,3,-1,-8,-12,-4,-18,7,-7
1537911439473263,-16,-2,6,15,80,77,-3,-5
1537911439488222,2,9,13,14,-2,-19,-12,-1
1537911439488222,-11,-1,15,17,-18,-4,10,-3
1537911439497199,10,-3,5,12,-25,-32,1,5
1537911439497199,0,1,-6,-15,3,10,-3,-5
1537911439504180,-13,-2,-4,33,12,1,-21,-13
1537911439504180,13,-9,-4,-18,-4,-9,8,10
1537911439519141,-4,2,3,-5,-21,-4,0,4
1537911439519141,-3,-1,-4,4,0,-17,4,-8
1537911439526122,0,-1,-3,3,18,5,-5,-6
1537911439526122,-1,-3,-9,-17,-57,-30,-8,-2
1537911439534100,-3,2,10,5,9,28,9,4
1537911439534100,-8,-1,1,8,13,0,5,-4
1537911439549060,5,-1,-1,2,-11,-5,-10,-2
1537911439549060,2,-2,-4,-6,10,-11,-2,9
1537911439557039,-11,-1,-1,-6,-33,47,6,0
1537911439557039,4,-1,3,14,21,18,1,-9
1537911439564020,2,4,2,42,7,-8,-4,1
1537911439564020,-3,-3,-7,-61,-16,45,-9,-6
1537911439587956,0,0,6,18,-16,42,-3,-1
1537911439587956,1,3,9,40,22,38,3,1
1537911439588953,-3,-3,-11,-50,-9,19,0,0
1537911439588953,-2,2,7,12,5,-37,1,-1
1537911439593940,0,-1,1,4,16,-45,6,-3
1537911439593940,1,-3,-8,-11,-35,-55,2,5
1537911439608900,-4,0,-2,5,19,-37,-3,0
1537911439608900,3,-2,3,-4,-10,-31,2,-1
1537911439617876,-1,1,0,-5,-2,-43,-3,0
1537911439617876,0,-2,-1,-3,11,-31,-8,-9
1537911439623860,-1,-2,1,7,-6,18,-6,-2
1537911439623860,-1,-2,-4,-14,-16,20,24,6
1537911439639817,-3,-1,1,7,13,5,-2,1
1537911439639817,-3,-1,-2,8,8,8,2,-1
1537911439645801,1,-2,-4,-32,-10,-5,-2,2
1537911439645801,-2,-2,-1,0,2,-12,-12,-6
1537911439653780,2,2,4,5,-29,-7,1,-2
1537911439653780,1,-1,-2,-13,14,5,8,1
1537911439668740,-1,-2,-4,-3,-16,-28,-6,0
1537911439668740,-2,1,5,50,23,-11,-10,-6
1537911439676718,1,0,-5,-42,-3,37,12,5
1537911439676718,-2,-1,-7,-32,-10,-13,-6,-1
1537911439683700,0,1,3,25,3,-6,4,0
1537911439683700,-1,0,5,6,-25,-19,-6,-1
1537911439699658,-2,-3,-8,-15,5,-8,0,-1
1537911439699658,1,1,3,20,-16,1,-4,-3
1537911439706639,-3,-1,-6,-35,23,3,-1,-2
1537911439706639,3,-1,0,3,2,9,2,3
1537911439713621,-1,0,5,14,7,-1,3,2
1537911439713621,-1,-2,-2,-14,-9,0,-1,-1
1537911439728581,-1,-2,0,23,4,5,-11,-5
1537911439728581,-1,0,-2,-8,-23,-9,-2,0
1537911439736560,-1,1,4,10,52,19,6,1
1537911439736560,-3,-1,-3,0,8,-2,2,2
1537911439743541,2,2,4,2,-23,0,7,2
1537911439743541,-3,-3,-5,-12,39,11,-13,-8
1537911439758501,-2,2,2,15,-66,-32,-2,-2
1537911439758501,1,1,2,7,-13,-1,0,-6
1537911439767478,1,-1,-3,-16,38,29,13,11
1537911439767478,-1,0,-1,-14,-14,-1,-7,-6
1537911439781440,-2,1,5,30,-13,-10,-8,-3
1537911439781440,0,-1,0,-14,35,-8,0,1
1537911439788422,-1,-1,-6,0,0,15,-3,-1
1537911439788422,1,-2,-1,-30,-1,6,9,3
1537911439805376,-1,-1,-1,-7,13,-1,-10,-5
1537911439805376,-1,1,0,2,-41,-11,-7,-2
1537911439806374,0,-2,-1,36,-10,-16,5,1
1537911439806374,0,0,0,-1,28,14,-5,-2
1537911439818342,1,-1,-1,13,1,7,2,0
1537911439818342,-2,-2,-4,-8,-11,-3,-1,-1
1537911439827318,-3,0,0,-1,-12,-5,-1,0
1537911439827318,-1,1,-2,9,12,6,-5,-5
1537911439842276,0,-1,-1,-11,13,-6,-4,-1
1537911439842276,0,-2,-3,2,8,4,3,0
1537911439848261,1,0,-1,-14,-26,-6,-4,-4
1537911439848261,0,1,1,9,13,8,5,3
1537911439865215,-1,-1,3,6,18,1,-6,-1
1537911439865215,-1,-3,-5,-25,-6,-2,5,-2
1537911439866213,-1,0,-2,-5,2,14,0,-2
1537911439866213,-1,2,5,34,-9,-8,-2,-3
1537911439878180,-1,-4,-11,-20,-6,4,0,1
1537911439878180,0,-1,2,-12,23,6,1,3
1537911439887156,0,-3,-2,-26,-7,-10,3,1
1537911439887156,-1,-2,1,1,-26,-7,-1,-1
1537911439902116,0,1,2,0,44,15,2,0
1537911439902116,-1,0,3,20,-6,1,-3,-2
1537911439909098,-1,1,2,13,10,-2,-7,-6
1537911439909098,-1,-3,-5,-12,-9,-4,13,6
1537911439925055,0,-1,0,6,-20,-11,9,5
1537911439925055,-2,-1,-3,-1,3,2,-4,-6
1537911439926053,2,-2,0,3,11,-1,0,-1
1537911439926053,2,-1,1,-1,-5,3,-6,0
1537911439939018,-1,1,1,-6,-5,-1,1,-1
1537911439939018,0,-4,-2,1,8,-1,2,2
1537911439945999,-1,-2,-1,-4,-9,-1,-6,-3
1537911439945999,-1,-1,2,-2,-2,1,-3,-4
1537911439961957,-1,-3,-2,-9,-8,-6,-5,-4
1537911439961957,0,-1,-3,-4,-35,-10,7,5
1537911439968939,-1,1,3,17,30,9,-4,0
1537911439968939,-1,0,-2,-1,24,11,1,1
1537911439984896,-2,1,5,17,-22,-12,-9,-6
1537911439984896,-2,-4,-13,-51,4,0,-2,-1
1537911439986891,-2,-3,-3,-6,11,-11,-1,-1
1537911439986891,2,-1,-1,-1,-53,-13,8,5
1537911439999856,-1,0,0,-4,3,3,6,1
1537911439999856,1,2,4,20,-7,-3,1,3
1537911440005840,0,0,0,0,-1,0,-6,-1
1537911440005840,-3,-1,-2,12,20,-2,-4,-11
1537911440022795,0,0,3,-2,-42,-12,16,4
1537911440022795,1,2,3,39,55,12,-6,11
1537911440028779,3,-4,-7,-18,-25,-1,5,1
1537911440028779,9,2,14,69,18,9,12,17
1537911440044737,-10,0,-6,-37,0,-1,-5,-9
1537911440044737,-7,-10,-4,-3,-40,0,11,1
1537911440044737,-19,-4,-1,-34,20,7,2,-4
1537911440044737,4,1,-2,28,7,11,-12,-10
1537911440059695,5,7,33,124,4,-33,-4,2
1537911440059695,-16,-14,-60,-116,-5,35,-3,-14
1537911440065679,12,8,15,80,-24,-4,13,30
1537911440065679,23,5,4,-46,-41,18,-29,-8
1537911440082633,-12,-4,-21,70,15,3,-11,-13
1537911440082633,2,9,54,-51,28,-4,8,-12
1537911440088617,-33,-20,-20,7,-13,-45,-1,-14
1537911440088617,9,-7,-31,-17,8,7,16,26
1537911440104574,-10,-17,-20,-15,11,28,25,-12
1537911440104574,27,43,73,20,-11,-5,2,30
1537911440104574,10,14,-10,15,4,-8,-2,-6
1537911440104574,-23,-6,-25,18,32,-16,-24,-58
1537911440134495,-29,-18,72,-35,-13,3,-12,6
1537911440134495,34,-34,-116,-25,-17,-20,2,-4
1537911440135492,8,-3,42,74,31,-42,1,15
1537911440135492,52,58,92,-111,-32,17,1,67
1537911440149455,60,26,-54,-113,11,-1,-43,-16
1537911440149455,-35,-21,-58,-9,-20,-29,15,-39
1537911440150452,-26,7,72,-71,-4,19,15,-28
1537911440150452,-32,-17,-128,32,-38,-51,20,-34
1537911440171396,11,-22,-24,63,47,1,-9,24
1537911440171396,18,14,84,-13,-11,17,-17,37
1537911440172394,-47,-11,-41,-23,28,28,-38,-37
1537911440172394,8,-10,26,24,5,-42,28,-3
1537911440194336,6,12,34,4,-13,60,15,-10
1537911440194336,-18,-5,-29,104,-14,-15,-12,2
1537911440195334,56,24,29,11,40,12,22,52
1537911440195334,-23,8,60,92,23,24,-35,-34
1537911440208298,-7,-11,-21,-40,-18,-22,2,13
1537911440208298,-33,-31,-73,-7,10,-5,-27,-28
1537911440217275,1,8,13,-17,-47,14,-18,-19
1537911440217275,12,3,-7,12,23,15,22,47
1537911440231238,-35,-15,-39,-10,0,-13,3,-35
1537911440231238,16,10,35,-64,-17,5,27,5
1537911440239218,0,-14,-36,-14,-22,-13,-4,6
1537911440239218,-18,-6,-10,-13,-5,-1,-9,-17
1537911440254176,-2,17,70,18,0,-1,-2,11
1537911440254176,0,2,-4,67,33,14,-4,0
1537911440255173,5,-4,-37,4,-31,4,-15,-13
1537911440255173,-10,-21,6,-43,28,-2,-6,4
1537911440269135,8,14,-6,-33,-21,-16,11,9
1537911440269135,7,6,10,30,8,5,0,8
1537911440270132,6,-2,-3,45,-4,12,7,3
1537911440270132,-14,-12,0,-57,-2,11,4,-3
1537911440292073,4,-1,-17,-2,0,2,-6,2
1537911440292073,-6,1,1,8,-14,-19,-16,-13
1537911440292073,-1,-1,6,10,-14,1,4,-1
1537911440292073,0,0,11,7,13,3,10,3
1537911440314015,1,-5,-22,10,2,-10,-7,0
1537911440314015,-2,5,21,-5,2,1,10,5
1537911440315012,-6,1,0,-12,-15,6,-2,0
1537911440315012,1,-5,-9,0,-2,-3,-6,0
1537911440328975,8,-1,-8,-4,12,-1,14,8
1537911440328975,-5,8,27,13,10,14,-8,-4
1537911440329972,1,-5,-15,-34,-11,-10,7,3
1537911440329972,-9,-5,-7,-6,-9,0,4,-3
1537911440351914,-2,-3,0,-6,-11,-1,-20,-10
1537911440351914,1,3,14,31,10,-3,4,-2
1537911440352911,3,-3,-13,8,17,9,-2,-2
1537911440352911,-1,-6,-3,-43,-36,-9,1,2
1537911440374853,-1,2,2,8,19,12,-2,1
1537911440374853,2,-1,2,1,-7,-7,-3,1
1537911440375851,1,-4,-8,0,23,-20,-4,-3
1537911440375851,-2,1,9,24,-5,25,5,2
1537911440389813,-1,0,-2,-55,-27,-2,7,2
1537911440389813,-6,-5,-14,-39,-6,2,-6,-6
1537911440389813,0,2,4,-5,0,-1,1,2
1537911440389813,1,0,-1,11,10,-12,-8,-3
1537911440411754,-3,2,-1,12,-21,-4,8,4
1537911440411754,-2,-2,3,20,17,0,-3,0
1537911440412753,0,-2,-5,-37,-19,3,-8,-7
1537911440412753,1,-1,-2,3,-7,-7,7,2
1537911440434694,-8,-3,-3,0,2,-1,-6,-8
1537911440434694,10,4,9,18,-18,-2,16,22
1537911440435692,6,2,1,17,32,2,1,0
1537911440435692,-3,-2,0,-3,-2,-1,-10,-8
1537911440449655,-5,-4,-9,-11,7,-4,-4,-3
1537911440449655,-2,0,3,-7,-10,2,-4,-6
1537911440449655,-2,-2,-4,-14,-5,-1,0,-1
1537911440449655,0,-2,-2,0,0,3,2,4
1537911440471594,3,3,13,106,6,-4,-3,-1
1537911440471594,-4,-7,-20,-87,-24,-6,-6,-5
1537911440472592,1,0,-1,22,3,-5,-1,0
1537911440472592,-2,-2,-6,-35,-8,1,-4,-3
1537911440494532,1,2,4,11,-7,6,4,3
1537911440494532,-2,0,1,19,10,-2,-3,-6
1537911440495530,-2,-3,0,7,-15,2,4,1
1537911440495530,0,-1,-1,11,14,-5,2,4
1537911440509492,-1,0,-2,-19,12,8,-1,-1
1537911440509492,1,1,7,19,1,8,13,7
1537911440510490,0,-1,-4,-22,-5,-5,-3,-5
1537911440510490,-1,0,1,18,4,-6,-3,-2
1537911440531434,-2,-2,-6,-32,-5,-3,-6,-5
1537911440531434,-3,0,5,14,12,0,-8,-9
1537911440532432,2,-2,-2,27,-7,2,4,4
1537911440532432,1,-1,-3,-17,10,1,-1,-1
1537911440555370,0,-3,-4,-30,2,-3,3,2
1537911440555370,-1,1,7,26,-6,-9,-11,-5
1537911440555370,-1,-1,0,5,4,13,2,1
1537911440555370,-3,-5,-9,-17,-9,-2,-6,-8
1537911440569333,0,-2,-5,-31,-15,-10,-2,-1
1537911440569333,-1,1,4,24,14,1,-3,-4
1537911440570330,-1,1,0,-22,2,-14,-4,0
1537911440570330,-1,2,7,29,5,13,-3,-2
1537911440592271,-1,-1,-4,-3,3,-15,0,0
1537911440592271,-3,-1,0,4,-6,10,-4,1
1537911440592271,1,3,6,26,23,4,-4,-2
1537911440592271,-2,-1,-2,-13,-10,-4,-7,-2
1537911440615210,0,1,0,0,5,-2,1,-2
1537911440615210,0,-2,-2,0,-3,-8,5,-4
1537911440616207,-1,-2,-4,-20,-13,-7,-4,-1
1537911440616207,-4,-1,1,2,4,8,4,0
1537911440629173,0,-1,2,19,3,1,6,3
1537911440629173,0,-1,-5,-8,-6,-2,-6,-2
1537911440630171,-2,-2,-1,-23,-8,4,2,1
1537911440630171,1,0,0,14,9,-8,1,-4
1537911440652112,0,0,5,39,14,9,8,3
1537911440652112,-2,0,-3,-32,-16,-3,-5,-3
1537911440652112,-2,-2,-6,-5,6,-2,4,1
1537911440652112,0,0,1,17,-5,-6,0,2
1537911440675050,1,0,0,-16,13,2,-6,-3
1537911440675050,1,-1,-1,-11,7,-2,1,1
1537911440676047,-2,0,4,17,-9,1,-8,-4
1537911440676047,-1,-1,-3,-11,7,-1,2,2
1537911440689012,-1,-2,-1,3,2,5,2,1
1537911440689012,-1,1,2,16,5,0,-12,-6
1537911440690010,0,0,-1,1,-1,7,4,3
1537911440690010,-2,-1,1,2,-11,-14,-4,-3
1537911440711951,-3,-1,-4,-18,-7,9,-4,-1
1537911440711951,1,0,1,-5,8,-3,-5,-3
1537911440712948,-2,-1,0,2,-9,-8,-1,-3
1537911440712948,0,-3,-5,-3,0,6,-1,1
1537911440734890,0,0,-4,-16,-2,-7,2,0
1537911440734890,-2,-1,1,23,-1,-1,8,6
1537911440735887,0,0,-2,-15,9,5,-10,-3
1537911440735887,0,-1,2,-3,-7,-6,11,4
1537911440748853,-1,1,3,22,-13,-3,-4,-2
1537911440748853,-1,0,2,-6,34,10,2,2
1537911440749850,-3,-5,-6,-17,-15,-10,9,2
1537911440749850,1,-1,-2,-12,-14,-1,-7,3
1537911440771791,-1,-3,-3,-27,-4,-3,6,4
1537911440771791,-1,1,3,10,-4,-4,1,-1
1537911440772789,1,2,3,30,6,4,-2,0
1537911440772789,-1,-5,-8,-42,-4,-10,5,0
1537911440794731,-1,-2,1,4,-4,-7,6,1
1537911440794731,-1,-1,-4,-7,0,5,-3,-2
1537911440795729,0,0,-1,7,1,3,15,5
1537911440795729,-1,1,8,50,-17,-3,-8,-4
1537911440809690,1,-1,-5,-7,36,1,-9,-8
1537911440809690,2,8,23,76,-6,2,0,7
1537911440809690,-5,-14,-35,-73,-41,-5,-1,-1
1537911440809690,11,3,-4,-29,-9,0,-4,-5
1537911440831632,-24,-8,1,15,7,0,-8,-8
1537911440831632,9,0,4,16,18,6,16,2
1537911440832629,19,17,28,107,38,4,-7,-2
1537911440832629,-6,-3,0,-31,-19,0,-7,-8
1537911440854570,8,6,-4,14,-21,0,-8,-1
1537911440854570,-34,-17,-13,-5,-7,-11,4,0
1537911440855568,-15,-8,2,30,9,6,17,-1
1537911440855568,35,5,-3,20,17,-9,8,10
1537911440869530,6,9,21,29,-19,-5,-19,-17
1537911440869530,-19,-10,-31,-111,0,1,-6,0
1537911440870527,7,-17,-5,91,14,-1,-18,-18
1537911440870527,21,2,-5,-66,15,1,-3,9
1537911440891471,17,3,-6,-9,-32,20,19,15
1537911440891471,-8,5,-2,19,-4,-10,1,11
1537911440892469,-12,-2,8,72,32,6,-14,-13
1537911440892469,-37,-2,15,57,28,-1,-7,-8
1537911440915408,23,4,4,-79,-20,26,1,13
1537911440915408,-5,-9,-9,12,34,-10,1,-24
1537911440915408,-17,-7,3,-38,-67,-6,-7,26
1537911440915408,-13,6,-7,-34,77,2,34,-11
1537911440928373,7,-9,-32,21,33,-18,22,7
1537911440928373,25,8,5,-19,8,33,-28,4
1537911440936352,-31,-12,19,-128,-26,3,-24,-1
1537911440936352,54,17,-26,76,-46,-28,26,12
1537911440952309,3,1,23,-27,26,-7,29,58
1537911440952309,-3,0,-17,80,-12,3,-15,-37
1537911440952309,-36,1,67,-77,-25,1,-15,-32
1537911440952309,14,3,-59,102,26,-26,-8,13
1537911440975248,-30,-17,-9,-38,4,9,12,-39
1537911440975248,15,17,43,72,-28,12,11,28
1537911440975248,16,-9,-44,16,13,25,30,41
1537911440975248,-4,0,19,-92,-32,-21,-39,-44
1537911440988214,17,-11,15,34,-19,-32,-16,4
1537911440988214,-71,-22,-82,-14,17,36,0,-4
1537911440997190,84,23,79,-54,-14,-13,2,-13
1537911440997190,-76,-10,-104,15,36,8,9,-4
1537911441012150,37,25,90,-5,-22,-42,6,-11
1537911441012150,6,15,41,-27,50,29,4,17
1537911441012150,42,-15,-59,23,7,0,12,0
1537911441012150,-32,-13,-51,72,-42,23,-9,14
1537911441035089,-11,-6,-30,-113,-14,-2,-22,-24
1537911441035089,-15,2,82,35,-10,-38,14,0
1537911441036086,-30,18,-14,110,20,-4,34,12
1537911441036086,64,1,127,2,13,56,-45,-80
1537911441049051,6,-5,-119,95,-10,-3,18,94
1537911441049051,-42,-14,91,-76,-20,-11,1,-43
1537911441057029,16,2,-95,35,16,-7,-18,-6
1537911441057029,1,-1,29,-67,-24,1,3,-14
1537911441071989,41,6,-16,-23,13,-10,-35,-24
1537911441071989,30,10,-1,83,26,-20,18,37
1537911441072986,-38,-20,-23,-128,-67,20,14,-20
1537911441072986,-19,4,49,-3,-19,-15,5,12
1537911441094927,-32,-12,-32,38,22,26,-7,-22
1537911441094927,-28,-5,-19,11,-15,-43,-22,-9
1537911441095925,-7,3,11,-22,-13,-15,16,-8
1537911441095925,38,5,-9,33,-12,-19,-2,40
1537911441108890,-41,-17,33,-11,5,51,7,-12
1537911441108890,-29,-4,-10,57,-19,-33,-17,-26
1537911441116869,43,27,-23,-8,32,-28,9,34
1537911441116869,-6,-10,-6,-93,-4,0,14,-16
1537911441131829,-38,-19,-11,31,-1,-46,-22,9
1537911441131829,74,13,-16,-4,25,40,-4,-3
1537911441132826,-41,-4,25,32,29,-25,-5,-28
1537911441132826,-26,16,-10,-103,-27,-14,-12,-16
1537911441154768,-28,9,53,92,17,-4,-29,-18
1537911441154768,-7,-3,33,-20,-40,8,13,16
1537911441155766,-5,-20,-52,26,1,-10,-27,-9
1537911441155766,-22,-36,-64,65,-7,16,13,32
1537911441168732,-4,2,12,-88,-4,5,-10,-21
1537911441168732,42,10,-2,9,13,10,-1,11
1537911441176710,-6,9,45,9,-37,-39,-21,5
1537911441176710,-34,-22,-33,5,-1,7,-10,-13
1537911441191670,-4,11,-4,-4,-3,16,14,-6
1537911441191670,11,-2,-29,-68,-7,-28,-13,10
1537911441192668,-3,3,33,47,13,40,44,4
1537911441192668,26,7,24,45,6,-23,-34,4
1537911441216605,3,5,12,5,6,42,4,-16
1537911441216605,40,5,-17,7,3,-11,10,12
1537911441217601,-69,-7,-3,-1,-3,16,-5,-13
1537911441217601,59,13,30,4,-14,3,-6,22
1537911441237547,14,11,-1,18,38,-10,12,-5
1537911441237547,-35,-20,-17,-3,5,-7,-9,-27
1537911441238545,14,-11,-32,-16,-27,-2,-4,8
1537911441238545,-27,0,8,-87,12,20,8,-2
1537911441251511,-3,-2,7,55,-12,3,-2,4
1537911441251511,11,0,-27,-6,-5,7,7,6
1537911441252508,22,14,26,-32,20,5,-8,9
1537911441252508,-24,-3,12,33,7,1,4,-2
1537911441275447,5,-2,-9,13,-10,-4,4,6
1537911441275447,1,-1,-10,-39,-13,-3,-5,1
1537911441275447,-1,0,8,-10,11,-7,-10,-9
1537911441275447,-10,-2,2,26,5,7,17,7
1537911441297387,4,-1,-5,-10,-3,-7,-3,2
1537911441297387,2,1,-7,-20,-16,1,4,-2
1537911441298384,3,-5,1,6,11,1,-9,-1
1537911441298384,1,1,4,25,8,2,5,6
1537911441311349,3,-1,-3,-11,-6,-4,4,3
1537911441311349,-10,-6,-11,-23,-23,2,-2,-3
1537911441312346,-4,-1,-4,7,2,3,1,0
1537911441312346,13,5,15,7,18,0,-2,10
1537911441335285,-6,-3,2,16,-7,-8,-3,-5
1537911441335285,-2,-5,-11,-7,-28,0,8,-3
1537911441335285,4,-2,-5,-33,15,-1,-9,2
1537911441335285,-8,2,5,7,-3,0,4,-1
1537911441357227,-4,-1,-3,1,5,1,3,0
1537911441357227,3,1,-4,29,-13,-4,-1,1
1537911441358224,5,4,5,-9,-1,-3,-6,-3
1537911441358224,-9,-3,-1,13,2,-2,3,-1
1537911441372187,1,-2,-6,-10,-3,6,1,-1
1537911441372187,-2,0,-4,-14,0,0,6,4
1537911441372187,0,0,2,5,1,-4,-9,-4
1537911441372187,-3,0,-1,0,-2,0,9,2
1537911441395125,-1,-1,0,4,-10,-8,-4,0
1537911441395125,1,1,0,4,20,0,-1,-1
1537911441396123,1,-4,-6,-28,-15,-1,-2,-3
1537911441396123,0,-1,2,9,0,-2,4,6
1537911441417067,1,2,2,8,-11,-1,0,-1
1537911441417067,-1,-5,-10,-40,34,2,-2,-3
1537911441418064,1,-1,-5,3,6,0,-7,-1
1537911441418064,-3,0,1,-5,-4,0,-5,-1
1537911441432027,-8,-1,1,-2,6,-4,2,-3
1537911441432027,7,-1,-5,4,-16,-3,5,3
1537911441433024,1,0,1,15,6,3,0,1
1537911441433024,1,0,-1,-10,1,1,-1,2
1537911441454966,0,0,1,16,1,-5,3,-1
1537911441454966,-5,-1,-1,8,-5,2,-7,-1
1537911441455963,-2,1,0,4,2,1,5,3
1537911441455963,-9,-1,5,18,-11,-2,2,-4
1537911441477904,-6,-5,-9,-37,14,-2,-1,-1
1537911441477904,19,6,2,3,-9,-1,-3,0
1537911441477904,6,3,-1,6,6,-5,2,1
1537911441477904,1,2,2,-6,-11,5,-5,4
1537911441491867,-7,-2,-5,-26,-28,-1,2,-8
1537911441491867,-13,-3,-3,-31,6,8,-2,-3
1537911441492864,15,2,7,23,2,2,0,2
1537911441492864,-4,-2,-1,10,18,-4,3,-4
1537911441514805,6,0,2,-9,-16,2,2,3
1537911441514805,-3,0,0,13,5,-2,1,0
1537911441515803,-2,0,1,13,1,-2,2,1
1537911441515803,2,0,0,-11,-1,4,-4,0
1537911441537746,4,-1,-3,7,2,3,-6,-3
1537911441537746,-2,-1,0,0,-3,-11,0,-2
1537911441538743,-6,-4,-3,-13,0,2,1,-1
1537911441538743,0,-2,0,3,-23,-6,-5,0
1537911441551708,-2,0,-3,-8,30,-3,-2,-1
1537911441551708,-4,-1,3,11,-3,6,-2,0
1537911441552707,-3,-3,-1,-11,-5,-4,-11,-3
1537911441552707,1,0,-2,-4,4,1,4,-1
1537911441576640,4,1,3,23,-2,0,1,3
1537911441576640,-5,-2,-2,-11,0,-4,-1,0
1537911441577637,1,0,4,8,-2,0,1,-1
1537911441577637,-7,-1,1,83,18,2,-1,-4
1537911441597584,3,-5,-8,-66,-31,-4,-6,0
1537911441597584,3,-2,-5,-47,-15,2,6,-1
1537911441598581,-5,-3,-3,-20,16,0,3,0
1537911441598581,-1,-1,2,0,14,2,1,-2
1537911441611546,-3,0,3,17,0,-5,-2,-1
1537911441611546,-2,1,2,38,9,1,-4,-2
1537911441620523,-1,2,1,-3,-11,-9,-3,-2
1537911441620523,-2,-4,-6,-31,-3,14,6,3
1537911441634485,-1,0,3,16,8,3,-1,-2
1537911441634485,0,-1,0,-2,-6,-8,-1,0
1537911441636480,-2,0,-1,16,1,-2,-2,1
1537911441636480,1,-1,-3,-22,-6,-5,-2,-2
1537911441657424,0,-2,-2,-3,-6,-1,1,0
1537911441657424,0,0,4,18,4,2,-1,-2
1537911441658422,-1,-1,0,6,6,1,-4,-7
1537911441658422,-1,0,2,-8,-22,-14,-2,-1
1537911441671387,2,1,5,56,13,12,-5,0
1537911441671387,-5,-6,-19,-100,14,-12,-1,-2
1537911441680363,-1,-1,1,5,4,15,3,-4
1537911441680363,1,1,3,24,-2,-4,-2,1
1537911441695323,-2,0,-3,-56,3,-3,5,1
1537911441695323,-1,-1,4,32,-16,0,-2,-1
1537911441696320,0,1,0,1,-7,-4,-2,0
1537911441696320,-1,0,-2,-8,4,-4,-2,-3
1537911441717264,-1,-1,3,25,-3,5,-4,0
1537911441717264,-1,-3,1,17,-1,0,3,3
1537911441719259,0,-1,-3,-17,-4,1,-2,-1
1537911441719259,-2,0,-3,-2,4,1,-3,-3
1537911441731226,-1,-1,-1,-2,2,-4,-8,-4
1537911441731226,1,1,0,3,-5,2,1,-2
1537911441740202,1,-2,3,12,1,-3,-1,1
1537911441740202,1,1,4,-9,-24,-2,-4,-3
1537911441755162,-3,-5,-16,-34,19,-5,-2,0
1537911441755162,0,2,11,60,10,8,-12,-7
1537911441756160,0,1,-7,9,-34,-7,0,2
1537911441756160,1,1,2,-26,1,3,-9,-3
1537911441777104,-1,-2,-12,-58,48,1,0,1
1537911441777104,0,-2,-9,-66,-19,-4,19,5
1537911441779098,-2,4,22,96,13,1,-2,1
1537911441779098,-10,-7,-19,-10,-13,-10,4,-7
1537911441791066,13,1,-3,-44,-71,-17,33,14
1537911441791066,-3,4,20,101,52,-1,-6,-6
1537911441800043,0,-2,-11,-101,-40,-2,-19,-9
1537911441800043,-15,-10,-14,-40,-47,29,16,-3
1537911441815003,5,-4,-7,21,36,-10,6,8
1537911441815003,8,13,35,107,-54,-15,-4,-5
1537911441816000,-14,-20,-54,-112,20,-36,18,8
1537911441816000,-2,6,28,124,10,34,20,9
1537911441837942,30,17,21,70,-35,4,-25,-8
1537911441837942,-4,-5,-18,-56,-19,47,16,4
1537911441838941,-2,8,21,96,25,-27,-23,-10
1537911441838941,6,11,16,-5,31,4,-7,5
1537911441850909,-48,-9,17,75,-10,-2,3,-13
1537911441850909,26,4,2,44,72,-17,-11,9
1537911441859884,14,7,14,28,-13,14,-17,-10
1537911441859884,-4,-18,-34,-87,-48,1,-13,-5
1537911441874845,-6,4,7,-22,17,9,-16,-4
1537911441874845,-3,-5,-4,-58,-12,-7,-16,-7
1537911441876840,-16,-3,5,-61,31,19,25,6
1537911441876840,12,13,76,113,11,-27,8,6
1537911441897781,6,-7,-84,43,54,22,-5,-12
1537911441897781,-22,-8,6,14,-91,-22,-28,6
1537911441903766,12,3,12,-35,63,-1,-9,-8
1537911441903766,-4,-7,-33,18,-86,-38,-34,-8
1537911441910747,-2,0,16,-69,4,3,9,3
1537911441910747,-2,-3,-12,6,31,12,-4,-3
1537911441919723,2,8,24,82,-6,0,6,9
1537911441919723,7,14,-3,-71,-19,4,0,-11
1537911441934683,7,16,104,58,31,5,-16,12
1537911441934683,0,-23,-118,-60,-5,19,-20,-17
1537911441940667,2,-7,40,-3,-77,-17,-2,0
1537911441940667,-10,8,35,-50,4,-4,16,-7
1537911441957622,6,-4,-43,127,-30,-15,-13,3
1537911441957622,2,6,21,-128,25,8,5,-2
1537911441958619,0,-3,-48,82,-10,17,18,10
1537911441958619,-8,-6,-9,-18,29,-1,-6,-8
1537911441971584,0,-6,11,-19,-44,-36,-6,-22
1537911441971584,-8,-3,48,100,-16,-15,-12,28
1537911441986545,-5,-18,-128,-56,-21,-21,-16,-7
1537911441986545,5,-8,-11,20,58,15,-14,12
1537911441995521,-24,11,41,-6,3,32,3,-21
1537911441995521,31,6,12,-37,-13,-17,-4,23
1537911442001505,0,3,27,29,26,19,23,-13
1537911442001505,16,10,10,-44,44,-33,-7,13
1537911442017463,-12,6,14,-34,-9,9,-2,-23
1537911442017463,-17,6,72,127,35,2,11,-20
1537911442019457,-1,-25,-80,-107,-62,-21,-3,4
1537911442019457,-15,-6,22,63,21,5,-4,-11
1537911442031427,3,-15,-12,-75,-85,-27,-5,19
1537911442031427,2,3,-64,57,41,-30,14,-10
1537911442040402,1,8,92,-35,-39,27,2,7
1537911442040402,-8,-14,-122,-60,53,17,23,-7
1537911442055361,13,17,53,1,31,31,22,16
1537911442055361,-13,0,65,23,-1,-10,-10,-23
1537911442056358,0,-7,-89,81,32,2,-12,9
1537911442056358,0,-9,16,-18,-21,59,12,6
1537911442077303,6,4,-43,35,36,-20,11,9
1537911442077303,6,9,30,-72,-32,1,28,-1
1537911442079297,4,10,85,47,41,34,3,24
1537911442079297,3,-12,-50,26,-32,-84,24,13
1537911442091265,-26,-18,-48,-106,-48,-22,-28,-21
1537911442091265,-13,-7,-47,-9,-8,24,4,-1
1537911442100241,-6,7,82,77,15,-21,-9,-21
1537911442100241,19,9,43,-2,-47,-5,7,8
1537911442115200,-2,-15,-45,-38,-16,8,-2,5
1537911442115200,-6,-3,-7,13,-20,-10,0,1
1537911442116198,-8,-9,-32,-43,-1,-17,-5,0
1537911442116198,5,-4,-3,16,50,-4,-27,-2
1537911442137141,0,7,55,46,-61,-7,4,2
1537911442137141,2,-7,-52,-31,41,29,12,-16
1537911442139136,-13,8,52,-4,17,11,30,-2
1537911442139136,10,4,-7,47,7,3,9,23
1537911442151104,15,9,19,11,3,-8,-15,4
1537911442151104,8,18,40,58,30,-4,2,-7
1537911442160080,-24,-5,4,-13,-25,-8,-5,-10
1537911442160080,-2,-18,-37,-75,-29,-14,-13,-14
1537911442182021,6,-19,-31,-20,8,14,1,-7
1537911442182021,-7,-12,-42,-92,-21,-11,-8,13
1537911442184016,11,6,-8,44,22,-4,5,-3
1537911442184016,-10,-1,19,-47,67,21,-10,-8
1537911442196981,-9,6,13,-16,27,18,14,3
1537911442196981,11,8,-10,-3,22,1,-3,3
1537911442198976,2,-3,-5,-62,-21,-29,-3,-3
1537911442198976,-10,2,21,56,-11,6,-2,-3
1537911442219921,-3,-4,-10,36,27,-25,-5,-7
1537911442219921,0,-7,-5,-37,18,1,-3,4
1537911442221916,-2,0,-14,25,-4,20,-10,2
1537911442221916,11,2,8,-16,-16,-10,0,-5
1537911442234883,-2,-1,-5,24,14,4,8,6
1537911442234883,-6,-1,6,-1,-36,-9,-5,1
1537911442236877,5,1,2,-14,17,1,-3,3
1537911442236877,-5,3,6,29,-16,10,3,-3
1537911442257820,0,-4,-10,-20,-18,-7,-1,2
1537911442257820,-5,-3,6,5,-20,5,5,4
1537911442258818,1,0,-10,-2,25,4,-10,-9
1537911442258818,-7,1,7,-7,9,6,1,-3
1537911442279763,5,3,-1,42,-10,3,2,7
1537911442279763,-2,-5,-2,-19,6,-9,5,0
1537911442281758,5,0,-8,-23,-6,4,3,2
1537911442281758,-2,1,3,27,-14,-4,-10,-4
1537911442294721,-1,-3,0,3,37,-3,2,2
1537911442294721,-2,0,3,25,-27,4,0,-1
1537911442296717,3,-3,-8,-36,-16,-3,-1,2
1537911442296717,-2,0,0,0,2,5,-3,-2
1537911442317660,1,-4,-6,-9,7,0,2,0
1537911442317660,-3,0,2,-6,-2,-2,-4,-4
1537911442318657,2,3,0,8,-10,1,-9,-2
1537911442318657,0,-2,1,-4,-10,-3,4,1
1537911442340597,0,-1,-5,-10,8,2,5,0
1537911442340597,-1,0,2,-7,-1,1,-2,1
1537911442341595,2,0,4,18,-8,0,2,1
1537911442341595,-8,-2,-10,-10,12,0,-7,-4
1537911442354560,1,-1,-1,32,16,-5,-4,-3
1537911442354560,6,-1,2,12,3,0,-2,4
1537911442361541,-2,-7,-22,-66,12,4,1,1
1537911442361541,0,0,2,27,27,-3,2,-1
1537911442377499,-8,-2,-5,-18,-25,-1,-3,0
1537911442377499,-5,-2,2,23,8,-3,1,-1
1537911442378497,3,4,15,79,0,1,1,1
1537911442378497,-1,-3,-10,-60,-34,-2,-4,-1
1537911442400438,-1,-3,-7,-21,24,1,-2,-2
1537911442400438,-1,0,1,-8,-15,1,-1,-2
1537911442401436,0,2,2,16,-4,-2,-1,-2
1537911442401436,0,2,7,22,10,0,4,0
1537911442413404,0,-2,1,15,-14,-3,-3,-2
1537911442413404,0,1,-2,-18,-6,0,-1,1
1537911442422380,-1,-2,-4,-9,5,-1,2,-4
1537911442422380,1,1,1,2,-6,-2,-10,-3
1537911442437340,2,1,-3,-12,-4,-1,-3,-1
1537911442437340,-2,-2,-2,2,0,-2,8,6
1537911442439336,3,3,6,26,-11,2,0,4
1537911442439336,0,-2,-4,-67,5,-1,-6,-1
1537911442460279,-2,-3,-3,12,-35,1,-4,-2
1537911442460279,-2,0,7,16,24,4,-1,-1
1537911442462274,-8,-4,-12,-84,-36,-2,1,-5
1537911442462274,10,-1,-6,52,25,0,-1,4
1537911442473245,-3,1,1,-38,0,1,-4,-1
1537911442473245,0,-4,-4,-11,-18,-2,-2,-4
1537911442482221,-3,0,1,16,10,-2,-4,0
1537911442482221,-4,3,9,35,-18,2,1,0
1537911442497180,-4,0,0,5,17,2,-2,-1
1537911442497180,5,-1,-4,5,-3,1,0,1
1537911442499178,0,-2,3,36,2,-3,-2,-2
1537911442499178,0,-1,-3,-37,-19,-2,-5,-2
1537911442520118,0,0,-1,-20,-6,-1,1,1
1537911442520118,-6,-1,-2,-20,-8,-3,0,-2
1537911442521116,1,0,-3,-6,1,2,-4,-2
1537911442521116,-1,-1,2,20,-4,-2,-2,-3
1537911442534082,-1,-3,-4,7,4,-5,11,4
1537911442534082,-1,1,1,8,3,-2,-4,-1
1537911442541062,-1,-1,-2,12,9,2,1,-1
1537911442541062,-3,1,5,6,20,-1,-1,-2
1537911442557019,1,1,-2,-7,-38,-4,-2,-4
1537911442557019,-2,-8,-17,-48,37,-4,4,-1
1537911442559015,1,-1,-1,-2,-18,-3,-4,-1
1537911442559015,-4,0,3,20,20,2,7,2
1537911442579958,0,2,7,37,-1,-3,-3,-4
1537911442579958,1,0,0,9,-13,-3,3,4
1537911442580956,0,-2,0,-3,7,1,-7,-3
1537911442580956,-1,-2,-3,-10,-8,-4,4,1
1537911442593921,-3,-1,0,5,3,-1,4,1
1537911442593921,-2,-1,2,8,-9,0,-1,-2
1537911442600903,1,-3,0,-11,9,0,-4,-3
1537911442600903,-4,-1,-2,4,-18,-4,-1,2
1537911442617857,1,-3,0,0,11,1,-3,-1
1537911442617857,-2,0,2,0,-5,0,-1,-1
1537911442618855,0,-1,0,-3,1,-3,-4,0
1537911442618855,1,0,-3,3,-6,-2,3,-1
1537911442639798,1,-1,-4,-5,10,1,5,2
1537911442639798,-2,0,2,15,2,-3,1,-1
1537911442641793,-1,-1,-2,-18,-8,-3,4,-1
1537911442641793,-1,-1,-2,-3,-1,1,-4,-2
1537911442654759,-2,-1,-3,13,-27,-2,-3,-2
1537911442654759,-1,0,1,-2,17,-1,1,-1
1537911442662737,0,0,1,6,3,0,4,3
1537911442662737,-1,-3,-5,-8,-11,1,-6,-3
1537911442677697,-2,0,2,-11,-3,4,3,1
1537911442677697,-3,-3,-1,3,-9,1,-3,-4
1537911442678694,1,0,1,16,-5,1,-10,-5
1537911442678694,1,1,1,-3,8,4,0,2
1537911442699639,-3,-2,0,42,16,-3,-2,1
1537911442699639,-1,-1,-2,-46,-7,0,-4,-3
1537911442701636,-2,2,3,60,6,-1,3,3
1537911442701636,-11,3,8,-12,-2,0,-11,-8
1537911442713603,14,-6,-14,-74,-10,-1,7,0
1537911442713603,-2,-3,-2,3,-31,-1,-16,-4
1537911442722577,-4,-1,3,36,7,-1,12,4
1537911442722577,-9,-1,-2,-19,26,-5,-2,-2
1537911442737537,8,-3,-3,1,32,6,-14,-8
1537911442737537,-12,2,12,33,11,-17,18,5
1537911442738534,9,3,-5,-55,-27,25,-4,-3
1537911442738534,24,-2,-4,18,-33,-16,8,10
1537911442760475,-17,-7,-16,-32,31,-5,-18,-10
1537911442760475,17,16,21,56,14,19,-8,6
1537911442761473,-18,-5,11,-11,-39,-4,15,8
1537911442761473,-8,-3,23,36,9,-16,0,-16
1537911442773441,5,-21,-76,-30,-25,5,-1,-20
1537911442773441,-12,-12,-23,-13,-10,-34,19,24
1537911442782416,11,9,4,6,17,6,3,0
1537911442782416,17,16,71,44,-13,-2,-17,17
1537911442797376,-10,3,-38,37,-30,-31,15,-4
1537911442797376,-57,-2,11,-77,6,-25,-20,-14
1537911442799371,45,-13,-12,37,22,3,12,-36
1537911442799371,-40,-6,-33,-1,-16,-11,14,12
1537911442820315,-5,22,127,34,0,14,-8,11
1537911442820315,8,-19,-125,-43,-25,-15,27,-14
1537911442821312,-5,11,76,-64,1,9,-1,36
1537911442821312,14,0,31,17,0,1,-8,-16
1537911442833280,16,-5,-65,-35,19,10,3,55
1537911442833280,-20,20,127,-31,1,30,4,-28
1537911442842256,70,16,-128,46,-24,-10,0,21
1537911442842256,-53,-58,-102,-128,-23,-32,-17,-8
1537911442857216,-58,-9,110,61,68,21,19,37
1537911442857216,98,-18,-15,-84,-72,8,-6,0
1537911442859211,-43,-15,18,-12,-16,-91,-10,6
1537911442859211,54,44,7,31,82,85,5,-7
1537911442880155,14,9,-39,71,-7,15,23,-23
1537911442880155,56,5,13,8,17,4,1,38
1537911442881153,-31,-25,-16,-22,5,-31,25,-9
1537911442881153,23,32,-32,30,-36,-8,9,-1
1537911442893121,-69,-19,69,-64,-18,-6,-16,-11
1537911442893121,-43,-15,-27,71,64,39,5,-35
1537911442902098,-40,-10,-10,46,-1,12,-16,1
1537911442902098,-21,-36,-23,-54,-22,-46,-20,-27
1537911442917059,38,26,-10,-4,34,66,13,-41
1537911442917059,17,22,66,-13,-71,31,-5,51
1537911442924039,9,-5,-61,-21,-9,-8,-16,2
1537911442924039,-14,-12,-18,89,29,12,37,16
1537911442939995,32,3,-36,-102,-80,-50,-17,0
1537911442939995,-15,-8,55,125,26,37,-17,-31
1537911442940993,-32,-9,-61,-111,-36,15,-4,0
1537911442940993,37,19,75,-57,-7,-10,1,13
1537911442953958,0,-20,-63,81,0,-33,-26,-18
1537911442953958,-17,5,10,-37,9,-37,13,3
1537911442962934,-19,9,61,26,4,-6,2,-66
1537911442962934,20,3,-21,14,-2,-6,-2,42
1537911442976897,-40,-2,77,23,22,19,-20,-39
1537911442976897,-18,-6,-59,-52,-14,-16,7,10
1537911442983878,61,3,29,35,37,73,15,67
1537911442983878,7,8,75,-8,5,2,-14,-29
1537911442999836,7,-9,-5,81,2,1,-3,30
1537911442999836,-1,6,-22,-67,-14,-18,-12,-48
1537911443001830,-48,-11,1,-17,-17,-3,-7,-24
1537911443001830,13,-10,-52,35,-29,4,-2,0
1537911443013798,27,15,-13,-41,4,10,20,16
1537911443013798,11,3,-8,33,37,-23,-17,12
1537911443022775,-46,-9,-11,42,24,2,5,-44
1537911443022775,13,20,54,-49,-17,-6,-6,-49
1537911443037735,35,-12,-23,39,-5,-10,-5,56
1537911443037735,-39,-11,-35,22,-4,18,2,6
1537911443038733,42,12,37,-17,33,-3,1,29
1537911443038733,-25,6,38,35,4,9,27,29
1537911443059676,-14,14,-1,65,10,14,-10,-41
1537911443059676,58,0,-42,-24,-4,-34,17,18
1537911443061672,-14,-13,2,37,12,-4,-3,23
1537911443061672,-23,-11,-19,-101,-57,7,-11,-21
1537911443073639,9,2,-63,11,-21,-35,3,6
1537911443073639,3,9,89,63,21,-4,-16,2
1537911443082616,-10,-2,-36,-2,-7,-19,3,-34
1537911443082616,7,-28,-76,20,27,62,2,18
1537911443097575,-10,5,55,-128,-8,-15,-8,-37
1537911443097575,-14,1,-55,81,11,-1,-9,16
1537911443098572,42,15,42,-48,9,19,5,-11
1537911443098572,-13,4,3,2,10,-17,12,24
1537911443119515,5,-2,9,20,-3,-19,-5,51
1537911443119515,-20,3,15,-6,-1,1,1,-4
1537911443121510,19,19,40,27,4,3,-20,-9
1537911443121510,-12,-20,-7,1,-3,-24,-9,5
1537911443142454,-8,10,-24,8,5,-3,11,-58
1537911443142454,-4,2,75,56,6,-1,-13,8
1537911443143451,-9,-15,-101,-20,10,-10,-12,8
1537911443143451,0,2,48,61,15,17,11,-8
1537911443157414,3,-14,-2,-50,-23,-15,-5,11
1537911443157414,-1,-20,-76,-75,-15,24,-8,-5
1537911443159409,-7,1,27,-36,-9,-4,2,-9
1537911443159409,-1,8,3,27,19,-5,-13,-6
1537911443180353,10,8,22,23,18,-4,4,-3
1537911443180353,-7,1,3,8,-9,5,-1,17
1537911443181350,-7,5,28,25,3,8,3,0
1537911443181350,2,-3,-22,-30,1,-11,-12,-2
1537911443202295,-6,-5,16,0,-9,3,10,5
1537911443202295,-6,-2,-18,3,-3,-3,-2,-22
1537911443204290,-2,-1,8,-17,-5,0,-7,3
1537911443204290,-4,-2,1,16,3,-10,0,4
1537911443217256,-2,-3,-10,5,-3,11,-5,-7
1537911443217256,0,-2,-9,-13,-4,4,9,-7
1537911443219251,8,7,25,21,3,-6,-5,7
1537911443219251,-5,-1,-10,7,38,2,3,-10
1537911443240194,-3,-5,-4,3,-31,-5,6,4
1537911443240194,2,-2,-16,-58,0,-7,1,-3
1537911443241192,2,0,17,-2,-22,-4,0,4
1537911443241192,-6,-1,-5,0,-4,-3,-6,-6
1537911443262136,2,0,4,31,8,7,1,3
1537911443262136,3,2,6,2,13,0,3,-2
1537911443264131,-3,-5,-3,-7,-5,-1,-10,-5
1537911443264131,0,1,-5,-9,-9,0,-3,-3
1537911443277095,1,-1,3,-7,5,1,0,3
1537911443277095,-8,0,3,24,0,-5,0,-13
1537911443291058,14,0,-1,-4,7,2,10,8
1537911443291058,-2,-3,-8,-10,-10,-3,-2,0
1537911443300034,1,-1,2,-16,3,3,0,0
1537911443300034,-3,1,0,11,-1,-2,-5,-6
1537911443301032,-5,-1,4,4,0,-2,-4,-2
1537911443301032,0,1,2,13,-30,1,-1,1
1537911443322974,1,-2,-1,1,40,3,2,1
1537911443322974,2,-2,-5,-9,3,-2,0,-2
1537911443323971,-2,-2,-3,-1,-6,-3,0,1
1537911443323971,-1,1,2,19,-4,-2,-4,-2
1537911443335937,-3,-1,-1,-12,-29,-1,-1,-1
1537911443335937,1,-2,-5,5,13,-1,2,-1
1537911443344913,-1,-2,3,-10,-11,-5,1,3
1537911443344913,-4,-3,-1,8,-1,1,-3,-4
1537911443359873,0,0,0,35,20,-1,3,2
1537911443359873,1,-3,-8,-76,-49,4,3,0
1537911443361868,-4,-1,1,-6,4,-3,2,-3
1537911443361868,4,2,0,-3,-1,0,-1,1
1537911443382812,0,0,-2,-10,-1,-2,-5,1
1537911443382812,0,-1,4,46,0,-3,-3,-3
1537911443383809,-3,1,3,3,25,2,-6,-2
1537911443383809,-11,-4,-3,-21,-7,-2,9,-1
1537911443395777,10,-1,-1,-7,7,0,-2,1
1537911443395777,0,-1,0,10,6,-1,0,0
1537911443404753,-1,0,3,-7,-12,6,-13,-7
1537911443404753,-4,-3,-4,2,10,-4,-2,-1
1537911443419713,-4,0,1,-4,-4,1,1,-4
1537911443419713,0,-2,-2,6,-10,-4,-5,-5
1537911443421708,-3,-3,-2,15,5,6,4,4
1537911443421708,1,1,2,-1,-6,-1,-7,-3
1537911443442652,0,-1,-2,-6,-2,-1,3,0
1537911443442652,-2,-2,-6,-20,5,1,-8,-4
1537911443443650,-1,-1,0,-16,-2,-3,3,0
1537911443443650,1,0,0,15,4,3,-3,-1
1537911443456615,-4,-2,-6,-17,7,-2,4,2
1537911443456615,-1,2,4,8,0,5,1,-1
1537911443463596,0,-1,0,-3,-2,0,-6,-2
1537911443463596,1,-1,-2,-5,2,-1,6,1
1537911443479554,0,-1,2,9,-9,0,-7,-5
1537911443479554,0,1,-1,16,1,-3,1,1
1537911443481549,0,0,-2,0,1,-3,5,0
1537911443481549,1,-4,-4,-10,-13,-9,4,-2
1537911443502492,0,-2,-1,-4,-6,1,0,1
1537911443502492,-3,0,-2,1,9,-4,3,-1
1537911443503490,2,2,3,3,-6,0,-2,1
1537911443503490,-2,0,-4,-3,12,0,-5,-2
1537911443516456,-3,0,2,-7,-10,0,-6,-4
1537911443516456,0,-1,-1,32,3,-7,9,1
1537911443523436,-1,1,0,27,-2,-4,2,-1
1537911443523436,-1,-5,-13,-78,6,2,-3,-1
1537911443540390,-2,-1,-1,-8,0,-4,-1,1
1537911443540390,-1,1,3,4,-5,10,-13,-5
1537911443541388,-1,2,5,39,19,1,-6,-3
1537911443541388,0,0,-1,18,-12,-3,0,2
1537911443562331,0,-3,-5,-45,5,1,4,3
1537911443562331,0,0,-2,2,8,-3,-3,-1
1537911443564326,-6,-3,-1,-14,-9,-3,-1,-3
1537911443564326,5,1,2,13,0,3,-5,-3
1537911443576294,0,1,1,9,-4,-1,3,1
1537911443576294,-1,-4,-4,-4,-9,-8,14,7
1537911443583276,-1,-1,0,-10,0,2,-2,-3
1537911443583276,-3,0,0,2,-3,0,-3,-2
1537911443600230,-3,-3,-3,5,-2,-3,5,1
1537911443600230,0,1,2,6,1,-1,-4,-1
1537911443601228,-3,-1,0,-21,-7,4,-3,-8
1537911443601228,0,-1,1,6,3,-3,2,4
1537911443622171,1,2,-2,-2,4,2,-17,-5
1537911443622171,-1,2,1,-3,-4,4,-4,-1
1537911443624166,0,0,0,16,3,-4,0,-1
1537911443624166,1,0,-2,-17,-14,-6,7,4
1537911443636134,-2,1,1,23,16,-1,2,-1
1537911443636134,2,2,2,-9,0,-3,-7,0
1537911443645110,0,-5,-12,-13,1,-5,12,6
1537911443645110,0,0,3,61,-9,10,-9,-3
1537911443660070,-6,-7,-15,-90,-16,-2,1,-7
1537911443660070,-6,-2,-1,14,-5,2,-3,3
1537911443661068,14,5,11,3,-4,-24,3,2
1537911443661068,-5,-3,2,44,23,3,25,3
1537911443682013,-4,-1,-4,25,-5,-25,6,0
1537911443682013,3,1,1,-15,19,32,-1,-2
1537911443684009,-2,1,9,23,-26,0,-15,-7
1537911443684009,-10,-20,-46,-102,-38,-17,20,4
1537911443695976,8,6,8,55,-16,6,15,12
1537911443695976,0,11,33,9,0,4,11,2
1537911443704953,-9,-19,-37,-14,15,-24,-13,0
1537911443704953,3,-6,-19,44,18,28,-6,-8
1537911443719913,-7,-2,7,-39,-23,6,-18,1
1537911443719913,-2,0,-8,49,18,-19,-9,-11
1537911443721906,-9,6,27,-88,-21,7,3,-11
1537911443721906,-10,9,35,-17,3,-20,-21,-54
1537911443742849,11,-12,-53,-15,1,5,1,45
1537911443742849,10,0,-8,5,-2,-11,-8,1
1537911443743847,-3,-6,-1,15,10,21,14,29
1537911443743847,-10,5,12,-14,25,33,-25,-19
1537911443755815,-9,12,28,-32,-6,-8,-6,-23
1537911443755815,-5,9,53,7,-20,-35,5,-19
1537911443764790,13,2,-48,49,9,21,-6,15
1537911443764790,5,-9,20,-48,-39,7,-14,5
1537911443779750,-7,-7,-14,5,3,42,-11,-46
1537911443779750,10,-14,-55,-40,-14,-22,35,50
1537911443781745,-5,-9,-4,-3,11,-20,-10,-21
1537911443781745,20,15,30,66,1,0,-2,41
1537911443802689,0,-4,-46,13,4,-3,-16,-30
1537911443802689,-10,1,25,-55,-11,18,-3,-36
1537911443803686,-16,6,88,38,-8,32,42,14
1537911443803686,0,-11,-54,100,24,-42,-7,23
1537911443815654,-19,0,9,-70,-41,-36,-18,-28
1537911443815654,7,-11,-31,-19,0,-2,40,-16
1537911443824631,9,9,-24,30,14,-7,8,-7
1537911443824631,35,24,125,42,13,-3,-1,73
1537911443839590,-13,-20,-83,-19,1,3,29,-7
1537911443839590,3,-7,10,-22,-2,9,-13,77
1537911443841585,-60,-22,-58,-38,-8,14,-23,-47
1537911443841585,-5,-21,-2,-23,1,-11,23,-9
1537911443862530,36,24,36,62,12,18,0,25
1537911443862530,-5,6,74,4,35,7,3,-24
1537911443863527,29,5,-68,54,6,4,13,31
1537911443863527,-17,6,29,-70,-6,20,-9,-13
1537911443876492,14,3,8,63,-3,-34,-16,5
1537911443876492,1,-17,-71,-3,-26,27,21,-14
1537911443885468,-3,4,120,-57,-38,-25,-2,14
1537911443885468,9,-24,-128,14,11,-12,-10,1
1537911443899430,5,17,127,-44,24,19,-9,0
1537911443899430,1,8,-7,88,12,53,-10,21
1537911443901425,-7,8,16,5,12,-13,-21,4
1537911443901425,33,10,-13,-41,-13,3,21,-30
1537911443922369,-52,4,-10,19,4,-14,27,9
1537911443922369,-2,-7,22,34,10,23,-44,-24
1537911443924364,18,3,22,3,-10,-16,-7,-18
1537911443924364,2,1,-79,-14,0,9,-28,-16
1537911443936332,8,-17,-34,-31,6,-9,-11,19
1537911443936332,-3,13,18,7,20,-36,-2,-5
1537911443945308,4,7,20,41,26,15,12,-3
1537911443945308,-27,0,55,28,-13,68,10,-23
1537911443960268,6,-18,-87,-64,-30,1,-4,-3
1537911443960268,-19,-18,-13,-13,-4,-73,-25,-15
1537911443961266,4,-4,9,19,-19,-24,-22,-27
1537911443961266,-1,-1,-40,-4,-7,-12,41,52
1537911443982209,3,5,39,26,9,11,1,-28
1537911443982209,6,7,6,15,-3,-13,7,-16
1537911443984204,7,8,-22,-23,17,16,16,59
1537911443984204,-21,7,35,13,10,-18,-29,-39
1537911444005148,20,-6,44,42,5,-5,3,29
1537911444005148,11,20,-19,-12,-12,-5,4,-24
1537911444006146,-4,-15,-15,-19,-15,-15,12,52
1537911444006146,-8,-20,-37,-49,-33,-36,7,36
1537911444020108,-13,8,15,20,29,34,-7,-31
1537911444020108,8,-2,10,3,1,3,1,43
1537911444021106,-5,-13,-57,-14,-17,-8,-14,-40
1537911444021106,-12,4,37,31,3,27,-6,-17
1537911444042050,22,-2,-18,-39,-13,-21,2,21
1537911444042050,-5,-4,-14,-36,25,4,11,4
1537911444044045,-8,-5,-23,-6,7,27,-4,-24
1537911444044045,5,4,13,-13,-1,-13,1,7
1537911444064989,-4,4,22,46,14,-5,-6,-2
1537911444064989,-8,-7,6,28,-8,25,7,-19
1537911444065987,0,8,14,-10,0,-4,-1,11
1537911444065987,-11,-6,-9,-25,1,-3,-10,-8
1537911444079948,16,2,-10,10,0,-11,16,10
1537911444079948,-4,3,16,-8,-29,3,-14,-14
1537911444080946,-9,-5,13,19,8,13,-6,-23
1537911444080946,0,0,-15,-20,5,-17,-5,17
1537911444102887,-21,-4,4,16,-10,-5,9,8
1537911444102887,12,-8,-29,22,12,-9,-7,17
1537911444103885,-2,2,0,-66,-21,-15,-3,-11
1537911444103885,-4,7,36,54,14,4,-4,-15
1537911444124828,-4,-5,-16,-35,-27,-10,-1,0
1537911444124828,-6,-7,-27,-88,24,16,13,5
1537911444126823,8,0,6,-13,13,20,8,-6
1537911444126823,2,2,-1,1,-16,-1,-1,-9
1537911444139788,0,-3,-4,9,8,4,-6,1
1537911444139788,-7,1,8,37,-9,-13,-14,-7
1537911444141783,-1,2,5,11,11,7,-6,1
1537911444141783,4,-1,1,-16,-6,-33,-2,-3
1537911444162727,-8,-3,3,25,8,26,18,-2
1537911444162727,4,-1,-4,-8,-15,-19,-2,0
1537911444163724,2,-1,-3,8,-8,-3,-1,10
1537911444163724,7,1,3,-4,5,-2,-3,-9
1537911444184668,-8,1,0,9,2,-3,-4,-4
1537911444184668,-6,-3,-4,-3,-11,-16,-9,-3
1537911444186663,5,-3,-9,-9,-7,-11,3,0
1537911444186663,-1,5,11,15,12,9,-3,-4
1537911444199628,-4,-1,3,3,-13,-3,-1,1
1537911444199628,-1,-5,-10,-7,-1,7,-1,2
1537911444205612,4,1,1,-2,-12,-5,-5,-3
1537911444205612,-5,-2,-1,-29,2,1,3,-4
1537911444222567,5,2,4,28,-14,-2,-4,1
1537911444222567,-3,2,1,4,-7,0,-3,0
1537911444223566,-3,-5,-9,-32,-7,4,0,-4
1537911444223566,0,0,4,6,4,-12,1,-4
1537911444244509,1,-1,-6,-15,1,-2,1,3
1537911444244509,-3,0,2,15,-7,4,-7,-3
1537911444246504,1,2,2,17,11,2,-1,-1
1537911444246504,-1,-3,-1,-8,-8,0,1,-1
1537911444259469,-1,-2,0,6,4,-1,-7,-3
1537911444259469,-2,-2,-2,-4,-2,9,-3,-1
1537911444266450,2,0,1,11,3,-9,1,-1
1537911444266450,-1,0,1,6,-2,8,1,-1
1537911444282408,2,1,3,-3,0,0,3,2
1537911444282408,-1,-1,-1,-12,23,-7,-5,-1
1537911444283406,-1,-1,-2,2,1,-3,-2,-4
1537911444283406,-2,-1,2,20,-20,1,-1,-3
1537911444305346,-1,-3,-4,-10,20,-10,-5,-1
1537911444305346,-1,-2,-5,-41,-39,-1,1,0
1537911444306344,1,2,2,0,1,-2,1,1
1537911444306344,0,0,6,49,13,-4,5,1
1537911444319310,0,-4,-10,-69,-22,2,-6,-5
1537911444319310,-6,-1,-3,-1,-4,-6,-4,-1
1537911444326290,2,0,0,5,0,6,6,-2
1537911444326290,2,3,1,19,4,-11,-3,2
1537911444342248,-2,-2,0,5,2,7,-4,1
1537911444342248,1,0,0,3,9,7,3,0
1537911444344244,-2,-2,1,-7,-3,1,3,0
1537911444344244,0,0,1,-6,2,-5,-1,-4
1537911444365186,0,-1,1,18,8,-3,-3,0
1537911444365186,-1,-3,-1,-1,-19,-4,-1,2
1537911444366184,2,-1,1,15,3,-3,5,4
1537911444366184,0,0,0,-15,-5,3,3,-2
1537911444379148,0,1,-1,9,21,-5,-3,-1
1537911444379148,-1,-2,-1,-11,-1,0,-3,-5
1537911444386130,1,1,3,30,8,-3,-2,-1
1537911444386130,-1,-1,-7,-44,-1,1,1,1
1537911444402087,-2,-1,-1,-8,-20,2,-1,-3
1537911444402087,-1,1,2,51,-2,-2,2,-1
1537911444404082,-3,-1,0,-4,-1,-4,-2,-2
1537911444404082,5,-5,-9,-59,2,5,-2,-1
1537911444425026,1,-1,0,16,2,-4,-4,0
1537911444425026,0,-3,0,14,-8,1,-3,-1
1537911444426023,0,1,-1,22,17,-1,1,-1
1537911444426023,-4,0,0,-4,-10,-1,0,-3
1537911444438988,-5,1,0,3,3,5,-3,-4
1537911444438988,1,-1,-1,-3,9,-11,-4,-1
1537911444445970,4,1,1,17,-5,-4,-3,0
1537911444445970,-3,-2,0,2,9,4,0,-1
1537911444461927,1,-2,-1,-5,-12,-1,-5,-2
1537911444461927,-7,-1,-2,0,7,3,4,-4
1537911444463922,0,-2,-3,-12,-7,0,-3,0
1537911444463922,-1,1,1,10,2,0,-7,-3
1537911444484868,-3,-1,0,0,3,4,-2,-3
1537911444484868,2,1,2,-3,0,8,-5,0
1537911444486861,-2,-1,-4,-4,-8,-3,2,1
1537911444486861,0,-1,1,20,18,1,1,-2
1537911444499826,-2,1,2,2,3,1,4,3
1537911444499826,0,-2,-1,-17,-13,3,-3,0
1537911444505811,1,-4,-5,-26,8,-12,-4,-4
1537911444505811,-3,1,2,10,-9,-5,5,3
1537911444522765,0,-1,-1,-10,-8,0,1,-1
1537911444522765,2,-1,0,-5,-9,-1,4,1
1537911444523764,-1,-1,-1,4,25,5,-3,-2
1537911444523764,0,-3,-1,-4,0,-1,-4,0
1537911444544708,0,0,2,12,1,-3,-4,-3
1537911444544708,-1,-2,-7,-4,-4,-2,3,3
1537911444546702,-4,-1,0,-5,-14,1,-6,-3
1537911444546702,-2,0,2,3,2,-1,1,-2
1537911444558670,1,-2,-1,2,8,-1,-1,1
1537911444558670,-1,0,0,2,4,3,-5,-3
1537911444567645,-1,0,-1,-3,-4,-5,2,-1
1537911444567645,-1,-2,-3,-13,-2,0,-5,-2
1537911444582604,0,-1,1,1,-7,-2,-2,-1
1537911444582604,-1,-2,-2,-5,3,-4,8,3
1537911444583602,1,2,5,26,-8,-1,2,0
1537911444583602,-2,-5,-10,-39,-9,-1,-1,0
1537911444604545,-2,-4,-6,-12,2,-4,6,-1
1537911444604545,1,0,2,21,9,-1,-9,-3
1537911444606540,-1,1,0,-32,-12,-1,1,-1
1537911444606540,0,1,4,28,-13,-1,2,3
1537911444618508,1,-1,-3,-15,10,1,3,0
1537911444618508,-2,-1,-1,-6,-1,-5,1,-2
1537911444627484,1,-2,0,10,-5,5,-1,1
1537911444627484,-2,1,0,6,-4,-7,-3,-2
1537911444642444,2,-1,1,-6,-1,1,-1,0
1537911444642444,2,1,3,10,7,5,1,0
1537911444643442,-1,-1,-3,-7,-3,-1,-9,-3
1537911444643442,-1,-2,2,3,7,-2,5,1
1537911444665383,0,-1,-2,17,4,-1,-2,-1
1537911444665383,0,0,2,0,-5,7,-9,-4
1537911444666380,-2,-3,-9,-27,-11,-2,6,1
1537911444666380,-4,-1,5,63,-7,-1,-9,-5
1537911444678348,-2,-5,-11,-47,30,-5,2,2
1537911444678348,2,-1,-7,-32,-11,7,6,3
1537911444687325,1,5,15,73,7,-9,-14,-6
1537911444687325,1,-1,-5,-36,-19,-30,12,4
1537911444702287,-4,7,16,95,52,42,6,0
1537911444702287,-6,-12,-10,3,-35,-37,-6,-4
1537911444704281,-6,-12,-25,-73,7,43,-8,-5
1537911444704281,3,6,8,-11,14,42,-4,0
1537911444725224,0,2,16,35,-9,22,7,7
1537911444725224,3,4,6,72,19,3,0,0
1537911444726222,-22,-5,-16,-74,-10,26,-21,-11
1537911444726222,24,0,2,33,-7,-46,22,11
1537911444738190,-20,-6,-16,-89,-20,9,-15,-16
1537911444738190,15,11,7,33,28,57,47,18
1537911444747167,-6,11,21,71,1,-29,-9,5
1537911444747167,15,-3,-6,-36,-7,0,-24,1
1537911444762126,-7,-16,-21,29,-27,-43,-2,0
1537911444762126,-13,-15,-19,-45,5,18,-6,-13
1537911444764120,10,19,23,38,0,-68,0,-7
1537911444764120,-25,6,35,-5,34,52,1,-50
1537911444785063,9,5,-32,17,-3,-26,-1,26
1537911444785063,-4,4,20,-32,-2,-11,-24,-24
1537911444786061,2,-16,26,74,-8,-42,28,34
1537911444786061,6,-19,-79,-39,7,37,-14,-8
1537911444799026,2,-11,-15,-41,-4,-84,-17,-5
1537911444799026,14,9,0,-120,-8,29,-4,17
1537911444807004,4,9,5,-21,-13,-8,19,10
1537911444807004,-34,3,33,16,-2,-7,-15,-31
1537911444821964,10,5,17,46,-12,35,11,15
1537911444821964,11,8,8,66,14,-49,26,18
1537911444828946,31,7,19,4,-2,-18,-26,0
1537911444828946,-17,5,53,-29,-6,14,11,42
1537911444844904,4,-19,-69,-5,-32,3,-6,-12
1537911444844904,-47,-12,-41,-26,-6,-7,-10,-49
1537911444845902,42,1,27,-58,0,55,12,49
1537911444845902,-5,-7,-17,25,-3,-35,12,-4
1537911444858867,0,18,75,35,19,-24,-23,-20
1537911444858867,4,1,2,82,-9,-22,-5,-5
1537911444867843,-20,-13,-58,21,4,83,11,-11
1537911444867843,1,9,-2,-96,-18,24,-6,-26
1537911444881807,19,14,31,-5,2,-59,-13,34
1537911444881807,-6,-5,-1,1,-6,21,-13,-19
1537911444889783,-10,-6,-20,25,3,-23,17,15
1537911444889783,16,-1,25,-8,-26,-57,-15,6
1537911444904743,-35,-8,-42,18,28,51,17,-35
1537911444904743,15,-2,22,11,-12,-40,-5,18
1537911444904743,-21,-10,-11,1,-12,-13,-23,-42
1537911444904743,28,-1,-19,-28,23,38,-1,57
1537911444926684,-33,0,-7,11,-22,1,3,-40
1537911444926684,4,10,11,-31,10,-22,-5,-1
1537911444927682,13,5,28,31,7,7,-9,26
1537911444927682,-28,-11,-48,-3,-1,-23,-10,-36
1537911444941644,-5,1,26,-15,-8,23,22,96
1537911444941644,12,2,21,21,20,-8,-11,-29
1537911444942642,3,-7,-20,-6,-22,-23,7,25
1537911444942642,6,3,-3,18,17,33,3,15
1537911444964583,-27,-3,26,-25,-11,-1,5,-52
1537911444964583,19,1,-15,62,-1,-28,-10,37
1537911444964583,-26,-12,-6,-93,16,-15,0,-24
1537911444964583,29,12,14,102,-8,-53,12,55
1537911444986525,-8,-11,-5,-100,32,8,-20,-32
1537911444986525,-2,-11,-12,-19,-16,37,3,-62
1537911444987522,1,5,-15,57,63,-58,-11,59
1537911444987522,7,-1,-3,-53,-25,36,-2,-15
1537911445001484,16,5,20,6,-26,-81,-7,-33
1537911445001484,-11,-4,-5,-9,10,40,-5,21
1537911445002482,-4,5,-3,40,16,35,1,-42
1537911445002482,-44,-6,4,-16,-6,-83,-12,-80
1537911445024423,50,16,38,28,16,78,40,111
1537911445024423,20,-9,-60,35,-9,-22,-3,50
1537911445024423,-15,2,7,-64,-27,-11,-13,-45
1537911445024423,6,9,20,36,8,22,14,7
1537911445046364,-5,2,0,21,9,16,-3,-1
1537911445046364,-16,8,72,45,-19,-17,-1,14
1537911445047362,-8,-20,-75,14,7,31,-1,-15
1537911445047362,19,-14,-36,-106,-45,2,8,-6
1537911445061325,3,0,-14,-10,6,3,-6,-17
1537911445061325,-8,6,11,22,-4,-4,5,-4
1537911445062322,-23,5,76,-1,-17,-18,-9,-43
1537911445062322,16,-5,-59,44,20,30,4,8
1537911445084264,-5,-12,-10,0,-14,20,-5,-1
1537911445084264,-2,0,-28,-43,7,-22,-1,21
1537911445085262,0,12,34,-18,-3,0,-19,-30
1537911445085262,-1,8,11,37,25,-11,-4,-29
1537911445107203,3,1,9,17,-17,20,7,37
1537911445107203,-40,-6,-2,-28,5,-7,6,12
1537911445107203,33,-4,-28,-7,-8,-32,36,46
1537911445107203,-7,0,12,6,1,11,-15,10
1537911445122161,9,2,-12,10,-3,-14,-1,-33
1537911445122161,-17,-3,11,-5,-11,21,5,-23
1537911445122161,9,-9,-23,-13,-4,-16,-8,3
1537911445122161,-4,4,18,79,32,7,1,11
1537911445144103,0,-4,-17,-78,-56,-1,-8,-16
1537911445144103,-11,-9,-23,-88,-15,17,-6,0
1537911445145101,12,4,5,-9,-13,-14,6,-6
1537911445145101,-4,0,19,32,12,2,5,9
1537911445167043,-1,5,3,39,13,-11,-10,-3
1537911445167043,6,1,-3,11,8,4,2,-7
1537911445167043,-4,2,6,1,-3,16,1,-1
1537911445167043,-9,-4,1,-14,2,2,-3,8
1537911445182002,0,-2,-8,21,0,-11,2,-3
1537911445182002,12,0,-4,-18,25,1,6,0
1537911445182002,-4,1,3,8,6,17,-4,-6
1537911445182002,-6,-2,1,3,-10,8,0,11
1537911445203943,1,-4,-9,-5,4,-8,1,-9
1537911445203943,7,1,10,21,1,-17,-7,-4
1537911445204941,-2,2,4,21,1,37,-2,-1
1537911445204941,0,-6,-10,-46,-1,8,14,11
1537911445226882,2,-4,-1,-8,13,-3,10,-3
1537911445226882,3,-2,-1,-29,-4,1,-5,-3
1537911445227880,-5,0,0,4,-20,-5,2,-1
1537911445227880,-2,1,5,23,11,-6,-4,-5
1537911445241842,0,4,7,10,-3,4,-4,-3
1537911445241842,3,-1,-3,5,1,4,4,2
1537911445242840,-2,1,1,-1,26,0,0,2
1537911445242840,-2,-3,0,-17,-20,-11,-7,-2
1537911445264782,0,-1,-3,11,5,2,-6,-7
1537911445264782,2,-1,-1,-2,1,1,5,1
1537911445264782,-14,-1,-2,5,-13,9,1,0
1537911445264782,17,-1,-3,-23,-2,-8,-2,4
1537911445286723,-2,-3,-4,15,5,-10,-5,-2
1537911445286723,-1,-2,-1,-11,2,8,1,-2
1537911445287721,-1,-1,-3,-16,-5,-3,-6,0
1537911445287721,-8,-2,-2,10,-12,-5,11,-1
1537911445301684,-2,2,4,23,0,1,-4,-5
1537911445301684,4,0,-4,-10,-9,6,-2,-1
1537911445302682,0,-3,-3,-12,2,0,-3,1
1537911445302682,-6,-3,-3,-1,-6,-9,-7,-2
1537911445324622,2,-3,-4,-9,-12,1,3,1
1537911445324622,-2,1,3,23,10,-7,-1,0
1537911445324622,1,-1,-3,2,4,6,1,0
1537911445324622,-5,0,0,5,-2,7,-7,-5
1537911445346563,2,0,0,4,1,-12,2,2
1537911445346563,2,-1,-2,-4,0,6,-11,1
1537911445347562,0,-3,-1,-6,-7,1,4,0
1537911445347562,0,0,1,2,-1,-1,1,3
1537911445361524,-4,-3,-5,-9,3,-6,-5,-2
1537911445361524,-2,1,2,10,-4,4,-4,-2
1537911445362522,1,1,4,41,10,-7,2,-2
1537911445362522,-8,-1,0,-17,8,8,2,1
1537911445384462,9,-4,-10,-36,-2,6,-1,1
1537911445384462,3,0,5,-13,-5,-5,0,-1
1537911445385460,-1,-4,-11,-59,-14,1,-2,0
1537911445385460,-1,1,5,35,1,-10,-4,0
1537911445406403,-2,-1,-1,6,0,-1,-1,-4
1537911445406403,0,1,0,13,2,2,2,0
1537911445407400,-6,1,5,41,3,-7,-4,-1
1537911445407400,5,-2,-5,-32,4,6,0,-3
1537911445421362,1,0,-1,-13,4,5,5,1
1537911445421362,-2,-2,0,8,4,10,-7,-3
1537911445422360,-1,-1,-3,-11,-2,-4,-1,-2
1537911445422360,-1,-3,-2,11,-3,-5,-3,0
1537911445444301,-1,1,1,13,4,-3,-4,-1
1537911445444301,1,-2,0,-4,-7,-12,0,-3
1537911445445298,-1,-1,-4,-6,-1,5,-5,-2
1537911445445298,-1,-1,3,9,-9,1,-1,4
1537911445467240,1,5,12,60,18,2,2,-2
1537911445467240,-4,-8,-21,-78,-35,-12,-9,-5
1537911445468237,13,-2,-2,-16,-3,18,11,3
1537911445468237,1,3,13,83,5,-8,0,0
1537911445481202,-4,-7,-25,-96,-52,-4,-3,1
1537911445481202,-3,0,3,43,-1,-5,-1,0
1537911445482200,-3,0,0,-3,16,1,3,-1
1537911445482200,-2,-2,-4,-4,-8,7,-2,-2
1537911445504142,-2,1,1,23,10,-3,-3,-3
1537911445504142,2,1,3,3,12,1,3,1
1537911445505140,-2,-2,-6,-15,-13,-1,-5,-1
1537911445505140,0,-2,0,-2,7,-6,2,1
1537911445527081,-2,0,0,1,5,2,-2,0
1537911445527081,0,0,-3,-6,-4,-7,5,0
1537911445528080,1,1,5,25,7,6,0,-1
1537911445528080,-2,-2,-4,-20,-4,-6,-3,-2
1537911445542041,0,0,2,2,5,5,5,1
1537911445542041,1,1,2,11,-10,-7,7,-1
1537911445542041,-1,-1,0,8,0,-3,-2,1
1537911445542041,-2,0,-1,-22,-5,5,-8,-5
1537911445563982,-1,-4,-5,18,12,-6,2,2
1537911445563982,0,0,5,18,2,2,-5,-4
1537911445564981,-1,-2,-3,-5,-4,4,1,-2
1537911445564981,-1,0,2,-10,-7,-13,0,1
1537911445586920,1,0,-1,-19,-14,-15,-1,1
1537911445586920,0,2,5,15,9,30,4,2
1537911445587918,1,-1,-1,14,7,-15,10,5
1537911445587918,0,-4,-7,-31,-1,2,4,2
1537911445600883,-1,-1,0,4,1,-5,-8,-7
1537911445600883,-2,1,2,12,-12,-10,-1,0
1537911445608861,-1,0,0,-14,10,-5,-3,-4
1537911445608861,-1,1,1,35,1,3,-2,-1
1537911445623821,-1,-1,-3,-17,18,2,-1,2
1537911445623821,-10,-6,-7,-13,-7,0,-6,-8
1537911445624818,17,7,10,15,0,4,-3,5
1537911445624818,1,4,7,29,13,-9,6,0
1537911445647757,-4,-9,-6,5,-14,7,-1,-5
1537911445647757,-5,-6,-12,-71,1,-11,15,6
1537911445647757,-1,1,0,25,2,-12,-4,-3
1537911445647757,-2,-1,7,-7,-15,-3,-16,-8
1537911445660722,2,4,-2,-14,-17,25,10,5
1537911445660722,-2,0,-5,-13,17,-5,-9,-3
1537911445668701,-6,-3,7,2,-9,-3,14,2
1537911445668701,1,-5,-16,36,-21,-2,3,0
1537911445684658,-11,1,3,-10,15,-10,-9,-4
1537911445684658,1,-8,2,-15,-11,-2,-3,-4
1537911445684658,1,0,-21,-32,-14,-31,-14,-1
1537911445684658,-8,-7,3,-19,-14,4,-8,-5
1537911445706600,7,-4,-15,-11,-22,-8,0,11
1537911445706600,6,9,0,42,20,-11,0,-4
1537911445707598,-16,-3,12,-5,1,64,7,-4
1537911445707598,32,19,34,6,14,-34,1,14
1537911445720563,-29,-13,-27,-2,15,22,-10,-18
1537911445720563,26,-3,-21,41,-10,2,-7,-10
1537911445729539,-6,-7,-13,-42,12,6,-23,8
1537911445729539,-6,-7,6,-8,19,-22,-1,14
1537911445744501,1,9,18,-20,-10,2,5,1
1537911445744501,-9,1,5,-40,6,-16,-12,2
1537911445744501,1,7,-8,14,6,13,11,-13
1537911445744501,34,1,28,-23,-10,5,-18,20
1537911445766441,-19,-12,-27,115,17,-26,-6,2
1537911445766441,1,-8,-17,-22,-20,33,0,-31
1537911445767440,-6,-2,0,-97,-14,-65,-18,-10
1537911445767440,16,5,-7,-15,6,36,2,18
1537911445781400,7,-1,14,93,-29,-27,1,-31
1537911445781400,-11,-6,-25,-40,36,-4,5,15
1537911445789380,-2,16,37,24,0,25,-23,-46
1537911445789380,-35,1,24,32,-2,4,6,21
1537911445804339,35,5,-26,-40,-1,-19,-10,-12
1537911445804339,-9,-5,46,63,16,18,-8,-6
1537911445805337,10,2,-59,24,15,21,0,26
1537911445805337,-59,-15,31,21,-3,-25,-6,-54
1537911445826282,8,3,0,-99,-13,12,17,-5
1537911445826282,-6,-6,-3,86,-7,-46,-14,1
1537911445827279,-4,-24,-57,-46,-40,37,7,12
1537911445827279,1,-13,-50,-27,12,27,20,24
1537911445841240,11,10,25,50,-29,19,-7,36
1537911445841240,-2,8,15,-101,-19,13,10,-11
1537911445849218,18,5,11,41,11,26,-3,-11
1537911445849218,3,7,4,1,4,-41,-7,-1
1537911445864178,-18,4,28,10,3,17,-5,-8
1537911445864178,10,4,-2,-5,4,7,14,-4
1537911445865176,-9,-10,2,69,6,-4,6,13
1537911445865176,24,-1,-26,-33,-13,6,-6,3
1537911445887117,-16,-5,-7,-29,3,-9,-9,-37
1537911445887117,1,5,4,50,6,-16,-3,25
1537911445888115,-12,1,15,-12,5,-29,-9,-24
1537911445888115,-8,0,-3,6,-24,5,47,-7
1537911445911054,6,0,-17,-25,40,-12,2,15
1537911445911054,-2,7,25,15,-9,39,-7,-8
1537911445912052,10,-6,18,-52,-13,0,27,26
1537911445912052,1,-5,-43,43,12,28,-17,2
1537911445924019,-11,-4,38,-27,-2,-7,-3,4
1537911445924019,-11,-4,-44,-38,-27,-21,-6,-18
1537911445925017,17,7,30,31,-1,-15,13,-9
1537911445925017,-8,3,12,4,12,22,-10,2
1537911445947956,-3,-5,-30,33,0,-26,12,38
1537911445947956,0,0,25,6,15,-21,-10,39
1537911445947956,-5,2,-17,-4,-14,7,6,-32
1537911445947956,-10,3,-2,-20,9,-13,16,-54
1537911445969897,8,8,35,20,6,-15,-18,9
1537911445969897,11,3,-7,14,-15,-5,27,20
1537911445970894,-21,-12,-12,17,19,26,-12,-17
1537911445970894,15,6,6,-26,-19,-19,-4,1
1537911445983859,-7,-2,12,32,-15,25,4,-14
1537911445983859,-6,-20,-68,-82,-10,-14,6,9
1537911445984856,-7,1,28,23,26,-31,-11,12
1537911445984856,5,-4,-8,-29,-23,6,-6,-10
1537911446007794,1,1,-19,12,7,14,1,-28
1537911446007794,20,11,52,-31,-23,32,3,20
1537911446007794,-19,-14,-21,34,-3,-32,12,16
1537911446007794,11,-9,-39,-27,12,0,12,-8
1537911446029735,-1,5,26,35,22,10,-7,-2
1537911446029735,-21,-5,-6,23,8,-2,0,-3
1537911446030733,18,12,38,-23,-5,-16,-19,5
1537911446030733,-4,-1,-10,18,-1,31,3,2
1537911446043698,10,-3,-43,-66,-2,-1,11,28
1537911446043698,0,14,77,39,22,-5,-22,-26
1537911446044696,-12,-7,-72,5,-21,0,-6,-24
1537911446044696,-5,-3,23,10,-2,-13,-12,20
1537911446067634,1,0,42,20,18,-26,-1,0
1537911446067634,13,-2,-60,-5,-11,14,-14,9
1537911446067634,-5,0,27,-23,-6,27,15,-5
1537911446067634,6,9,64,31,41,6,-15,-6
1537911446089576,-1,1,-73,77,-32,8,3,-11
1537911446089576,-17,-24,-24,-81,-27,-20,-2,-19
1537911446090573,-3,-10,-45,-20,-13,-4,-10,8
1537911446090573,-6,0,-14,-3,9,-16,-12,-22
1537911446104536,10,12,48,3,8,35,-8,9
1537911446104536,23,15,31,61,25,-16,22,21
1537911446104536,3,-6,-11,35,-1,-15,1,0
1537911446104536,-29,-8,-16,-32,-12,19,-19,6
1537911446127476,-11,-4,27,-27,9,-14,14,-33
1537911446127476,8,-1,-32,18,-7,23,8,-8
1537911446128474,10,5,37,-17,2,-26,5,31
1537911446128474,1,4,-1,12,-13,0,4,4
1537911446150415,5,-6,-4,-9,34,-12,-4,3
1537911446150415,-13,-5,-16,-25,-23,21,-1,-23
1537911446150415,0,1,8,24,9,-12,-1,-1
1537911446150415,0,-7,-12,1,11,-4,-5,-2
1537911446164376,-4,-7,-22,-40,-20,0,2,-2
1537911446164376,-1,6,23,38,13,-6,-4,0
1537911446165375,4,7,20,-8,-9,2,-3,5
1537911446165375,-2,-8,-21,-61,-9,-1,8,1
1537911446187315,-1,-5,-2,-16,7,-3,-6,-2
1537911446187315,-2,1,5,20,10,-10,1,4
1537911446188312,-1,0,2,-4,-12,-5,0,2
1537911446188312,3,-2,-5,27,13,5,3,-6
1537911446210254,2,1,3,-13,-13,7,-2,3
1537911446210254,-5,-1,4,15,15,1,-3,-2
1537911446210254,0,-2,-3,-3,5,2,-5,-2
1537911446210254,0,1,-2,3,-8,-11,5,0
1537911446224216,1,-3,-2,-9,-2,-1,-4,2
1537911446224216,-4,2,4,9,-32,-4,-6,1
1537911446225214,-4,-3,0,-5,31,3,-2,-4
1537911446225214,4,1,-1,8,-16,-14,2,2
1537911446247155,1,-1,-4,-13,8,9,0,5
1537911446247155,-3,-2,-4,2,9,-10,-1,-7
1537911446248152,2,1,2,-26,-13,9,0,1
1537911446248152,-4,-1,1,32,20,2,-1,-4
1537911446270093,0,-2,-5,-47,-35,-11,4,0
1537911446270093,0,0,-1,15,9,5,-6,-3
1537911446270093,-2,0,3,0,1,4,3,2
1537911446270093,2,0,-4,-5,-1,-16,-1,2
1537911446284057,-1,-1,3,27,-14,-1,-5,-2
1537911446284057,-1,-1,2,1,52,13,7,3
1537911446285054,1,-1,-4,-8,-13,-4,-5,-3
1537911446285054,1,1,0,11,-6,-9,3,-1
1537911446308990,2,-1,0,4,0,1,-2,0
1537911446308990,-6,-3,-3,-9,-18,-6,-5,-3
1537911446308990,0,-1,0,8,5,-9,-1,-2
1537911446308990,-1,-2,-4,-9,1,8,-5,0
1537911446329935,-1,0,-2,-2,0,4,-2,-2
1537911446329935,1,-4,-1,-1,-12,-4,2,-1
1537911446330932,-2,-1,3,-4,5,3,0,-2
1537911446330932,-11,-1,0,3,-11,-2,4,-1
1537911446344894,22,1,-5,-12,13,-2,-3,3
1537911446344894,-1,1,1,7,-8,-4,0,0
1537911446344894,1,1,3,37,-17,-1,1,2
1537911446344894,-5,0,-1,-7,3,0,-2,-2
1537911446367832,-11,-3,-7,-22,-24,1,-1,-4
1537911446367832,2,1,1,-8,1,-6,-4,-1
1537911446367832,-1,0,3,13,31,6,1,3
1537911446367832,0,-1,2,13,-7,3,2,-2
1537911446389774,-3,1,4,26,4,-1,8,2
1537911446389774,0,-2,-3,-12,-12,-6,0,1
1537911446390772,-3,0,1,7,-9,13,4,1
1537911446390772,2,-2,-1,-13,-3,-12,0,1
1537911446403737,1,0,-1,1,4,-5,-1,-2
1537911446403737,-6,-2,0,-6,4,-7,-4,-3
1537911446404734,0,0,0,5,-4,3,0,0
1537911446404734,5,0,0,-1,13,5,-5,0
1537911446427673,-9,-3,-7,-29,-16,-4,1,-2
1537911446427673,-1,-1,-1,10,2,-2,-1,2
1537911446427673,5,0,-2,-19,-7,-4,-3,-2
1537911446427673,0,0,-2,10,-16,1,-2,-3
1537911446449614,-2,2,11,58,52,3,0,0
1537911446449614,-5,-4,-12,-45,-29,-2,-5,-4
1537911446450611,-5,0,-4,-36,16,-2,1,0
1537911446450611,9,0,-2,-5,2,-1,-3,1
1537911446463576,-4,0,3,5,-7,0,-3,-2
1537911446463576,2,-1,-2,4,1,-5,8,3
1537911446472552,-1,-2,1,4,-7,0,-1,0
1537911446472552,-3,-1,-1,-7,-13,-6,-2,-2
1537911446487512,-3,0,1,5,3,1,-1,-1
1537911446487512,0,1,5,16,4,2,-2,0
1537911446488509,-1,-2,-5,-11,-7,-2,-3,-2
1537911446488509,-3,-1,0,-4,7,1,-1,-4
1537911446517432,-1,-2,-3,-9,-6,-3,2,-1
1537911446517432,0,-1,0,0,7,2,-2,-2
1537911446518437,0,-1,3,10,-2,-2,0,1
1537911446518437,-1,-1,-6,-9,-12,-1,0,0
1537911446523416,-5,-1,-2,-2,14,-1,1,-1
1537911446523416,1,0,2,-3,-5,1,-2,-2
1537911446532392,2,1,1,21,4,-2,-4,-1
1537911446532392,-1,2,6,43,-1,2,-7,-2
1537911446547352,0,-4,-10,-68,-24,1,-8,-2
1537911446547352,-2,-1,2,11,12,-1,0,-1
1537911446548350,0,0,0,-11,-7,-3,-4,-2
1537911446548350,-1,0,1,10,-1,5,7,1
1537911446570291,-1,0,4,6,3,-2,-2,1
1537911446570291,0,-1,0,-1,1,1,-7,-4
1537911446571290,-1,-4,-5,-6,-15,0,3,1
1537911446571290,-2,0,0,-4,15,-3,3,-3
1537911446583257,1,-1,-1,10,-3,-2,-2,1
1537911446583257,1,0,-2,0,-1,0,1,4
1537911446592234,-2,-1,0,5,-2,-3,-3,-3
1537911446592234,-2,-2,-4,-24,-6,-1,-1,-1
1537911446607193,-5,-1,0,8,-3,-4,-1,-2
1537911446607193,3,0,1,10,0,1,-1,0
1537911446609189,-1,1,-2,-5,1,1,0,0
1537911446609189,-1,-2,-1,-14,0,-5,2,-1
1537911446630132,-1,-1,0,-4,-24,2,0,0
1537911446630132,-5,-3,-4,11,13,-2,5,0
1537911446631129,2,2,-1,-13,-4,2,1,1
1537911446631129,0,-3,-2,-8,6,0,-6,-2
1537911446643096,-1,-1,3,18,-5,-3,0,0
1537911446643096,0,-1,-5,-2,-12,-1,-1,-2
1537911446652073,0,-1,-2,1,7,-1,1,-4
1537911446652073,-2,-1,-2,-5,-15,0,8,4
1537911446667032,-2,-3,-1,5,8,-5,5,3
1537911446667032,-1,0,-4,-50,-7,0,-5,-3
1537911446669027,0,-1,0,1,5,-3,3,4
1537911446669027,0,0,-1,-1,3,0,-5,-3
1537911446689971,0,1,0,8,4,1,-2,-3
1537911446689971,0,-1,3,6,4,-1,-6,-5
1537911446690968,-1,-3,-1,11,-33,-6,18,8
1537911446690968,-1,-1,0,0,15,0,-8,-2
1537911446703933,1,-3,-4,-25,1,0,5,0
1537911446703933,0,-1,1,4,0,-2,0,2
1537911446711912,0,0,7,38,-19,-13,-18,-10
1537911446711912,1,-1,1,11,57,56,3,-1
1537911446726872,-3,-5,-10,-25,-21,-17,7,3
1537911446726872,-2,-2,2,3,-9,6,1,1
1537911446728867,-4,2,3,30,45,-4,-1,0
1537911446728867,8,-2,-5,-13,-19,-17,0,1
1537911446749812,-1,1,2,-2,-7,5,-4,-1
1537911446749812,-1,4,8,7,17,-4,-7,-7
1537911446755796,-6,-4,-2,3,-2,7,4,0
1537911446755796,1,1,7,60,-26,-13,-2,-1
1537911446763775,2,1,1,-8,22,2,-10,-4
1537911446763775,-5,-7,-15,-44,-43,-13,19,5
1537911446772752,2,2,0,-5,53,11,-21,-11
1537911446772752,0,6,3,-60,-16,4,-11,5
1537911446794692,1,-4,3,87,0,-6,-3,-4
1537911446794692,-3,1,-1,-30,21,34,-11,-5
1537911446800677,-6,-6,-9,-64,-36,-35,-7,-2
1537911446800677,2,2,2,-6,17,41,-22,-12
1537911446809652,1,3,9,43,-18,2,19,9
1537911446809652,-1,0,-3,-2,9,-27,8,-2
1537911446811648,-5,-8,2,42,-18,18,13,-2
1537911446811648,-15,-1,-3,-61,18,-46,-10,0
1537911446832593,15,2,-11,-27,-2,18,0,-3
1537911446832593,-2,1,12,96,-4,-20,-4,-4
1537911446834586,7,1,-15,-68,3,31,-4,4
1537911446834586,-29,-15,-13,21,11,-49,19,-3
1537911446846552,25,8,8,51,62,57,-8,7
1537911446846552,4,1,9,-6,-35,-27,-21,-8
1537911446853534,-11,-6,-19,-70,43,-32,-30,-4
1537911446853534,12,1,10,64,-39,107,14,3
1537911446870488,-18,-3,-3,-44,-45,-27,15,-1
1537911446870488,-6,-9,-23,-7,-12,-72,-13,-10
1537911446871486,-2,5,13,4,-17,51,24,3
1537911446871486,0,4,31,99,-10,10,-9,0
1537911446892430,-11,-6,5,22,-38,-78,-26,-9
1537911446892430,9,-11,-48,-81,-19,118,31,14
1537911446893427,-10,0,15,85,-13,-21,-6,1
1537911446893427,8,-9,-50,-107,12,-63,16,1
1537911446906392,-6,5,40,30,-43,-47,-19,-21
1537911446906392,10,11,27,119,71,20,3,15
1537911446913374,6,-12,-44,118,-125,-58,0,-6
1537911446913374,-9,-4,-24,-101,40,19,13,-10
1537911446930329,-32,-5,-4,6,17,87,19,-9
1537911446930329,16,-1,-11,-128,37,23,17,7
1537911446931328,9,21,68,53,12,-77,2,8
1537911446931328,4,15,19,127,-49,-1,-1,4
1537911446952272,-5,-1,18,-128,110,41,27,-11
1537911446952272,18,-2,-7,127,29,5,-17,18
1537911446954267,-14,-26,-71,-128,4,74,-26,-11
1537911446954267,-8,-10,-10,-22,27,-9,7,-3
1537911446966233,12,9,7,70,6,-55,-33,12
1537911446966233,14,9,70,-26,-40,-19,5,-10
1537911446975210,3,-10,-65,-52,45,8,3,2
1537911446975210,-12,-2,16,29,-39,5,-10,20
1537911446990170,-12,-9,-21,0,0,30,14,-7
1537911446990170,-10,5,21,68,42,-13,5,6
1537911446991168,-3,15,42,43,-30,-55,18,-25
1537911446991168,35,8,18,-55,-7,32,9,36
1537911447012111,5,5,-15,69,56,-9,-10,4
1537911447012111,-13,-10,-20,-82,-40,42,-22,-26
1537911447014106,-22,-11,-9,-74,-62,-11,-7,-10
1537911447014106,14,0,5,89,15,-12,-3,4
1537911447026074,18,-3,-11,-122,-13,-3,-2,6
1537911447026074,-24,-13,-38,-23,0,0,-13,-6
1537911447035051,4,-13,-47,-19,49,9,-1,8
1537911447035051,-7,-7,-8,-61,3,-3,-1,-10
1537911447050011,0,6,11,-33,-7,-11,-15,0
1537911447050011,-20,11,27,85,-6,-18,-11,-39
1537911447051009,10,6,27,5,5,64,28,36
1537911447051009,4,4,12,-5,21,-21,-14,1
1537911447073945,0,0,-5,-8,-17,-9,-7,0
1537911447073945,1,-2,-12,-56,3,65,11,7
1537911447074942,-19,-3,20,108,43,-7,-14,-40
1537911447074942,16,7,-13,-91,-72,-3,-9,13
1537911447086910,6,5,41,106,22,-6,15,27
1537911447086910,-7,-6,-17,74,45,-9,-2,2
1537911447093891,20,-5,-8,-74,39,28,9,-2
1537911447093891,-21,-10,-18,72,-20,-47,-18,-13
1537911447109849,5,-6,-11,-70,11,39,34,6
1537911447109849,-10,0,1,-14,3,-82,-43,-7
1537911447110846,14,13,12,-20,-72,32,21,16
1537911447110846,4,-1,30,93,39,10,-21,-3
1537911447132787,-10,-20,-68,-55,-48,7,-31,-11
1537911447132787,14,8,26,43,-28,-47,13,15
1537911447133785,0,-3,-3,-30,21,4,-14,-9
1537911447133785,-7,-3,4,-51,-6,-46,-8,-5
1537911447146749,-1,13,40,95,-62,6,-13,-3
1537911447146749,5,-5,-16,43,52,26,12,12
1537911447153731,3,-7,-16,-58,-16,-36,11,5
1537911447153731,-22,-2,-7,14,3,9,0,-28
1537911447169688,-6,-6,3,57,15,-7,-4,-2
1537911447169688,28,9,5,-10,-34,-15,6,-3
1537911447171683,3,2,21,9,5,-14,-9,44
1537911447171683,-7,-9,-39,4,9,-35,-8,-16
1537911447192627,-10,1,10,64,29,48,16,-10
1537911447192627,-28,-12,-31,-128,41,-27,-30,-11
1537911447193625,14,1,6,-39,-88,-10,11,-5
1537911447193625,16,4,-4,-19,68,15,1,0
1537911447206590,11,1,4,19,16,12,0,10
1537911447206590,-9,1,7,-2,-52,4,10,-6
1537911447213571,-16,-10,-17,38,-16,-36,-18,-14
1537911447213571,-1,2,19,11,11,-5,0,3
1537911447230526,18,-4,-45,-25,-4,-1,-1,-3
1537911447230526,-13,1,16,-35,-25,4,6,-21
1537911447231524,-3,6,14,-14,72,-19,-13,5
1537911447231524,5,4,9,21,-1,34,28,-6
1537911447252469,4,2,1,-49,-74,-22,-10,16
1537911447252469,1,-1,-3,-10,2,-14,-3,12
1537911447253466,12,9,12,94,25,13,11,-12
1537911447253466,-2,-1,1,-43,-32,4,13,2
1537911447266431,-11,-1,15,11,-5,-21,-11,-12
1537911447266431,-4,-12,-35,26,4,-6,4,4
1537911447273413,-7,-4,-4,-15,-6,13,-2,0
1537911447273413,-3,0,2,23,2,2,-4,-1
1537911447289368,-5,0,-1,6,-31,-32,5,-4
1537911447289368,2,4,13,26,-8,13,1,8
1537911447291363,-1,1,6,-11,10,50,10,5
1537911447291363,0,3,10,74,-42,51,40,5
1537911447312307,-3,-6,-20,-126,19,-6,-17,-2
1537911447312307,3,-3,2,-2,-31,1,4,5
1537911447314302,0,2,5,59,9,-20,-5,-4
1537911447314302,-7,-6,-10,-54,-22,-18,-10,-6
1537911447326270,-4,-3,-2,32,13,-18,-1,-4
1537911447326270,1,1,4,18,-4,-2,9,4
1537911447335246,-4,2,9,28,-10,10,0,-4
1537911447335246,-4,-5,-9,-39,43,-15,-16,-7
1537911447350206,-2,-1,0,50,29,4,7,-2
1537911447350206,2,-3,-13,-75,-42,-35,1,2
1537911447351204,-1,5,7,10,-12,-8,-20,-4
1537911447351204,-1,-4,-14,-43,7,15,-1,0
1537911447372148,-2,-2,-2,-11,3,-13,-2,-4
1537911447372148,2,5,13,63,50,17,7,3
1537911447374144,1,-3,-4,-12,19,6,-4,1
1537911447374144,-1,-3,-5,-24,-31,-19,-9,-3
1537911447386112,-3,-3,-7,-20,-1,-9,2,0
1537911447386112,2,0,4,-5,-11,27,12,3
1537911447395088,-1,4,8,13,13,3,-1,1
1537911447395088,0,0,2,12,4,-6,-5,0
1537911447410047,0,-2,2,19,-57,0,12,2
1537911447410047,-1,-2,-2,-3,18,12,0,0
1537911447411046,-1,1,0,-6,8,-10,3,-2
1537911447411046,-1,-2,-2,-3,-14,-7,-1,2
1537911447431988,-1,-2,0,9,-13,-2,-5,-3
1537911447431988,-1,0,2,5,-12,-3,-3,-2
1537911447433985,-2,-2,-2,-6,1,12,8,-2
1537911447433985,1,2,6,26,16,-7,-11,-1
1537911447454927,-2,-1,-3,9,20,4,6,1
1537911447454927,-1,-5,-6,-33,-8,-2,2,2
1537911447455925,-2,0,1,-4,2,-13,-6,-2
1537911447455925,-2,-1,-3,-5,-8,3,2,-1
1537911447469888,0,1,5,18,24,3,-4,-2
1537911447469888,-1,0,-4,4,-8,1,0,-1
1537911447470885,0,-3,-4,-4,-17,-1,-3,-1
1537911447470885,-1,-1,-1,12,2,-2,0,1
1537911447492825,-2,-2,-5,-18,-1,-5,-3,0
1537911447492825,0,-1,2,5,-3,1,-4,-1
1537911447493822,0,0,1,-2,3,-3,-3,-3
1537911447493822,-2,2,1,10,-4,-4,1,0
1537911447505790,-1,-4,-9,-19,-12,-2,-5,-2
1537911447505790,0,-1,-2,-4,10,0,-1,-2
1537911447514766,-2,0,5,20,-10,3,1,-3
1537911447514766,0,1,6,64,37,-4,0,-1
1537911447529726,-4,-3,-7,-23,-19,-1,2,-1
1537911447529726,-1,-1,-3,-33,-25,-3,-11,-2
1537911447531721,-1,-5,-13,-55,-15,3,2,1
1537911447531721,0,0,5,2,6,-3,1,-1
1537911447552665,-1,1,7,28,-1,-11,-3,0
1537911447552665,-1,2,4,25,13,24,7,1
1537911447553663,1,2,4,19,9,-2,-5,-2
1537911447553663,0,-1,-6,-34,-12,-3,-3,-1
1537911447565631,-1,-1,-2,5,10,-3,1,-1
1537911447565631,0,0,1,-1,-13,4,1,3
1537911447574606,0,0,0,-12,-5,9,2,0
1537911447574606,-1,-1,-3,-8,-13,-12,-6,0
1537911447589567,-1,0,-2,-12,7,-4,-4,-3
1537911447589567,-1,0,1,25,3,-4,-2,-2
1537911447595551,-1,2,6,34,12,-2,3,0
1537911447595551,-2,0,-1,2,-11,1,1,1
1537911447612506,-1,-1,-4,-43,-7,4,-2,-4
1537911447612506,-1,-1,0,2,-3,3,-1,1
1537911447613503,-1,-1,-5,-16,-5,-5,-1,2
1537911447613503,-3,0,-2,-17,5,0,-8,-4
1537911447626468,1,1,6,45,-6,0,-2,-3
1537911447626468,0,0,1,2,10,-6,-3,0
1537911447635445,1,-1,0,3,8,16,1,0
1537911447635445,-2,-2,-1,-3,-9,-1,9,0
1537911447649408,-2,-2,0,14,0,-6,1,0
1537911447649408,-2,-4,-2,-8,-9,-35,-4,0
1537911447656388,-2,-1,-1,7,6,54,6,0
1537911447656388,-2,-2,-4,-16,-18,-21,-4,-2
1537911447672345,-2,-2,0,-5,5,5,-4,-1
1537911447672345,-1,-1,-1,7,14,17,4,-1
1537911447673342,-1,-3,-3,-6,-5,-27,-4,-1
1537911447673342,2,0,-3,0,-16,9,-3,1
1537911447686307,2,-2,-3,-20,-42,-21,10,5
1537911447686307,-2,1,2,12,51,-4,-7,-3
1537911447695283,-1,0,0,7,-22,-10,-5,-1
1537911447695283,0,-1,1,3,25,33,5,1
1537911447709246,-1,0,-3,-22,33,-17,-8,-2
1537911447709246,2,0,1,-10,-44,63,-2,0
1537911447716227,-1,0,-1,1,-7,-58,4,2
1537911447716227,-1,0,0,-2,6,-13,1,-4
1537911447734180,-1,-2,-6,-7,-12,36,1,0
1537911447734180,-5,-6,-5,-1,6,-62,-4,-5
1537911447735178,1,2,3,6,45,69,2,4
1537911447735178,-2,-1,-2,-10,-36,-4,-4,-4
1537911447755124,-2,-5,-6,1,2,-48,-4,-3
1537911447755124,2,2,1,4,18,36,11,4
1537911447756122,-3,-3,-3,-7,-55,-26,-15,-8
1537911447756122,-1,-1,-1,0,24,0,16,0
1537911447769088,3,0,1,2,-19,-25,-8,11
1537911447769088,1,1,4,15,26,48,13,1
1537911447776069,0,-1,2,11,30,-26,-5,-4
1537911447776069,-5,-2,-2,-3,109,31,-6,1
1537911447792026,-3,-1,1,4,-53,14,-8,-28
1537911447792026,4,0,-5,-8,-23,-55,-7,37
1537911447794021,2,2,5,12,43,46,0,1
1537911447794021,4,0,-1,-12,-86,25,19,0
1537911447814965,-3,-3,-5,-7,41,-35,-1,-4
1537911447814965,-4,-1,-2,-8,-7,-16,-27,-23
1537911447815962,-3,-4,-4,-6,-24,-53,4,-2
1537911447815962,3,1,5,8,17,63,7,8
1537911447828927,-1,-3,1,2,-19,37,19,-14
1537911447828927,4,3,4,8,-6,-17,10,35
1537911447835909,1,0,-3,-15,-36,43,21,9
1537911447835909,-2,1,-1,3,7,-46,-19,-8
1537911447852863,-1,-1,-1,1,-32,15,-6,2
1537911447852863,-4,-1,1,-1,-21,-4,-9,-32
1537911447853861,2,1,-4,0,68,20,-9,15
1537911447853861,-3,-3,-4,-10,-49,-38,-4,-2
1537911447874805,2,2,-1,-11,-5,33,16,14
1537911447874805,-1,-2,-1,14,53,-51,-10,-11
1537911447876799,-3,-2,-2,-8,44,5,-14,-10
1537911447876799,-2,-3,1,6,-66,-46,-13,-10
1537911447888767,-1,1,2,0,4,30,5,-11
1537911447888767,5,-1,-6,-18,16,-7,7,23
1537911447895748,-7,-1,-1,8,54,-26,-4,-13
1537911447895748,10,-3,-3,-10,8,-1,20,-2
1537911447912702,-8,-3,1,3,15,48,-9,-6
1537911447912702,-2,-3,-1,-11,-58,-15,-15,-29
1537911447913699,3,-1,0,-4,-12,-3,11,10
1537911447913699,-7,-1,1,-4,-41,-24,-21,-10
1537911447934643,1,-1,-6,-2,37,-14,-8,13
1537911447934643,2,2,1,6,42,45,16,-3
1537911447936638,-5,-2,-3,-7,-78,9,-19,-10
1537911447936638,-5,1,2,11,100,39,0,-3
1537911447948606,3,0,2,-4,-31,-16,-4,-1
1537911447948606,-6,-4,1,4,32,-30,-10,8
1537911447957582,-2,-3,-2,-1,-18,-20,10,-24
1537911447957582,-1,4,4,3,-10,35,-3,6
1537911447972542,9,2,1,5,59,36,-2,26
1537911447972542,2,2,-1,4,-5,-14,-4,8
1537911447973540,0,-1,0,3,-3,37,-12,-1
1537911447973540,2,-2,-4,-3,3,-20,8,16
1537911447994484,-12,-2,1,-2,-19,-30,-6,-33
1537911447994484,-5,-3,-5,-7,-54,9,4,-12
1537911447996479,-7,-2,-1,-3,-30,-30,-4,-1
1537911447996479,14,-1,-3,5,40,-34,-13,-1
1537911448008448,6,3,0,-2,-28,49,9,16
1537911448008448,-2,0,1,4,-41,-14,11,2
1537911448017425,1,0,1,-3,-55,-52,-6,-3
1537911448017425,-1,-1,1,14,62,13,8,12
1537911448032385,-1,-2,-3,-2,16,-25,6,1
1537911448032385,-6,-3,-3,-7,-8,25,-21,-7
1537911448033381,2,1,0,1,-8,-1,4,-4
1537911448033381,-7,-6,-6,-8,-13,6,22,-4
1537911448055322,12,1,1,9,40,-51,6,20
1537911448055322,-2,-4,-5,-4,-38,26,23,17
1537911448056322,-5,-4,-3,-5,-21,-98,-19,3
1537911448056322,4,5,3,8,11,7,-23,0
1537911448068288,-5,2,5,4,14,-25,3,-7
1537911448068288,-3,-1,1,1,16,28,-21,-12
1537911448077264,5,-1,-4,4,18,72,-20,5
1537911448077264,-7,-2,-1,5,19,-6,35,-1
1537911448092223,-16,-2,-5,0,-37,32,-13,-11
1537911448092223,15,4,3,9,25,-68,-5,4
1537911448094217,0,-1,-1,13,41,-16,15,8
1537911448094217,-4,2,-2,-18,-16,-81,-15,-15
1537911448116159,-3,-7,-8,-10,-10,14,9,10
1537911448116159,-2,-2,-2,-15,0,-38,-20,-10
1537911448117156,-3,-1,-3,-10,-14,77,22,-5
1537911448117156,-1,0,2,-9,-40,17,-4,8
1537911448128126,2,-1,-1,-6,-3,-22,14,1
1537911448128126,4,3,2,-9,-22,-2,5,0
1537911448137103,1,1,0,5,48,-45,-14,0
1537911448137103,-2,-1,-4,-1,-45,84,-4,-5
1537911448152063,2,1,4,8,58,94,15,9
1537911448152063,0,1,4,-6,-40,-56,-2,-11
1537911448154057,0,-2,1,-2,1,-47,0,-13
1537911448154057,-21,-8,-4,-4,-19,22,-14,-27
1537911448175001,23,2,-1,3,-19,-92,-17,-5
1537911448175001,-11,-5,-4,5,25,64,3,3
1537911448175998,6,0,-2,-13,-50,-1,33,9
1537911448175998,1,-3,-3,-2,30,-16,16,9
1537911448187966,-9,-4,-4,3,-2,-15,-11,-5
1537911448187966,1,-1,-2,4,6,70,10,2
1537911448196942,-7,2,4,3,7,51,-10,-15
1537911448196942,3,1,1,-3,-37,-30,-1,15
1537911448211902,-10,-3,-1,-5,4,7,-1,-9
1537911448211902,1,-1,-3,1,-19,-32,-4,3
1537911448213897,1,0,-1,3,34,-11,2,8
1537911448213897,1,0,1,-2,7,16,-12,-8
1537911448234841,-1,-1,2,-5,-8,8,-13,2
1537911448234841,-2,1,5,37,-12,-32,3,-11
1537911448235838,1,2,6,3,-47,21,11,9
1537911448235838,0,-4,-12,-11,38,-9,0,-2
1537911448248804,-1,-2,-8,-30,-34,-32,7,2
1537911448248804,-1,-4,-3,4,16,23,4,-1
1537911448257780,-4,-1,7,44,-3,8,-16,-7
1537911448257780,4,6,18,9,-50,18,-2,-1
1537911448272741,-5,-8,-30,-73,59,-48,16,3
1537911448272741,-3,-6,-17,-45,-17,13,11,-1
1537911448273739,9,1,-5,-29,5,7,8,7
1537911448273739,-10,-4,-1,21,-4,-34,-6,-4
1537911448294683,-5,4,16,54,-6,33,-8,-5
1537911448294683,18,7,5,3,14,-8,-3,1
1537911448296678,-22,-1,-4,2,10,-29,8,1
1537911448296678,9,2,2,0,-56,26,32,15
1537911448308645,-1,3,5,11,-3,42,-1,-10
1537911448308645,-14,-3,-2,0,7,9,-13,15
1537911448317621,-4,-6,-5,-8,7,53,-14,0
1537911448317621,1,1,-3,-13,6,-25,-4,-22
1537911448332580,-2,-2,1,15,55,11,-3,8
1537911448332580,8,2,1,-2,-37,-19,4,-9
1537911448333577,2,0,-1,-12,-2,4,5,-2
1537911448333577,-5,-4,-5,-10,6,3,-6,7
1537911448354521,2,-1,2,-1,-48,-36,-13,-6
1537911448354521,-5,-3,-3,0,48,49,27,3
1537911448356518,-1,0,-1,-5,-4,5,35,2
1537911448356518,0,-4,-4,-1,-4,-54,-5,10
1537911448368484,8,6,6,14,-9,64,-8,-24
1537911448368484,-9,-2,1,-4,-48,-47,-10,4
1537911448377460,-6,-2,1,3,32,23,12,-5
1537911448377460,17,3,-1,1,39,-15,-13,-6
1537911448399401,-10,-4,-2,-3,-27,22,6,2
1537911448399401,-1,-3,-1,-8,-11,-19,2,-2
1537911448401397,4,-1,-3,2,24,31,-4,6
1537911448401397,-9,-2,-1,-3,-15,5,-23,-17
1537911448414362,-6,-1,-1,7,47,-3,2,-2
1537911448414362,6,2,1,0,5,30,5,7
1537911448416357,2,-2,0,-3,-28,-118,-24,2
1537911448416357,-2,-1,0,4,12,32,4,3
1537911448428324,1,0,2,6,-1,-5,6,9
1537911448428324,-6,-1,-3,-7,-21,-42,-17,-12
1537911448437301,0,-3,0,-1,1,46,21,-4
1537911448437301,0,0,1,4,42,20,1,6
1537911448452260,2,0,-1,3,-16,-19,-12,6
1537911448452260,-3,-1,5,9,2,-4,-9,-15
1537911448454255,1,-2,-6,-11,-20,-45,-31,-4
1537911448454255,2,-1,-3,-7,-6,35,14,5
1537911448475199,-3,-3,-2,-11,-8,-17,8,-2
1537911448475199,0,-1,0,-8,25,-15,10,2
1537911448476197,2,-1,-2,-9,-35,0,-25,-2
1537911448476197,-1,1,2,12,42,-43,-11,0
1537911448488164,2,4,3,6,-1,-21,4,-4
1537911448488164,-1,0,-1,1,30,30,10,5
1537911448497141,3,-1,-1,1,-16,-8,14,9
1537911448497141,-8,-3,-4,-6,-37,-2,-1,-6
1537911448512100,16,1,-2,-2,0,-13,-5,14
1537911448512100,-8,1,-2,1,-4,-6,2,-6
1537911448514095,-5,-7,-2,-1,-14,9,-5,-3
1537911448514095,-5,1,1,-6,39,2,9,2
1537911448535039,2,-6,0,1,-11,-13,-7,-1
1537911448535039,2,12,4,13,-22,31,-3,2
1537911448536037,7,2,2,6,-13,-11,-4,-2
1537911448536037,-7,-5,-5,-15,22,-27,-4,-4
1537911448548004,-4,-2,2,-2,6,54,-10,3
1537911448548004,20,-3,-6,-15,16,15,26,8
1537911448556980,-11,6,5,5,9,-32,14,-4
1537911448556980,-19,-8,1,-2,-84,0,-9,-25
1537911448571941,13,2,0,3,-5,-43,7,13
1537911448571941,-8,-5,-1,7,50,8,-30,-21
1537911448573936,14,5,0,0,-31,16,-1,33
1537911448573936,6,4,-1,4,-8,-10,10,5
1537911448594939,-9,-1,0,-5,-13,-17,7,-10
1537911448594939,-1,-4,-3,-4,-3,-7,10,16
1537911448595877,0,-3,-6,-8,29,-42,-17,-32
1537911448595877,2,1,0,-5,-14,-12,-4,14
1537911448608842,3,-7,-3,-8,-36,-3,-9,2
1537911448608842,-8,7,5,10,36,0,7,-7
1537911448617818,-13,-8,-3,-2,15,7,3,-3
1537911448617818,7,0,-3,-2,-4,-9,-3,2
1537911448632778,-11,0,0,0,-12,-35,2,-28
1537911448632778,8,1,-2,-2,-7,38,-10,17
1537911448633776,-6,-2,-4,0,7,-12,-1,-7
1537911448633776,0,0,1,2,0,19,-2,1
1537911448654719,-2,1,1,-3,9,-9,-13,-5
1537911448654719,-8,-9,-5,-8,-59,-27,-4,-15
1537911448656715,-2,-2,-3,5,95,6,2,-4
1537911448656715,25,7,2,4,-8,20,-10,4
1537911448668682,-25,-3,-1,-1,-4,5,-3,-21
1537911448668682,0,-3,-2,0,-9,-24,12,19
1537911448677658,4,-1,-1,3,-7,-3,14,12
1537911448677658,-10,-5,-4,0,-5,-19,-1,-6
1537911448692618,15,3,-1,-3,-6,-17,-12,12
1537911448692618,-10,-4,-1,1,-5,6,-12,-16
1537911448693615,3,0,-2,-15,-15,27,5,1
1537911448693615,2,-1,0,4,15,10,-8,-4
1537911448722537,-2,1,-2,3,6,7,-3,9
1537911448722537,-7,-7,-1,-3,-18,-27,-15,-11
1537911448723535,6,1,-4,-3,9,19,23,8
1537911448723535,-2,-2,2,2,-24,35,25,-3
1537911448737497,-2,-1,-1,0,0,-15,6,-2
1537911448737497,4,-4,-5,-9,-17,19,-5,-18
1537911448738495,0,1,3,6,5,-3,-19,16
1537911448738495,-14,-6,-8,-9,-5,-56,-5,-7
1537911448752457,11,3,-1,1,21,97,15,11
1537911448752457,-2,-1,1,1,8,-12,2,-24
1537911448753455,0,1,1,2,-31,-12,-4,3
1537911448753455,0,-3,-3,-3,5,11,-3,-3
1537911448774399,1,-1,-2,-7,-11,-14,-7,10
1537911448774399,-10,-3,0,4,40,5,0,-4
1537911448776394,0,0,2,1,-21,1,0,-9
1537911448776394,0,4,3,11,-1,-9,-29,1
1537911448797338,-4,0,-2,-15,2,-23,30,-2
1537911448797338,15,2,-3,-2,-7,34,6,15
1537911448798335,-13,-4,-2,1,-16,-20,19,-1
1537911448798335,8,1,-1,-1,34,20,-3,2
1537911448812298,-7,1,2,-5,-60,-18,-8,-6
1537911448812298,-9,-5,0,6,48,-6,0,9
1537911448813295,2,-8,-2,2,-12,-14,-27,-6
1537911448813295,-3,6,0,0,0,24,3,-3
1537911448834240,4,0,-1,9,34,-10,-5,-23
1537911448834240,5,7,0,-3,-8,62,22,23
1537911448842219,-15,-5,4,4,5,-1,-38,-10
1537911448842219,4,-3,-1,-9,-20,-41,1,13
1537911448857179,-9,-4,-3,-3,0,8,19,-5
1537911448857179,-5,0,-1,-1,-2,-57,-19,-14
1537911448859173,3,3,-1,4,-8,5,-10,-13
1537911448859173,5,-1,-4,-4,8,-14,34,35
1537911448872138,-5,-2,1,9,31,0,-21,8
1537911448872138,1,3,1,-6,-26,-33,-16,-5
1537911448878122,2,0,-4,-7,-2,1,7,10
1537911448878122,-4,-6,0,1,16,23,0,-15
1537911448895077,-1,-2,-1,0,-14,-1,-2,2
1537911448895077,-3,-1,1,-1,-14,-5,-16,-4
1537911448896075,5,3,3,20,13,13,6,-9
1537911448896075,-5,-1,-1,-14,-13,9,14,-6
1537911448917019,-5,-5,-7,-13,23,63,-8,2
1537911448917019,0,4,5,0,-26,8,-3,-1
1537911448919013,0,1,0,0,22,-5,4,-4
1537911448919013,-5,-2,1,3,-45,-46,-18,-7
1537911448931978,-2,-5,-4,-2,46,-33,1,5
1537911448931978,1,-3,-1,-1,12,20,-4,-4
1537911448937962,1,1,0,-6,-50,-6,-16,0
1537911448937962,-9,-1,0,4,-14,5,13,-12
1537911448954917,10,1,1,-1,-32,-26,-7,6
1537911448954917,-5,-5,-6,0,26,19,20,7
1537911448955914,8,4,3,-10,-2,-36,-22,-4
1537911448955914,0,0,1,5,-16,14,10,2
1537911448976858,-3,0,0,1,35,7,-6,-3
1537911448976858,1,0,-4,7,9,-5,22,1
1537911448978853,-1,-1,-1,-5,-3,11,-4,-11
1537911448978853,1,1,-1,-2,24,5,-5,8
1537911448991818,-1,1,2,6,-18,12,13,-8
1537911448991818,5,0,1,-3,-41,-27,-14,16
1537911448998799,-7,-5,-5,-6,17,30,21,2
1537911448998799,-3,-1,-2,3,16,17,-14,-22
1537911449014757,-6,-1,1,5,-12,-39,-8,-35
1537911449014757,-1,-1,-1,-5,20,2,-1,14
1537911449016752,3,-2,-4,-8,-4,-11,-12,9
1537911449016752,-1,0,1,2,-11,48,12,5
1537911449037696,-2,-2,1,-1,-23,-4,-14,3
1537911449037696,-3,-2,-2,-1,6,-10,-1,-12
1537911449038694,1,2,2,4,-6,-18,-11,1
1537911449038694,2,-1,0,-4,-18,-37,-9,5
1537911449051659,-3,0,-2,-1,19,-10,-11,-1
1537911449051659,2,0,-2,-4,-31,23,14,2
1537911449058640,-7,-5,-4,-2,20,-37,17,-2
1537911449058640,2,0,0,5,49,21,-9,-3
1537911449074597,0,0,1,-3,-50,-15,15,15
1537911449074597,0,0,0,4,30,-11,-15,-7
1537911449076592,-2,-2,0,1,-17,-2,-7,-8
1537911449076592,6,-1,0,-3,14,-73,-29,1
1537911449097536,3,0,0,-2,-46,-9,-15,6
1537911449097536,-6,-5,-4,4,5,-8,17,-3
1537911449098533,-1,-1,2,-1,24,-2,-25,-7
1537911449098533,1,2,-2,-1,-10,23,1,3
1537911449111498,1,2,1,1,17,12,4,6
1537911449111498,0,-2,0,-4,2,-22,1,-3
1537911449118480,-10,-2,-1,-2,-11,5,4,-5
1537911449118480,8,-2,-4,-2,-1,-9,-4,5
1537911449134437,-5,-1,0,2,5,-21,-7,-7
1537911449134437,10,2,0,-3,-23,14,-2,-11
1537911449136432,6,-1,-2,-3,47,34,19,35
1537911449136432,-7,-1,3,7,-12,12,-5,3
1537911449157375,0,0,-2,-2,-2,15,11,0
1537911449157375,-5,-1,-1,-1,5,-48,-5,-8
1537911449158373,1,0,-2,-6,-38,14,-5,-11
1537911449158373,-1,-1,-5,-11,-26,-62,-38,-8
1537911449171338,3,3,5,16,59,25,36,17
1537911449171338,-2,-2,0,-3,-9,24,12,6
1537911449178319,0,1,-3,-9,-17,-11,9,-4
1537911449178319,-5,-2,1,0,1,11,6,-7
1537911449195274,-4,-2,-4,-5,-13,18,-34,-1
1537911449195274,2,1,-1,-1,20,-6,29,5
1537911449196271,-2,1,-3,3,-17,19,18,3
1537911449196271,3,-2,-2,-4,8,7,-3,-2
1537911449217216,-3,-3,-2,-4,19,-17,-1,1
1537911449217216,-2,0,-2,-4,1,39,-12,-5
1537911449219210,2,-1,4,5,8,4,-20,0
1537911449219210,-13,-2,-1,2,-1,-1,25,3
1537911449231178,1,-3,-4,-6,-6,-9,3,-14
1537911449231178,5,-1,-2,-4,-16,14,-7,-6
1537911449240154,0,2,1,2,-4,-26,-2,-28
1537911449240154,-4,-3,-1,1,18,38,13,14
1537911449255114,0,-1,-2,-2,-5,0,12,5
1537911449255114,-3,2,3,1,6,-15,-33,-5
1537911449256111,-5,-4,-5,-3,3,38,21,2
1537911449256111,4,2,-1,-10,-56,39,-3,-4
1537911449277055,0,-1,3,18,74,-28,6,-3
1537911449277055,-6,0,1,8,-29,53,-3,-2
1537911449279050,9,0,-2,-8,37,-5,-24,3
1537911449279050,0,-2,0,-3,-15,14,5,-3
1537911449291018,-1,-2,-3,-11,-33,-15,-2,0
1537911449291018,-4,-3,0,-1,4,-11,-5,5
1537911449299994,7,0,1,3,-13,3,0,9
1537911449299994,-2,-1,-2,1,18,21,-1,-8
1537911449314954,0,-2,-2,-5,-23,16,0,-3
1537911449314954,3,0,0,2,-5,-26,-6,2
1537911449315951,-5,-1,-1,0,15,-7,-6,-8
1537911449315951,1,-4,-5,-2,-2,-50,3,6
1537911449336895,-7,-1,0,0,-2,24,-6,-49
1537911449336895,5,-1,-3,-4,-16,-8,1,45
1537911449338890,-8,-3,2,-3,-6,23,5,-4
1537911449338890,14,3,5,3,-1,5,-6,20
1537911449350858,4,1,1,6,20,4,-5,8
1537911449350858,-3,-3,1,-5,-21,-23,21,-8
1537911449359834,-7,-6,-3,-7,-42,-23,-4,-5
1537911449359834,-3,0,-1,11,77,20,4,-15
1537911449374794,-2,2,-1,-11,-101,-5,-6,9
1537911449374794,-2,1,-4,-7,47,-2,-8,-17
1537911449375791,4,2,5,17,46,-29,-1,10
1537911449375791,1,3,1,4,-9,48,30,5
1537911449397732,-11,-5,-2,-2,13,9,-14,-5
1537911449397732,-4,-3,-4,-11,-50,-24,-1,0
1537911449398730,-1,-3,-3,-5,-8,8,3,-1
1537911449398730,-3,-3,-4,-4,0,-25,-11,-2
1537911449410698,6,-1,-3,-18,-85,43,11,16
1537911449410698,0,1,2,25,88,-47,-1,-1
1537911449419674,-6,-1,3,15,14,-2,4,-16
1537911449419674,1,-3,-3,-8,-17,-4,-14,-3
1537911449434634,2,3,3,11,2,8,13,10
1537911449434634,-2,0,3,-1,16,50,0,-11
1537911449436628,1,4,0,-5,-7,-15,-4,34
1537911449436628,-9,-3,-3,-1,-24,-16,-15,-12
1537911449457572,-4,-6,-6,-12,43,-28,-1,-5
1537911449457572,0,-1,0,-2,-64,26,1,1
1537911449458570,-1,1,-2,-3,-7,0,5,-6
1537911449458570,-6,-2,-4,-10,-16,-28,-7,-7
1537911449470538,3,0,-1,4,4,-24,-11,12
1537911449470538,-3,-1,-1,4,51,11,14,-3
1537911449479514,1,1,0,-6,-34,4,2,2
1537911449479514,0,-2,-3,-10,3,-26,-5,-2
