timestamp,emg1,emg2,emg3,emg4,emg5,emg6,emg7,emg8
1537914064054296,-1,-11,-8,-1,1,-2,-2,-1
1537914064054296,0,-10,-3,-1,0,0,-1,-4
1537914064055293,-1,-1,2,1,5,2,-3,-1
1537914064055293,1,4,1,0,-2,-8,-3,0
1537914064056290,-1,0,5,-1,-9,6,-4,1
1537914064056290,-3,0,-1,-1,0,3,4,0
1537914064057288,0,2,-2,-2,-4,-10,-5,-3
1537914064057288,-1,-1,1,-1,-1,-20,9,-1
1537914064067261,-2,0,1,5,22,26,-5,-3
1537914064067261,0,2,-2,-4,-4,1,-16,-1
1537914064068259,-2,0,-1,-1,11,31,19,0
1537914064068259,-4,-6,-3,-4,-11,-52,-12,-4
1537914064081223,-1,1,-5,-6,-16,-3,-8,-2
1537914064081223,1,5,-1,0,-1,10,29,4
1537914064088205,-2,-6,0,0,3,-3,-7,-3
1537914064088205,-1,-3,-1,2,22,16,-4,-2
1537914064106157,-2,1,-4,0,4,-5,-1,0
1537914064106157,0,-1,2,-3,-8,-11,-17,-1
1537914064127101,-2,-1,0,-1,-5,-8,4,0
1537914064127101,0,6,15,1,-4,20,6,1
1537914064130093,3,8,-7,0,4,-2,0,0
1537914064130093,1,2,7,5,4,-1,1,1
1537914064142060,-13,-57,-38,-6,-7,-13,-10,-6
1537914064142060,7,15,2,5,15,14,5,1
1537914064177964,2,-13,25,7,17,-39,10,-13
1537914064177964,-9,-13,6,-8,10,36,-7,-8
1537914064186940,-8,-7,-10,-12,-41,-43,-2,-4
1537914064186940,13,5,-10,-10,-27,-20,-25,-17
1537914064187938,-7,21,1,5,13,25,15,-1
1537914064187938,11,3,-1,9,19,-15,9,0
1537914064188935,-3,-3,6,1,-13,-9,-57,-5
1537914064188935,8,13,6,4,18,46,92,16
1537914064191927,-5,-10,-6,-2,-10,-21,-17,0
1537914064191927,-2,2,0,1,6,26,-18,-4
1537914064200903,-2,9,1,2,15,13,16,1
1537914064200903,-9,-10,-1,0,-5,-16,-19,-4
1537914064206887,2,-2,-5,-5,2,13,-8,0
1537914064206887,-7,0,0,-1,-8,-10,10,2
1537914064223842,7,0,-1,0,0,-3,0,1
1537914064223842,-6,-7,3,3,9,12,-13,0
1537914064237805,-1,1,-4,-4,-6,3,8,2
1537914064237805,11,12,-3,-5,-10,-12,-11,3
1537914064252765,-17,-20,-1,2,6,4,13,-2
1537914064252765,1,-1,-2,-2,0,-9,-8,0
1537914064253762,0,1,-4,0,-6,8,-3,0
1537914064253762,-3,6,-1,-1,-8,-15,2,0
1537914064269719,8,-8,6,3,14,10,9,3
1537914064269719,-12,-3,-2,-2,-3,-4,-4,-1
1537914064269719,2,-1,-4,-4,-8,-1,-12,1
1537914064269719,-3,-7,-3,-1,0,-3,4,-2
1537914064290663,-1,7,2,2,6,5,5,-1
1537914064290663,1,-3,-1,1,0,-3,-8,0
1537914064291661,1,-2,5,-3,-8,-3,-7,3
1537914064291661,-3,-3,-2,0,-1,-1,6,-2
1537914064312604,2,10,-3,0,2,5,2,-1
1537914064312604,0,-1,3,-1,-1,-5,-7,-4
1537914064313602,-7,-2,-6,-2,-1,-1,-2,3
1537914064313602,-1,1,4,10,25,10,10,14
1537914064327564,-4,-1,2,11,46,8,-48,-45
1537914064327564,18,7,4,5,-23,-45,64,57
1537914064328562,-8,-5,-7,-12,-28,-7,2,-75
1537914064328562,13,1,0,-1,-19,39,-11,79
1537914064350503,3,1,-3,-22,-85,-81,69,-36
1537914064350503,-13,1,9,52,120,51,-66,-85
1537914064351501,4,-5,-15,-45,-116,-40,-66,14
1537914064351501,-11,0,8,26,110,-99,9,-21
1537914064373442,11,3,-7,-37,-95,60,7,-15
1537914064373442,-5,-7,-10,-20,17,-100,-35,38
1537914064373442,1,-1,-7,-14,-48,127,26,26
1537914064373442,-8,-1,9,52,66,45,-89,-85
1537914064388402,10,6,5,7,-46,-63,-8,98
1537914064388402,-12,-10,-9,-27,-122,25,29,-34
1537914064388402,14,-2,5,18,72,-43,-4,74
1537914064388402,8,15,5,5,-5,39,34,-25
1537914064410343,-11,2,11,27,127,73,41,-2
1537914064410343,19,2,20,35,57,-13,-5,22
1537914064411340,-16,-11,-18,-48,-59,-63,-34,-23
1537914064411340,-13,-7,-6,-20,-39,-18,44,-18
1537914064433282,6,2,3,3,-36,-76,66,38
1537914064433282,-15,-14,-23,-47,-120,39,-43,-24
1537914064433282,-9,14,15,66,127,127,13,-21
1537914064433282,24,9,-10,-39,-118,-110,35,58
1537914064448243,-10,-10,-16,-24,61,113,-52,-58
1537914064448243,-5,2,10,34,120,36,8,2
1537914064449239,-10,3,-2,-20,-103,-82,-8,-23
1537914064449239,26,-1,-5,-7,-112,121,-13,2
1537914064470183,-13,-7,1,17,56,-90,-107,-39
1537914064470183,-12,-3,-10,-44,-104,-49,36,-6
1537914064471181,31,5,14,41,65,31,1,5
1537914064471181,-25,-6,1,-14,-37,66,-65,-19
1537914064493122,8,-6,-12,-27,-55,68,-14,16
1537914064493122,-6,10,20,52,127,3,36,24
1537914064494119,-17,-13,-14,-36,-78,65,0,-5
1537914064494119,-3,-18,-19,-59,-95,-47,-27,-2
1537914064508082,-12,12,9,33,100,90,42,12
1537914064508082,17,3,-3,0,17,90,-29,11
1537914064509079,-2,3,13,30,94,55,-19,-21
1537914064509079,22,0,-8,4,127,-56,6,6
1537914064530023,-5,-7,-3,-17,-37,13,-57,-30
1537914064530023,5,9,-3,-24,-112,52,61,-34
1537914064531021,18,-2,-3,19,0,42,29,43
1537914064531021,-15,-17,-15,-28,-57,-86,-32,-31
1537914064553959,-5,13,4,-4,55,-18,23,-2
1537914064553959,3,-2,1,1,-3,-22,28,-16
1537914064554957,-8,0,5,18,72,71,7,-5
1537914064554957,-4,6,13,41,73,16,-9,4
1537914064567922,2,-8,-9,-4,-61,52,19,11
1537914064567922,-9,-8,-15,-37,-71,67,-50,16
1537914064568920,-2,1,4,3,17,-70,34,-49
1537914064568920,-6,6,3,6,65,43,76,44
1537914064590861,15,9,15,33,101,-13,22,40
1537914064590861,4,-1,3,15,18,28,-75,-5
1537914064590861,1,-7,-13,-26,-91,-128,31,33
1537914064590861,11,1,-7,-18,-29,108,-1,-12
1537914064612802,-6,-12,-12,-24,-58,-86,24,-3
1537914064612802,6,16,21,51,84,28,-16,7
1537914064613800,-15,-11,-19,-28,-50,-128,-11,-28
1537914064613800,-7,-8,-6,-31,81,101,33,6
1537914064627762,-4,-1,2,6,-17,76,-31,-2
1537914064627762,1,2,-2,-13,-56,-54,53,-8
1537914064628759,11,10,24,71,102,29,30,27
1537914064628759,-3,6,18,91,119,-62,-71,-13
1537914064650701,-8,-15,-35,-112,-113,-38,32,-11
1537914064650701,-13,-7,-5,-33,-33,13,-16,-5
1537914064650701,15,12,23,81,91,-23,0,2
1537914064650701,-19,-10,-20,-92,-128,-128,47,50
1537914064672642,-1,-5,-1,37,27,6,-19,-15
1537914064672642,9,1,-1,-1,40,-8,-29,-12
1537914064673639,3,3,0,11,-49,-94,-14,37
1537914064673639,-1,7,18,52,127,21,19,-23
1537914064687602,-16,-11,-17,-47,-110,79,1,6
1537914064687602,0,-16,-23,-81,-76,-59,-35,1
1537914064688600,-1,6,1,-2,19,107,47,2
1537914064688600,2,8,16,30,24,-118,-66,-46
1537914064710541,1,13,25,89,97,6,-31,19
1537914064710541,8,-15,-25,-40,48,0,3,17
1537914064711538,-16,-6,1,-22,-10,-24,-14,-20
1537914064711538,17,-10,-19,-40,-97,46,-6,12
1537914064732482,4,6,9,1,59,127,56,-27
1537914064732482,-27,-11,-5,-14,-76,-107,24,13
1537914064733479,29,17,13,44,94,-19,-64,-23
1537914064733479,-10,-2,-7,-22,-54,47,97,10
1537914064748439,12,1,3,37,-75,20,-27,6
1537914064748439,16,9,8,34,94,-1,40,14
1537914064748439,-17,-12,-21,-55,-31,-8,-4,-27
1537914064748439,-13,-3,0,-10,-41,56,22,-4
1537914064770381,3,-3,-7,-42,-100,-24,-28,-7
1537914064770381,-1,8,19,67,49,111,-1,-40
1537914064771378,2,-1,0,53,53,-62,-8,11
1537914064771378,-9,-4,-7,-59,115,90,-59,-10
1537914064793320,-17,-22,-42,-123,-106,-122,-30,-53
1537914064793320,5,13,10,16,127,-4,8,-1
1537914064793320,0,0,10,34,16,99,46,-3
1537914064793320,-17,-4,3,48,-23,-21,-48,9
1537914064807282,25,15,17,91,127,18,32,9
1537914064807282,-7,-9,-18,-71,-75,-54,2,0
1537914064815261,-10,-13,-21,-90,-128,-68,-40,-7
1537914064815261,13,3,10,37,39,10,1,6
1537914064830221,-10,11,30,82,95,-89,49,-17
1537914064830221,-2,-5,-15,-28,-59,55,-12,18
1537914064838200,3,-4,-2,-15,-56,127,5,21
1537914064838200,-6,-1,8,11,-5,29,-2,-26
1537914064853160,-7,-2,-12,-25,-29,-106,-15,12
1537914064853160,2,-8,-3,-6,-41,32,-28,-26
1537914064854157,-3,6,10,50,79,75,7,12
1537914064854157,-6,-11,-26,-74,-72,-24,47,-25
1537914064869117,6,1,6,-11,-14,4,-44,8
1537914064869117,-6,6,5,49,11,-72,29,4
1537914064875101,-13,-11,-14,-53,-76,-87,25,-16
1537914064875101,10,7,16,71,40,-48,-11,-3
1537914064890061,14,4,3,14,31,-73,-14,23
1537914064890061,-1,-9,-17,-42,-37,14,46,0
1537914064891058,0,-2,4,-20,36,-5,-30,-3
1537914064891058,4,11,4,3,-25,-26,26,13
1537914064912999,-4,2,12,36,72,-14,10,-13
1537914064912999,-5,11,21,85,127,48,11,11
1537914064913997,3,-9,-26,-89,-44,-25,-53,-21
1537914064913997,-4,-8,-15,-80,-56,29,31,55
1537914064926962,-12,-2,1,14,-24,85,-36,-7
1537914064926962,20,11,19,77,105,-77,-19,12
1537914064935938,-14,-9,-17,-48,-100,-32,-33,15
1537914064935938,-4,1,8,40,-40,14,-16,-5
1537914064950899,7,5,14,27,82,51,62,4
1537914064950899,3,-3,-4,2,-61,-63,-58,18
1537914064950899,-8,0,-1,11,85,-13,-16,-27
1537914064950899,-1,-5,-5,-14,-21,7,40,-19
1537914064973837,8,-4,-10,-22,-81,4,-15,20
1537914064973837,-7,1,8,20,-10,41,2,-13
1537914064974835,3,2,-5,-7,37,1,34,-6
1537914064974835,-3,-4,-2,1,-23,-7,-40,31
1537914064987800,2,-1,-3,-7,-4,72,-4,-4
1537914064987800,0,-3,-1,-37,8,14,10,-12
1537914064995778,4,-1,6,23,5,80,75,38
1537914064995778,-2,4,-4,-3,-14,-14,-71,-26
1537914065010738,12,10,20,69,-2,2,-10,12
1537914065010738,3,-4,-6,6,61,8,-31,4
1537914065010738,-5,-7,-15,-77,67,49,41,-3
1537914065010738,-15,-8,-6,-43,-35,-2,-25,-33
1537914065032679,-2,-1,-2,-6,14,-20,-22,10
1537914065032679,1,6,10,39,38,42,22,12
1537914065033677,1,5,10,41,82,52,24,2
1537914065033677,-2,-3,0,31,18,-7,-64,-17
1537914065056616,-6,-3,-12,-32,-31,-62,44,12
1537914065056616,-5,-3,-3,-15,-53,3,-27,-51
1537914065056616,17,6,6,10,-43,-6,3,8
1537914065056616,9,4,1,29,22,20,26,4
1537914065070578,-5,-5,-4,-9,56,67,-11,-24
1537914065070578,-2,-4,-3,-26,13,-2,26,80
1537914065071576,-8,3,6,10,-20,27,-18,-6
1537914065071576,22,7,10,56,38,-68,41,18
1537914065092520,5,2,5,47,97,-32,-6,-3
1537914065092520,-16,-11,-26,-115,-74,22,70,-23
1537914065093517,-5,-7,-11,-42,-128,-45,-47,-11
1537914065093517,-6,3,13,29,106,-34,19,-12
1537914065107479,-4,-3,-5,-6,-64,-20,-5,4
1537914065107479,1,6,15,61,6,2,-27,-4
1537914065115458,3,3,11,33,94,-19,-9,5
1537914065115458,-13,-10,-14,-50,-23,8,8,-22
1537914065130418,10,-6,-13,-59,-89,-43,-34,6
1537914065130418,-2,1,1,10,-34,20,-7,-4
1537914065131416,-6,1,7,33,-19,-23,1,-30
1537914065131416,4,4,5,26,90,34,51,66
1537914065153357,7,-4,-10,-32,-48,19,-49,4
1537914065153357,-4,-3,-7,-3,-13,-21,-11,-13
1537914065153357,-7,-5,-7,-15,-17,-24,-18,-15
1537914065153357,3,1,0,-7,11,17,0,-15
1537914065176296,-10,0,1,2,10,3,17,-4
1537914065176296,6,2,4,10,8,-14,-3,3
1537914065177293,0,1,2,19,19,10,6,10
1537914065177293,-4,-4,-3,-8,-23,12,-19,-19
1537914065198237,-6,-4,-2,-11,3,9,18,-2
1537914065198237,0,-5,-3,-8,-29,-10,-18,-7
1537914065199234,-1,0,-4,0,-5,-4,-8,1
1537914065199234,5,0,-3,-6,-17,-2,-7,1
1537914065212200,-2,-1,-2,-2,11,0,6,-5
1537914065212200,-1,0,-1,-2,4,-1,2,1
1537914065220178,1,-1,-1,3,-6,-8,-4,1
1537914065220178,-5,0,0,3,4,-4,-4,-5
1537914065236136,0,-2,-1,-1,12,13,14,0
1537914065236136,-18,-3,-4,-7,-16,3,-6,-5
1537914065237133,14,2,0,2,-2,-2,0,17
1537914065237133,7,-3,-2,-3,-11,-4,-11,-5
1537914065266056,-6,0,-2,-7,3,2,-2,3
1537914065266056,-4,0,-1,-4,-10,-4,-6,-5
1537914065268051,-2,1,1,6,2,-5,-2,-1
1537914065268051,-1,0,1,2,6,3,1,-3
1537914065281016,-5,2,2,-6,-4,-2,2,0
1537914065281016,-1,-8,-4,0,-1,-5,-4,-3
1537914065287000,5,18,10,4,2,-1,-2,0
1537914065287000,4,-10,6,-2,-6,2,-6,-1
1537914065295976,-5,-7,-12,-3,3,3,4,-5
1537914065295976,-4,-4,0,0,-5,-5,-6,-4
1537914065297971,-2,-2,-3,0,-1,-1,-1,1
1537914065297971,2,7,2,-6,-8,-3,-3,0
1537914065318915,-2,5,5,-1,3,-3,2,-6
1537914065318915,3,1,-1,0,0,-1,0,1
1537914065319912,-14,-10,3,0,-2,-3,-3,-1
1537914065319912,11,4,-12,1,2,0,1,-1
1537914065331880,-2,-2,-2,-4,0,3,5,-2
1537914065331880,3,13,-5,-5,-6,-1,-3,0
1537914065340856,27,1,8,1,1,1,-2,0
1537914065340856,-56,-47,-17,-1,-2,-2,-6,-9
1537914065355816,10,5,-2,-3,-2,-1,0,1
1537914065355816,10,-3,5,-1,-3,-2,-1,2
1537914065357811,-10,4,-3,-1,-4,-6,-5,-7
1537914065357811,19,10,4,-1,-1,2,2,2
1537914065378755,-8,-6,0,0,1,2,4,3
1537914065378755,-11,-2,-2,-1,-3,-2,-2,-4
1537914065379752,-5,-12,-4,0,-1,-1,0,-1
1537914065379752,3,9,-1,1,0,2,-2,1
1537914065392717,-6,-1,0,-1,2,3,0,-1
1537914065392717,6,15,10,-1,-6,-2,-2,0
1537914065401693,-7,-18,-11,0,-1,-2,1,3
1537914065401693,0,4,0,-2,-3,-1,-2,-3
1537914065416653,2,3,2,3,1,-1,-1,3
1537914065416653,-3,-10,-3,-3,0,-3,0,-4
1537914065417650,2,9,3,0,-1,0,-1,6
1537914065417650,3,8,0,-3,0,8,-2,-2
1537914065438594,-3,-10,-3,0,7,-2,3,-6
1537914065438594,2,-1,0,-1,-3,9,-1,-6
1537914065440589,-5,1,-1,-5,-7,-6,-1,-3
1537914065440589,4,1,0,-1,-2,-1,-5,8
1537914065452557,-5,0,0,4,9,5,-3,-3
1537914065452557,-2,-4,0,3,10,-19,-2,-4
1537914065461533,2,2,-5,-6,-27,21,1,2
1537914065461533,-11,-2,1,-3,-11,-9,6,-14
1537914065476493,6,0,1,-3,-2,-2,-2,2
1537914065476493,2,0,-4,1,4,4,0,1
1537914065477491,0,-2,-4,3,15,1,-1,-3
1537914065477491,-2,2,3,2,2,0,-2,-5
1537914065498434,-2,-1,0,-1,-2,4,1,-1
1537914065498434,1,-2,-2,-3,-1,1,-1,0
1537914065500429,-3,-4,-2,-3,-1,-6,0,3
1537914065500429,2,1,1,-1,0,2,-1,0
1537914065512397,1,-1,2,0,0,1,-3,-3
1537914065512397,2,-3,0,-4,-4,-10,-2,6
1537914065521373,0,1,-1,-1,-2,-2,2,-3
1537914065521373,-1,0,-3,0,0,2,-1,-4
1537914065536333,2,-1,-2,-2,-5,-1,1,3
1537914065536333,-7,-1,-1,-2,-3,6,2,-10
1537914065537331,-3,-1,1,0,2,-4,1,-1
1537914065537331,4,-1,0,0,5,-4,-1,4
1537914065558275,-4,-1,0,0,-4,-3,-2,-3
1537914065558275,5,-2,-3,-1,-2,1,-4,3
1537914065560269,2,0,0,1,7,-2,-1,0
1537914065560269,0,-3,0,-2,-1,2,-1,2
1537914065572237,-4,-2,0,-1,-4,-6,-3,-3
1537914065572237,0,0,-2,0,-4,-2,-1,2
1537914065581213,-1,0,-3,-2,0,3,-2,-3
1537914065581213,1,2,-1,-1,-3,-6,-2,1
1537914065596173,-3,-1,0,0,-1,4,0,0
1537914065596173,-1,-1,-1,-1,-1,-1,2,1
1537914065597171,-6,0,0,-1,-2,-2,-3,1
1537914065597171,11,1,0,0,-1,-2,-1,3
1537914065618115,-2,-2,-3,-4,0,-1,0,1
1537914065618115,1,-1,-1,3,0,2,2,6
1537914065626093,-3,-2,-2,0,-1,-1,1,-3
1537914065626093,-2,1,0,-1,0,-2,-1,-2
1537914065632077,-4,-2,-1,-1,-5,-2,1,-3
1537914065632077,1,0,0,0,-1,3,-4,-4
1537914065641053,1,-1,-1,-1,0,-2,-3,2
1537914065641053,0,-2,-1,0,0,1,0,5
1537914065655016,2,0,-3,0,-1,-2,-1,-4
1537914065655016,-4,-3,-2,-1,-1,1,-2,4
1537914065661998,0,0,0,0,1,-3,-1,-1
1537914065661998,-2,-1,0,-1,-1,0,-1,-3
1537914065678953,3,1,-2,-2,2,0,0,-1
1537914065678953,-3,0,-2,-4,-5,-3,-3,0
1537914065679950,-1,-2,2,6,4,1,-1,-1
1537914065679950,-1,-1,1,9,10,4,1,1
1537914065700894,-1,0,1,4,9,2,-6,-3
1537914065700894,-3,-1,-4,-4,-5,-10,-2,2
1537914065702889,-5,5,9,22,105,79,11,-15
1537914065702889,-21,2,18,59,61,-49,4,-28
1537914065715854,18,5,11,69,99,109,-29,-36
1537914065715854,-3,-1,-9,-24,63,13,84,95
1537914065721838,5,-2,-17,-75,-70,12,-20,-59
1537914065721838,-18,-21,-37,-109,-74,80,-47,-91
1537914065738792,2,-8,-22,-128,-128,-27,51,101
1537914065738792,-11,-17,-13,-63,-128,-68,12,-87
1537914065739790,3,4,6,26,-87,-45,-8,-33
1537914065739790,9,8,14,70,70,-16,99,112
1537914065760733,-1,24,49,127,104,74,-37,-39
1537914065760733,34,14,15,67,4,-16,-27,27
1537914065762728,-6,0,-9,-43,-82,-108,2,12
1537914065762728,-7,15,7,2,54,-22,-77,-56
1537914065775694,-9,-14,-18,-58,-124,-7,-45,-12
1537914065775694,0,2,13,32,73,-18,4,41
1537914065782675,-15,-5,22,90,106,86,56,-38
1537914065782675,21,-12,-21,-82,-125,-90,-24,80
1537914065798632,4,-16,-23,-38,127,14,22,38
1537914065798632,-8,-9,-11,-54,-121,22,-42,-84
1537914065800627,-29,-14,-3,2,38,95,-4,26
1537914065800627,41,26,19,47,8,114,110,1
1537914065821571,-15,-3,-2,23,42,-88,-43,-14
1537914065821571,-3,0,-18,-29,7,-64,36,-15
1537914065822568,-28,-1,-17,-14,79,-23,-14,18
1537914065822568,-7,6,1,1,-28,-25,-1,42
1537914065835534,8,9,7,21,13,-42,-22,-20
1537914065835534,-13,-6,-3,19,20,-3,-79,-70
1537914065842515,21,5,2,11,6,-121,33,6
1537914065842515,-11,-15,-3,-8,11,118,-1,-1
1537914065858472,-7,1,15,40,70,-46,58,-4
1537914065858472,-5,-9,-8,-48,-69,127,-72,-6
1537914065860467,6,2,1,-17,14,-23,-51,14
1537914065860467,8,2,6,-13,31,-38,-15,32
1537914065881411,-13,-7,-11,-41,-100,-119,7,-39
1537914065881411,-2,5,17,32,38,40,15,61
1537914065882408,24,-3,-5,-10,-7,-44,-37,-3
1537914065882408,-16,-7,2,35,-11,4,25,-24
1537914065903352,-2,0,-2,20,22,17,-20,-15
1537914065903352,2,1,-13,-48,79,-63,23,-5
1537914065905347,-8,-3,-8,-18,-11,-10,32,-10
1537914065905347,0,-9,-7,3,38,-79,-94,-26
1537914065920307,21,9,4,25,-2,3,87,110
1537914065920307,-6,-1,-2,24,16,6,28,-4
1537914065921304,7,5,1,-11,15,48,5,0
1537914065921304,-9,-10,-8,-14,-43,-16,3,-54
1537914065941251,13,-2,4,-11,8,12,-22,23
1537914065941251,-11,4,7,35,-39,-96,13,-12
1537914065942248,7,1,5,-10,-39,98,2,25
1537914065942248,-12,-2,-3,-6,-1,78,-26,-19
1537914065955214,0,-5,-2,-14,-15,97,-28,-20
1537914065955214,6,-2,0,14,-4,-94,33,64
1537914065964190,-12,-5,-12,-20,87,-55,-20,-28
1537914065964190,-5,0,1,-22,-40,1,22,-5
1537914065979149,-8,2,-9,-35,-59,-1,18,-42
1537914065979149,13,3,15,35,37,74,-62,19
1537914065980147,17,4,13,73,70,125,42,40
1537914065980147,0,-10,-14,-36,23,-65,-10,-8
1537914066001091,-6,-2,-4,-11,-46,-13,-4,-43
1537914066001091,12,4,10,24,15,9,61,-7
1537914066003086,-5,-1,-3,25,53,23,-9,-7
1537914066003086,-1,3,-5,-43,-43,-16,-13,-2
1537914066015053,-2,0,2,45,-3,22,35,15
1537914066015053,-1,0,-6,-49,101,39,-48,-22
1537914066024030,-15,-10,-10,-46,-128,-10,20,-35
1537914066024030,12,9,13,50,5,32,15,-6
1537914066038990,-10,-3,-2,-6,37,41,-25,-33
1537914066038990,0,-1,4,35,-71,-3,20,64
1537914066039987,5,-2,-3,-16,65,-94,14,-17
1537914066039987,-1,-9,-19,-56,-67,-33,-11,11
1537914066060931,-13,-2,4,-13,-36,-11,-8,12
1537914066060931,-6,-4,-2,10,34,51,33,-58
1537914066062926,4,3,-15,-49,-128,-116,-8,12
1537914066062926,-12,2,13,65,77,48,-12,-35
1537914066074894,4,-2,-3,-6,124,-11,17,11
1537914066074894,-8,4,-2,-9,-47,28,-20,28
1537914066083870,18,6,9,49,79,21,-18,39
1537914066083870,-14,-7,-7,-46,27,10,-16,-49
1537914066098829,0,2,2,8,-113,-53,-14,-27
1537914066098829,1,1,3,14,21,-45,-22,-26
1537914066099827,0,-7,-12,-79,-128,31,-30,12
1537914066099827,0,5,13,80,105,11,31,47
1537914066122766,-5,-6,-3,-8,94,61,5,-43
1537914066122766,9,-3,-9,-50,-115,-76,2,18
1537914066124761,-2,-3,1,28,111,-65,-74,-35
1537914066124761,15,1,-5,-47,-83,-55,43,55
1537914066134734,-9,-3,-4,-16,-32,49,-9,-16
1537914066134734,-10,8,10,42,58,98,39,-21
1537914066143710,-4,-2,11,44,22,-69,-9,-6
1537914066143710,2,5,10,58,70,-31,1,-37
1537914066158670,14,1,-10,-6,53,27,-8,54
1537914066158670,-18,-13,-23,-63,31,12,-24,-44
1537914066159667,-2,-2,-5,-34,-44,-27,5,33
1537914066159667,1,0,2,-4,-36,2,13,-4
1537914066181608,-6,2,10,33,-15,0,26,5
1537914066181608,-2,-4,0,3,71,-35,-19,-22
1537914066182606,-12,-2,-8,-25,-24,33,10,-24
1537914066182606,9,-2,-7,-9,-60,12,7,-3
1537914066194574,-5,0,0,0,-10,-25,-20,-13
1537914066194574,6,1,6,27,34,56,8,7
1537914066203550,4,7,21,66,91,116,8,-22
1537914066203550,-3,-9,-21,-42,-58,-45,-34,-4
1537914066218510,-16,-13,-21,-89,-71,-34,-27,-19
1537914066218510,3,4,9,12,-25,-2,14,23
1537914066220505,3,1,6,31,34,47,-23,9
1537914066220505,12,7,12,44,61,-1,1,10
1537914066241448,4,-2,-10,3,35,-11,13,-6
1537914066241448,-5,-11,-23,-89,-127,-23,-13,-32
1537914066242446,-5,-4,-7,-28,-74,-11,6,9
1537914066242446,-3,5,10,21,73,-3,-8,-6
1537914066254414,5,5,12,49,28,-5,8,-7
1537914066254414,5,7,9,47,81,23,-14,0
1537914066263390,8,-1,-12,-25,-29,-15,20,-6
1537914066263390,-4,-4,-7,-20,-34,4,-13,-1
1537914066286329,7,3,3,-3,-20,-5,14,24
1537914066286329,-3,2,11,38,14,2,-11,-21
1537914066287326,2,1,1,15,21,3,44,24
1537914066287326,-6,-8,-12,-40,39,11,-8,-16
1537914066301289,2,0,1,-4,-91,-13,-21,-1
1537914066301289,-1,-3,-9,-25,34,-6,-2,9
1537914066302287,-7,-3,-8,-37,-79,-13,-4,-11
1537914066302287,-1,0,8,23,15,24,-4,56
1537914066315251,2,-1,-2,2,20,-9,18,10
1537914066315251,-1,0,3,26,2,4,-12,-15
1537914066323230,9,3,4,14,20,1,3,27
1537914066323230,-12,-2,-1,3,-2,-1,-33,-11
1537914066338190,9,2,-2,-8,2,-8,-5,0
1537914066338190,-12,0,0,10,-2,4,7,-1
1537914066340185,-5,-3,-4,-10,2,0,-12,-15
1537914066340185,-4,-4,-2,-19,-21,-2,-5,-2
1537914066361129,4,0,1,-1,-5,-6,-2,20
1537914066361129,-1,-1,-1,1,0,6,7,-2
1537914066362126,1,0,3,8,4,-4,-31,-6
1537914066362126,3,3,-1,7,-8,2,29,-14
1537914066375091,-6,0,-1,-4,9,1,-1,-8
1537914066375091,4,-3,-4,-7,-9,-2,9,11
1537914066384067,-2,-2,-1,6,-2,-3,-6,-3
1537914066384067,6,4,0,-2,-4,2,10,7
1537914066399027,-9,-10,-4,-4,4,1,-6,-9
1537914066399027,-8,-6,-2,-8,-6,-6,-11,6
1537914066405011,20,18,9,5,0,2,21,14
1537914066405011,17,4,-6,1,2,4,-12,-5
1537914066420969,-17,-6,4,2,7,3,38,-5
1537914066420969,-11,-27,5,-4,-10,-7,-34,-11
1537914066422963,-20,5,-27,3,2,7,48,-1
1537914066422963,2,8,3,-4,-10,-8,-13,-2
1537914066434931,-11,-10,-2,-2,3,5,1,11
1537914066434931,39,19,-2,-4,-2,-18,-26,8
1537914066443907,-16,-5,9,1,-1,9,11,-9
1537914066443907,20,31,2,2,9,4,25,2
1537914066458867,-22,-35,-12,-6,-4,-6,-7,-10
1537914066458867,-19,7,2,2,5,15,11,1
1537914066459864,15,-3,-5,-4,-3,-5,-2,9
1537914066459864,-19,-32,-1,5,-2,7,-14,-15
1537914066480808,0,10,14,-2,3,-2,-3,7
1537914066480808,17,12,-3,-3,-6,-15,25,9
1537914066486792,3,-45,-5,0,-2,2,-10,-4
1537914066486792,-25,-5,0,-2,-3,6,-48,-17
1537914066494771,13,9,2,1,1,-22,-11,9
1537914066494771,0,-17,-18,-4,5,62,-1,11
1537914066503747,20,34,9,-4,-9,-25,-86,-14
1537914066503747,-15,-25,0,5,7,-13,44,-6
1537914066518708,24,23,-1,-3,-1,-7,19,-41
1537914066518708,-8,-2,-1,-4,-10,-8,13,16
1537914066519705,-17,-11,-4,-3,3,13,-32,-9
1537914066519705,11,-6,-2,5,5,18,15,8
1537914066540649,-6,11,-2,-5,0,-4,-32,5
1537914066540649,8,15,4,2,-3,-24,-13,-16
1537914066542643,-16,-17,9,-4,-5,5,28,8
1537914066542643,-1,0,2,-3,-4,-23,-16,-3
1537914066554611,9,-5,-3,-4,3,46,24,20
1537914066554611,-10,-4,-3,2,-2,-50,-9,14
1537914066563587,14,2,1,-5,10,46,41,26
1537914066563587,15,5,-1,-2,-15,-7,-39,8
1537914066577550,-4,5,-7,0,-3,-15,-24,-18
1537914066577550,12,0,-1,-5,0,1,9,5
1537914066584532,-7,2,3,4,-6,-35,-13,-8
1537914066584532,8,4,-4,-1,15,41,29,24
1537914066601486,-28,-8,-3,-7,-15,-2,3,-33
1537914066601486,8,-2,3,1,-7,-53,-18,44
1537914066602484,0,2,-1,8,26,57,47,-1
1537914066602484,-6,2,-8,-18,-55,-57,-19,-13
1537914066614451,8,-2,-1,1,-3,-11,-15,10
1537914066614451,-14,-3,-1,-4,-3,33,36,-28
1537914066623428,6,7,-1,-1,7,-35,-15,-1
1537914066623428,-12,-3,2,7,18,48,6,14
1537914066638387,23,3,-1,-1,-5,-40,-6,22
1537914066638387,-13,1,10,1,7,16,21,-27
1537914066644371,2,6,-5,6,1,65,-22,26
1537914066644371,-23,-15,-7,-4,2,-38,15,-53
1537914066661326,2,1,-1,0,-3,-7,3,5
1537914066661326,2,7,0,2,5,18,11,-11
1537914066662323,-14,-41,6,2,-4,-28,1,6
1537914066662323,-11,6,-2,-2,-1,11,-3,1
1537914066683267,11,9,-2,0,6,19,15,20
1537914066683267,-2,0,0,3,3,-5,-6,-1
1537914066685263,-9,2,3,0,-7,-12,12,-26
1537914066685263,32,-2,-9,-11,-10,-15,-11,42
1537914066698228,1,-1,12,5,3,-5,-15,-10
1537914066698228,6,-8,0,-2,-4,8,-4,4
1537914066705209,-20,-5,-1,-3,2,-12,-11,-24
1537914066705209,10,16,6,4,2,15,16,3
1537914066721166,-5,3,-4,-3,-3,-32,0,4
1537914066721166,6,0,-2,1,6,56,-23,-15
1537914066722163,2,1,-8,-9,-17,-14,25,3
1537914066722163,-7,-1,4,4,10,-9,7,2
1537914066744105,-6,-9,-5,-3,7,10,-10,-7
1537914066744105,4,6,-2,-3,-19,-23,-5,16
1537914066745102,3,9,-1,0,-4,-9,13,1
1537914066745102,-8,4,8,6,3,2,12,-25
1537914066758067,31,-7,-10,-6,-5,1,-1,44
1537914066758067,-7,-17,-2,1,9,16,-20,-36
1537914066765049,-19,26,-3,1,0,0,-15,-42
1537914066765049,-1,-12,2,0,0,1,14,9
1537914066781006,-3,3,3,3,3,7,-11,-18
1537914066781006,-15,-6,7,-3,-1,-12,5,7
1537914066783001,2,-13,1,0,-9,-12,-16,-4
1537914066783001,9,14,-1,0,0,3,-19,-16
1537914066803945,-15,-13,0,0,2,2,6,-5
1537914066803945,1,1,3,0,-2,-5,1,22
1537914066804943,30,15,5,1,-3,-12,-7,19
1537914066804943,-19,-39,4,2,4,3,3,7
1537914066817907,4,53,-13,-4,-3,14,6,-2
1537914066817907,-4,-21,-23,-4,-10,-26,34,-6
1537914066824889,-10,-9,6,-7,-1,6,-28,-16
1537914066824889,4,1,3,4,2,-3,26,19
1537914066840846,9,0,6,7,18,-8,-57,-9
1537914066840846,-2,-5,-5,-5,-7,-22,-29,4
1537914066842841,18,28,-3,-2,-6,81,43,23
1537914066842841,-17,3,-3,5,20,-54,-18,0
1537914066863785,-12,-36,3,0,-7,114,29,13
1537914066863785,-9,17,2,4,16,17,-20,-33
1537914066864782,6,-11,-3,-1,-9,-78,-14,27
1537914066864782,2,12,-1,-4,-10,7,20,0
1537914066877747,-11,-15,-3,-2,-9,-45,-23,-11
1537914066877747,1,0,1,-3,-2,1,12,5
1537914066885726,-1,2,-6,-5,-3,7,4,16
1537914066885726,-13,-11,-3,5,22,19,25,-33
1537914066900686,-8,2,3,2,-2,-7,-14,-20
1537914066900686,0,-2,-3,-10,-16,-10,21,3
1537914066902681,-5,0,-1,5,9,-10,-17,-7
1537914066902681,3,3,-4,-5,-7,19,0,4
1537914066923625,-4,-2,3,3,7,-21,-3,-4
1537914066923625,2,8,2,3,5,18,-5,-11
1537914066924622,-11,-10,-1,1,-2,-25,26,-13
1537914066924622,3,-2,-3,-3,0,17,-1,-41
1537914066937588,-5,-4,1,-4,-5,-14,3,4
1537914066937588,6,2,1,0,-2,6,6,8
1537914066946563,-1,-4,-3,-1,-1,-27,-42,-14
1537914066946563,1,2,-2,-4,-11,20,-2,10
1537914066961523,-5,-2,-1,0,0,-25,36,-5
1537914066961523,0,2,-2,-1,-2,-27,-10,-6
1537914066962521,-10,-5,0,1,8,8,7,-11
1537914066962521,7,6,-1,2,2,36,-12,18
1537914066983465,17,3,-4,-6,-11,-20,-25,11
1537914066983465,1,-2,9,-1,4,4,37,19
1537914066985460,15,-5,-14,-3,-3,-14,9,0
1537914066985460,-3,-7,-3,-4,-6,-16,-14,1
1537914066998425,-11,-1,5,1,-3,13,16,-14
1537914066998425,-4,-2,-7,1,3,-17,-14,-4
1537914067012387,10,-5,4,3,0,11,2,16
1537914067012387,3,3,0,-1,-5,4,-7,-3
1537914067021363,-7,-1,-1,-2,-4,-2,5,-31
1537914067021363,7,7,2,0,3,16,8,15
1537914067022361,-9,3,3,1,2,25,16,4
1537914067022361,5,-6,-3,-1,-4,-60,-30,-2
1537914067043305,-9,-4,4,1,-1,12,-1,-9
1537914067043305,1,-1,-5,2,3,39,3,3
1537914067045300,6,-8,-3,-2,-3,-21,-11,7
1537914067045300,6,0,-1,-4,-4,-7,-1,32
1537914067058265,-6,4,-2,-2,-2,-10,-3,-14
1537914067058265,-4,-8,-2,0,-3,-2,-15,-7
1537914067065246,4,10,1,-1,2,6,28,9
1537914067065246,-7,9,2,0,-2,-17,-35,-6
1537914067081203,2,1,-1,-1,3,3,4,12
1537914067081203,12,12,0,-1,0,13,-5,3
1537914067082201,-10,-17,4,1,-2,-3,-4,-9
1537914067082201,3,-6,-2,0,-2,-2,-14,3
1537914067104142,22,-9,-19,-4,-2,4,33,14
1537914067104142,-32,-21,7,2,-3,-19,-10,-6
1537914067105140,-4,-5,35,4,-2,7,-63,-22
1537914067105140,-4,-22,-85,-17,-3,-17,59,-12
1537914067118105,7,16,9,-2,-5,-25,-32,1
1537914067118105,-4,6,-4,0,4,28,-6,-8
1537914067125086,10,-4,2,-7,-12,11,11,13
1537914067125086,-22,-19,30,13,17,73,81,-40
1537914067141044,-11,4,-7,-5,-14,-34,12,59
1537914067141044,11,0,-6,1,6,-118,-28,-19
1537914067143038,-22,6,1,6,20,94,-40,4
1537914067143038,12,13,10,-4,-18,-114,32,16
1537914067163982,-5,-9,-7,1,10,14,-40,-52
1537914067163982,1,4,9,-3,-8,-74,27,7
1537914067164980,-1,-1,-15,-4,-7,11,-16,-12
1537914067164980,9,7,5,4,19,12,-8,38
1537914067176948,-11,-7,2,-8,-16,-16,9,-11
1537914067176948,-4,-6,-5,-5,-12,28,-25,-19
1537914067185924,5,1,-9,-2,1,-43,19,-13
1537914067185924,0,7,8,1,1,27,-20,-5
1537914067200883,2,-1,11,8,10,38,37,27
1537914067200883,1,1,-2,1,1,-4,-38,-10
1537914067202878,-5,-1,-12,0,2,-36,6,4
1537914067202878,-10,4,13,0,-3,19,-26,-67
1537914067223822,7,1,0,2,5,-4,-6,39
1537914067223822,-1,-2,-2,4,29,39,-15,10
1537914067224820,0,1,-4,-5,-25,-33,22,0
1537914067224820,0,-1,0,-12,-25,-27,-54,-15
1537914067237785,-5,-2,-1,3,7,26,6,-34
1537914067237785,0,0,1,1,-7,26,16,3
1537914067245764,10,2,1,1,14,-29,14,16
1537914067245764,0,1,2,0,-3,4,-20,1
1537914067260724,-5,-3,-5,-2,-6,-8,-5,-8
1537914067260724,-1,0,3,3,7,-6,5,12
1537914067262718,-4,-1,-2,-3,2,-1,29,-5
1537914067262718,2,0,-1,-1,-7,-14,-36,6
1537914067283662,-3,-5,1,1,6,18,-8,-23
1537914067283662,-7,-10,-4,-2,-6,13,11,-15
1537914067284660,12,19,-5,-3,-5,-2,-5,-4
1537914067284660,-6,-28,-1,-1,-3,5,4,15
1537914067297625,-4,13,1,2,4,0,-6,0
1537914067297625,7,0,-3,-5,-9,2,16,7
1537914067306601,-8,-4,-3,-4,-5,-2,-4,1
1537914067306601,1,4,4,2,9,16,11,17
1537914067321561,4,-3,2,3,0,-20,-10,-6
1537914067321561,-6,-2,-2,-3,-6,13,23,8
1537914067322558,-3,-2,-1,0,-1,-16,-14,2
1537914067322558,-1,7,0,2,4,8,-2,-5
1537914067343502,-6,-9,-3,-3,-7,-20,-1,-2
1537914067343502,-1,3,-1,0,-5,11,-19,-22
1537914067345497,-1,-5,-1,2,4,5,17,6
1537914067345497,0,3,1,-1,-2,-15,11,12
1537914067357465,2,0,-2,-4,-5,29,8,4
1537914067357465,3,-3,1,0,1,-24,-7,0
1537914067366441,-3,-3,0,0,2,13,-14,-14
1537914067366441,-5,6,-1,2,5,-12,-6,-4
1537914067381401,1,-2,-1,-4,-10,-17,7,-1
1537914067381401,9,0,-2,-4,0,10,-17,5
1537914067382399,-2,-3,-3,0,-9,-12,-6,1
1537914067382399,-1,4,0,0,3,6,5,10
1537914067403342,2,-4,-2,1,-13,10,-1,4
1537914067403342,-1,-1,-2,-2,-8,2,13,6
1537914067405337,-4,-2,0,1,-1,-8,-11,-10
1537914067405337,3,1,2,1,3,8,2,0
1537914067417305,-3,0,1,0,6,-2,-1,1
1537914067417305,-1,1,-3,0,-2,2,9,-21
1537914067426281,0,-2,-1,-1,2,3,11,15
1537914067426281,-1,2,1,2,1,-8,-1,16
1537914067441241,-5,-5,-2,-2,2,-10,-14,-18
1537914067441241,-6,0,-1,1,0,22,-10,-7
1537914067442238,2,-2,-1,-3,-1,4,32,9
1537914067442238,0,-1,0,-3,-8,8,-16,-6
1537914067463182,0,2,1,3,7,-6,16,5
1537914067463182,-4,-2,0,-1,12,-11,-1,7
1537914067465177,-1,-2,-1,5,5,11,-6,-21
1537914067465177,0,-2,-5,-9,-21,-17,-4,-2
1537914067477145,5,0,-1,-1,-5,-2,-2,-2
1537914067477145,1,-1,0,0,-2,-2,5,6
1537914067486121,0,0,-1,4,18,6,-4,1
1537914067486121,-1,0,-3,-3,0,17,-15,-8
1537914067501081,-2,-2,-1,-3,-3,5,-4,17
1537914067501081,5,-1,2,-1,-2,-3,11,17
1537914067502079,-2,-1,-2,-3,1,-7,-5,17
1537914067502079,-5,-1,0,5,-1,-5,1,-11
1537914067526015,1,0,-1,-1,4,9,24,0
1537914067526015,1,0,0,-2,-5,-18,-25,3
1537914067528009,-4,-2,-1,-2,-1,-1,11,-13
1537914067528009,-2,-2,1,0,1,14,8,-5
1537914067530004,2,0,0,-2,1,-15,2,16
1537914067530004,-6,-1,-2,0,-4,-4,8,-24
1537914067539977,4,-2,-4,-5,-13,-32,-14,0
1537914067539977,7,2,3,3,1,31,9,5
1537914067552943,-3,0,-1,0,6,10,-7,-10
1537914067552943,-4,-2,-3,-3,-4,-21,4,-4
1537914067559924,-3,-2,0,0,-2,27,-14,3
1537914067559924,-6,-1,-2,-2,1,-3,31,5
1537914067575882,2,0,0,2,4,-6,22,16
1537914067575882,3,0,1,0,-3,6,-8,-11
1537914067577877,-2,-1,2,0,-7,-12,-11,-2
1537914067577877,0,2,-1,-4,5,-9,33,-6
1537914067589845,-3,-2,-1,0,-1,17,12,5
1537914067589845,1,-1,-1,0,-4,-9,1,9
1537914067598821,-10,0,1,0,-8,-7,6,-14
1537914067598821,-4,-3,-3,0,3,-3,-30,-15
1537914067612784,-3,-1,-2,1,4,-1,-13,-7
1537914067612784,0,1,-1,-2,1,-19,-2,4
1537914067619765,4,-1,-3,-4,-10,-8,-11,-10
1537914067619765,1,-1,1,2,2,-1,-10,-6
1537914067635722,1,1,-1,2,5,5,5,38
1537914067635722,-3,-1,-2,0,4,24,-9,-10
1537914067642703,-1,-4,0,0,8,1,-14,7
1537914067642703,-2,-3,-1,1,9,-4,-2,-31
1537914067649687,9,0,1,0,-3,-27,1,40
1537914067649687,-2,-6,-4,-6,-17,7,11,4
1537914067658661,-4,3,-2,-1,3,3,3,7
1537914067658661,0,0,-3,-7,-15,-25,-4,0
1537914067672624,1,2,1,3,14,12,-23,16
1537914067672624,7,2,-4,1,3,-9,-2,7
1537914067679605,10,3,0,0,3,15,19,7
1537914067679605,0,-2,-1,3,14,-5,30,23
1537914067695564,-6,-3,-1,-6,-11,8,-37,-47
1537914067695564,-4,-1,-2,-2,-1,6,17,-12
1537914067702544,-7,-4,-2,-1,4,-9,-31,-65
1537914067702544,2,1,1,1,-2,-25,-33,21
1537914067709526,-5,-1,0,-2,-8,37,-34,-22
1537914067709526,-1,-1,0,3,9,-22,0,4
1537914067718501,-6,-2,-1,0,6,36,29,-49
1537914067718501,6,-1,-1,2,3,11,-34,80
1537914067732463,-8,-2,-5,0,-6,-30,-16,-36
1537914067732463,4,1,1,-1,2,8,-3,14
1537914067739445,5,0,-1,-1,0,-4,11,31
1537914067739445,-5,-2,0,-3,-8,-9,1,-18
1537914067755402,0,-2,0,-4,-5,-7,-15,-9
1537914067755402,-4,-1,0,3,0,17,28,1
1537914067762383,2,-2,-1,0,-1,-21,-9,13
1537914067762383,4,0,-3,-1,-8,7,-8,-6
1537914067769365,-1,-1,1,-1,3,-20,1,-7
1537914067769365,-4,0,1,0,8,10,-8,-10
1537914067778340,-2,0,-1,-3,-10,-9,-10,3
1537914067778340,1,0,1,2,0,5,26,-18
1537914067793300,1,-1,-1,-1,-8,-2,29,33
1537914067793300,1,-3,-1,1,7,9,16,-3
1537914067799285,-3,-1,0,1,1,-3,-10,17
1537914067799285,-2,-2,-1,-3,-11,3,19,-20
1537914067815242,-3,-2,-1,0,7,-16,3,-29
1537914067815242,2,3,2,-2,-6,9,-37,-35
1537914067822224,4,2,-2,0,-3,10,29,21
1537914067822224,-3,-2,-2,-1,5,-3,7,-9
1537914067839179,-3,-3,-2,-1,0,-19,-2,-7
1537914067839179,1,-2,-1,-2,-2,11,-7,14
1537914067840177,-3,-3,2,0,0,-2,-9,-13
1537914067840177,5,1,0,-1,-7,-6,-19,-9
1537914067853142,-6,0,2,1,1,6,6,-19
1537914067853142,-2,-3,2,-2,-3,-13,19,17
1537914067860124,1,-3,0,1,1,-2,-6,2
1537914067860124,-7,-2,1,-3,-13,-18,-20,4
1537914067875083,3,1,-1,-1,-1,24,-18,-13
1537914067875083,-5,-1,0,-1,3,-11,0,-18
1537914067882064,0,2,0,-2,-6,1,14,8
1537914067882064,-6,-1,-1,1,-1,5,18,-7
1537914067899019,1,-2,0,0,0,-15,-30,-15
1537914067899019,0,0,-2,0,1,-7,38,22
1537914067900017,2,-2,-2,-1,-6,11,-6,37
1537914067900017,-1,-1,-1,-2,5,8,-3,2
1537914067913979,-4,-3,-3,0,-2,3,8,-4
1537914067913979,-1,0,-3,-1,-4,-15,-4,-3
1537914067919963,-3,-1,0,0,5,7,8,-15
1537914067919963,0,0,-3,-1,4,9,-2,4
1537914067935919,0,0,0,0,1,14,28,9
1537914067935919,-2,1,1,0,-6,-16,-19,-10
1537914067941903,2,0,-1,-1,0,-5,4,4
1537914067941903,-2,-2,0,-1,-1,7,-3,-4
1537914067958857,-4,0,-1,0,-2,-11,30,1
1537914067958857,1,-2,0,-1,-1,9,28,18
1537914067959855,-2,-1,-2,1,-1,-2,-29,-28
1537914067959855,0,0,0,-1,3,6,8,7
1537914067972820,-1,0,0,-1,1,5,-3,4
1537914067972820,-5,-4,-1,-4,-6,0,-4,-33
1537914067979801,5,2,1,1,3,-4,-16,78
1537914067979801,-1,0,-1,3,4,-2,15,-12
1537914067995759,4,-3,-1,-4,-13,-6,3,3
1537914067995759,1,-2,-1,-1,-1,9,-6,38
1537914068001743,-1,-1,-2,0,0,-6,-5,-12
1537914068001743,-1,-2,-1,-2,-6,-5,-26,-4
1537914068018699,1,-1,-1,1,3,7,15,18
1537914068018699,-1,-3,-2,-1,0,3,-9,-8
1537914068019696,-3,-3,-1,-3,-1,-18,-7,-18
1537914068019696,1,-1,0,-2,0,4,-9,8
1537914068032660,-3,-1,0,-3,-1,12,30,-21
1537914068032660,0,-3,0,-1,-3,-24,-22,1
1537914068039642,-1,-2,0,0,1,10,8,3
1537914068039642,-2,-1,-1,0,2,1,-7,-18
1537914068055599,0,0,-1,-1,0,0,-13,-2
1537914068055599,-3,-1,0,1,-3,8,-1,-7
1537914068062580,0,-1,-2,-1,-2,-15,1,2
1537914068062580,0,1,-1,0,-1,-20,30,-14
1537914068078538,1,-2,0,1,3,38,-20,18
1537914068078538,2,2,-2,0,1,4,7,14
1537914068080532,3,0,-1,-3,0,4,5,-10
1537914068080532,-1,-2,0,-2,-2,-19,-10,0
1537914068092500,-3,-3,-2,-1,-1,-16,-17,-21
1537914068092500,4,-2,-1,-2,-5,-3,-12,0
1537914068099482,-4,-1,1,-2,-6,-5,-2,-7
1537914068099482,1,-2,-2,-3,-3,12,-2,0
1537914068123419,-1,0,-1,0,8,-8,0,-10
1537914068123419,-6,-1,-1,-1,-6,-5,-20,11
1537914068125414,-6,-1,-1,-1,5,15,4,-50
1537914068125414,1,1,-2,0,-1,10,11,24
1537914068138378,-1,-1,-1,0,-2,-5,-7,2
1537914068138378,2,-1,0,1,2,-6,10,5
1537914068140373,-3,-2,1,1,-1,-5,-6,-14
1537914068140373,-4,-3,-1,-2,-2,-2,-17,-7
1537914068153338,3,-2,0,0,-2,-13,3,0
1537914068153338,-1,-2,-2,0,3,22,4,-40
1537914068159322,3,0,0,0,-1,-9,-4,13
1537914068159322,0,-2,-2,1,8,22,5,-3
1537914068176276,-3,-1,-1,-3,-21,-34,23,-4
1537914068176276,-7,0,1,-1,0,7,-2,-11
1537914068182260,-2,0,-3,-1,-5,-8,5,0
1537914068182260,-4,0,0,0,2,18,4,-3
1537914068198217,-2,-2,-2,-2,3,-2,-32,-29
1537914068198217,5,0,-2,-2,0,3,-3,14
1537914068200212,-6,-2,-2,2,-1,-11,1,5
1537914068200212,4,0,1,-1,-5,-10,5,-5
1537914068213178,-1,2,-1,0,2,7,5,-6
1537914068213178,4,1,-1,0,-1,8,14,19
1537914068227141,3,-2,0,-1,1,-13,-1,7
1537914068227141,-3,1,-1,0,-2,-3,-26,5
1537914068235121,1,1,-2,0,0,-4,11,4
1537914068235121,-1,0,-1,2,0,-12,4,-17
1537914068242101,2,-1,-1,-2,-1,29,-8,29
1537914068242101,-1,0,-1,1,-2,-14,5,-8
1537914068259057,-1,-1,0,0,4,4,-8,4
1537914068259057,-7,-4,0,-2,-5,-1,-23,-3
1537914068260056,4,0,0,-2,2,-3,21,8
1537914068260056,1,1,-1,-2,-5,18,10,4
1537914068272022,-2,-2,-1,-2,-2,-26,-12,12
1537914068272022,2,0,0,-2,-1,-7,-30,-5
1537914068280998,-5,-2,-1,0,1,7,28,-13
1537914068280998,0,-1,1,0,1,-4,1,-6
1537914068295957,-1,-1,0,2,-7,2,8,-12
1537914068295957,2,0,-2,-1,1,0,9,47
1537914068301944,1,1,1,0,0,-11,25,-3
1537914068301944,3,-3,-1,0,4,24,9,5
1537914068318897,2,0,2,2,5,7,39,19
1537914068318897,-3,0,1,-1,-3,-8,3,-12
1537914068319895,-2,-1,-2,2,1,-8,-30,-8
1537914068319895,-2,-1,1,2,5,-3,-16,0
1537914068331863,1,1,-1,-2,-3,29,-2,1
1537914068331863,-2,-2,0,0,-4,-12,-1,8
1537914068340837,2,-1,-2,-3,-1,-22,-7,11
1537914068340837,-3,-3,-1,-4,-3,-19,-31,8
1537914068355797,3,-2,-2,0,1,-54,29,1
1537914068355797,0,-2,-1,-1,12,85,-25,-37
1537914068361781,1,0,0,-2,-9,-23,13,20
1537914068361781,-1,-1,-2,-1,0,57,5,1
1537914068378735,-4,-2,-1,-3,1,-17,-6,-10
1537914068378735,1,0,-1,-4,-5,-35,-13,-7
1537914068379733,-4,-3,0,-1,0,32,-3,-7
1537914068379733,-5,-1,0,1,0,-18,-9,-9
1537914068392698,5,-2,-1,-1,1,5,-1,4
1537914068392698,5,2,-1,0,-4,-7,6,17
1537914068400677,-3,-1,-1,-1,-1,11,-37,-26
1537914068400677,-2,-2,-1,-3,-9,-53,43,11
1537914068423616,-7,0,0,0,5,38,-17,-9
1537914068423616,-3,0,-1,2,3,-8,-16,-8
1537914068424613,1,-3,-4,-1,1,-4,25,-9
1537914068424613,0,1,-2,1,0,-4,-14,-8
1537914068446554,-5,-1,-1,-3,-4,0,9,4
1537914068446554,-5,-1,0,-1,-1,-12,4,3
1537914068447553,2,2,-1,-1,0,3,-16,-12
1537914068447553,-2,0,0,-2,-1,-2,12,0
1537914068459522,-2,-2,-3,-1,-2,1,-14,-4
1537914068459522,-1,-4,0,-1,-2,-9,-12,4
1537914068468497,-1,-1,-1,-1,-2,-3,8,-3
1537914068468497,3,0,-2,-1,-2,-11,-7,0
1537914068483456,5,1,-1,1,3,17,-7,18
1537914068483456,-1,-3,-2,-1,-5,-30,11,-17
1537914068485453,-4,1,1,0,-3,20,-9,-17
1537914068485453,2,-2,-2,-2,1,-22,-3,11
1537914068506395,-1,-1,1,2,5,5,-4,12
1537914068506395,-2,-2,0,-2,-1,37,10,2
1537914068507394,-1,0,0,0,-4,-18,11,-15
1537914068507394,-1,-2,0,1,0,17,1,0
1537914068529334,2,-1,-3,-4,-3,-35,-28,-28
1537914068529334,0,1,-1,-2,-3,-14,54,9
1537914068534320,0,-3,0,-2,-4,-17,-8,8
1537914068534320,-4,0,0,2,6,41,-5,-10
1537914068543298,-2,0,-2,-1,-2,9,15,8
1537914068543298,2,-2,0,0,-2,-13,-9,-10
1537914068545293,-5,-3,-2,-1,-1,-2,-3,-3
1537914068545293,2,-1,0,0,-2,-14,-18,1
1537914068566234,-3,-2,0,2,0,15,36,2
1537914068566234,0,-1,2,1,-3,-5,-8,6
1537914068567232,-2,-1,-2,1,-1,16,-19,-3
1537914068567232,-1,-1,-3,-1,-1,-3,9,17
1537914068588176,-1,-2,0,0,-1,-6,-25,-5
1537914068588176,-6,-1,-3,-2,1,5,-9,-9
1537914068588176,1,-2,0,-3,1,11,26,-6
1537914068588176,1,2,0,1,-1,-12,-15,-37
1537914068602139,4,0,-2,-3,-5,-8,-30,16
1537914068602139,2,-1,1,2,10,7,32,17
1537914068610117,1,-1,-1,-2,-9,-18,-19,-3
1537914068610117,-4,-1,1,1,4,-5,-5,-9
1537914068625079,-4,-1,1,2,5,16,5,7
1537914068625079,0,0,-2,-2,-1,26,-35,1
1537914068626076,-1,0,-1,1,7,-2,40,11
1537914068626076,0,-4,-1,-1,-5,-22,-26,4
1537914068648016,2,0,0,-1,-1,1,33,10
1537914068648016,1,0,-2,0,0,-19,-12,-2
1537914068649015,0,-1,1,0,0,10,10,2
1537914068649015,0,1,-2,-3,-6,0,1,5
1537914068662977,-8,-1,0,-2,-1,3,-9,-27
1537914068662977,2,-2,0,0,-3,-6,-2,-5
1537914068663975,-7,-2,0,-1,2,3,-11,-8
1537914068663975,-5,-2,0,-2,0,4,12,-1
1537914068685915,1,-1,-2,0,-3,-4,-7,2
1537914068685915,1,-2,-3,-2,-3,-1,7,1
1537914068685915,1,-3,-2,0,3,-4,-13,18
1537914068685915,-1,8,1,2,0,3,5,-4
1537914068707857,-4,-3,0,-1,-5,1,6,-4
1537914068707857,-2,-3,0,-4,3,-47,-13,6
1537914068708855,2,8,0,-4,-4,29,-19,-18
1537914068708855,0,-5,-5,-7,-12,55,-20,3
1537914068722817,-2,1,-1,-4,-6,-73,24,-35
1537914068722817,4,3,2,6,8,66,1,22
1537914068723815,-1,-4,-1,3,6,-21,-11,3
1537914068723815,-2,-4,-2,-2,-14,-11,20,5
1537914068745756,-5,0,0,3,2,-7,-30,-12
1537914068745756,-2,-4,-2,-3,-2,14,27,4
1537914068745756,-5,-1,-1,2,-1,-12,0,-14
1537914068745756,1,-1,1,-1,7,1,-14,-19
1537914068767695,0,-4,-3,-2,-3,7,-4,29
1537914068767695,-1,2,0,-1,-1,-17,3,-14
1537914068768693,0,1,0,-1,-3,12,-10,-13
1537914068768693,3,-3,0,0,-1,-22,12,8
1537914068782655,-5,0,-3,-1,1,14,-1,2
1537914068782655,-2,1,0,1,-3,-6,-22,-12
1537914068790634,7,-3,-2,-3,-4,-4,13,16
1537914068790634,2,0,-1,1,5,-6,-3,4
1537914068805594,4,1,0,-3,0,15,-19,11
1537914068805594,0,1,1,0,-5,28,51,9
1537914068806591,-1,-1,-1,-1,0,-19,15,15
1537914068806591,0,-1,-1,3,14,8,18,-8
1537914068827535,3,0,-4,-6,-14,-8,-27,21
1537914068827535,-3,-3,0,-1,-2,5,-22,11
1537914068828533,2,3,-1,-6,-8,17,2,-2
1537914068828533,-2,0,1,-4,-9,-32,-15,-2
1537914068842496,-2,-1,0,5,12,25,14,-16
1537914068842496,-2,-4,-2,-2,-6,-25,-9,-28
1537914068850475,0,0,0,3,8,0,0,29
1537914068850475,2,-2,-1,-4,-2,11,5,8
1537914068865436,3,-4,-4,-4,-3,-7,-6,-3
1537914068865436,-6,-3,-2,0,0,-11,13,-45
1537914068866434,1,10,2,3,5,21,-2,-1
1537914068866434,1,2,-1,1,-1,-20,-21,-5
1537914068888374,9,3,2,1,-4,-18,10,49
1537914068888374,-2,0,-2,-1,7,40,37,-8
1537914068888374,-1,-4,-2,-2,-4,-20,-2,11
1537914068888374,1,-4,-4,-3,-5,0,9,11
1537914068903335,0,0,1,1,2,-33,-34,-17
1537914068903335,2,0,-2,-2,-5,7,-27,19
1537914068903335,-1,-2,-1,0,-4,-40,0,-5
1537914068903335,-2,0,0,2,8,75,19,7
1537914068925276,0,-1,-1,3,2,-4,-4,-8
1537914068925276,0,1,-2,-3,-3,-11,1,-4
1537914068926274,-1,-5,-3,-3,-7,-17,-1,8
1537914068926274,-6,-2,0,-1,-3,-25,-18,-29
1537914068948213,-2,0,0,3,4,24,23,-2
1537914068948213,-1,0,0,-1,-10,-25,-21,-2
1537914068948213,0,-2,0,1,-3,-12,-4,3
1537914068948213,-4,0,0,-1,-4,19,2,-17
1537914068963173,3,0,-1,-3,7,22,8,19
1537914068963173,0,-1,-2,-3,-2,-30,-36,7
1537914068963173,-3,0,-2,-2,7,25,4,-19
1537914068963173,-2,0,-1,-2,-15,-35,7,6
1537914068985115,-5,-2,0,-2,0,10,6,-15
1537914068985115,-1,1,0,1,2,12,6,3
1537914068986112,2,-2,1,2,-1,-4,-14,1
1537914068986112,0,-1,1,2,8,-1,14,-1
1537914069008053,3,1,-1,-2,-9,-9,-15,-6
1537914069008053,3,-2,-2,-1,-3,-12,2,14
1537914069009050,-8,-3,0,2,5,25,22,-6
1537914069009050,-2,-1,-2,-2,-2,-20,-7,6
1537914069023013,-2,-1,-2,0,-3,35,22,-3
1537914069023013,-1,0,1,1,7,-10,-7,-10
1537914069024010,0,-1,-1,-1,-6,-7,3,-2
1537914069024010,0,-2,-1,-2,-1,-6,-8,4
1537914069044954,-1,0,-2,-3,-4,-21,-14,-5
1537914069044954,0,-2,-1,-2,0,2,9,9
1537914069045952,-4,-3,1,1,-1,12,1,-1
1537914069045952,3,1,-1,0,1,-25,-1,21
1537914069067893,-3,-3,-1,1,2,20,-26,-15
1537914069067893,-1,-3,-2,0,1,6,5,3
1537914069068893,-1,1,-1,0,3,3,-8,-1
1537914069068893,0,0,1,-2,-3,6,2,-7
1537914069082853,0,0,0,0,0,-14,-10,30
1537914069082853,-5,-3,-2,1,1,6,23,-3
1537914069083850,-5,-3,-1,-3,2,-2,-3,-12
1537914069083850,0,-1,1,1,-3,-8,-13,-5
1537914069105792,-1,0,-1,0,0,27,32,-10
1537914069105792,-3,1,0,0,-1,-3,1,-4
1537914069105792,0,-1,-2,0,3,-12,-31,-5
1537914069105792,-2,-1,0,-2,3,0,15,5
1537914069127733,-2,0,0,-3,-8,-38,50,0
1537914069127733,-2,0,-1,2,3,38,-42,-4
1537914069128730,4,-2,-1,0,1,14,48,-1
1537914069128730,-1,-1,0,-1,-4,-8,-27,-6
1537914069142693,0,-1,0,-2,-1,2,15,9
1537914069142693,-3,-1,-1,-2,-3,-21,-2,-6
1537914069150672,-1,0,-1,-3,-2,-19,-48,-3
1537914069150672,-3,0,-1,-1,-3,23,17,6
1537914069165632,2,-2,0,2,0,-25,-1,-6
1537914069165632,-2,-1,0,-1,4,19,0,-9
1537914069165632,-2,0,-1,-3,-9,-6,-1,-3
1537914069165632,1,0,-1,0,2,-5,-4,9
1537914069187573,-5,-2,-1,-2,0,-1,-7,-6
1537914069187573,4,-1,0,0,-3,-30,-7,-5
1537914069188570,-2,-3,-2,2,6,39,-3,-25
1537914069188570,14,1,-1,1,0,0,22,30
1537914069202534,2,1,-1,2,1,7,-12,5
1537914069202534,-2,-1,-1,-1,-2,-17,-7,2
1537914069210512,-8,-1,0,-4,-7,3,5,-8
1537914069210512,-4,-4,-2,-3,1,-26,15,2
1537914069225471,-1,0,-2,-2,0,25,1,-10
1537914069225471,3,1,-1,0,-2,-30,-7,6
1537914069226469,1,-1,0,0,1,7,21,12
1537914069226469,-6,0,-1,-1,-3,11,-6,-27
1537914069247413,-2,-6,-3,-1,-2,13,-22,4
1537914069247413,0,4,-2,-2,-6,0,-5,2
1537914069248410,-1,1,0,-1,0,-16,11,4
1537914069248410,0,1,-2,0,-1,-11,19,9
1537914069262373,-2,-2,0,-2,-4,10,-28,-12
1537914069262373,-3,-3,0,1,3,3,31,7
1537914069270352,1,-1,-2,-2,-5,-8,-41,18
1537914069270352,3,-1,-1,-2,0,-4,-20,-23
1537914069285312,-2,-2,-3,-2,-4,-1,8,13
1537914069285312,0,-1,0,-4,-2,5,-14,29
1537914069286309,2,1,1,1,1,-22,31,-1
1537914069286309,-8,-5,-2,0,7,23,-9,-11
1537914069308250,-4,0,-2,0,0,-17,-23,-10
1537914069308250,1,0,0,1,-1,8,3,-12
1537914069309248,2,-2,0,-1,-5,-23,5,0
1537914069309248,0,-2,-2,-1,0,32,-17,1
1537914069322213,1,2,-2,-2,1,-7,9,-5
1537914069322213,-2,-3,0,-4,-4,-21,-2,-6
1537914069330192,2,-3,1,-1,-4,3,-3,3
1537914069330192,-3,-1,0,1,3,17,3,-3
1537914069345152,1,2,0,0,-3,-14,2,7
1537914069345152,-5,-3,-2,0,5,14,20,-22
1537914069346149,1,-1,-3,-1,-5,-4,-6,7
1537914069346149,-8,-1,-1,0,1,-9,-2,-35
1537914069368091,4,-3,-1,0,1,-6,-26,9
1537914069368091,-4,0,4,1,-3,0,14,-18
1537914069369088,4,-1,-2,-1,1,4,0,-3
1537914069369088,-3,-2,0,1,5,-15,9,5
1537914069382053,-1,-3,-3,-4,-8,-13,-1,-4
1537914069382053,-1,-3,-1,-2,6,39,-25,14
1537914069390031,-5,0,-2,-2,-1,0,0,-23
1537914069390031,-1,-1,-2,-2,-6,1,-8,-5
1537914069404991,0,1,0,1,5,-1,-13,3
1537914069404991,-1,0,-2,-1,-6,-15,30,-1
1537914069405989,3,-1,-1,-1,2,7,-13,10
1537914069405989,0,0,-1,-2,-10,-5,-12,2
1537914069428927,-10,0,-1,-1,2,-12,15,-12
1537914069428927,4,0,-2,-2,-7,-3,-4,-12
1537914069428927,-1,1,1,2,5,14,9,1
1537914069428927,4,0,0,-1,4,-21,-7,15
1537914069450869,0,-2,1,-2,1,17,7,-27
1537914069450869,0,-2,-2,-3,-3,-21,-20,39
1537914069451867,-3,-1,-4,0,3,-14,-14,-10
1537914069451867,5,-1,1,1,-5,30,21,16
1537914069465829,-2,-4,-1,0,5,17,15,-10
1537914069465829,-2,4,0,1,1,-16,-14,-27
1537914069465829,0,1,1,1,3,8,-21,15
1537914069465829,-1,-1,1,-3,-5,-6,18,8
1537914069488768,-3,1,-1,0,3,1,1,2
1537914069488768,2,-3,-1,-1,-3,-27,20,6
1537914069488768,0,-2,-1,-2,7,51,-7,-14
1537914069488768,1,-1,0,1,2,-4,-11,-6
1537914069510709,-4,-2,0,-4,-4,-16,-7,-24
1537914069510709,-1,0,0,4,12,25,-3,-1
1537914069511706,-2,-2,-3,-7,-23,-8,21,-6
1537914069511706,0,-7,-4,-4,-1,-17,-34,11
1537914069525669,5,7,1,0,-2,0,20,10
1537914069525669,-2,-4,0,-3,-7,4,29,6
1537914069525669,-6,-5,0,2,5,-6,-5,7
1537914069525669,2,0,0,-1,2,0,-9,-16
1537914069548608,6,3,-1,-1,-2,-10,26,22
1537914069548608,-3,-1,0,0,3,4,-6,-2
1537914069549605,-7,0,-3,-3,-6,-6,-16,0
1537914069549605,-4,0,-1,-2,-1,-13,1,-1
1537914069571546,-4,-3,-1,-3,-7,-21,-4,-4
1537914069571546,-1,0,0,0,4,46,10,2
1537914069571546,0,-3,-2,0,-3,-31,-2,-2
1537914069571546,0,5,0,1,0,-5,-8,11
1537914069585510,-5,-4,0,2,2,20,14,8
1537914069585510,3,-2,-3,-3,-6,4,-38,-19
1537914069586507,5,3,1,2,6,0,-4,2
1537914069586507,-2,-2,-1,-1,-7,-11,9,0
1537914069608448,-5,-3,-2,0,-1,-10,-10,0
1537914069608448,0,-1,-1,-2,-1,-7,-2,2
1537914069609445,0,-4,1,-2,-2,-2,-28,-13
1537914069609445,-4,5,1,0,3,17,44,-2
1537914069631386,3,1,0,-2,0,7,-26,10
1537914069631386,-3,-2,-3,0,0,0,32,-4
1537914069631386,-6,0,-2,0,1,1,-4,-3
1537914069631386,2,-1,-3,-2,-2,6,-9,-3
1537914069645349,-2,-2,-1,0,0,-4,-4,-3
1537914069645349,6,0,-3,-4,-11,-42,-4,13
1537914069646347,-4,-1,-1,-1,7,13,30,2
1537914069646347,-8,-3,-1,3,1,49,17,17
1537914069668289,-2,-1,-3,-4,-8,-13,-24,-25
1537914069668289,-5,-2,-2,3,5,-4,-30,-3
1537914069669287,0,0,-1,-4,-10,-7,9,3
1537914069669287,-1,1,-4,0,3,-30,-5,-15
1537914069691228,1,-3,0,0,6,17,4,-1
1537914069691228,-1,-4,-2,1,-6,-11,12,2
1537914069692226,-2,7,0,0,3,10,-6,13
1537914069692226,2,-2,-3,-2,3,-7,-16,-5
1537914069705191,-1,-3,2,2,2,18,22,7
1537914069705191,1,4,2,-1,2,14,-10,-5
1537914069706188,7,5,1,0,6,-16,-21,14
1537914069706188,-2,-4,1,-2,0,23,9,-12
1537914069728129,-1,-1,-2,-4,-5,-35,-14,9
1537914069728129,-4,-2,0,-2,1,27,17,-18
1537914069729127,5,-3,-1,3,0,-3,-9,-1
1537914069729127,-5,-1,-3,-2,-8,-19,3,-9
1537914069751068,3,-2,1,1,2,9,-4,-4
1537914069751068,-5,0,-1,-1,-1,-3,9,1
1537914069752067,3,-2,-1,-1,-5,-1,-23,-20
1537914069752067,0,1,-2,1,0,-33,9,-3
1537914069765032,-1,1,0,-1,-1,32,3,5
1537914069765032,2,1,-1,-3,-1,5,13,3
1537914069766028,1,-2,-2,-5,-8,9,-2,-2
1537914069766028,-2,-4,-3,-2,-1,-14,11,-1
1537914069788965,-4,-1,-2,0,-2,6,-24,18
1537914069788965,-2,-2,-1,0,1,-7,21,3
1537914069788965,-7,-4,-1,-1,0,0,2,-1
1537914069788965,-1,-4,0,0,-1,-1,-28,-13
1537914069810907,2,0,-2,-3,-6,-18,-2,-11
1537914069810907,-1,-5,-1,2,4,18,-17,-8
1537914069811904,-2,3,1,0,2,1,24,30
1537914069811904,-2,1,0,-3,-3,-6,2,5
1537914069825867,1,2,1,2,-5,12,10,9
1537914069825867,3,-2,-2,-2,-4,-18,-25,-4
1537914069825867,0,-3,-2,-1,-2,-4,0,-18
1537914069825867,5,2,-2,0,4,-5,-28,34
1537914069848805,-3,-1,1,1,3,7,-17,-11
1537914069848805,-3,-4,0,-3,-7,-9,-5,8
1537914069848805,0,0,-1,-2,-2,-6,-16,-11
1537914069848805,-3,0,0,-3,-10,7,20,-10
1537914069870748,3,-2,0,-1,6,14,-9,1
1537914069870748,1,-1,-1,-1,-4,-2,-3,5
1537914069871745,-4,-3,0,0,7,-12,13,13
1537914069871745,0,0,1,-1,-11,15,18,0
1537914069884710,0,0,-1,-1,-1,-21,-4,-1
1537914069884710,-2,0,0,-3,-1,-8,-5,-9
1537914069892690,2,-3,-2,-2,-2,1,-1,13
1537914069892690,-1,0,2,2,2,17,9,4
1537914069908647,-3,1,-1,-2,-3,-7,4,10
