timestamp,emg1,emg2,emg3,emg4,emg5,emg6,emg7,emg8
1537905145116156,0,-7,-27,-2,0,-1,-1,-2
1537905145116156,-2,2,33,5,-1,0,-2,0
1537905145116156,-1,-6,-22,-7,0,0,-1,-1
1537905145116156,-2,-2,-2,-2,1,-1,0,0
1537905145117154,2,5,6,0,-1,-1,0,-1
1537905145117154,-1,6,-5,-5,-2,-1,-1,-1
1537905145118151,-2,-7,-15,-1,-1,1,-2,-2
1537905145118151,0,8,15,0,1,0,-1,0
1537905145137100,-4,-17,-2,-10,-4,-2,-2,0
1537905145137100,1,7,2,2,0,-1,0,-1
1537905145138097,0,-1,22,5,1,-1,0,5
1537905145138097,0,-2,-35,-7,-5,-4,-4,-8
1537905145148071,0,1,10,3,0,-1,-1,2
1537905145148071,-2,-5,-9,-4,0,-1,-2,0
1537905145162033,1,2,-1,-2,-2,2,1,12
1537905145162033,-1,-1,11,4,-2,-1,0,-2
1537905145166023,1,0,7,2,-1,-1,1,0
1537905145166023,-3,-1,-12,-4,-2,-1,-7,-13
1537905145180982,-1,7,-10,1,1,0,4,-4
1537905145180982,0,-7,17,-5,-1,0,1,2
1537905145192951,-3,-2,-10,-3,0,0,1,0
1537905145192951,0,13,6,4,1,-1,1,0
1537905145204919,-1,-2,4,-2,-2,-3,-2,-5
1537905145204919,-1,-1,-8,-2,0,1,0,0
1537905145244812,-2,-8,-15,-2,0,-2,-3,-1
1537905145244812,0,-1,3,4,0,-1,-1,0
1537905145245810,0,2,11,-1,0,-1,0,-1
1537905145245810,1,5,-18,-4,-1,0,1,3
1537905145249799,0,-14,7,1,-2,-1,-1,-7
1537905145249799,-2,0,-2,-1,-1,-2,0,-12
1537905145249799,-1,2,6,-1,-2,-2,-2,4
1537905145249799,1,-4,2,2,1,0,-1,0
1537905145256780,-1,3,-3,-3,0,1,1,4
1537905145256780,0,1,1,-3,-1,-1,0,4
1537905145264758,-1,-3,-3,2,1,0,-3,-4
1537905145264758,-2,0,2,-1,-2,-2,0,-1
1537905145271740,0,4,-2,-2,-1,-1,-7,-9
1537905145271740,-2,-3,0,0,-1,0,4,9
1537905145286700,-2,-2,-7,-2,-2,1,0,0
1537905145286700,-2,-1,9,4,-1,-2,-2,-2
1537905145293681,0,2,-11,-4,-3,0,-2,-2
1537905145293681,-1,-3,-15,-6,-1,-1,-4,0
1537905145316621,0,-3,-19,-2,-1,0,1,7
1537905145316621,-3,-1,19,1,0,-1,-3,-12
1537905145317618,1,8,9,4,-1,-1,1,2
1537905145317618,-1,-1,12,1,0,-1,-1,3
1537905145331580,-1,0,-10,-2,-2,0,0,-1
1537905145331580,-1,-3,-3,-3,0,0,0,6
1537905145332577,0,-1,-2,-1,0,-2,2,3
1537905145332577,1,1,-9,-2,-2,1,0,-3
1537905145354518,0,-17,7,1,0,-1,-2,-4
1537905145354518,-1,-4,-1,-3,-2,0,-1,-1
1537905145355516,-1,-2,-3,-3,1,-1,-1,-1
1537905145355516,-1,3,12,0,-2,-2,1,0
1537905145376460,-2,-1,-12,1,0,0,1,-3
1537905145376460,0,3,-1,-2,-2,-1,0,4
1537905145377457,-3,-11,2,0,-1,-1,-2,-5
1537905145377457,0,4,2,0,0,-1,-4,-5
1537905145393415,-1,1,-25,-4,-2,-2,-2,-2
1537905145393415,1,4,8,-3,-1,-1,-1,0
1537905145394412,-1,-2,-1,-1,0,1,0,1
1537905145394412,1,9,8,2,-1,-1,-2,-3
1537905145430316,-1,-3,6,-1,-1,0,-1,-3
1537905145430316,-1,0,-13,-1,-1,-1,0,0
1537905145431314,-1,6,2,0,-2,-2,0,2
1537905145431314,-2,-8,-4,-3,0,-1,-4,-12
1537905145437298,0,4,7,0,0,-3,0,-1
1537905145437298,-3,0,-2,0,-3,-1,-2,-8
1537905145437298,-2,1,2,0,-1,-1,2,3
1537905145437298,-1,-4,-14,-1,-1,0,-2,2
1537905145452258,1,0,-6,-1,-1,-1,-2,0
1537905145452258,1,1,14,0,0,-1,-2,0
1537905145452258,-2,3,8,2,-1,-2,-2,-3
1537905145452258,1,0,2,-1,0,-2,0,0
1537905145474200,0,0,-8,-3,-1,-1,-1,0
1537905145474200,2,18,-3,0,-2,-1,2,2
1537905145482178,0,-2,-20,-2,0,0,0,1
1537905145482178,-1,-3,36,-1,0,0,0,-2
1537905145497138,0,2,1,1,-1,-2,1,1
1537905145497138,-2,-8,-11,-3,-1,-1,-1,-1
1537905145498135,3,4,5,-1,-1,-2,0,-1
1537905145498135,-5,-7,-25,-3,-1,-3,0,2
1537905145512099,1,5,4,-2,-1,1,-3,-3
1537905145512099,-1,-5,-2,0,0,0,-1,-2
1537905145513096,1,1,5,0,-2,0,-1,-1
1537905145513096,-1,-2,-7,-2,-1,0,-1,1
1537905145534039,0,1,9,-1,0,-1,1,7
1537905145534039,-2,-4,-4,0,2,1,-4,-8
1537905145535037,0,1,1,-2,-1,2,1,2
1537905145535037,1,0,-8,1,0,-1,-1,-1
1537905145564957,-1,1,5,1,-1,-1,1,6
1537905145564957,1,-4,0,-1,0,-2,-5,-8
1537905145565954,-5,-7,-7,0,1,-1,2,2
1537905145565954,-1,0,-5,-1,-1,0,1,-1
1537905145571938,0,9,4,-1,-2,-2,-1,-8
1537905145571938,-2,-17,-24,-4,-2,-1,-2,-2
1537905145572935,2,5,31,0,-1,-1,-3,-2
1537905145572935,1,4,5,2,0,0,-2,2
1537905145602855,-2,0,3,-2,0,-1,0,-1
1537905145602855,0,2,-2,0,-1,-1,1,3
1537905145603853,-3,-26,-23,-6,0,-1,-1,-3
1537905145603853,-3,14,5,-4,-2,-1,1,0
1537905145616818,2,0,57,6,-1,1,-2,-5
1537905145616818,1,1,-41,-1,0,-1,0,4
1537905145617816,-2,-8,19,-3,0,-1,-2,-1
1537905145617816,3,5,-30,5,3,1,1,-1
1537905145631778,-3,-3,-13,4,8,3,-1,-3
1537905145631778,-1,-14,1,5,3,4,5,4
1537905145632775,-2,23,45,3,-8,-5,-2,-3
1537905145632775,1,-14,-20,5,-5,-4,-2,0
1537905145654717,2,5,-16,-1,6,2,2,4
1537905145654717,5,3,81,91,38,16,10,6
1537905145654717,0,0,-40,-75,12,2,-1,0
1537905145654717,-10,-11,19,-2,-20,-12,-8,-7
1537905145676659,1,4,-58,42,2,1,2,-1
1537905145676659,0,9,25,35,0,2,3,2
1537905145677657,9,4,-89,-74,-4,4,4,7
1537905145677657,1,7,108,15,11,9,0,2
1537905145692616,7,9,82,83,-2,-11,-5,1
1537905145692616,-11,0,-83,-19,-13,-4,-6,-6
1537905145706579,4,5,43,-16,-1,0,-5,-2
1537905145706579,-1,-24,-128,1,0,-3,6,3
1537905145714558,-8,-17,10,-9,-39,-16,-6,-7
1537905145714558,-5,-3,17,-88,-5,4,1,-4
1537905145715556,-1,2,-3,55,-42,-21,-1,-1
1537905145715556,-5,-2,34,-16,-4,-1,-3,-5
1537905145736498,1,-11,-97,0,32,14,5,1
1537905145736498,0,7,61,51,40,2,2,0
1537905145737495,-7,-6,-43,-56,-38,-13,-7,-6
1537905145737495,3,16,103,14,-17,-4,1,0
1537905145751458,-4,-14,-21,-11,24,6,1,-1
1537905145751458,-3,2,-43,-54,-28,-1,-6,-6
1537905145759436,-2,3,12,15,12,-4,0,0
1537905145759436,1,-1,-52,34,26,3,1,3
1537905145774396,-4,-4,24,-30,34,3,-1,-1
1537905145774396,-6,-22,-37,-89,-88,-33,-13,-7
1537905145775393,6,26,87,127,109,39,17,8
1537905145775393,-2,3,0,-109,-113,-40,-12,-6
1537905145796338,-3,-2,93,-25,5,5,1,-3
1537905145796338,4,5,1,30,16,2,3,4
1537905145804316,-4,-5,13,-31,5,4,0,-2
1537905145804316,1,10,32,36,47,17,4,3
1537905145811298,-1,6,6,-1,-18,-4,-1,-3
1537905145811298,1,4,0,-4,-3,-2,-2,-1
1537905145819276,-2,-11,-40,-3,-19,-6,-6,-2
1537905145819276,1,7,-14,23,31,12,2,2
1537905145834236,-4,-6,-11,-21,-31,-11,-6,-4
1537905145834236,1,2,-21,6,11,2,2,2
1537905145835234,-2,-6,8,14,-1,0,-1,-2
1537905145835234,0,-5,-11,-11,-12,-6,-2,-3
1537905145858174,-2,-8,-33,-16,-1,0,-1,0
1537905145858174,4,0,18,10,8,0,0,3
1537905145859171,-3,-8,-1,9,-8,-2,-2,-3
1537905145859171,-2,-7,-16,-7,8,4,2,-1
1537905145871138,2,-1,-12,-11,-8,-2,-1,0
1537905145871138,0,-9,9,17,15,4,0,0
1537905145879118,-2,2,2,-3,-15,-6,-3,-3
1537905145879118,1,-13,-20,0,11,3,-1,-1
1537905145894077,1,-1,6,6,4,0,2,2
1537905145894077,-2,-9,8,-4,-13,-7,-4,-3
1537905145895074,-1,-8,-15,-2,-2,-1,-2,-2
1537905145895074,1,0,0,6,8,4,0,1
1537905145917015,0,6,2,-1,-5,-1,-2,-1
1537905145917015,0,4,1,0,3,-2,-3,0
1537905145918012,-1,1,-7,1,0,2,0,-1
1537905145918012,-1,3,0,-7,2,-1,-2,-1
1537905145932972,1,10,-3,8,-5,-4,-1,0
1537905145932972,1,7,-6,0,2,2,0,1
1537905145938956,-3,1,5,7,5,-2,0,-1
1537905145938956,-3,-2,5,0,2,1,1,0
1537905145954913,-5,-1,8,-11,-8,-5,-3,-4
1537905145954913,3,2,-28,5,-2,-3,1,2
1537905145954913,3,6,9,-3,-6,0,-1,1
1537905145954913,1,-3,-12,6,3,1,-1,0
1537905145984833,0,-3,15,-5,2,1,-1,1
1537905145984833,-3,-3,6,6,7,1,0,0
1537905145985831,-4,-7,4,-3,-6,-4,-2,-2
1537905145985831,0,-3,-11,-7,-1,0,0,0
1537905145990818,-1,1,-12,3,-2,-1,1,0
1537905145990818,-2,0,8,-2,-2,-1,0,-1
1537905145999793,-3,-2,-13,0,0,-3,-1,1
1537905145999793,-1,2,7,-3,0,-2,-1,0
1537905146014754,1,2,-11,-6,-5,-1,-1,1
1537905146014754,-1,1,-3,-2,-1,-1,2,-2
1537905146014754,0,0,3,-2,-3,-2,0,-1
1537905146014754,-1,2,-1,6,5,2,-1,-1
1537905146037693,-1,2,-8,-3,-3,0,-1,-1
1537905146037693,-1,5,9,-3,0,-2,-2,1
1537905146037693,-3,0,-2,0,0,1,0,-1
1537905146037693,1,-1,-6,-9,-6,-2,-2,-1
1537905146060631,-8,-11,-15,-23,9,3,-4,-7
1537905146060631,6,20,47,59,11,-2,1,3
1537905146060631,-1,2,107,25,2,-1,-4,-2
1537905146060631,-9,-6,-120,-79,-20,-10,-4,-7
1537905146075591,2,-10,90,17,11,7,5,2
1537905146075591,-15,-29,-59,-31,-53,-20,-12,-11
1537905146076589,12,2,-44,-32,14,7,5,9
1537905146076589,7,-14,127,126,38,5,3,7
1537905146096535,-4,-5,-27,-91,-17,1,3,1
1537905146096535,3,0,-49,-49,10,10,4,3
1537905146097532,-13,-30,36,-10,-2,-4,-6,-9
1537905146097532,-4,-10,-113,3,-39,-10,-1,-2
1537905146120471,9,23,39,-14,21,7,8,5
1537905146120471,-3,12,101,4,-15,-3,-6,-7
1537905146120471,0,43,57,-51,-6,-1,-1,-4
1537905146120471,12,31,83,101,58,27,9,6
1537905146134434,-4,-40,-100,-35,-52,-25,-10,1
1537905146134434,5,43,99,42,25,6,2,2
1537905146135431,-3,-1,-63,18,12,6,3,1
1537905146135431,-3,16,-6,-13,19,9,3,-3
1537905146157372,-2,14,-2,17,3,-1,-5,-3
1537905146157372,-4,-27,-40,-27,-12,-6,-2,-2
1537905146157372,0,-10,-21,5,-1,0,-3,0
1537905146157372,-1,-11,12,-25,-14,-7,-4,-1
1537905146179314,2,-9,-36,3,1,0,-1,-1
1537905146179314,-1,-24,-9,15,6,1,-2,-3
1537905146187292,2,-25,-4,17,-5,-5,-1,-1
1537905146187292,-3,-36,-17,-37,-9,-3,-1,-3
1537905146194274,-1,-15,19,21,-8,-6,-3,-4
1537905146194274,1,1,-6,8,15,8,2,2
1537905146195271,0,2,-27,-1,-9,-4,-1,-1
1537905146195271,-4,9,-1,-27,-18,-9,-4,-4
1537905146216215,-3,21,14,31,14,6,0,0
1537905146216215,0,2,-8,-1,6,1,1,0
1537905146225191,1,1,-30,-2,-7,-2,0,-1
1537905146225191,0,1,6,-20,-13,-8,-3,-1
1537905146240151,0,6,18,24,6,2,0,-2
1537905146240151,-2,-2,-21,-14,-2,-2,0,1
1537905146241149,-3,-2,-2,3,-4,-3,-2,0
1537905146241149,-2,7,13,0,7,1,-1,-2
1537905146263090,1,4,-3,5,-2,-3,-3,-1
1537905146263090,0,3,-8,-16,-6,-3,-2,-3
1537905146264087,0,6,-8,7,2,0,0,-2
1537905146264087,-1,4,3,6,2,1,-2,-1
1537905146276056,-1,6,-5,5,1,0,-2,0
1537905146276056,-1,0,-5,-3,5,1,0,-2
1537905146293011,-1,3,4,1,-8,-1,-1,0
1537905146293011,-1,2,-22,-34,-10,-4,-3,-1
1537905146299993,1,1,30,18,4,2,-2,-2
1537905146299993,1,5,2,6,3,0,0,2
1537905146301989,-1,-4,-9,3,0,-2,0,-1
1537905146301989,-3,-4,-2,-3,8,3,1,1
1537905146322932,-5,-7,17,-19,-24,-12,-5,-6
1537905146322932,0,-2,-35,-8,-7,-1,0,1
1537905146323929,0,-5,11,0,-3,-3,-2,1
1537905146323929,1,3,12,-5,-3,-1,0,0
1537905146335897,1,0,-6,10,11,3,0,1
1537905146335897,-2,-6,15,3,2,-1,0,-1
1537905146344873,-1,-3,-16,-15,-6,-3,0,-2
1537905146344873,-2,-3,1,12,2,0,-1,-2
1537905146359831,-1,2,-1,8,3,1,-2,0
1537905146359831,-2,-3,-5,-2,-1,0,0,0
1537905146365816,-1,3,-6,4,4,0,1,0
1537905146365816,-2,-1,7,-1,-2,-1,0,-2
1537905146382770,0,4,-8,0,-3,-2,-1,-4
1537905146382770,-1,0,-4,-5,-2,0,0,-2
1537905146383768,0,2,1,2,1,0,0,-1
1537905146383768,-3,1,7,3,0,-1,-2,-2
1537905146396732,0,-3,-38,-18,-8,-4,2,0
1537905146396732,-1,1,47,17,3,-1,-1,-2
1537905146404711,1,10,-12,8,0,-1,-1,-1
1537905146404711,-2,-6,-8,-5,-5,1,-3,-1
1537905146419671,-1,-1,-3,-2,5,1,2,1
1537905146419671,-4,-9,-13,-1,-3,-3,-2,-3
1537905146426652,-4,-17,-53,-12,-2,0,-1,-3
1537905146426652,-1,17,30,-10,-8,-4,1,0
1537905146442610,3,-11,-25,-16,21,9,5,3
1537905146442610,-11,2,79,16,-26,-13,-9,-11
1537905146443607,1,-37,-41,4,-16,-4,-3,-1
1537905146443607,11,17,10,15,-15,-2,6,6
1537905146465549,2,12,22,11,25,7,-3,-1
1537905146465549,1,-6,97,44,21,1,2,1
1537905146466546,0,-11,-67,9,-7,-5,-1,-1
1537905146466546,-13,-45,20,63,7,-1,-4,-5
1537905146479511,-3,5,-61,-87,-45,-15,-3,-2
1537905146479511,4,-7,-63,25,-16,-4,-3,1
1537905146486493,8,45,60,88,47,17,8,4
1537905146486493,-8,-21,-59,-83,-29,-13,-8,-6
1537905146502451,9,22,-103,-28,27,16,12,10
1537905146502451,-2,-2,-13,12,6,3,5,3
1537905146504446,-2,6,91,-2,1,0,5,2
1537905146504446,3,12,-3,7,-4,-2,-1,1
1537905146516415,-7,7,48,17,-7,-5,-4,-6
1537905146516415,1,3,-47,-61,-16,-5,-2,-2
1537905146525391,-5,15,70,-9,17,3,-2,-2
1537905146525391,-8,0,-29,-49,-19,-12,-9,-9
1537905146539353,14,18,14,115,24,12,8,11
1537905146539353,5,-2,-88,20,15,4,1,3
1537905146554313,-5,-18,18,-26,-13,-9,-6,-3
1537905146554313,3,-27,-46,-48,-10,-4,-2,-1
1537905146570270,-7,-57,11,13,-1,-3,-5,-5
1537905146570270,0,-45,-11,-25,1,2,-1,-2
1537905146571268,1,-20,-47,-24,-14,-2,0,-2
1537905146571268,1,7,27,39,15,5,4,0
1537905146585230,-3,16,2,9,-8,-3,-4,-6
1537905146585230,-1,33,17,-8,2,3,-2,-2
1537905146586229,-4,15,-12,-33,-13,-4,-4,-1
1537905146586229,3,24,4,32,14,7,4,4
1537905146599703,-5,1,39,-2,-10,-4,-3,-4
1537905146599703,-2,3,-30,-19,-5,-1,-1,1
1537905146606683,0,-4,-17,4,2,1,-2,1
1537905146606683,-1,-6,0,4,6,0,-1,2
1537905146622640,-1,-8,6,-4,-12,-7,-2,-2
1537905146622640,-2,-4,8,-16,4,1,1,0
1537905146623637,0,1,-13,6,0,1,-1,0
1537905146623637,2,8,15,6,2,0,0,0
1537905146645579,-3,-1,10,-9,1,-2,-2,-6
1537905146645579,2,9,-5,7,11,5,1,1
1537905146646577,2,3,-1,-12,-13,-9,-3,-1
1537905146646577,-1,0,-9,-2,0,0,-2,-3
1537905146658544,0,4,6,3,-1,-1,0,0
1537905146658544,-2,1,-3,-1,2,3,0,-2
1537905146675499,2,6,-2,1,3,2,1,1
1537905146675499,-4,-7,-15,-9,2,-1,0,0
1537905146682481,-1,6,-26,-8,-5,-1,-2,-1
1537905146682481,2,5,42,19,2,0,1,0
1537905146684476,-1,-7,-5,-2,3,2,0,0
1537905146684476,1,0,2,4,4,1,1,0
1537905146704422,-2,-9,23,-5,6,0,0,-1
1537905146704422,0,-3,-59,-13,-22,-6,-1,0
1537905146712403,-1,-3,-8,-1,-4,0,-2,-2
1537905146712403,-2,-2,11,8,2,-1,-1,-1
1537905146718385,-1,-6,-7,-2,2,-2,-2,1
1537905146718385,0,0,14,-6,0,0,-1,0
1537905146727361,-3,-3,1,1,-4,-6,-3,-2
1537905146727361,-1,2,-10,-7,-2,0,-2,-1
1537905146742321,-2,-2,9,-1,-4,-4,-1,-2
1537905146742321,0,3,3,6,3,0,-1,-2
1537905146744316,-2,0,-5,-5,0,0,-1,-2
1537905146744316,-2,-1,-4,4,13,4,0,-1
1537905146765260,3,19,57,-20,-30,-9,-2,1
1537905146765260,-3,-7,15,11,7,1,-3,-3
1537905146766258,4,-7,-53,3,20,1,-2,2
1537905146766258,-10,11,114,72,0,-1,-4,-9
1537905146779223,6,-17,-126,-87,2,8,4,5
1537905146779223,-2,6,55,34,-21,-9,-3,0
1537905146788199,19,16,-38,26,57,28,19,16
1537905146788199,-10,-35,-19,-33,-44,-18,-10,-7
1537905146803159,-4,5,66,60,20,0,-1,-2
1537905146803159,1,-7,-49,-29,-4,0,-2,-1
1537905146804157,-16,-39,-15,-6,-27,-9,-7,-10
1537905146804157,11,16,-103,-42,32,9,8,6
1537905146825099,-30,-45,-33,-29,-42,-23,-11,-18
1537905146825099,19,7,-85,7,6,7,10,14
1537905146827094,4,-3,-55,11,33,12,4,5
1537905146827094,-12,1,112,-61,-53,-17,-9,-10
1537905146848038,10,32,-12,72,38,15,5,3
1537905146848038,-10,-5,-96,-34,-18,-6,-4,-6
1537905146849035,-5,26,52,10,-4,-2,-4,-5
1537905146849035,4,-16,76,11,12,6,4,5
1537905146869979,-3,-15,15,-37,-8,-2,-1,-3
1537905146869979,-3,10,49,6,15,1,-4,-6
1537905146871974,10,-5,-1,-19,-25,-8,1,3
1537905146871974,-2,-23,-52,35,11,0,-2,-1
1537905146884939,2,-24,16,17,11,5,2,3
1537905146884939,-6,-22,56,-37,-24,-12,-5,-6
1537905146886933,-11,-24,25,-14,-35,-16,-5,-6
1537905146886933,6,21,-7,-7,5,7,4,2
1537905146898902,0,17,12,21,8,3,0,0
1537905146898902,-2,1,19,-10,0,-1,-2,-1
1537905146914859,-3,20,15,3,-7,0,-3,-5
1537905146914859,1,14,-26,16,11,4,2,2
1537905146922837,2,9,6,-4,-10,-4,-2,1
1537905146922837,-4,2,-9,16,13,3,-1,-2
1537905146923835,-2,6,19,-11,-9,-4,-1,-3
1537905146923835,3,7,-32,0,7,2,1,2
1537905146952757,-3,-4,-14,0,-5,-2,-2,-1
1537905146952757,2,7,13,-4,3,0,0,2
1537905146953755,-4,1,14,3,3,3,-2,-4
1537905146953755,2,-1,-16,-8,-10,-6,1,1
1537905146958742,1,4,-2,7,-4,0,-2,-1
1537905146958742,0,0,8,3,5,1,0,0
1537905146967718,-2,-1,9,-6,-5,-6,-2,-3
1537905146967718,-2,1,-17,6,5,1,-1,-1
1537905146982678,1,3,7,0,-1,1,0,-2
1537905146982678,-1,0,-2,-1,5,0,0,1
1537905146983675,-2,-4,-4,-10,-13,-4,-2,0
1537905146983675,1,4,-5,2,3,1,0,1
1537905147005616,0,-1,0,2,-5,-3,-3,-2
1537905147005616,-1,-5,4,0,0,1,0,0
1537905147006613,-2,1,7,5,1,1,-2,-4
1537905147006613,1,1,-9,-12,-5,-3,1,1
1537905147018581,0,-1,2,2,2,0,-1,0
1537905147018581,-4,-2,-2,1,-3,-1,-2,-3
1537905147027557,-1,0,3,-3,-8,-2,-3,-1
1537905147027557,0,0,-4,4,4,3,0,-2
1537905147042517,-3,-2,-8,-5,1,-2,-1,-2
1537905147042517,-2,2,54,-15,-5,-3,0,-1
1537905147044512,-3,-2,-55,26,8,0,-1,0
1537905147044512,-2,-2,16,7,1,-1,0,-2
1537905147065456,0,-1,11,-3,-7,-1,-1,-1
1537905147065456,0,-6,-6,5,6,2,2,1
1537905147066454,-2,-3,18,-18,-9,-3,-1,-2
1537905147066454,-1,-4,-16,6,4,0,-1,-1
1537905147078422,-1,2,39,4,-2,-2,0,-2
1537905147078422,-1,2,-36,-32,-11,-6,-2,-1
1537905147095377,6,8,35,53,20,8,4,4
1537905147095377,7,8,-42,13,9,1,2,5
1537905147102358,-10,-13,14,-1,-13,-5,-2,-5
1537905147102358,4,19,57,48,6,4,0,0
1537905147104352,7,15,-50,-16,39,11,5,5
1537905147104352,-7,-4,-53,4,-12,-9,-6,-6
1537905147125297,10,-6,-37,8,33,14,9,8
1537905147125297,-3,-7,-77,-48,-22,-8,-2,-1
1537905147126294,-14,-11,-56,-56,-20,-10,-8,-10
1537905147126294,18,54,102,82,5,8,8,12
1537905147138262,-8,-32,-128,-62,-21,-4,-4,-4
1537905147138262,6,-2,112,121,44,5,5,3
1537905147147238,-12,-48,-88,-108,-26,-6,-5,-7
1537905147147238,14,44,27,8,27,10,7,8
1537905147162197,-5,-14,106,-26,-20,-7,-3,-1
1537905147162197,-5,1,-51,3,13,5,0,-4
1537905147164192,12,13,-45,50,14,13,9,11
1537905147164192,-16,-24,48,-52,-37,-22,-13,-13
1537905147185136,4,3,-48,16,26,12,9,7
1537905147185136,1,9,-22,-49,-23,-8,-4,-4
1537905147186133,-2,19,97,-46,-31,-8,-8,-7
1537905147186133,-4,-25,-21,-8,2,2,0,-1
1537905147199099,-3,10,25,51,-6,-12,-9,-5
1537905147199099,-5,-20,-21,-34,-5,-3,-2,-3
1537905147208075,-2,-11,-24,-4,-1,-5,-1,-1
1537905147208075,1,-2,24,-13,-3,0,1,0
1537905147230017,-2,2,-68,-2,-3,-2,-4,-2
1537905147230017,-1,1,-14,2,4,4,1,0
1537905147232011,3,1,51,17,-8,-5,0,1
1537905147232011,-8,-15,-40,-13,3,1,-2,-5
1537905147244976,0,11,26,10,2,-1,0,-3
1537905147244976,1,3,-35,-18,-7,0,-1,2
1537905147246971,-1,6,19,26,-1,-2,1,0
1537905147246971,-3,-15,-9,-18,-3,-1,-1,-3
1537905147258939,3,10,11,-4,-1,-4,-1,0
1537905147258939,0,-1,22,2,-7,-2,-2,0
1537905147267915,-3,-5,26,11,2,-1,-1,-2
1537905147267915,-4,-9,-6,3,0,-2,-1,-2
1537905147281878,1,6,15,-2,0,1,0,-1
1537905147281878,-1,-3,-9,-1,1,0,-1,-2
1537905147288859,0,0,11,11,-1,-4,-1,-1
1537905147288859,0,-2,-28,-6,7,5,1,1
1537905147306811,3,9,5,0,-5,-1,-1,1
1537905147306811,-1,-6,4,-12,-3,-3,-3,0
1537905147307809,-2,5,11,9,3,1,-1,-2
1537905147307809,-2,-3,0,-2,-4,0,0,-1
1537905147319777,1,2,8,-5,1,-1,0,-1
1537905147319777,-3,0,9,9,4,2,1,-2
1537905147327756,2,2,10,8,3,-1,0,0
1537905147327756,-3,-5,-13,-11,-9,-3,-3,-3
1537905147341719,0,0,2,3,3,-1,-1,0
1537905147341719,1,1,-7,0,1,-1,1,-1
1537905147348702,-1,0,8,4,6,5,1,0
1537905147348702,-1,-3,-2,-3,6,0,-2,0
1537905147365655,-2,-2,6,-19,-18,-6,-2,-2
1537905147365655,0,2,-26,-6,-6,-3,-2,-2
1537905147366654,1,2,18,17,-1,-4,0,0
1537905147366654,0,-5,-7,-2,1,-1,-2,-2
1537905147378619,-2,1,8,6,7,2,1,-2
1537905147378619,1,-6,-9,-15,-5,-2,-1,0
1537905147387596,-2,-2,38,3,-2,-1,-3,-3
1537905147387596,3,3,-91,13,-5,-1,3,3
1537905147401558,-2,-11,-56,-9,3,0,-1,-2
1537905147401558,-4,9,61,31,1,-2,1,-2
1537905147408539,2,-4,6,-22,-13,-3,-1,0
1537905147408539,-4,5,44,4,2,0,-3,-5
1537905147425494,0,-13,-95,8,19,4,1,1
1537905147425494,-15,-25,83,-26,-35,-17,-11,-11
1537905147427488,11,7,-116,23,21,12,6,9
1537905147427488,5,37,118,27,6,2,3,2
1537905147449430,-3,-20,-18,2,5,4,0,-1
1537905147449430,20,34,-28,58,25,14,10,14
1537905147450427,-18,-52,7,-105,-61,-25,-11,-13
1537905147450427,8,25,77,97,85,25,12,5
1537905147470374,-6,-37,-64,-95,-80,-23,-6,0
1537905147470374,4,40,69,51,21,9,2,1
1537905147471371,6,-14,-123,-21,16,5,4,6
1537905147471371,-10,-24,44,2,-33,-10,-5,-4
1537905147485334,13,54,89,15,42,13,6,10
1537905147485334,-12,-38,70,-53,-42,-16,-10,-10
1537905147486331,-4,-2,-86,-60,-10,-4,-1,-2
1537905147486331,-7,-13,50,-55,-27,-10,-9,-9
1537905147507275,1,-9,57,46,31,10,2,2
1537905147507275,-1,7,-73,54,8,0,-3,-2
1537905147509270,-15,-35,51,-24,-10,-9,-5,-10
1537905147509270,13,29,7,23,17,10,5,8
1537905147522235,-14,-45,-39,-15,-50,-22,-10,-10
1537905147522235,19,39,-93,16,26,9,5,8
1537905147529216,-1,-8,45,32,6,3,0,1
1537905147529216,-11,-33,-106,-48,-15,-8,-4,-6
1537905147545173,0,9,22,8,0,1,-1,-2
1537905147545173,-10,-20,64,-29,-9,-5,-5,-8
1537905147546171,-1,13,-24,-6,-6,-2,-1,-4
1537905147546171,15,21,56,21,11,8,5,10
1537905147567115,2,18,44,8,10,2,-2,-2
1537905147567115,-3,-17,-47,-19,-10,-5,-1,-1
1537905147569110,0,30,26,21,8,4,-1,0
1537905147569110,-7,-21,-78,-29,-6,-4,-2,-3
1537905147582075,-1,6,12,7,-2,-3,-1,-4
1537905147582075,-2,-6,-27,-19,3,0,1,0
1537905147589056,3,7,9,22,4,1,1,0
1537905147589056,-5,-11,-35,-12,-13,-7,-3,-3
1537905147612993,1,16,10,23,6,2,0,-2
1537905147612993,0,-7,-29,-29,-3,1,1,2
1537905147613991,2,15,34,31,11,3,0,2
1537905147613991,-5,-8,-39,-5,-9,-4,-4,-3
1537905147627952,0,8,-2,-8,4,2,1,0
1537905147627952,-2,-6,-17,-13,2,-1,1,2
1537905147628950,-1,3,30,20,1,-1,1,-1
1537905147628950,-1,-4,-22,-20,-15,-6,-4,-1
1537905147649894,0,4,-6,-4,1,1,0,-1
1537905147649894,-2,-6,-4,-2,4,2,0,-1
1537905147651888,2,8,18,23,6,0,1,-1
1537905147651888,0,-5,-20,-14,-7,-3,0,-1
1537905147664854,-1,5,7,3,4,1,-1,0
1537905147664854,-2,-4,-18,-6,1,-2,0,0
1537905147666849,-1,2,12,18,2,-3,-2,-1
1537905147666849,2,2,-14,-7,1,1,1,0
1537905147687793,1,1,7,0,9,3,-1,0
1537905147687793,-3,-9,-10,-1,-11,-4,-4,-3
1537905147688790,2,0,-19,-8,-3,0,0,0
1537905147688790,-2,-3,19,2,-2,-2,-2,-4
1537905147701756,0,4,4,5,3,1,1,0
1537905147701756,-2,-4,1,-4,8,4,1,1
1537905147709735,0,1,11,-1,3,0,-3,1
1537905147709735,-2,-9,-31,-9,-21,-8,-3,-3
1537905147724696,3,10,27,-1,-4,0,0,1
1537905147724696,3,-1,-39,3,5,2,1,2
1537905147726694,0,-3,12,5,-6,-2,-1,-1
1537905147726694,-2,0,-4,-7,7,2,-1,2
1537905147747634,0,-2,-4,-5,-3,-3,-1,2
1537905147747634,-1,-3,5,0,-1,-1,0,-2
1537905147748632,-1,6,1,4,5,3,0,0
1537905147748632,-3,-5,-7,-1,-2,-2,-1,-1
1537905147761596,4,13,-5,-2,-3,-1,1,0
1537905147761596,-9,-12,2,-7,-3,-3,-4,-5
1537905147770574,-2,-2,-1,-4,-2,2,0,-1
1537905147770574,9,10,0,-1,1,2,3,3
1537905147785533,0,2,-3,1,-3,-2,-3,-3
1537905147785533,-5,-3,6,-5,2,1,-2,-1
1537905147786531,-6,-8,-2,-2,-4,-1,1,-2
1537905147786531,-13,-15,-23,-4,-3,-3,-4,-7
1537905147807474,-6,-13,11,-1,0,-2,-1,-3
1537905147807474,10,13,2,8,5,3,3,6
1537905147809470,-4,2,16,6,5,-2,-3,-4
1537905147809470,3,7,21,19,9,3,2,1
1537905147830415,-12,-18,13,-37,-20,-7,-5,-5
1537905147830415,-11,-41,-88,46,-1,-8,-5,-5
1537905147831411,26,54,54,-32,12,9,8,14
1537905147831411,-8,-15,13,14,5,-4,-5,-3
1537905147845373,-25,-48,-24,-5,-15,-6,-7,-11
1537905147845373,20,44,61,-1,-1,5,5,6
1537905147846370,-39,-73,-24,14,-2,-4,-7,-15
1537905147846370,18,35,4,7,20,15,9,6
1537905147867313,35,46,3,6,-2,-6,0,11
1537905147867313,-7,-7,8,-6,-4,-2,-1,-3
1537905147869308,-6,-9,-23,5,-3,8,31,7
1537905147869308,-8,-9,-1,-20,-11,-15,-25,-7
1537905147881275,-4,-10,-28,6,12,46,50,58
1537905147881275,8,21,14,-5,0,-9,-11,14
1537905147890251,-1,26,4,3,-1,2,-32,-72
1537905147890251,-6,-5,-29,-11,-17,-22,4,23
1537905147905211,-10,59,7,10,4,-55,-84,-80
1537905147905211,5,35,-2,-16,1,41,38,29
1537905147906209,30,15,2,2,8,86,108,107
1537905147906209,-14,-51,1,-2,-21,-96,-69,-51
1537905147927152,-45,-57,-3,3,-3,-4,-80,-102
1537905147927152,18,-57,12,-14,-10,-35,16,18
1537905147935131,14,-27,-7,6,0,-17,-47,-16
1537905147935131,17,13,10,8,16,88,124,120
1537905147941115,8,-1,-3,-5,-4,-22,15,-9
1537905147941115,-18,-1,-4,-6,13,60,-33,-128
1537905147950092,27,31,0,3,0,-19,53,63
1537905147950092,4,1,-8,-3,7,98,24,-3
1537905147965051,-5,19,19,27,5,-90,7,-51
1537905147965051,-73,-6,-13,-24,-36,2,-63,-28
1537905147967047,-7,-1,-2,10,5,30,-10,-28
1537905147967047,-24,8,-13,-26,-44,-105,-103,-128
1537905147987990,23,12,-9,-5,16,119,95,107
1537905147987990,31,12,11,6,0,-57,35,63
1537905147988988,-18,-5,1,-2,-1,-9,-41,-40
1537905147988988,3,-16,-7,-1,9,-6,18,16
1537905148000956,-13,-12,-3,0,-4,26,-10,8
1537905148000956,23,0,6,3,4,-9,1,29
1537905148009931,-9,-10,-6,-5,-8,1,-16,-9
1537905148009931,11,12,0,3,8,4,7,18
1537905148024891,0,-7,-1,1,-2,-20,8,24
1537905148024891,-4,-4,0,-2,5,17,9,-5
1537905148026886,-6,3,-1,0,-5,-32,-8,-10
1537905148026886,-8,-4,1,2,3,6,3,-16
1537905148047830,6,-9,-9,-6,-2,6,-2,10
1537905148047830,-2,4,2,0,3,1,1,-5
1537905148048827,0,-2,1,0,-9,-17,-18,-11
1537905148048827,0,-2,-3,-5,-1,2,0,12
1537905148060795,0,-9,-2,2,3,14,1,4
1537905148060795,7,3,4,1,4,-5,6,8
1537905148077750,-2,3,-6,0,-2,-15,-1,6
1537905148077750,2,8,5,4,6,20,5,1
1537905148084731,2,-2,-5,-1,-2,-4,4,2
1537905148084731,-5,-5,-2,0,-2,-1,1,-9
1537905148086726,-4,-3,-2,-2,-3,-6,-5,-1
1537905148086726,-1,0,0,-2,1,7,2,1
1537905148108668,7,4,3,13,8,4,-1,2
1537905148108668,1,-5,-2,19,9,-3,1,7
1537905148110662,-1,-1,-5,-12,-10,-2,-3,-1
1537905148110662,0,1,-4,-63,-19,-4,-1,2
1537905148121633,-1,-6,-9,5,-5,-5,1,4
1537905148121633,2,1,8,8,1,4,1,0
1537905148130609,-1,5,3,-28,-2,-4,0,0
1537905148130609,-2,-1,-1,22,4,2,-2,-4
1537905148152550,2,1,3,-4,-2,1,1,3
1537905148152550,-2,-2,-3,8,7,2,3,-2
1537905148153548,-1,-4,-6,17,1,-2,-3,-3
1537905148153548,-1,6,-1,-1,2,3,2,0
1537905148167510,4,3,-12,-20,0,4,2,2
1537905148167510,-1,-4,7,-11,-1,-4,-1,1
1537905148169505,0,1,14,5,-2,-4,-1,0
1537905148169505,-1,-4,-36,33,5,3,1,-1
1537905148190449,1,-1,23,-23,0,0,3,0
1537905148190449,-3,-12,-51,-23,-17,-9,-4,-1
1537905148191447,-2,2,21,-1,-5,-1,-2,-3
1537905148191447,-3,-4,5,0,1,0,-1,-1
1537905148204412,1,3,-11,25,1,2,0,-1
1537905148204412,-1,4,13,-1,7,3,0,-1
1537905148211393,-2,-5,-44,4,3,0,-2,-1
1537905148211393,0,8,62,12,1,0,-1,1
1537905148226353,-2,-6,-23,-17,-11,-6,-2,-3
1537905148226353,-1,0,-69,-11,0,4,2,0
1537905148235329,4,9,81,13,4,-1,1,3
1537905148235329,-2,-12,-28,-7,-2,-3,-2,-1
1537905148241313,0,-2,33,-4,-3,0,0,0
1537905148241313,-2,4,31,-3,-8,-4,-2,-6
1537905148257270,-2,-2,-27,0,1,-2,-3,-4
1537905148257270,0,2,11,-2,3,1,-1,1
1537905148272230,0,3,14,5,-1,2,1,1
1537905148272230,0,-2,2,2,-1,1,0,-1
1537905148274225,5,-1,-23,-5,0,-4,-2,8
1537905148274225,5,0,11,4,6,18,53,55
1537905148287190,-12,-15,-25,5,17,108,44,6
1537905148287190,-2,16,4,4,-1,-62,-30,-24
1537905148289185,3,-3,0,-6,-6,26,-20,-19
1537905148289185,19,-5,1,11,0,-23,26,69
1537905148310129,-16,-9,-11,7,15,47,69,-10
1537905148310129,-22,-6,14,-11,-18,-32,-70,-79
1537905148311126,37,2,3,2,11,20,63,101
1537905148311126,-27,-20,-17,-6,-18,-21,-12,-92
1537905148324091,-5,12,-7,-9,-11,-91,-112,-42
1537905148324091,21,-3,13,-2,10,21,53,-4
1537905148339052,-4,5,-12,-3,5,18,-6,10
1537905148339052,-18,-16,-17,-8,-9,-31,-39,6
1537905148348028,-13,4,-1,-7,-6,4,20,-21
1537905148348028,11,6,3,-5,-13,-48,-42,-3
1537905148349025,-14,-4,-5,2,-4,-8,-20,-4
1537905148349025,29,14,0,1,12,61,37,11
1537905148360993,3,2,10,5,-5,-19,-6,15
1537905148360993,-1,-8,-3,4,3,7,2,30
1537905148377948,-9,-3,-4,-2,-1,28,22,-13
1537905148377948,-9,4,1,-6,-5,-24,-22,-13
1537905148384929,6,-2,-6,4,-3,-35,-17,-11
1537905148384929,3,-5,2,11,8,55,26,19
1537905148390913,-7,-5,0,-16,-9,-33,-7,-18
1537905148390913,-5,4,-2,-7,-5,-1,-20,-26
1537905148407868,16,0,-6,-3,-2,-4,-15,17
1537905148407868,-9,-7,6,18,9,28,32,19
1537905148408865,-13,-7,-6,-8,-3,-21,-13,-27
1537905148408865,1,1,3,6,1,-8,-19,-6
1537905148430806,11,8,6,8,3,19,18,17
1537905148430806,-7,-1,-22,-33,-9,-7,3,7
1537905148431804,-2,4,14,15,-4,-18,-12,-23
1537905148431804,3,5,21,23,11,23,2,-3
1537905148444769,1,-3,3,15,3,-11,2,8
1537905148444769,0,-5,-38,-27,-5,7,2,3
1537905148450753,1,-6,6,-20,-14,-6,-12,-8
1537905148450753,4,13,-25,9,9,11,7,3
1537905148473692,-4,-3,17,-42,-13,-10,-4,-2
1537905148473692,-2,-3,11,16,1,-1,-2,4
1537905148482668,0,4,9,-58,-12,4,5,-1
1537905148482668,-1,-3,9,13,4,-6,-4,-1
1537905148489649,1,-2,-23,4,-18,-11,-6,-5
1537905148489649,0,-2,25,20,11,18,8,4
1537905148491644,-2,-6,-30,48,11,-2,2,-4
1537905148491644,-3,1,-5,-33,4,4,-3,-4
1537905148512588,6,9,11,9,-2,-5,-5,6
1537905148512588,-4,-10,18,-38,-11,2,6,4
1537905148513585,-1,6,-7,2,-3,-4,-3,-6
1537905148513585,0,1,-1,8,6,0,-4,-2
1537905148527548,-2,-8,-20,5,7,4,3,1
1537905148527548,-1,3,-1,21,3,0,1,3
1537905148529542,-4,-3,9,12,8,-2,-2,-8
1537905148529542,-1,12,50,3,-10,-1,0,-3
1537905148550487,4,2,-17,1,4,0,2,5
1537905148550487,-2,-6,-8,14,4,3,0,0
1537905148551484,-2,-3,-1,-1,-1,-4,-4,-1
1537905148551484,-2,-5,-14,-15,-6,-1,-2,-2
1537905148563452,-3,0,14,7,1,-1,-2,-2
1537905148563452,0,-3,-30,-4,-1,1,2,1
1537905148580407,-2,2,-5,-3,2,2,2,0
1537905148580407,-4,-6,3,-3,-2,0,0,-1
1537905148587388,-1,1,26,-6,-8,-8,-4,-2
1537905148587388,-1,1,-28,-1,0,2,1,-3
1537905148589382,0,0,-1,1,0,-2,0,-1
1537905148589382,0,-3,-4,4,-1,-2,-3,-2
1537905148617308,0,-3,-4,3,4,3,0,0
1537905148617308,-2,4,20,-8,-4,-1,-1,1
1537905148619303,-1,0,8,11,1,-2,-3,-2
1537905148619303,-1,-4,-16,-4,0,-2,-1,-2
1537905148623292,-1,-2,-12,-6,0,1,1,2
1537905148623292,1,4,17,-1,-3,-2,-2,0
1537905148632268,-1,1,-5,2,0,-1,-2,0
1537905148632268,3,-5,-16,-2,1,19,12,7
1537905148647228,-2,-7,-4,-4,10,43,11,39
1537905148647228,-13,10,20,11,2,-3,46,-75
1537905148649223,16,1,-7,0,1,-33,-86,36
1537905148649223,16,3,3,-3,-11,-27,26,45
1537905148670166,-21,-14,-5,-5,-14,-21,9,-14
1537905148670166,4,11,6,-2,15,64,55,-75
1537905148671164,-12,7,-1,1,3,30,-44,-46
1537905148671164,18,-1,1,1,8,42,-9,54
1537905148684129,-1,-11,-8,-1,-7,-35,28,61
1537905148684129,14,12,1,-5,-6,-59,-51,10
1537905148693105,-5,-8,-4,-2,0,15,48,-9
1537905148693105,-11,-5,-13,-11,-4,25,-18,-52
1537905148707068,1,6,6,6,8,25,28,-14
1537905148707068,-3,-3,3,4,2,21,9,42
1537905148709063,3,5,2,3,1,-11,2,-2
1537905148709063,-11,1,-3,5,1,-17,-8,-4
1537905148730007,1,-1,-3,-3,-3,1,-14,-16
1537905148730007,-5,-11,-3,-6,-8,-25,-25,21
1537905148732001,-1,3,4,2,-2,-3,8,3
1537905148732001,-2,-5,-3,18,1,-6,9,-11
1537905148743969,4,5,3,9,6,-10,-13,-16
1537905148743969,-2,-10,-13,-3,-4,-3,-23,10
1537905148759926,-1,-2,12,-53,-17,-5,22,4
1537905148759926,-5,0,14,46,10,-3,4,-11
1537905148767905,3,2,-10,-34,-2,-10,-25,-19
1537905148767905,-3,-2,8,1,-4,-1,-3,23
1537905148768903,-2,-7,-11,58,11,10,21,8
1537905148768903,-7,2,55,-28,-6,-19,-13,-14
1537905148789846,1,3,-35,-25,0,3,-10,-7
1537905148789846,1,0,-15,-4,5,6,9,13
1537905148791841,0,2,10,-33,-8,-4,8,4
1537905148791841,-2,-1,-21,17,11,-2,-7,-10
1537905148803809,1,2,9,32,3,1,-1,-5
1537905148803809,-2,-3,-9,48,-4,-1,-2,8
1537905148812786,-3,0,-27,1,-5,-5,-2,-5
1537905148812786,-2,-3,-26,-101,-20,-5,-1,0
1537905148827745,1,5,-4,2,0,1,-3,-6
1537905148827745,1,11,73,20,4,0,-2,7
1537905148828742,-4,-13,-34,85,13,-1,1,0
1537905148828742,1,-4,-22,-18,-2,1,4,2
1537905148857665,-3,-6,11,-39,-16,-9,-8,-8
1537905148857665,0,3,-1,-18,-4,-2,-6,-1
1537905148858663,-1,6,9,-22,2,1,6,2
1537905148858663,-4,-22,-13,71,6,-1,0,-3
1537905148863650,3,-4,-11,-57,-10,-5,-3,-3
1537905148863650,0,3,8,26,0,0,0,4
1537905148872626,1,-9,13,-4,9,4,6,2
1537905148872626,-3,4,-12,-13,-8,-8,-7,-5
1537905148895564,3,8,-12,75,9,2,-1,-2
1537905148895564,-3,-11,-29,-61,-5,-1,0,2
1537905148896562,-1,5,19,-13,-12,-4,1,1
1537905148896562,-1,-1,6,8,0,-3,-3,-4
1537905148909527,0,-5,22,0,-9,-3,-2,-3
1537905148909527,0,9,-4,-15,4,0,-1,0
1537905148911521,0,-15,-26,20,0,1,-2,-3
1537905148911521,0,48,-1,-12,-2,-2,1,-3
1537905148932465,3,-20,-14,-2,7,4,3,2
1537905148932465,-2,-4,44,18,-3,-1,-2,-1
1537905148934460,-1,4,-18,1,0,-2,1,-2
1537905148934460,1,-2,0,11,2,1,-1,-1
1537905148947425,-1,5,11,32,6,1,-1,-1
1537905148947425,-2,-20,-40,-83,-17,-4,-6,-2
1537905148949420,-2,31,43,11,4,-3,0,-3
1537905148949420,0,-19,-40,-9,-7,0,-1,0
1537905148970364,3,30,-37,9,8,1,0,1
1537905148970364,-4,-29,84,17,1,0,0,-1
1537905148977346,1,36,-49,-8,2,0,2,0
1537905148977346,-1,-31,42,-17,-4,0,-3,-1
1537905148983329,4,35,-8,14,6,-1,-2,2
1537905148983329,-2,-15,-35,4,-11,-5,-3,-1
1537905149000284,-3,-19,12,-19,-3,0,0,-2
1537905149000284,-3,-2,-7,9,5,0,-2,-2
1537905149007265,-5,-11,37,-9,-9,-3,-4,-5
1537905149007265,-1,-2,-58,15,13,7,4,3
1537905149009260,2,5,58,-10,-2,1,-1,-1
1537905149009260,-7,-17,-2,1,-8,-3,-2,-4
1537905149037185,-7,-60,19,-12,-5,-2,-3,-1
1537905149037185,1,7,-96,6,6,1,0,3
1537905149039180,-1,-1,10,-11,-3,-2,-1,-1
1537905149039180,-3,-14,12,5,3,-2,-2,-4
1537905149043169,2,29,-26,-4,1,-1,1,1
1537905149043169,-5,-48,24,-15,-8,-5,-4,-2
1537905149052145,1,11,-13,-2,-3,-1,0,2
1537905149052145,-3,26,-11,17,1,-1,-1,-2
1537905149067106,5,5,18,-17,1,-2,0,0
1537905149067106,1,-2,-26,0,-2,0,-1,1
1537905149069100,-3,-15,21,-4,-8,-3,-2,-2
1537905149069100,7,15,-17,2,0,1,3,4
1537905149090044,-2,34,2,19,4,3,1,1
1537905149090044,-2,12,10,9,2,-4,-1,0
1537905149092039,-3,-24,3,-16,-1,0,-2,-2
1537905149092039,3,1,-20,-11,-3,0,-1,0
1537905149104007,-2,-12,49,12,2,-2,-1,-2
1537905149104007,1,25,-29,-9,0,0,1,1
1537905149112983,2,6,-21,11,1,-1,-1,1
1537905149112983,-3,-16,20,-7,1,-1,-2,1
1537905149134924,-1,52,59,-3,-8,-4,-3,-4
1537905149134924,2,-11,-68,7,0,-2,-3,-4
1537905149136919,0,-3,82,18,12,3,1,1
1537905149136919,1,2,-74,-15,-8,-5,-1,2
1537905149149884,-4,-35,-19,-8,-2,0,-1,-2
1537905149149884,-2,-1,38,1,2,2,1,-1
1537905149151879,1,10,13,29,5,-2,-1,-2
1537905149151879,0,-12,-5,-26,-12,-5,-3,-2
1537905149163847,0,-15,-14,-17,-14,-4,-1,0
1537905149163847,1,21,-9,-4,-4,-3,-3,-1
1537905149172823,-2,-11,-13,-9,0,0,1,-1
1537905149172823,1,0,18,19,11,2,3,1
1537905149186786,-5,-12,-20,-6,1,0,0,-2
1537905149186786,0,25,56,3,-2,-2,-1,-1
1537905149193767,-5,-23,-27,-6,-4,0,-1,-2
1537905149193767,3,30,-49,-3,-1,0,0,1
1537905149209724,0,-10,2,5,5,1,2,10
1537905149209724,1,0,34,8,-2,1,-2,-9
1537905149211719,-1,-7,8,-8,-4,-2,-1,1
1537905149211719,-4,3,-14,-5,-1,0,-2,-4
1537905149239644,-4,-2,-11,0,-1,0,-1,-8
1537905149239644,1,7,13,3,1,0,0,4
1537905149241639,6,-7,-26,-7,-4,-2,5,15
1537905149241639,-9,9,36,4,0,0,-8,-35
1537905149246626,0,-10,-6,2,0,-3,-1,1
1537905149246626,-2,-9,16,8,-3,-1,0,-3
1537905149254604,2,4,-38,-14,-3,-2,-3,-4
1537905149254604,5,-32,27,7,2,-1,1,17
1537905149277543,1,-10,-7,3,1,-1,-4,-3
1537905149277543,-5,17,10,2,-1,-3,-3,-13
1537905149278540,1,-8,-37,-9,0,-1,0,3
1537905149278540,-3,-17,12,-2,-1,-2,0,2
1537905149291506,2,7,5,3,-3,-2,-5,-7
1537905149291506,4,-30,29,2,0,-1,1,7
1537905149292503,-7,37,-43,-6,0,0,-1,-6
1537905149292503,-2,-15,-41,-2,1,1,0,2
1537905149316439,-2,18,16,0,-1,0,-2,-4
1537905149316439,5,34,5,-4,1,0,0,6
1537905149317436,-2,-7,20,13,0,-2,-1,-5
1537905149317436,-1,6,27,13,5,-1,0,4
1537905149329404,0,-8,-27,-19,-7,1,1,2
1537905149329404,-4,-9,-15,-1,-2,-2,-2,0
1537905149330402,0,-3,8,-7,-4,-1,-4,-7
1537905149330402,0,34,8,5,2,1,-2,2
1537905149351345,2,-47,11,9,4,0,1,10
1537905149351345,0,0,-13,-6,0,-1,0,1
1537905149352343,0,-7,2,0,0,1,0,-1
1537905149352343,-3,-9,39,3,-2,-1,-1,0
1537905149375281,-8,-25,-72,-14,-3,-1,0,2
1537905149375281,2,38,12,0,0,-1,-3,-10
1537905149375281,-2,-21,11,0,1,-3,0,3
1537905149375281,3,15,16,-5,-4,0,1,-2
1537905149389244,-4,8,12,-1,-2,-4,-2,-3
1537905149389244,-1,-14,-18,1,1,0,1,4
1537905149390242,-4,-14,9,-2,-2,-3,-3,-5
1537905149390242,2,16,-1,-1,-3,0,-1,0
1537905149412184,0,4,-1,5,2,0,-1,-2
1537905149412184,2,10,0,1,-2,1,0,4
1537905149412184,-3,1,0,-6,-2,-2,-1,-3
1537905149412184,2,-3,17,-4,-2,-2,0,4
1537905149426146,-1,8,-1,3,2,1,-1,-7
1537905149426146,-3,-15,-19,-2,1,0,-2,-1
1537905149434124,0,3,-1,-1,-1,1,0,0
1537905149434124,3,9,0,-1,0,-1,0,1
1537905149449084,0,-11,32,10,1,1,0,0
1537905149449084,-4,-2,-26,-6,-2,-1,-2,-1
1537905149450082,-1,6,-25,7,1,-1,0,1
1537905149450082,-5,-23,-1,-17,-3,0,-2,1
1537905149472023,2,8,4,-2,-4,-4,-2,-2
1537905149472023,1,-12,16,6,-1,0,0,3
1537905149473020,0,-19,9,0,1,-1,-1,0
1537905149473020,-2,29,-24,1,0,0,0,-2
1537905149486983,-4,-20,20,-4,-1,-1,1,6
1537905149486983,1,-2,-24,2,3,0,-1,-8
1537905149487980,-2,11,-6,-4,-1,-2,-4,-2
1537905149487980,1,-16,12,5,1,-1,-2,-3
1537905149509921,-1,5,-15,-2,2,0,1,-2
1537905149509921,-2,1,3,0,-1,-3,0,1
1537905149510919,1,-1,17,-1,-1,1,2,2
1537905149510919,-2,-6,-10,-2,-2,-3,-3,-8
1537905149539842,-1,12,-13,0,1,-2,0,9
1537905149539842,-2,-2,15,-1,-2,0,-1,0
1537905149540839,0,-5,-9,-4,-1,-2,-1,-2
1537905149540839,0,-4,15,2,-2,-2,0,-1
1537905149546823,3,8,-14,-1,1,-1,-1,-2
1537905149546823,0,-4,12,-1,-1,0,0,0
1537905149547820,-2,-12,-24,-4,-1,1,-1,3
1537905149547820,0,-16,9,4,2,0,1,0
1537905149569762,-2,13,-5,-5,0,1,-1,-6
1537905149569762,3,16,-26,-2,-1,0,2,8
1537905149569762,-4,-33,-12,-2,2,0,-1,-10
1537905149569762,-4,-11,6,3,1,-2,0,2
1537905149593698,3,15,51,7,1,0,-1,-5
1537905149593698,0,-5,-2,-7,-2,-3,1,2
1537905149593698,-2,-3,-19,-3,-3,0,-5,-5
1537905149593698,2,6,-8,-1,-1,0,8,21
1537905149606663,-2,-5,-5,-2,-3,-1,0,2
1537905149606663,-3,-6,2,-1,0,0,-2,-4
1537905149607660,0,6,5,0,0,-1,-2,-2
1537905149607660,0,-1,9,1,0,0,-4,-7
1537905149629602,-4,-16,-28,-2,-3,-1,-1,-4
1537905149629602,-1,-10,-29,-3,0,1,1,2
1537905149629602,6,16,41,2,1,0,1,3
1537905149629602,1,15,-2,0,1,0,-3,0
1537905149660519,-3,-16,-6,-3,-1,-3,1,-4
1537905149660519,-7,-28,6,1,-2,-2,-3,-6
1537905149660519,2,17,0,-2,-2,0,1,1
1537905149660519,-2,-5,-30,-1,1,-1,2,7
1537905149666503,4,24,10,5,2,0,-4,-9
1537905149666503,-4,7,21,0,-2,-2,-5,-11
1537905149667500,3,11,3,-1,-2,-2,0,12
1537905149667500,-3,-11,-9,-2,-1,-1,-1,-9
1537905149689442,1,3,4,-1,-1,-1,0,2
1537905149689442,1,-8,1,-1,-1,-2,-2,-2
1537905149690439,-5,-8,7,0,-2,-3,-1,-3
1537905149690439,-2,-14,-18,-5,-2,-3,-3,-6
1537905149711383,2,32,0,-3,-2,-2,-1,4
1537905149711383,0,-1,12,0,0,1,2,4
1537905149712381,-1,-1,12,0,-2,-2,-3,-5
1537905149712381,-6,-30,-29,-6,-3,-2,-3,-6
1537905149726343,0,-3,8,1,1,3,6,20
1537905149726343,-3,5,9,0,-2,0,1,4
1537905149727340,1,4,-16,-3,0,1,0,-1
1537905149727340,1,14,18,-1,-2,-2,1,-3
1537905149749282,1,-9,3,4,-3,-1,0,2
1537905149749282,1,2,-16,-3,0,-1,-3,-9
1537905149750279,1,-13,-18,-6,0,-1,3,0
1537905149750279,4,24,45,7,3,1,-1,0
1537905149772220,0,-12,-11,-3,-1,-1,-2,-4
1537905149772220,-1,7,19,3,-2,-1,1,4
1537905149773218,-4,2,-15,-2,-2,-1,-2,-5
1537905149773218,1,-16,-5,1,0,0,2,4
1537905149795159,1,-17,-7,0,0,-1,-2,-2
1537905149795159,-2,17,2,-1,0,-2,1,0
1537905149796157,-1,-10,1,-1,-2,0,-2,2
1537905149796157,-4,-9,-9,-2,-2,1,-1,-4
1537905149809122,0,-1,-3,3,2,0,0,-2
1537905149809122,0,-7,-3,-2,-2,-1,0,-1
1537905149810119,0,8,3,1,-2,0,2,-1
1537905149810119,-2,-6,15,-2,-1,-1,-2,-2
1537905149832060,-6,-3,-4,-3,-2,-1,-2,-10
1537905149832060,-1,5,-8,0,0,-1,-2,1
1537905149833058,0,10,11,3,0,1,-1,0
1537905149833058,-2,6,-10,-2,1,0,-4,-4
1537905149847020,-2,-12,-15,-3,-2,0,-4,-6
1537905149847020,-2,-14,-24,-4,1,-1,1,2
1537905149854002,0,10,69,5,1,-1,-5,-9
1537905149854002,-1,2,-23,-6,-2,-3,0,1
1537905149868962,0,3,-4,-2,-1,-1,-2,-1
1537905149868962,-2,-8,13,1,0,0,-1,-1
1537905149869959,-2,22,-21,-3,-2,0,-1,-4
1537905149869959,0,3,4,-2,-2,0,-1,-2
1537905149899880,3,19,28,4,-2,-2,1,7
1537905149899880,1,15,-8,-6,-3,-2,-3,-2
1537905149900877,-1,-9,-19,-1,1,0,0,3
1537905149900877,1,9,4,0,-2,-1,-1,-1
1537905149906860,-3,-6,-14,-6,0,-2,0,-1
1537905149906860,2,5,9,2,-1,0,0,-2
1537905149907858,-1,-10,-11,-2,-2,-2,-1,1
1537905149907858,-2,4,33,1,-1,1,0,0
1537905149928802,2,5,-25,-3,-2,-1,-1,-1
1537905149928802,2,1,2,0,0,-2,3,11
1537905149936780,-2,-2,-27,-3,0,-1,-4,-13
1537905149936780,-3,3,12,1,-2,-1,-2,0
1537905149952738,0,-2,5,-2,2,1,-1,-8
1537905149952738,-3,-8,3,0,-3,1,0,1
1537905149953735,2,-2,-6,-1,-2,0,3,5
1537905149953735,0,5,-9,1,-1,-2,-1,-1
1537905149965703,-2,-3,22,-1,-1,0,-2,-1
1537905149965703,3,11,-28,-1,1,0,-1,1
1537905149974679,-3,-10,5,1,0,-2,-2,2
1537905149974679,1,-1,-11,-2,2,0,0,-1
1537905149989639,-2,2,-3,-3,-1,-2,0,-1
1537905149989639,-2,-12,5,-2,-1,-1,-3,-8
1537905149989639,1,0,2,-2,-3,-2,1,9
1537905149989639,2,1,-9,0,-1,0,-1,0
1537905150012579,-1,-3,-21,0,-2,-1,-1,0
1537905150012579,0,26,42,-1,0,0,-5,-8
1537905150013576,4,-6,-23,0,2,2,8,18
1537905150013576,-2,-8,-10,-5,-2,-1,1,0
1537905150026541,1,5,3,1,-2,-3,-3,1
1537905150026541,-2,-8,1,-2,-2,-2,-4,-5
1537905150041500,-1,3,11,0,-1,-1,-2,-3
1537905150041500,1,6,0,1,1,-1,-1,1
1537905150049479,-3,1,12,0,-2,-1,0,-1
1537905150049479,0,-22,-48,-3,-1,-1,-1,2
1537905150050477,0,0,26,3,0,-1,0,-5
1537905150050477,-2,2,-10,0,0,0,0,-1
1537905150072418,0,0,5,-2,-1,-2,0,-4
1537905150072418,-2,-8,-10,-2,1,-1,1,0
1537905150073415,-1,2,0,-4,-3,-1,-1,-4
1537905150073415,3,18,2,3,-2,-1,-4,-4
1537905150086380,-2,-5,-1,-6,1,-1,-2,1
1537905150086380,3,13,7,1,0,-1,1,1
1537905150094359,-4,-22,-15,-4,-1,-2,-1,-5
1537905150094359,-1,3,43,5,-2,-1,0,0
1537905150109320,-1,-5,-38,-5,-1,-1,1,5
1537905150109320,-6,-11,-14,-1,-1,0,-4,-8
1537905150110317,-1,10,9,-1,-2,-1,-2,-2
1537905150110317,1,2,-3,-1,2,0,0,0
1537905150148216,-5,-8,3,1,-1,-1,-1,-2
1537905150148216,-2,-8,5,0,-1,-2,-1,4
1537905150149213,-1,5,-10,0,0,1,-1,-1
1537905150149213,0,-12,-7,-3,-1,0,5,8
1537905150150210,-2,3,3,-1,-2,1,-1,-1
1537905150150210,1,-2,0,-1,-2,-2,0,0
1537905150154199,-3,-2,18,-2,-1,-2,-2,-1
1537905150154199,4,18,-18,-2,0,0,-1,1
1537905150169159,-5,1,-23,-4,0,-1,-1,-5
1537905150169159,0,-6,38,8,-1,0,1,0
1537905150170157,1,1,-10,1,0,-3,-2,-4
1537905150170157,-2,-21,-8,-8,-2,1,-1,-2
1537905150192098,1,-2,23,3,-1,0,-1,0
1537905150192098,-3,3,-2,-1,0,-2,-2,-2
1537905150193096,0,6,-36,-6,-2,0,-1,-1
1537905150193096,-3,-26,10,3,1,-1,1,-1
1537905150206061,0,-6,-14,-3,-1,1,1,-3
1537905150206061,-2,-3,21,3,0,-1,-1,0
1537905150214040,1,7,7,-1,0,0,-2,0
1537905150214040,-3,-2,-8,-3,-2,-2,-3,-2
1537905150229000,-2,12,-1,1,1,1,-2,1
1537905150229000,2,2,4,-2,-2,0,2,1
1537905150229997,-1,-4,-4,0,-1,-1,0,-2
1537905150229997,-2,4,-4,-2,0,-1,-3,-6
1537905150252936,2,-8,11,2,-1,1,0,2
1537905150252936,3,6,-27,-3,-2,0,5,11
1537905150252936,0,5,-5,-1,0,-2,1,4
1537905150252936,-2,-16,20,-1,0,-2,-2,-1
1537905150265901,0,0,2,1,1,-2,-2,-4
1537905150265901,-2,3,-7,-3,1,-1,-2,-6
1537905150273880,-2,-3,-5,-2,-2,-2,-1,-2
1537905150273880,-4,-3,0,-1,-2,-1,-2,-2
1537905150289837,0,5,-5,-2,-1,-1,-2,0
1537905150289837,-3,-1,-4,-1,-1,0,0,0
1537905150289837,-5,-21,7,2,0,-1,-6,-15
1537905150289837,-3,15,-21,-2,-2,-1,2,1
1537905150319757,1,-4,4,0,-1,-1,0,-2
1537905150319757,0,4,1,0,0,-1,-1,-3
1537905150320755,-1,-5,10,1,-1,-1,-1,-1
1537905150320755,-1,7,-4,-2,-2,-2,-2,-2
1537905150334717,-2,-11,-12,-1,-4,-1,0,-2
1537905150334717,1,-4,11,1,1,1,0,3
1537905150335715,2,20,-11,-2,0,0,1,1
1537905150335715,1,-5,-1,0,0,-1,-1,2
1537905150349677,-1,1,17,0,1,0,1,-1
1537905150349677,-3,-6,-18,-3,-2,-2,-3,-3
1537905150349677,-3,-7,24,-3,-1,-1,1,0
1537905150349677,5,21,-8,1,-1,1,1,1
1537905150372615,2,6,-11,2,0,0,-2,-1
1537905150372615,-2,-8,25,-1,0,-2,0,-4
