timestamp,emg1,emg2,emg3,emg4,emg5,emg6,emg7,emg8
1537911421352702,0,5,10,25,6,7,9,1
1537911421352702,-1,-2,-9,-23,5,6,0,2
1537911421353700,-2,0,2,-14,-2,-3,-4,-4
1537911421353700,0,0,-3,27,-8,-2,5,2
1537911421354697,-1,-3,-7,-28,-5,-6,-3,0
1537911421354697,1,2,7,12,-30,-1,-2,-3
1537911421355694,-2,-3,3,12,59,5,2,1
1537911421355694,0,1,-2,2,-30,-8,-5,-1
1537911421363673,-1,0,1,7,-32,-3,-4,-2
1537911421363673,-1,2,3,8,73,2,0,-1
1537911421372649,-2,-3,-7,-3,-27,-4,-3,-2
1537911421372649,-1,-2,-2,-11,-25,-12,-3,-2
1537911421378633,2,0,-2,-2,27,15,3,0
1537911421378633,0,1,1,-7,-21,0,2,-3
1537911421393593,0,2,0,5,-3,-2,0,0
1537911421393593,0,0,3,-7,-6,-6,-2,-2
1537911421399577,-2,-6,-5,-8,-11,-5,-2,-3
1537911421399577,-1,0,1,4,1,0,-2,-1
1537911421423513,1,1,1,-2,-9,-2,1,1
1537911421423513,-2,-1,1,-2,9,4,-1,-1
1537911421424510,-1,-1,-1,3,9,-1,-4,-1
1537911421424510,-1,-1,-1,-6,0,-2,0,1
1537911421462414,-1,-2,0,5,0,1,-1,-3
1537911421462414,-2,0,2,9,2,1,0,-1
1537911421463406,-3,-2,-5,-22,-16,0,0,-1
1537911421463406,-4,0,-3,-12,-2,-5,-1,-2
1537911421464404,0,1,4,12,20,2,2,-1
1537911421464404,0,3,9,49,14,-10,-4,-3
1537911421467396,-1,-5,-12,-59,-19,14,4,2
1537911421467396,0,-5,-9,-12,0,-2,-1,-1
1537911421474377,1,0,-2,-12,-16,-4,0,1
1537911421474377,0,1,2,7,3,-1,0,0
1537911421482357,0,3,7,28,10,-1,-2,-2
1537911421482357,0,1,0,3,-7,-2,-1,-1
1537911421489340,-1,1,-3,8,16,0,0,1
1537911421489340,0,-2,-1,-13,-12,2,0,-2
1537911421505295,-1,-1,3,16,-15,-8,-3,-1
1537911421505295,1,-1,-2,-4,-3,9,2,1
1537911421511279,-1,-2,1,2,-7,-3,-3,-2
1537911421511279,-2,-3,-6,-16,3,2,-1,0
1537911421537209,-2,-1,-1,1,-1,-6,-2,-2
1537911421537209,1,1,3,14,3,-3,-2,-2
1537911421538207,0,0,-2,0,4,0,-2,-1
1537911421538207,-2,-3,-5,-22,-11,-3,-5,-1
1537911421550175,1,0,0,11,8,2,5,1
1537911421550175,-1,0,4,4,1,-1,-1,0
1537911421556158,-2,-1,-1,-6,-7,2,-4,-3
1537911421556158,0,-1,-1,-9,-3,-1,0,-1
1537911421573113,0,1,1,9,7,-3,-4,-3
1537911421573113,-1,0,-1,1,3,1,-1,-1
1537911421574110,-2,-1,-5,-7,-8,-2,0,1
1537911421574110,2,1,0,-1,-1,2,0,0
1537911421587075,-2,-3,-3,0,6,-3,-1,-2
1537911421587075,1,-1,1,-2,0,0,-1,0
1537911421596051,-1,0,1,-3,-7,0,-1,0
1537911421596051,-1,-2,-2,-3,-5,-2,-5,-1
1537911421610014,0,1,1,2,4,3,1,1
1537911421610014,0,0,0,-1,-1,-1,3,3
1537911421616995,-1,-2,-2,-1,-3,-17,-1,0
1537911421616995,0,-1,0,-2,4,29,4,0
1537911421632953,0,-1,1,0,-1,-18,-12,-1
1537911421632953,-4,-1,-3,2,-3,18,-4,-5
1537911421633950,-2,2,11,53,5,-6,-4,-4
1537911421633950,1,7,19,59,-10,-59,1,1
1537911421655891,-5,-6,-10,-40,9,-67,-21,-6
1537911421655891,2,-3,-25,-91,1,91,60,13
1537911421656889,-6,-10,-4,26,14,-96,-18,-9
1537911421656889,10,9,2,-20,-4,92,-7,6
1537911421669854,-6,-3,-11,-15,4,-101,-31,-13
1537911421669854,0,9,37,119,-100,78,-39,-5
1537911421676835,6,0,-27,-96,71,36,14,11
1537911421676835,-20,-35,-77,-51,33,7,-18,-15
1537911421692793,0,13,59,127,-83,-71,-43,-13
1537911421692793,8,2,-25,-124,111,6,38,20
1537911421694787,-9,-16,-1,63,-55,-4,16,-4
1537911421694787,2,11,22,125,88,18,-11,-4
1537911421715732,-3,12,17,-60,-47,42,1,13
1537911421715732,4,-9,-14,32,-72,-26,-28,-19
1537911421716730,21,26,34,-35,-106,72,27,24
1537911421716730,-9,-21,-16,35,17,-61,17,-3
1537911421728697,-14,-25,-41,-20,53,-21,-7,-9
1537911421728697,-14,10,36,88,81,-60,-4,-8
1537911421737673,11,22,32,38,-6,83,4,6
1537911421737673,-9,-21,-63,-62,-128,-23,-8,-7
1537911421752633,7,29,56,120,91,46,21,5
1537911421752633,-15,-18,-20,13,-45,3,-23,-14
1537911421754628,-1,10,47,120,-39,-118,-38,-18
1537911421754628,-4,0,-13,-32,81,66,26,5
1537911421775572,7,-29,-63,-54,-87,87,51,19
1537911421775572,-3,-12,5,77,51,-29,-1,-3
1537911421776569,1,-4,7,24,23,-32,2,-1
1537911421776569,1,9,19,27,-58,-90,-37,-11
1537911421789535,7,8,3,-90,110,25,38,13
1537911421789535,-8,-22,-57,-55,-128,-53,-17,-4
1537911421798511,-8,-3,-19,-1,106,41,-8,-5
1537911421798511,10,36,74,122,86,-34,-2,4
1537911421813471,-13,-31,-76,-79,-69,1,2,-5
1537911421813471,7,19,44,101,127,-15,1,0
1537911421814469,-14,-42,-101,-128,-10,106,1,-9
1537911421814469,1,-7,-41,-114,59,-84,-7,-5
1537911421835413,9,14,30,10,-72,78,30,4
1537911421835413,0,0,3,-38,5,26,15,5
1537911421836410,-6,-2,-3,-9,8,-62,-24,-10
1537911421836410,6,22,69,127,-26,124,19,8
1537911421849375,-9,-21,-50,-34,37,-39,-3,-1
1537911421849375,-1,-11,-40,-127,56,31,-14,-2
1537911421858352,3,7,24,60,-63,-3,-2,-6
1537911421858352,0,-1,9,33,-38,15,-10,2
1537911421873311,0,6,26,50,-85,-70,-7,-10
1537911421873311,7,14,28,123,-13,14,22,5
1537911421874310,-1,-5,-20,-9,56,-47,-4,0
1537911421874310,-2,-9,-19,-101,-31,-22,3,4
1537911421897247,1,8,25,107,-7,-21,-17,-6
1537911421897247,5,14,18,27,81,16,1,7
1537911421898245,-14,-31,-66,-99,-52,-39,17,2
1537911421898245,3,-1,6,81,17,-2,6,2
1537911421909216,11,27,79,108,127,-11,16,9
1537911421909216,-6,-10,4,41,-63,-41,-19,-10
1537911421918192,6,13,43,127,-2,-11,-1,3
1537911421918192,-3,-7,-10,-24,-70,27,16,6
1537911421933152,2,8,31,127,103,-24,-31,-12
1537911421933152,-4,-1,3,30,37,5,9,-1
1537911421934150,-1,-7,-41,-106,26,-45,12,6
1537911421934150,-2,-5,-1,-34,-9,8,-4,-5
1537911421955092,0,-4,-26,-80,-19,34,-15,-7
1537911421955092,4,12,36,64,-75,-42,3,7
1537911421957087,-9,-16,-37,7,-69,20,-16,-10
1537911421957087,3,5,11,63,13,14,0,0
1537911421969054,-2,-5,-19,-43,-63,-18,9,2
1537911421969054,-1,-11,-14,-65,-56,16,0,0
1537911421978030,5,17,57,106,52,41,-6,0
1537911421978030,0,2,14,59,-13,-68,-9,-2
1537911421992990,-1,-6,-10,-6,-42,31,-16,1
1537911421992990,-1,2,1,8,-13,-20,-5,-3
1537911421993988,7,15,45,113,18,-12,6,8
1537911421993988,-10,-19,-38,-128,-7,25,6,-4
1537911422015929,1,3,14,75,2,18,-3,1
1537911422015929,2,5,20,54,-11,-26,-2,-1
1537911422016927,-2,1,-2,12,30,21,9,3
1537911422016927,-1,5,19,63,3,-11,9,4
1537911422036873,-3,-1,-1,52,53,-35,4,-1
1537911422036873,-1,-11,-39,-89,-67,-6,-20,-3
1537911422037871,-1,2,5,18,-26,14,4,-6
1537911422037871,-2,-4,-19,-73,1,11,0,-1
1537911422051833,-1,1,5,-12,28,30,-5,0
1537911422051833,-2,-1,-5,23,-18,14,8,0
1537911422052831,1,0,8,10,52,-40,-16,-4
1537911422052831,1,-2,-9,-60,-2,-4,-9,-1
1537911422074774,-1,-5,-11,-32,-14,14,20,2
1537911422074774,-2,-4,-19,-59,-9,1,-6,-1
1537911422075771,-1,3,5,-41,-32,27,8,1
1537911422075771,0,6,22,127,40,-58,0,0
1537911422097713,-7,-14,-25,-103,-31,-10,-15,-7
1537911422097713,1,5,14,38,18,35,18,3
1537911422097713,-1,1,-1,-21,-13,4,0,0
1537911422097713,-1,1,5,-10,-27,-7,5,2
1537911422112672,3,4,7,61,35,1,0,4
1537911422112672,-2,-6,-7,-55,43,-7,-7,-5
1537911422112672,-4,-3,-14,-24,-21,12,2,-4
1537911422112672,-2,-4,-6,-28,26,-13,-12,-5
1537911422134612,0,2,-1,20,2,85,18,4
1537911422134612,1,1,0,3,-3,-9,1,1
1537911422135609,1,-3,2,22,-8,-10,-3,-2
1537911422135609,-1,-3,-10,-63,-25,40,0,-4
1537911422157550,-1,-5,-15,-42,-9,-28,-6,-3
1537911422157550,0,0,3,13,3,-13,-2,0
1537911422157550,-3,0,2,-4,1,17,4,2
1537911422157550,2,4,15,82,5,-3,0,-3
1537911422172510,-1,-7,-15,-65,-59,-25,-7,-4
1537911422172510,-3,-3,-7,-13,0,6,3,-3
1537911422172510,0,-1,-2,-10,14,-6,2,-2
1537911422172510,0,3,9,35,-23,-2,-3,1
1537911422194452,0,-2,-8,-21,15,36,6,2
1537911422194452,-2,-1,1,20,45,-29,-9,-2
1537911422195449,2,3,11,7,-2,3,6,3
1537911422195449,-1,-1,-7,-17,-29,-3,1,-3
1537911422217390,-2,-5,-5,-19,-29,-19,-4,-5
1537911422217390,1,2,-4,-22,-14,-19,-12,-4
1537911422218388,-1,-1,2,10,23,41,6,1
1537911422218388,-2,-2,-1,0,10,-21,-9,-2
1537911422232351,-2,2,3,21,-1,-11,0,0
1537911422232351,1,1,2,21,5,-3,-1,-2
1537911422233348,0,-2,-6,-10,-2,-19,-7,-2
1537911422233348,0,0,1,-13,13,18,-1,2
1537911422255290,0,2,5,25,2,11,0,-2
1537911422255290,-1,-6,-5,-4,-6,-20,0,-1
1537911422255290,0,-2,-3,-5,-5,6,-4,-1
1537911422255290,1,-3,-5,-13,9,11,5,2
1537911422277231,-1,0,4,11,-3,9,0,0
1537911422277231,-1,-2,1,11,-1,4,2,1
1537911422278228,-2,0,-1,-10,-2,-14,0,0
1537911422278228,-2,0,-2,-7,8,4,0,-5
1537911422292190,-2,-4,-3,5,-1,-11,-5,3
1537911422292190,-2,3,4,7,0,-2,-3,-7
1537911422293188,-1,-2,-3,-2,1,-1,11,7
1537911422293188,-9,-4,-3,-9,1,-7,2,7
1537911422316127,10,4,6,12,0,5,-21,-13
1537911422316127,0,-2,-2,0,-1,0,10,11
1537911422317124,2,-2,-2,-4,-4,-7,-16,-5
1537911422317124,-2,-2,-4,-5,1,8,1,-17
1537911422337070,4,9,2,8,1,1,21,7
1537911422337070,74,33,6,6,0,-2,-3,27
1537911422338068,-45,2,2,2,0,-4,-2,22
1537911422338068,-66,-79,-14,-16,-6,-1,-24,-53
1537911422352030,-33,22,-3,-11,-5,-3,-2,-25
1537911422352030,-4,-29,2,1,-1,-7,6,14
1537911422353028,65,59,0,-5,-1,5,25,-8
1537911422353028,99,46,20,14,12,8,-3,-7
1537911422374969,-54,-59,1,8,3,1,36,-16
1537911422374969,5,49,-1,-9,-6,0,-24,-72
1537911422375967,-69,-36,-10,-12,-7,-4,-5,79
1537911422375967,29,-13,7,1,0,3,15,-13
1537911422396911,-15,-4,7,4,4,24,-3,59
1537911422396911,45,18,5,8,6,-21,34,51
1537911422397908,-14,-1,-2,-7,-6,6,-29,-24
1537911422397908,-6,34,-3,-4,0,-7,-5,-26
1537911422411871,32,10,0,-3,-9,-19,-11,47
1537911422411871,-71,-53,-8,5,-1,16,0,-46
1537911422412868,37,17,2,-1,-2,-10,-8,-45
1537911422412868,2,16,-4,-4,-2,-4,-3,39
1537911422434810,-13,-18,-5,-3,-1,-6,4,-31
1537911422434810,-29,6,2,-2,-2,-6,-10,0
1537911422435808,30,-8,-2,-3,1,-8,18,-22
1537911422435808,-28,-5,-3,-8,-1,2,3,47
1537911422457748,-1,-1,-6,-6,-3,-6,-24,-13
1537911422457748,6,4,0,2,10,10,5,-5
1537911422457748,-21,-17,-1,-3,-1,-6,-8,-2
1537911422457748,-2,-4,-5,5,3,3,31,25
1537911422480687,18,15,-2,8,1,1,-6,-22
1537911422480687,-15,-9,-3,4,-3,-9,-3,34
1537911422480687,-19,-12,-2,5,1,-4,-12,-17
1537911422480687,-18,-1,-2,-1,-2,0,-15,-53
1537911422494650,15,4,-2,3,2,0,6,-8
1537911422494650,-4,-13,-2,-2,-2,2,-12,-4
1537911422495647,3,-2,1,-3,-1,0,7,7
1537911422495647,-3,1,1,-1,-1,5,1,18
1537911422517589,-1,5,-2,-3,-4,-9,8,4
1537911422517589,45,-12,1,1,-1,6,4,29
1537911422517589,2,1,-3,-5,-3,4,-17,-23
1537911422517589,-20,-3,-3,0,-1,-7,-3,2
1537911422539530,20,0,-1,1,0,-1,-7,10
1537911422539530,-14,5,2,-2,-1,1,9,-2
1537911422540528,5,-3,-2,2,0,0,8,7
1537911422540528,5,-3,-1,0,0,0,-7,-4
1537911422554490,-2,7,3,2,1,0,-7,-12
1537911422554490,-17,-13,-14,-11,-5,3,-13,-22
1537911422555488,-1,-3,2,1,0,1,11,7
1537911422555488,-1,4,0,0,3,2,-4,3
1537911422577433,1,3,3,2,1,2,5,1
1537911422577433,-6,2,0,0,-4,-3,-9,-9
1537911422578425,4,-4,-3,2,2,3,-1,0
1537911422578425,-1,-2,-1,-4,-2,-2,-7,11
1537911422599370,5,-1,-1,1,0,-1,5,-4
1537911422599370,-4,-3,-2,-1,-1,-2,-1,-4
1537911422600367,-3,-1,1,1,-1,-1,2,-2
1537911422600367,-3,0,0,0,-1,0,-5,-7
1537911422614329,0,-2,-2,-3,-3,-1,-6,-2
1537911422614329,-9,4,0,-1,-2,-1,3,-3
1537911422615327,5,-3,-2,-2,-1,0,-1,2
1537911422615327,-5,-3,-2,-1,-1,-2,3,1
1537911422637268,3,-2,-2,1,-1,-3,-3,2
1537911422637268,-3,5,3,1,0,-1,0,3
1537911422638266,10,-4,-5,0,1,2,11,29
1537911422638266,-7,-4,-3,-3,-3,-1,1,-7
1537911422660206,0,0,-2,-3,0,-2,0,-5
1537911422660206,-3,-3,1,0,0,0,2,10
1537911422660206,-1,3,1,1,-1,-2,-9,-12
1537911422660206,2,4,0,-2,-1,-1,5,3
1537911422675168,-3,-4,-4,-2,1,2,-5,-3
1537911422675168,0,4,1,-1,-1,0,1,-3
1537911422675168,-5,-3,-1,-1,-1,1,-2,-6
1537911422675168,1,0,0,0,-1,1,0,2
1537911422697108,1,-1,-1,-2,-2,-1,0,2
1537911422697108,-2,-3,-3,0,-2,0,-2,1
1537911422698105,-4,-2,0,0,-1,1,0,-7
1537911422698105,0,-2,-1,0,0,0,3,6
1537911422720047,0,1,-2,1,0,0,-3,-4
1537911422720047,-4,0,-1,-1,1,-1,-3,-6
1537911422720047,-3,-1,-1,-1,-1,-1,2,2
1537911422720047,2,2,0,1,-1,0,0,-3
1537911422734009,0,-1,-1,-2,-2,-1,-3,-3
1537911422734009,-3,-1,-1,0,-1,0,1,-1
1537911422741988,-2,-1,0,0,0,-1,-4,-8
1537911422741988,-1,-4,-4,-4,-2,0,0,1
1537911422756948,-1,0,0,1,-1,-3,4,2
1537911422756948,-1,-3,1,-2,-2,0,1,0
1537911422757946,0,0,3,-1,0,-2,-4,-3
1537911422757946,3,2,1,1,0,-1,0,1
1537911422779887,-2,-1,-2,0,1,0,0,1
1537911422779887,-2,0,-3,-3,0,-3,-3,-7
1537911422780884,-2,1,1,0,1,-2,-7,-5
1537911422780884,0,-1,-1,-2,0,-1,2,2
1537911422793849,-1,-2,-1,-3,-2,0,-3,-4
1537911422793849,-1,0,-1,1,1,0,-7,-7
1537911422801828,0,1,0,0,-2,1,10,10
1537911422801828,-1,-3,-1,0,-2,-1,-1,-1
1537911422816788,0,1,1,-1,-3,0,-2,-1
1537911422816788,-1,0,0,-1,8,-3,-3,1
1537911422817786,-2,0,0,2,-11,0,-3,-4
1537911422817786,0,-2,-3,-3,1,-2,-1,2
1537911422839727,1,-2,-1,-1,-4,-1,2,2
1537911422839727,-1,-1,-1,-1,-1,1,-9,-5
1537911422840724,-1,1,4,2,4,-2,0,-2
1537911422840724,-1,-1,1,1,-1,0,1,0
1537911422853689,-2,-4,-8,-7,-3,-3,-1,-4
1537911422853689,-2,-2,-2,-4,-3,-1,1,0
1537911422862666,0,-1,-1,-1,0,-4,-2,2
1537911422862666,0,-1,1,-1,-1,13,2,1
1537911422877626,-1,0,-1,0,3,-1,-4,0
1537911422877626,2,0,1,3,-1,-2,5,-1
1537911422877626,0,-4,-5,-4,-2,1,-1,-1
1537911422877626,-1,2,2,2,-2,-4,-1,0
1537911422900564,0,0,-1,-2,0,-1,-3,1
1537911422900564,-1,1,2,4,-19,-1,0,0
1537911422901562,-2,2,1,21,16,-1,-2,-2
1537911422901562,0,2,6,15,12,-4,2,0
1537911422914528,-2,-4,-7,-13,-17,-2,-3,-2
1537911422914528,-2,-4,-1,32,29,0,2,1
1537911422922506,-2,-3,-1,-24,-65,1,0,0
1537911422922506,-3,-8,-19,-89,44,1,-2,-4
1537911422937466,1,3,3,54,-2,-1,-1,0
1537911422937466,0,0,2,-12,-20,-5,1,1
1537911422938464,-1,-1,-4,-3,42,0,-4,-2
1537911422938464,-1,-2,-7,-34,-29,1,0,-3
1537911422959409,-3,-2,2,12,36,3,-4,-6
1537911422959409,1,3,9,38,19,0,19,10
1537911422960405,3,3,9,30,-66,-6,-4,-2
1537911422960405,1,2,-6,-11,53,-3,-5,-5
1537911422974367,0,0,8,-16,-9,3,21,13
1537911422974367,0,-1,-2,19,-19,0,-8,-7
1537911422982346,-4,-3,-5,68,35,1,-2,-1
1537911422982346,-2,-1,-8,13,-85,-7,1,-1
1537911422997306,-3,-3,-5,-102,98,9,-1,-1
1537911422997306,-2,-4,-5,-12,-31,-15,-6,-5
1537911422998303,2,-2,-10,-97,-4,7,7,4
1537911422998303,-1,0,12,16,49,-10,-10,-6
1537911423019247,5,8,10,51,-24,4,4,4
1537911423019247,-2,-2,-2,16,-97,5,0,2
1537911423020244,-7,-11,-18,-64,-49,-7,-12,-10
1537911423020244,-1,-5,-12,-16,9,1,1,0
1537911423043183,-2,-3,-7,-98,-112,-10,1,-3
1537911423043183,5,16,33,94,109,-18,-5,1
1537911423043183,-1,-2,-13,-44,-25,9,3,-1
1537911423043183,-8,-16,-32,-47,9,-2,-10,-6
1537911423057146,2,7,24,89,42,-1,-13,-2
1537911423057146,-2,5,16,25,-67,-1,-7,-9
1537911423058143,-2,-11,-45,-59,94,-1,6,4
1537911423058143,7,17,45,109,57,-4,3,2
1537911423088064,7,15,41,90,-55,-2,1,6
1537911423088064,-19,-46,-98,-128,-77,1,-8,-12
1537911423089063,1,8,31,127,127,-10,-7,-6
1537911423089063,8,10,18,35,-40,11,15,14
1537911423103024,-12,-24,-48,-116,-49,-8,-12,-12
1537911423103024,10,25,68,127,-76,0,8,9
1537911423104022,-1,5,10,44,26,-2,-7,-3
1537911423104022,-3,-11,-42,-67,76,6,-2,0
1537911423116986,2,11,34,127,-35,-10,-2,0
1537911423116986,-3,-7,-29,-112,11,15,-14,-5
1537911423117984,3,9,48,105,-29,-7,8,5
1537911423117984,2,3,9,-25,-11,0,-3,2
1537911423139924,13,29,70,58,-60,6,19,14
1537911423139924,-19,-47,-124,-128,127,15,-2,-8
1537911423140922,5,15,50,104,18,-1,-4,0
1537911423140922,-5,-15,-39,-84,39,14,4,0
1537911423162863,-3,-7,-22,8,-76,-4,-6,-5
1537911423162863,9,28,59,58,111,3,-9,-1
1537911423163860,4,5,5,-95,15,-12,11,5
1537911423163860,-14,-26,-54,-48,5,-2,-5,-6
1537911423176826,-8,-12,-36,-20,96,0,-9,-10
1537911423176826,5,10,30,69,2,-4,-5,-2
1537911423177823,1,-3,-6,39,-31,5,14,9
1537911423177823,1,12,31,127,-75,-4,-4,-4
1537911423201759,3,9,35,79,-68,-9,7,7
1537911423201759,-17,-37,-77,-40,48,-18,-5,-11
1537911423202757,-9,-21,-46,-96,-88,-2,-12,-6
1537911423202757,6,16,47,117,-51,-6,-8,0
1537911423222703,2,6,9,86,127,10,3,0
1537911423222703,-1,-3,-15,-29,-103,-9,0,2
1537911423223701,-6,-13,-22,-93,57,3,-6,-5
1537911423223701,-5,-8,-24,-94,42,-7,-6,-5
1537911423237663,-3,-3,-17,-73,5,0,-3,0
1537911423237663,4,10,46,-15,83,9,7,3
1537911423237663,4,8,14,78,50,8,-4,-2
1537911423237663,2,8,30,74,-106,-17,4,2
1537911423260602,-18,-40,-94,-128,-53,-6,-15,-15
1537911423260602,6,9,21,35,-52,7,19,15
1537911423261600,4,9,22,97,-43,4,-2,1
1537911423261600,2,8,27,62,-35,2,3,3
1537911423282544,-1,2,6,49,38,0,5,1
1537911423282544,9,5,7,19,14,-1,-7,-3
1537911423283542,-4,-6,-14,-39,-48,-3,-1,-1
1537911423283542,-2,-1,1,32,34,-4,-1,-1
1537911423297504,-4,-4,-18,-58,17,-6,-10,-5
1537911423297504,-2,-1,2,-35,-25,1,1,-2
1537911423297504,-6,-12,-37,-114,-58,2,0,-2
1537911423297504,-2,-5,-24,-96,4,2,0,-2
1537911423320442,5,11,31,93,2,-1,1,3
1537911423320442,-6,-9,-16,-59,-23,0,2,0
1537911423321440,4,7,19,82,-14,-1,0,-1
1537911423321440,-1,-3,-10,-58,-1,3,1,1
1537911423343381,2,2,15,74,-76,-4,-4,-3
1537911423343381,-2,-4,-19,-49,-76,-2,-1,0
1537911423343381,-2,1,7,-10,9,1,-1,-1
1537911423343381,-1,1,6,18,15,4,3,-1
1537911423357343,1,0,-1,10,43,3,1,-1
1537911423357343,3,9,29,86,2,-1,0,2
1537911423358341,0,-4,-10,-21,3,0,0,-1
1537911423358341,2,3,9,29,-41,-1,3,2
1537911423380282,-2,-3,-7,-36,42,2,-1,-2
1537911423380282,2,4,18,83,-28,8,8,5
1537911423381279,-2,-6,-9,0,-67,-4,-3,-3
1537911423381279,2,4,24,127,38,-1,0,0
1537911423403220,-6,-11,-32,-102,70,0,-1,-3
1537911423403220,1,4,5,23,54,0,-1,-1
1537911423403220,2,7,10,11,-28,-1,1,-1
1537911423403220,2,4,9,10,-21,1,0,0
1537911423417183,-2,-2,0,3,0,2,2,0
1537911423417183,0,0,2,8,6,-3,-2,0
1537911423418181,-1,0,-3,-20,30,-1,-1,0
1537911423418181,-2,-6,-9,-33,-1,-3,-3,-5
1537911423440122,1,1,3,-9,-4,1,1,0
1537911423440122,-1,1,2,-4,4,-4,-5,-3
1537911423441119,-2,-2,-2,-3,1,-1,-2,-1
1537911423441119,-2,-2,-1,1,-12,-1,-1,0
1537911423470042,0,-4,-8,-37,-14,4,2,2
1537911423470042,-1,4,9,13,-5,-2,1,0
1537911423471040,0,0,0,3,16,-2,-3,-3
1537911423471040,-1,-5,-10,-15,-11,-2,-1,-1
1537911423477024,1,3,5,4,0,-1,1,2
1537911423477024,1,2,2,1,5,-2,-3,-3
1537911423478022,-2,-4,-6,-10,6,-3,0,-1
1537911423478022,-1,2,1,-3,3,-1,-3,-3
1537911423500960,-2,-4,-1,5,-8,-2,-11,-6
1537911423500960,-1,-1,0,-1,1,3,11,0
1537911423500960,1,2,4,13,2,-1,3,1
1537911423500960,0,-2,0,-4,-3,2,11,6
1537911423522902,-1,-2,-2,-1,-2,-14,-8,-4
1537911423522902,-4,4,4,5,-3,-5,4,9
1537911423523900,5,0,0,-3,8,23,-2,-8
1537911423523900,-3,-5,-6,-11,-4,-14,-2,-5
1537911423537863,-3,-4,-3,-4,-4,-11,2,7
1537911423537863,6,0,1,5,4,32,0,-14
1537911423537863,-18,2,4,2,-1,-2,-4,-29
1537911423537863,-11,-4,-2,-4,-1,23,-4,22
1537911423560801,-5,-1,-2,2,-6,-5,1,2
1537911423560801,4,-4,-2,-3,-5,-37,-6,1
1537911423567781,6,0,-5,-2,7,53,16,10
1537911423567781,-12,0,0,-8,-12,-27,-43,-29
1537911423582741,11,9,6,9,8,2,21,2
1537911423582741,-4,-2,-1,0,5,11,-13,0
1537911423584736,-10,-6,-4,-6,-2,-40,5,2
1537911423584736,1,0,2,4,10,11,7,4
1537911423596704,-4,-2,-1,-3,-5,3,1,-4
1537911423596704,-1,-1,-2,0,-7,-20,-6,3
1537911423605679,4,-1,-2,4,-1,-13,-16,0
1537911423605679,4,-1,0,7,1,-2,8,-5
1537911423619642,2,0,-4,-15,-6,0,0,4
1537911423619642,-2,-1,-1,-1,2,16,6,2
1537911423626623,-1,-3,-3,-8,-4,-24,-9,6
1537911423626623,7,6,11,27,11,11,-5,-6
1537911423642581,-2,-4,-5,5,1,17,30,1
1537911423642581,-4,-3,-7,-34,-17,-17,8,4
1537911423644575,-1,-2,2,27,-1,-24,-4,-2
1537911423644575,2,-2,-14,-69,-9,-12,3,-1
1537911423656543,-2,-1,-3,-20,-2,16,-21,-4
1537911423656543,1,1,4,15,4,13,9,1
1537911423665520,2,0,2,2,8,19,9,-2
1537911423665520,2,3,6,32,4,-3,3,3
1537911423679482,-2,-2,0,14,-2,-6,-3,1
1537911423679482,1,-1,-2,-2,5,-2,-2,-3
1537911423686464,-2,-1,0,-2,-2,-1,-10,-3
1537911423686464,0,-1,-1,3,-1,3,5,3
1537911423703419,-2,0,-3,-5,-1,0,-2,-1
1537911423703419,-1,1,1,10,-3,24,-12,-10
1537911423704417,2,-1,1,-2,9,-8,-2,3
1537911423704417,0,-3,-1,-1,-3,14,-3,-6
1537911423716385,1,-4,-6,-3,-17,-26,15,7
1537911423716385,-1,-2,3,39,32,8,10,5
1537911423725362,-2,-4,-12,-74,-27,4,-7,2
1537911423725362,-1,0,2,3,4,-8,-3,-4
1537911423740321,-6,0,0,-2,-8,0,-1,-7
1537911423740321,7,1,2,9,1,56,-7,1
1537911423742315,0,0,-1,14,8,-5,0,1
1537911423742315,2,-1,-4,-8,-2,9,9,4
1537911423763259,-1,1,5,4,1,-21,-12,-4
1537911423763259,-6,0,0,6,-6,-11,-2,-6
1537911423764257,1,1,1,-3,1,16,6,-2
1537911423764257,-1,2,1,31,10,-22,4,2
1537911423776224,-4,-6,-13,-69,-33,10,-17,-5
1537911423776224,-1,-2,-6,-16,18,-20,-2,-5
1537911423785200,0,-1,-2,2,1,3,6,2
1537911423785200,-1,-1,1,16,3,-13,-5,-2
1537911423800160,2,1,3,21,0,-2,0,-2
1537911423800160,-2,-2,-2,-11,-7,-12,-5,-2
1537911423806143,-2,-1,2,19,1,-7,-19,-9
1537911423806143,-1,-2,-3,-5,-12,-2,14,9
1537911423823098,0,-1,-4,-21,15,-1,-4,-5
1537911423823098,-3,1,0,-15,-15,-22,0,0
1537911423824096,1,0,1,12,6,16,-1,1
1537911423824096,-3,-3,-2,-7,-9,-3,-6,-6
1537911423836063,1,1,4,19,9,-7,-4,0
1537911423836063,-2,-1,-1,6,-4,-15,-3,-1
1537911423845039,-1,-1,0,0,-2,-20,4,1
1537911423845039,0,0,-1,-8,-3,-19,-5,-3
1537911423860000,-1,0,1,15,4,67,4,0
1537911423860000,-2,0,0,-9,-3,-10,1,0
1537911423866981,-1,-3,-2,2,-12,1,-7,-1
1537911423866981,0,-2,-1,-9,8,13,7,0
1537911423882939,-3,0,1,15,7,-15,-1,-4
1537911423882939,-1,-1,-1,7,-2,2,-1,2
1537911423883937,1,1,0,10,-4,2,2,3
1537911423883937,-2,1,-2,-29,-12,5,3,0
1537911423896902,0,-3,-3,14,7,-7,0,0
1537911423896902,0,-1,-5,-44,-17,4,0,-1
1537911423905879,0,2,3,-1,2,-5,0,-1
1537911423905879,1,2,2,11,4,3,0,-1
1537911423919841,-1,-3,0,14,5,-5,-5,-3
1537911423919841,-2,2,6,17,-6,0,-6,-3
1537911423926823,2,-6,-4,28,14,-7,10,2
1537911423926823,-2,-1,-6,-44,-32,2,12,10
1537911423942779,-1,3,6,39,31,1,-3,-1
1537911423942779,-7,-10,-18,-35,-5,-9,-5,-6
1537911423944776,-1,5,9,-25,-24,-3,-3,0
1537911423944776,3,6,22,90,12,15,-5,-2
1537911423956743,-4,-10,-20,-52,-18,-19,-6,-7
1537911423956743,1,-9,-29,-60,34,1,5,5
1537911423965718,-2,-3,9,72,-21,26,-7,-8
1537911423965718,-1,-3,-15,5,16,-10,-4,-1
1537911423987658,6,13,28,-36,-84,-14,9,8
1537911423987658,-5,-4,10,48,95,10,-7,-6
1537911423989653,0,-2,-14,-50,-34,1,3,4
1537911423989653,-7,-14,-35,-91,-94,-29,-16,-6
1537911424002618,-3,-6,-17,-48,61,31,24,-1
1537911424002618,11,32,90,82,60,25,-3,1
1537911424004614,-4,-17,-86,-106,-88,-69,-2,4
1537911424004614,-3,-2,29,89,42,44,1,-2
1537911424025557,-8,-12,-41,-71,-62,-33,-37,-11
1537911424025557,-10,-19,-34,-78,-21,25,25,2
1537911424026555,-6,-2,17,3,-7,-8,-11,-11
1537911424026555,7,9,7,54,109,22,10,5
1537911424039520,-6,-15,-26,-70,-45,-45,-22,-10
1537911424039520,3,10,33,127,-100,-56,4,4
1537911424046501,-3,0,2,25,-20,65,-18,-4
1537911424046501,-1,10,28,58,-40,-21,-6,-4
1537911424062459,6,4,-3,71,62,7,-10,-11
1537911424062459,-3,-14,-53,-128,-79,-31,-16,-4
1537911424064454,-1,-7,-15,-35,118,-13,11,1
1537911424064454,20,51,94,75,44,65,55,27
1537911424085398,-13,-30,-60,-46,127,-5,-9,-6
1537911424085398,5,6,25,119,0,15,-7,-5
1537911424087393,12,35,89,113,-18,-35,4,9
1537911424087393,-16,-36,-89,-128,90,-1,-29,-16
1537911424099362,-4,-5,-26,-50,35,-44,7,3
1537911424099362,-1,-10,-31,34,6,62,10,4
1537911424108337,6,15,48,116,-3,18,16,3
1537911424108337,-6,-5,-10,-74,-92,-65,-11,-6
1537911424123297,8,10,29,37,-92,54,15,8
1537911424123297,6,22,52,90,122,-12,-25,-9
1537911424124295,-19,-43,-94,-96,6,-43,-20,-12
1537911424124295,0,-3,-3,-6,15,27,1,-1
1537911424145237,-3,2,23,105,-74,-17,-10,-1
1537911424145237,1,-2,-26,-90,32,11,2,0
1537911424147233,7,18,40,116,13,9,8,3
1537911424147233,-3,-10,-17,-42,-74,8,-5,-1
1537911424159200,2,13,29,74,-13,34,-3,1
1537911424159200,-11,-16,-61,-83,-40,-60,-11,-2
1537911424168176,0,-3,-12,18,20,12,1,-1
1537911424168176,-2,-22,-28,4,5,-17,-12,-6
1537911424184134,6,19,31,-9,117,3,-11,0
1537911424184134,8,22,56,87,-62,-38,17,7
1537911424186128,-12,-19,-32,-69,-57,17,-7,-6
1537911424186128,-11,-23,-68,-80,-28,-23,-21,-15
1537911424205077,8,10,23,105,-14,30,26,10
1537911424205077,-4,-9,-20,-75,-108,7,-10,-4
1537911424207072,4,13,30,33,35,-7,6,3
1537911424207072,6,16,42,48,35,-7,4,3
1537911424219040,-2,-3,-2,66,-38,-4,3,-1
1537911424219040,2,1,12,113,-33,-12,-23,-4
1537911424228016,1,3,-6,-46,114,-2,-8,-4
1537911424228016,-5,-14,-24,-63,-105,28,5,0
1537911424242976,-1,-3,7,53,23,-2,12,3
1537911424242976,2,12,45,113,23,0,-4,-1
1537911424243974,-2,-7,-29,-128,-6,53,19,7
1537911424243974,2,9,22,25,61,14,6,3
1537911424265915,-4,6,16,74,44,-14,-5,-2
1537911424265915,10,16,63,8,58,52,26,12
1537911424266913,3,-3,12,81,3,10,15,-1
1537911424266913,-13,-24,-67,-74,127,-41,-17,-14
1537911424278881,2,-4,-5,-70,-76,40,15,7
1537911424278881,2,3,-2,70,-5,-23,-6,-2
1537911424287857,1,2,13,-12,30,-9,12,6
1537911424287857,5,18,50,127,-16,11,2,5
1537911424302817,-7,-4,-6,-59,4,-1,-10,-8
1537911424302817,0,-20,-52,-84,0,-33,-6,2
1537911424304812,-5,-8,-5,45,5,11,-8,-7
1537911424304812,1,8,23,63,40,-49,-3,-1
1537911424324759,-2,-2,-7,-43,-32,38,-1,0
1537911424324759,-7,-14,-50,-86,-8,37,8,-1
1537911424331740,-1,-3,-8,60,-4,3,13,7
1537911424331740,1,3,6,70,-4,-28,-7,-1
1537911424338721,6,7,22,40,27,-22,0,1
1537911424338721,2,3,10,41,11,33,6,1
1537911424347698,6,19,39,81,24,-36,-28,-6
1537911424347698,-11,-23,-62,-76,-76,-75,-15,-9
1537911424362659,10,20,86,122,-32,43,16,10
1537911424362659,-8,-20,-44,-75,-93,-9,5,-4
1537911424364655,-6,-6,-9,45,0,-11,-8,-3
1537911424364655,8,15,45,44,-28,8,-4,2
1537911424385596,2,4,0,25,31,-34,10,5
1537911424385596,-2,-3,-4,5,86,-16,-6,-4
1537911424386593,3,2,2,-9,-5,1,1,2
1537911424386593,0,6,11,-19,4,0,-8,-4
1537911424399558,-5,-13,-35,-78,50,1,19,-1
1537911424399558,-1,5,27,127,13,9,-8,-6
1537911424406538,-5,-11,-40,-128,-54,-54,22,7
1537911424406538,1,2,13,54,-25,80,14,3
1537911424422496,-10,-25,-78,-112,-91,-42,-10,-6
1537911424422496,-3,3,11,14,-8,42,7,-2
1537911424424491,6,14,43,125,-19,-46,-13,-3
1537911424424491,-3,-4,-3,-71,90,-4,10,4
1537911424445434,-4,-10,-22,-21,-1,-15,-19,-5
1537911424445434,-2,-4,-15,-21,0,-12,-1,1
1537911424446432,0,-3,-1,4,-12,-4,-4,-6
1537911424446432,0,-1,-7,-34,52,79,18,9
1537911424459397,2,1,7,16,-14,-13,-23,-6
1537911424459397,-6,-3,-7,-19,-8,-88,-11,-4
1537911424466379,4,11,19,-19,50,83,-6,2
1537911424466379,1,2,4,29,-128,-44,-16,-5
1537911424483333,-6,-13,-23,-71,11,33,3,2
1537911424483333,2,6,19,67,2,18,21,3
1537911424484331,0,3,18,50,17,-32,-18,-5
1537911424484331,-2,-3,-7,-11,-42,1,-11,-4
1537911424505275,-3,-8,-20,-87,-89,-14,-8,-4
1537911424505275,0,0,-9,-3,25,0,-5,-3
1537911424507270,-5,-10,-23,-68,-23,-30,6,0
1537911424507270,0,-4,2,64,-35,2,0,-3
1537911424519238,-1,9,15,54,39,-7,-10,-4
1537911424519238,-1,1,11,20,-56,-13,1,4
1537911424528216,-3,-5,-17,-38,9,22,-1,-5
1537911424528216,-1,2,13,62,-13,-28,5,3
1537911424544172,2,3,10,2,8,-1,0,1
1537911424544172,-1,-1,-4,-32,13,-1,-2,-1
1537911424550156,-1,-1,-2,4,0,8,-3,-1
1537911424550156,0,1,0,3,29,17,-1,-2
1537911424558134,1,7,17,75,7,-7,2,0
1537911424558134,-3,-10,-17,-58,23,14,4,3
1537911424566114,-2,-3,-9,-36,-12,19,20,-1
1537911424566114,-1,1,1,-7,19,11,3,-2
1537911424572099,-1,1,6,30,23,-1,1,-1
1537911424572099,-2,-5,-18,-30,14,-1,-3,-3
1537911424580094,-1,-1,-2,-4,-4,2,-8,-3
1537911424580094,2,-1,1,9,16,-4,8,7
1537911424594038,2,5,10,14,16,0,9,4
1537911424594038,0,0,0,-14,13,-4,-5,-1
1537911424603014,-1,-4,-4,-2,-10,11,0,2
1537911424603014,-2,-1,3,-14,12,0,2,-2
1537911424616976,1,0,1,15,9,-1,-10,-11
1537911424616976,-3,3,2,-14,10,15,12,13
1537911424625952,2,-8,-10,-8,0,7,-15,-46
1537911424625952,33,9,3,0,5,5,11,28
1537911424631936,-8,-2,-2,5,2,7,-10,22
1537911424631936,-56,-24,-3,-11,10,0,10,-21
1537911424640912,-5,4,-3,-7,-3,14,-13,-2
1537911424640912,-12,-5,1,-2,7,32,-8,15
1537911424653877,51,21,1,4,-6,-21,-8,-11
1537911424653877,-33,-2,0,-12,9,8,-10,8
1537911424662854,-51,-18,-7,-4,-3,6,-12,-68
1537911424662854,50,9,3,0,3,-73,6,51
1537911424676816,-41,-15,-5,-2,4,22,-32,-55
1537911424676816,36,15,1,-6,9,70,18,27
1537911424685792,-4,2,5,2,-3,-106,-8,-5
1537911424685792,-16,0,-1,-4,0,9,-3,-3
1537911424691776,15,7,3,7,-1,-112,18,33
1537911424691776,-3,-4,-4,-6,-3,19,-14,-16
1537911424700752,10,4,2,0,-5,7,5,36
1537911424700752,-2,-6,-3,-6,5,6,2,-26
1537911424713718,-7,-3,3,2,3,42,29,5
1537911424713718,9,-3,-3,-9,-6,-118,11,4
1537911424722694,18,6,4,4,8,31,1,40
1537911424722694,-11,1,1,1,0,-9,-7,-35
1537911424736656,-7,-2,8,3,2,13,-5,-12
1537911424736656,11,2,-2,-6,-2,7,-16,2
1537911424745632,0,-2,-2,0,3,64,4,1
1537911424745632,-11,-4,-3,1,4,62,6,-5
1537911424751616,-4,-6,-10,-4,0,-67,-8,3
1537911424751616,4,1,-2,0,-1,-5,-13,-5
1537911424760592,0,-4,-1,1,-5,2,-10,4
1537911424760592,-7,1,-1,-2,-3,-3,5,-16
1537911424774555,1,-5,-7,-19,2,102,14,18
1537911424774555,5,4,13,87,-1,-24,-17,-15
1537911424782534,2,0,-13,-86,-22,-55,4,1
1537911424782534,-10,-12,-24,-57,-18,-53,-15,-2
1537911424796496,-4,0,1,2,-1,-20,13,0
1537911424796496,3,2,-2,-6,5,-9,7,2
1537911424805472,9,2,8,57,6,40,-5,7
1537911424805472,1,4,9,24,9,-29,34,1
1537911424811456,-5,-4,-4,-7,-5,-40,-8,-5
1537911424811456,3,-2,-4,-11,0,10,1,-8
1537911424820432,1,5,6,11,5,-12,14,15
1537911424820432,-8,-1,-2,-9,3,35,-9,-10
1537911424834395,-1,-2,0,13,3,-4,-11,-6
1537911424834395,4,1,1,-14,0,11,13,7
1537911424843371,-2,-2,-3,-5,2,-4,-2,0
1537911424843371,-5,-1,1,6,0,7,-10,-3
1537911424856336,-1,1,-2,7,-2,10,-1,2
1537911424856336,0,-3,-7,-20,-6,-29,-3,-3
1537911424865312,1,-5,-5,-3,1,26,3,4
1537911424865312,-2,-1,5,7,-3,-10,-9,-5
1537911424871296,1,2,7,7,4,8,5,2
1537911424871296,0,0,-2,-20,-2,19,0,-5
1537911424880272,-1,-4,-7,7,3,6,2,-1
1537911424880272,-1,1,6,31,-1,-28,-9,0
1537911424894235,-1,1,-1,-21,-12,38,-2,-2
1537911424894235,0,-3,-9,-17,15,2,-10,-4
1537911424903211,-1,-2,-3,-16,-6,-9,0,1
1537911424903211,-4,-3,1,11,11,10,4,0
1537911424916176,-1,-3,-6,-29,-24,-57,-3,1
1537911424916176,2,1,2,1,-3,31,4,0
1537911424925152,1,1,-1,8,4,-35,2,2
1537911424925152,-2,-3,-4,5,2,3,-2,-3
1537911424940112,1,1,4,19,11,1,-5,-1
1537911424940112,0,-2,-2,-3,-4,8,1,2
1537911424942107,1,0,1,3,0,-7,0,-2
1537911424942107,-2,0,-1,-7,-4,18,-2,-1
1537911424954075,-2,0,3,12,6,45,3,-1
1537911424954075,-1,-2,-2,-8,-3,1,-3,-1
1537911424963051,-1,1,3,9,-1,7,5,0
1537911424963051,-1,-1,-3,-6,-4,-3,-6,-1
1537911424977014,-2,-3,-5,-2,2,14,4,2
1537911424977014,-1,0,1,1,-3,-7,-3,-2
1537911424984992,0,-2,-2,0,2,-5,-1,-2
1537911424984992,-3,1,0,-6,-2,-2,0,0
1537911424991973,-1,0,1,4,3,5,1,0
1537911424991973,-1,-1,-2,-1,-3,-11,-2,-2
1537911425000950,-1,0,0,1,-1,0,0,-1
1537911425000950,-1,-3,-3,-7,-3,-3,-2,-1
1537911425013915,1,-2,0,6,1,-5,2,-1
1537911425013915,1,0,1,1,-2,-6,-2,1
1537911425022891,-1,0,-1,-1,0,3,0,1
1537911425022891,1,-1,-3,-3,-1,1,0,-1
1537911425036853,-2,-1,0,2,2,-7,-3,-1
1537911425036853,0,-3,0,-4,0,4,0,0
1537911425045830,0,-2,-1,1,0,-1,-1,0
1537911425045830,-2,-2,-3,-4,-3,-5,-1,-1
1537911425051813,0,2,2,3,0,-3,-2,-2
1537911425051813,1,-1,-3,-4,-1,0,0,-2
1537911425060789,-1,0,1,2,-1,1,3,1
1537911425060789,1,1,0,-1,-1,-2,-3,-2
1537911425073755,-2,-2,-4,-3,0,4,2,1
1537911425073755,-2,0,0,1,-1,1,1,-1
1537911425082731,0,-1,-1,0,-1,-1,-1,-2
1537911425082731,0,-2,0,-1,0,3,0,0
1537911425097691,-1,-2,-4,-1,-1,-3,-2,-3
1537911425097691,-1,-1,0,1,-2,1,2,1
1537911425112651,0,2,3,2,-1,-3,-4,-1
1537911425112651,-4,-2,-2,-4,0,1,-2,-3
1537911425112651,-1,0,-1,-1,2,0,0,-1
1537911425112651,-1,1,1,-2,-2,-3,-4,-4
1537911425120630,0,-2,-2,-2,-1,1,4,0
1537911425120630,2,1,6,10,-1,-1,0,0
1537911425133595,-1,-4,-1,24,13,-3,0,0
1537911425133595,0,0,-1,-12,-16,10,1,1
1537911425142571,-2,-2,0,53,29,0,-1,-2
1537911425142571,1,10,22,47,-40,-16,-7,-2
1537911425157531,4,6,8,39,77,8,10,8
1537911425157531,-2,-6,-2,-58,-67,34,9,2
1537911425164515,0,-2,-3,52,15,-55,-9,-2
1537911425164515,-1,-2,-7,-12,50,-11,7,0
1537911425180470,1,0,4,27,2,18,-23,-6
1537911425180470,-1,-11,-38,-110,18,-3,5,4
1537911425181467,-7,-21,-52,-128,-30,-4,-1,-2
1537911425181467,6,14,43,113,40,-8,-13,-6
1537911425194432,2,-3,-16,-126,72,-16,9,3
1537911425194432,1,11,42,127,-73,-25,-16,-5
1537911425203408,0,1,4,-80,12,14,20,5
1537911425203408,-5,-7,-7,69,46,-36,-19,-7
1537911425217371,-4,-7,-24,-118,-126,5,1,-3
1537911425217371,-4,-6,-26,0,70,-14,-3,-6
1537911425224354,-2,14,43,111,-20,35,4,4
1537911425224354,2,6,21,23,85,26,-4,-2
1537911425240310,5,2,-12,18,-11,13,13,5
1537911425240310,-12,-20,-24,22,46,12,1,-9
1537911425242304,2,16,61,127,45,11,-11,-2
1537911425242304,0,-30,-99,-114,-19,3,9,2
1537911425254272,-4,-3,9,102,75,-88,11,-1
1537911425254272,5,5,2,-6,-39,-53,-2,1
1537911425263248,-1,-1,-11,24,-5,-36,9,1
1537911425263248,3,16,53,53,16,51,0,6
1537911425277211,-4,-9,-23,-96,43,24,-12,-6
1537911425277211,2,3,1,-4,-3,-5,30,5
1537911425284193,2,0,1,-14,5,-53,-20,-4
1537911425284193,0,1,1,-35,-61,-43,8,0
1537911425300150,2,6,28,127,-75,73,-8,-3
1537911425300150,0,1,9,11,-64,38,-5,3
1537911425302144,1,-6,-15,-61,-42,20,3,-3
1537911425302144,-4,-10,-15,-52,-33,26,8,1
1537911425314112,-3,0,15,64,-14,-7,-6,-3
1537911425314112,2,8,14,-12,59,-28,-13,1
1537911425323088,-1,-5,-9,-9,27,51,-4,-2
1537911425323088,-6,-7,-20,-57,-55,-11,-3,-3
1537911425337051,-2,4,16,29,24,0,1,-1
1537911425337051,1,4,10,11,31,-17,-16,-1
1537911425344032,2,2,0,68,-48,-8,0,0
1537911425344032,-3,0,-3,-45,29,30,9,-1
1537911425359990,0,3,28,92,-66,25,0,2
1537911425359990,-3,-11,-39,-104,12,-8,-9,-6
1537911425361984,0,0,-3,-27,-20,7,2,-1
1537911425361984,1,2,7,41,-4,-8,2,1
1537911425373952,0,-1,-4,-28,-10,-11,1,-1
1537911425373952,2,5,20,67,-27,-8,-3,-2
1537911425382929,-1,-1,-2,-17,47,-5,-3,-1
1537911425382929,-1,2,1,-21,-17,-27,-7,0
1537911425396891,-3,-7,-13,-35,-4,-18,-8,-6
1537911425396891,-1,-1,10,53,45,8,14,4
1537911425403872,-2,-7,-16,-51,-31,3,2,-3
1537911425403872,1,0,-1,-6,5,13,18,3
1537911425420827,0,2,-2,-34,-4,-9,-5,-1
1537911425420827,1,4,14,39,24,8,2,0
1537911425421825,0,-2,-2,4,-6,7,1,1
1537911425421825,-3,-2,1,8,-12,-1,-2,-1
1537911425441771,0,1,-1,5,13,1,1,0
1537911425441771,1,3,16,83,8,-23,2,1
1537911425450747,-3,-10,-27,-87,-24,33,-2,-2
1537911425450747,-1,-3,3,57,5,-12,-10,-5
1537911425465707,0,-6,-25,-66,-21,12,8,1
1537911425465707,-2,-2,-4,-22,3,-10,-9,-4
1537911425466705,1,5,11,29,3,-9,-2,-1
1537911425466705,-2,0,-1,-9,-6,-10,-4,-1
1537911425487649,-1,-2,-1,7,3,-2,-1,1
1537911425487649,0,0,0,-17,-7,16,4,0
1537911425489643,-1,0,3,16,9,-13,-3,-4
1537911425489643,-1,-2,-5,-12,-7,13,3,0
1537911425501611,-1,-1,5,53,6,-12,-1,-1
1537911425501611,-3,-7,-9,-59,0,34,1,-1
1537911425510587,-2,-5,-10,-60,-3,-21,-17,-5
1537911425510587,0,3,7,37,-59,-3,9,-1
1537911425525547,-2,-4,-8,-80,13,-31,-3,-1
1537911425525547,-2,-3,-4,-4,-6,22,-3,-2
1537911425526544,-1,2,3,33,4,-19,-4,0
1537911425526544,-2,-2,-2,-30,10,-3,-9,-3
1537911425547489,-2,0,2,31,-10,-13,0,-2
1537911425547489,0,0,-7,-14,-11,-9,-1,0
1537911425549484,0,3,9,13,19,2,6,2
1537911425549484,-5,-9,-15,-8,-1,-5,-5,-4
1537911425561451,0,0,3,-1,0,5,1,-1
1537911425561451,2,0,-1,-9,7,-4,-1,0
1537911425570427,-2,-1,1,23,-5,15,3,-1
1537911425570427,1,4,5,4,5,-34,0,1
1537911425585387,1,0,5,5,-5,69,3,2
1537911425585387,-3,-3,-5,24,-30,0,-1,1
1537911425586385,-3,-5,-11,-43,19,-4,-3,-2
1537911425586385,0,-1,-1,-9,0,11,1,-1
1537911425608326,-2,-1,-7,-22,7,-11,1,-4
1537911425608326,0,4,4,4,-4,-2,-3,0
1537911425609323,0,0,0,30,-2,8,9,3
1537911425609323,0,-3,-3,-1,8,2,-4,-1
1537911425621291,-1,-1,0,-5,-2,-6,-3,-2
1537911425621291,-1,0,0,4,5,9,2,-1
1537911425630267,0,0,2,17,-4,-3,-1,-1
1537911425630267,-1,3,0,-15,8,-4,-8,0
1537911425645228,0,-1,2,7,-8,-14,-1,2
1537911425645228,-2,-1,-2,-7,0,0,0,-1
1537911425647222,0,0,-3,1,3,-1,-1,0
1537911425647222,1,1,0,0,-7,18,-1,-2
1537911425668166,-1,1,0,-1,1,9,-3,-2
1537911425668166,1,-1,1,-9,4,17,0,0
1537911425669164,-1,-2,-1,3,-5,13,-3,-2
1537911425669164,-1,0,0,3,5,4,5,1
1537911425690107,0,-1,-3,-4,0,2,-5,-5
1537911425690107,0,2,4,-4,3,-6,2,-3
1537911425692102,-1,-3,-1,6,-6,-12,-1,1
1537911425692102,-1,0,-5,-4,-2,-8,1,3
1537911425705067,-1,-3,-4,-5,0,-18,1,0
1537911425705067,-14,-4,-3,-6,-8,-37,-6,-25
1537911425707062,3,4,6,12,4,2,-2,0
1537911425707062,12,0,-1,-4,4,11,20,53
1537911425728006,-14,-2,1,-1,-4,-59,-3,-18
1537911425728006,1,3,2,3,7,77,-5,-46
1537911425729003,-6,-3,-3,-1,-4,-31,-12,-7
1537911425729003,6,-1,-5,-5,-2,-23,-2,-10
1537911425749947,4,2,0,1,-2,-6,-11,19
1537911425749947,1,1,-2,-1,2,39,45,26
1537911425751942,-6,-3,-4,-2,1,12,-2,-12
1537911425751942,-3,0,4,4,-2,-26,-27,-2
1537911425764907,6,3,5,4,7,45,37,9
1537911425764907,-1,-7,-9,-10,-2,9,-13,4
1537911425771889,0,0,-3,-1,-5,-15,-2,3
1537911425771889,-6,-4,-4,1,4,26,-2,-10
1537911425787846,1,-1,-2,2,2,8,-9,-7
1537911425787846,2,0,1,-7,-2,5,4,11
1537911425788843,2,0,1,2,-7,-48,-3,6
1537911425788843,-3,1,4,2,-1,-35,4,-9
1537911425810785,-1,1,3,18,10,4,-15,-4
1537911425810785,1,0,-3,-8,14,53,19,13
1537911425811782,1,0,4,24,-9,63,-10,-2
1537911425811782,-4,-8,-11,-72,-14,-14,3,-8
1537911425823750,0,-5,-9,-20,-3,-4,2,0
1537911425823750,0,0,1,3,-5,-88,-18,4
1537911425832726,-1,3,4,12,11,19,4,-3
1537911425832726,-1,4,6,38,7,22,-24,-7
1537911425847686,-3,-2,-3,-4,-14,-7,0,1
1537911425847686,-1,-4,-4,1,4,-13,-20,-1
1537911425849681,2,1,0,-9,-3,-26,6,0
1537911425849681,-2,1,2,9,4,29,0,-4
1537911425870625,-1,1,0,-6,0,-33,-9,-1
1537911425870625,-2,-1,-2,8,-5,-30,-2,-1
1537911425871622,1,0,-1,-10,-2,19,9,4
1537911425871622,-3,-1,-1,-2,-1,1,3,-3
1537911425883590,-2,-3,-1,-4,1,-14,-5,-4
1537911425883590,0,3,3,6,-2,-7,0,1
1537911425892566,1,-2,1,-8,1,30,7,3
1537911425892566,-2,-3,-3,-3,-2,-20,2,-5
1537911425907526,-1,1,0,3,-3,15,2,0
1537911425907526,1,0,4,0,-2,-10,-4,1
1537911425909521,-2,-3,-4,-3,4,-23,-2,-1
1537911425909521,-2,3,3,9,-3,8,2,-3
1537911425930465,1,0,3,25,-10,-6,0,0
1537911425930465,-1,-2,-7,-26,8,5,-8,0
1537911425931462,-4,-2,0,-25,-4,-6,29,1
1537911425931462,-2,-4,-12,-16,-6,0,-1,-3
1537911425944428,1,1,-2,0,-10,-5,-5,-3
1537911425944428,1,5,5,9,2,-6,2,1
1537911425951409,-2,-3,-1,16,2,-7,-5,-1
1537911425951409,1,2,6,6,5,7,2,1
1537911425968364,0,-1,0,0,0,-19,0,0
1537911425968364,-1,-3,-3,5,-5,-2,-2,-3
1537911425969361,0,1,0,-5,-1,3,-1,0
1537911425969361,-3,0,0,5,-2,1,-1,-2
1537911425990305,-2,-1,-3,-10,3,1,-5,-2
1537911425990305,1,-3,-1,-3,-3,-7,0,0
1537911425992300,-1,-1,0,-1,-1,-6,-6,1
1537911425992300,-2,-1,1,2,-3,-7,2,-3
1537911426004268,1,2,1,-5,3,10,4,1
1537911426004268,-1,-1,-1,-5,-6,-3,-1,1
1537911426013244,1,-2,-2,2,-2,-9,-7,-3
1537911426013244,1,3,3,6,3,23,-1,-3
1537911426028204,-1,-4,-6,-8,3,10,2,-1
1537911426028204,-2,-2,-1,0,-5,-5,0,0
1537911426029201,-2,1,2,1,1,-1,-7,-1
1537911426029201,-1,-2,-2,0,1,-3,0,-1
1537911426050145,0,1,2,-1,0,6,-1,-1
1537911426050145,-2,-5,-3,-1,-5,-5,0,1
1537911426052140,-1,-1,-3,1,0,-2,-2,0
1537911426052140,-1,0,0,-2,-1,0,1,1
1537911426064107,-1,-1,-1,-2,0,5,-1,-1
1537911426064107,1,2,0,3,-1,-9,-1,0
1537911426073084,0,0,-2,-3,-1,-1,-3,-1
1537911426073084,-2,-1,-1,1,-1,-1,0,1
1537911426088043,-2,0,0,-3,2,2,-1,0
1537911426088043,0,1,1,4,-1,5,-3,-3
1537911426089041,-1,0,-3,-1,-2,1,2,-2
1537911426089041,0,-3,0,0,-1,-3,-1,0
1537911426109985,-2,-2,-2,-4,-1,-2,0,-5
1537911426109985,-3,-1,2,-3,-1,-6,-4,-1
1537911426111979,1,4,5,40,12,-4,-4,-1
1537911426111979,3,2,5,12,2,1,8,5
1537911426123948,-3,2,5,44,-8,-10,-8,-8
1537911426123948,3,1,-10,-41,-34,4,10,9
1537911426132924,-8,-20,-34,-97,-17,-11,-6,-6
1537911426132924,0,6,21,107,41,-12,-6,-4
1537911426147883,-2,-9,-17,-84,-11,2,3,4
1537911426147883,-3,-9,-27,-73,-6,3,1,-2
1537911426148881,4,12,30,110,-4,-4,0,4
1537911426148881,-4,-6,-13,-60,21,-1,0,-3
1537911426170822,5,7,12,-1,-43,3,6,4
1537911426170822,-1,3,13,40,-31,-8,-8,-4
1537911426171820,0,6,17,64,84,13,2,4
1537911426171820,2,-3,-7,-56,-93,-2,-2,-2
1537911426183788,-6,-13,-28,-84,39,1,-2,-3
1537911426183788,3,9,36,81,54,3,0,0
1537911426192763,-2,-10,-31,-69,-83,7,3,-1
1537911426192763,-4,-3,4,-34,-60,-5,-6,-5
1537911426207724,-1,-3,0,30,-61,11,0,1
1537911426207724,1,2,12,10,27,13,3,2
1537911426209718,1,8,28,127,50,3,2,-4
1537911426209718,-2,-4,-28,-10,65,13,4,1
1537911426230662,4,8,10,27,-128,0,4,2
1537911426230662,-12,-23,-48,-45,127,-6,-9,-8
1537911426231660,2,1,11,26,30,-9,-4,-1
1537911426231660,0,-2,-1,57,6,-6,0,0
1537911426243627,-1,5,25,127,126,-15,-6,-4
1537911426243627,2,7,3,-33,-38,-9,-1,-2
1537911426252604,-7,-19,-44,-128,93,-2,-5,-4
1537911426252604,-3,-9,-16,-52,53,-8,-2,-3
1537911426267564,2,6,19,-37,-43,1,-2,1
1537911426267564,1,3,9,6,32,-2,1,1
1537911426269558,0,1,1,-31,26,-4,-2,0
1537911426269558,8,21,63,121,33,-3,-4,3
1537911426290502,-9,-17,-52,-76,68,3,2,-3
1537911426290502,-7,-18,-42,-94,-75,-6,-4,-5
1537911426291500,-2,2,3,40,-77,1,0,0
1537911426291500,-1,-1,-1,37,-5,-2,-4,-3
1537911426304465,1,5,11,6,-6,2,0,0
1537911426304465,-1,1,6,24,-46,-3,-1,0
1537911426312443,0,-4,-2,-6,9,-1,-1,-2
1537911426312443,-2,-2,-6,-7,-27,4,3,2
1537911426327404,-2,-3,2,-6,9,-2,-2,-2
1537911426327404,0,0,3,-17,16,-6,-4,-3
1537911426329398,2,5,9,43,-38,1,1,4
1537911426329398,-5,-9,-15,-59,16,-2,-3,-3
1537911426350342,-3,-7,-25,-100,-30,3,0,-3
1537911426350342,2,6,13,55,-35,-3,-1,0
1537911426351340,1,3,4,2,-37,0,1,-1
1537911426351340,-1,-5,-15,-60,-3,-2,1,0
1537911426364305,-1,3,7,46,52,-2,-3,-2
1537911426364305,0,0,-1,-13,29,2,1,1
1537911426373281,0,-1,-4,-15,14,0,-2,-1
1537911426373281,1,0,12,41,-35,5,2,1
1537911426388241,4,4,14,17,21,-2,-1,-1
1537911426388241,0,2,5,28,15,3,3,3
1537911426394225,-4,-8,-15,-70,-50,-3,-1,-2
1537911426394225,-2,-3,-14,-51,-44,0,-1,-2
1537911426410182,2,5,12,58,66,6,4,2
1537911426410182,-1,-1,8,39,-19,-3,-2,-2
1537911426412177,0,0,-2,-2,5,-2,-3,-2
1537911426412177,0,2,3,3,9,1,1,0
1537911426424145,1,0,1,16,-31,-3,1,0
1537911426424145,-1,2,4,22,2,1,0,0
1537911426433122,0,4,6,14,4,-1,-2,-1
1537911426433122,1,-1,-3,4,6,-1,-1,1
1537911426448081,0,4,8,40,-30,-4,0,1
1537911426448081,-4,-6,-5,-54,46,1,-3,-5
1537911426449079,0,-1,-1,7,-13,2,0,-2
1537911426449079,-1,2,5,47,2,-1,-2,-3
1537911426470023,-2,-4,-13,-59,19,-2,-2,-1
1537911426470023,3,4,9,49,3,-2,-2,2
1537911426472018,0,0,1,-15,-31,2,3,2
1537911426472018,-3,-4,-2,-1,13,0,-1,-2
1537911426483985,-1,-3,0,-9,-19,-3,-3,-1
1537911426483985,0,2,3,35,-75,-3,-2,-2
1537911426492961,-1,1,8,5,65,1,1,0
1537911426492961,-4,-6,-15,3,1,-2,-2,-3
1537911426507922,-2,-2,-2,-14,23,-1,-2,-2
1537911426507922,1,3,4,33,-31,-3,-1,0
1537911426508919,0,-1,-4,-19,-19,-2,-2,1
1537911426508919,0,1,0,-15,-19,1,0,-1
1537911426530860,-2,-2,-3,-15,-10,-3,-1,-3
1537911426530860,0,-2,-3,-1,11,0,1,2
1537911426531857,1,2,1,5,-5,0,0,0
1537911426531857,0,0,3,-8,21,-1,-1,0
1537911426543825,-1,-3,-3,22,-5,1,-2,-1
1537911426543825,-1,0,0,2,8,-1,-3,-3
1537911426552801,-2,-5,-8,-9,-12,-5,-3,-4
1537911426552801,-1,-1,-2,-17,-21,-3,-1,-2
1537911426567761,0,0,1,0,-1,0,-1,2
1537911426567761,0,1,3,0,1,0,4,1
1537911426569756,-3,-1,-5,-24,-7,-2,-2,-2
1537911426569756,0,-1,3,24,6,-1,-1,-3
1537911426590700,0,0,4,-5,2,1,-1,0
1537911426590700,0,-5,-9,-10,-3,-1,-2,-2
1537911426591697,1,1,1,18,-1,0,-2,-1
1537911426591697,1,1,1,2,0,-1,-2,1
1537911426603665,-3,-2,-2,-4,-4,-1,1,1
1537911426603665,-2,-1,-4,-5,-3,-1,-1,-2
1537911426612642,-3,-1,5,9,0,2,3,-3
1537911426612642,-2,-1,-3,-10,-1,0,-2,-1
1537911426626604,1,-2,-5,2,-1,-1,-2,-2
1537911426626604,1,-1,-1,-8,6,4,-2,1
1537911426635581,0,0,0,-2,-2,-13,-1,-1
1537911426635581,0,0,0,-3,2,12,-2,0
1537911426651537,1,-1,0,0,-1,-15,-4,-5
1537911426651537,-1,0,0,-4,-1,20,2,-2
1537911426653532,1,-2,-1,0,-5,-21,-12,-3
1537911426653532,-4,-5,-2,-4,-6,-4,-4,-2
1537911426672481,-2,1,1,3,0,-8,-6,0
1537911426672481,-6,-5,-5,-11,-4,-9,-1,-2
1537911426674476,-3,-4,-3,1,-3,8,2,2
1537911426674476,-1,2,1,1,2,3,6,-1
1537911426687441,1,-2,1,2,2,13,-10,-1
1537911426687441,-2,0,1,-4,0,-12,0,-9
1537911426694422,0,0,0,2,-2,-6,0,-3
1537911426694422,-3,-1,1,1,1,-15,3,18
1537911426710380,-1,0,0,0,3,55,5,-4
1537911426710380,5,5,5,2,1,-1,-2,-1
1537911426711377,-4,-8,-8,-5,0,47,-6,-26
1537911426711377,3,-4,-3,-5,-5,-28,16,22
1537911426733319,-3,0,1,-1,-3,-10,4,8
1537911426733319,-3,0,-2,-3,0,-6,-4,-3
1537911426734316,-1,3,4,1,-1,-6,0,4
1537911426734316,-3,-3,-3,-1,0,17,-3,-12
1537911426746284,-1,-3,-4,-4,-4,-12,-2,-3
1537911426746284,0,-2,0,-1,-1,-1,2,5
1537911426755260,-1,1,1,1,-1,-3,-3,0
1537911426755260,-1,2,1,0,-2,1,-8,-5
1537911426770220,0,0,-3,-2,-1,-15,7,1
1537911426770220,-2,-1,-1,-1,0,-1,-4,-2
1537911426772215,0,-1,0,4,1,1,2,8
1537911426772215,-2,0,3,3,2,-6,-9,-11
1537911426793159,-2,-4,-5,-9,-3,-14,-1,-3
1537911426793159,-3,-4,-5,-2,-1,-1,0,2
1537911426794156,-1,0,0,-1,-11,-9,-2,3
1537911426794156,2,1,5,28,21,4,-3,-4
1537911426806124,2,1,1,-9,-10,-1,-1,-2
1537911426806124,0,-2,-4,-14,-1,-2,-1,0
1537911426815100,-2,-4,-6,-5,-2,-7,2,3
1537911426815100,0,-2,-4,-13,-9,-3,-5,-8
1537911426830060,0,1,5,20,7,0,0,2
1537911426830060,0,0,4,8,3,1,-3,0
1537911426832056,1,1,0,-1,-1,-1,0,1
1537911426832056,1,0,-1,4,0,6,2,-1
1537911426852999,-2,0,-4,-2,3,0,0,-2
1537911426852999,-1,-1,-1,-1,-4,-9,-1,1
1537911426853996,-2,-1,0,2,-1,11,-1,-2
1537911426853996,-2,-4,-6,-7,-7,-13,1,1
1537911426866962,-1,-3,-4,-2,-3,-6,-5,-5
1537911426866962,-1,-2,-2,-4,-4,-3,-8,-5
1537911426874940,0,1,-1,6,2,-8,1,6
1537911426874940,1,-1,-3,-6,-1,15,0,-4
1537911426889900,-1,0,-1,-3,-1,4,0,-1
1537911426889900,-1,-1,0,5,3,2,2,0
1537911426891895,-1,1,0,-1,1,-1,0,-2
1537911426891895,-2,0,-3,-5,-5,-1,-2,-1
1537911426912839,0,-1,-3,0,0,-13,-2,-1
1537911426912839,-1,-1,-2,2,-1,14,2,1
1537911426919820,-1,0,-1,-1,0,-7,-2,-1
1537911426919820,0,-1,-3,-5,-4,0,-1,0
1537911426935777,-2,-2,-1,0,0,0,-2,-1
1537911426935777,1,0,1,0,-2,-6,0,0
1537911426935777,1,0,-1,-3,-3,0,0,0
1537911426935777,-2,-3,-2,0,-1,-11,-2,-3
1537911426949740,-2,-1,0,5,1,19,0,1
1537911426949740,0,-2,-3,-5,-4,-8,3,3
1537911426950737,0,-1,-3,-4,2,6,2,-1
1537911426950737,1,-1,0,-3,-3,-8,-3,-2
1537911426971681,2,0,-1,-1,0,8,2,1
1537911426971681,-1,0,0,1,1,-1,-1,-1
1537911426972679,0,1,2,2,-1,-4,-1,-1
1537911426972679,1,0,0,-3,-3,-7,0,-2
1537911426986641,0,-2,-1,-1,-2,5,-1,0
1537911426986641,0,1,-2,0,-1,1,-1,0
1537911426994620,0,-2,-3,-3,-2,-4,-1,0
1537911426994620,-1,-1,-1,-1,-1,5,-1,-2
1537911427009580,-1,0,-1,0,1,10,6,1
1537911427009580,-1,-1,0,-1,-1,-7,-3,-1
1537911427010578,-2,-1,-1,1,1,3,1,1
1537911427010578,0,-1,-1,0,-1,-6,-1,0
1537911427032519,-1,-2,-3,-3,-1,-11,-4,-1
1537911427032519,-1,0,-3,0,-1,5,1,-1
1537911427032519,-2,-1,0,-1,-2,-6,-3,-3
1537911427032519,-2,-1,-2,-4,-1,5,-1,0
1537911427046481,-1,0,0,-1,-2,-6,-1,-2
1537911427046481,-2,-1,-2,0,0,-8,1,0
1537911427054460,0,0,1,0,-1,-10,-3,-3
1537911427054460,1,1,0,0,0,-4,2,-1
1537911427069420,0,-1,-2,-1,-6,-9,-1,0
1537911427069420,-1,-1,0,-1,5,4,-2,0
1537911427070417,-1,-2,-3,0,-1,-6,-4,-3
1537911427070417,-2,1,-3,-2,0,4,-3,0
1537911427092359,0,1,2,1,1,-15,6,1
1537911427092359,1,0,0,1,-4,11,-1,-1
1537911427092359,0,-1,0,0,0,0,-1,-1
1537911427092359,-2,-1,3,-2,-2,4,-1,0
1537911427106322,-2,-1,-2,-2,-3,-6,-2,-1
1537911427106322,-1,0,-2,0,-2,12,0,0
1537911427114300,0,0,-1,-1,1,0,0,0
1537911427114300,-1,0,-1,2,-1,4,0,0
1537911427129260,-2,-1,-1,-2,2,1,-3,1
1537911427129260,-1,0,0,0,0,-8,0,-2
1537911427130258,0,-1,-2,-2,-1,3,0,-3
1537911427130258,0,-1,0,0,-1,-2,2,-2
1537911427152199,0,-2,0,-1,-1,2,-2,0
1537911427152199,0,-2,-2,-2,0,-2,-1,-2
1537911427153196,0,-1,1,-1,-2,-5,-1,1
1537911427153196,-2,0,-3,0,-1,19,1,1
1537911427167159,-1,-1,-1,0,0,-8,-2,-4
1537911427167159,0,-1,-1,0,-2,-9,-3,-3
1537911427168157,-2,-1,-1,-2,-1,3,0,0
1537911427168157,-2,0,-1,0,-1,-6,-2,-1
1537911427190098,-3,0,-1,0,-1,3,-3,0
1537911427190098,-1,0,-2,-4,-3,-4,-1,-2
1537911427190098,1,-1,0,-1,2,15,1,-1
1537911427190098,-1,-1,1,0,-1,-7,0,-1
1537911427212039,0,-2,0,-1,-2,2,0,-1
1537911427212039,-3,-1,0,-1,-2,-3,0,0
1537911427213036,0,-1,-3,0,-1,1,-1,0
1537911427213036,1,-2,-1,-1,-1,-2,-1,0
1537911427226999,-2,2,-1,0,-1,1,-1,-2
1537911427226999,0,-2,-2,-1,-1,-2,-3,-2
1537911427227996,0,-1,0,-2,-1,-7,0,1
1537911427227996,-2,-2,0,-2,0,2,1,-3
1537911427249938,-1,-1,-2,-2,-2,-4,-1,-3
1537911427249938,-1,-2,-2,-2,-2,-7,-2,0
1537911427249938,-1,1,1,0,0,8,-2,1
1537911427249938,1,0,-1,-1,-1,-1,-1,0
1537911427271879,0,0,0,-1,-1,-8,-2,-2
1537911427271879,0,-1,0,1,0,5,1,0
1537911427272876,1,-2,1,0,-1,-7,-2,-2
1537911427272876,-1,-2,-2,0,-1,-2,1,0
1537911427286839,-1,0,-1,0,-1,-4,-3,0
1537911427286839,-2,-1,0,-2,0,-2,-1,-2
1537911427287836,0,1,0,-1,-2,-4,1,-1
1537911427287836,-2,-1,0,0,0,-1,-2,-1
1537911427309777,0,-2,-1,-3,-1,1,-1,-3
1537911427309777,1,-2,-1,-1,1,1,1,1
1537911427310775,-2,-1,-1,-1,-2,-2,-3,-2
1537911427310775,1,1,-1,-2,1,-4,2,-3
1537911427331719,-1,0,-1,-2,-2,-3,1,2
1537911427331719,0,0,0,1,0,23,0,0
1537911427332717,-3,-1,-2,0,-1,-7,-3,-3
1537911427332717,0,-1,-1,-1,-2,-13,-3,1
1537911427346679,0,-1,0,0,-2,-2,-1,-2
1537911427346679,1,1,-2,0,-1,3,-2,-1
1537911427347676,0,-2,-1,-2,-1,-13,-1,-3
1537911427347676,0,-1,-1,-2,-2,-6,-3,-2
1537911427369618,0,-2,-1,-1,-1,4,4,-1
1537911427369618,-2,-1,0,-1,1,-7,0,-1
1537911427370615,-2,-1,-1,-1,-2,-3,-3,1
1537911427370615,-1,0,-1,-1,-1,4,-2,-2
1537911427392556,-1,-1,0,-1,0,-2,-2,-1
1537911427392556,-1,-2,-2,-2,-3,-4,-1,-1
1537911427392556,0,-1,-1,2,2,12,1,-1
1537911427392556,-2,0,0,4,3,7,-1,1
1537911427406519,-1,-1,-2,-10,-2,-1,-1,0
1537911427406519,-1,-1,0,-3,-5,-9,1,-1
1537911427414498,-1,1,2,7,0,1,-1,-2
1537911427414498,-1,1,0,-7,-6,1,1,-1
1537911427429458,0,0,-1,-1,-2,3,-3,-1
1537911427429458,-1,-1,-5,-13,-2,-8,1,0
1537911427430455,1,-1,-2,-3,-2,1,0,1
1537911427430455,0,-1,3,20,7,1,-3,-4
1537911427452397,-1,-1,-3,-24,-18,-3,-1,-1
1537911427452397,-1,0,3,15,7,-4,-1,-3
1537911427452397,-1,-3,-7,-23,-5,13,1,0
1537911427452397,1,5,16,72,-35,-7,-2,0
1537911427466360,-1,-2,-10,-8,58,17,3,1
1537911427466360,-2,-6,-8,-48,-24,-6,-2,-2
1537911427474337,0,0,2,51,4,-9,-3,0
1537911427474337,-1,-1,-7,-71,-6,0,0,0
1537911427489298,1,1,6,35,-9,-8,0,0
1537911427489298,-1,4,10,24,18,9,2,0
1537911427490295,-2,-4,-12,-33,-1,-18,-4,-1
1537911427490295,1,-1,1,-7,10,16,0,-1
1537911427512236,-2,-1,2,22,-1,-4,-1,-1
1537911427512236,0,0,-3,-7,3,2,-3,-4
1537911427513234,-2,3,9,38,0,-4,3,-2
1537911427513234,-1,-2,-5,-21,-3,1,0,1
1537911427526199,-2,-1,-1,0,-17,-12,-7,-3
1537911427526199,1,0,-7,-25,-24,34,1,2
1537911427535175,-2,-7,-13,-9,42,-5,-4,-2
1537911427535175,-1,-3,-6,-15,6,-8,-2,-1
1537911427550135,1,6,24,92,-27,-5,0,0
1537911427550135,0,-1,-14,-56,26,12,2,2
1537911427550135,0,0,0,-48,6,16,0,1
1537911427550135,-2,-2,-6,-19,-4,-8,3,1
1537911427572076,-1,-2,-6,-17,2,22,6,-1
1537911427572076,2,4,21,81,14,-12,-2,-1
1537911427573074,0,3,2,9,-10,-18,-1,2
1537911427573074,-4,-3,-9,-23,4,14,-5,-2
1537911427586039,0,2,7,7,-14,2,5,1
1537911427586039,-2,-2,-2,36,6,4,0,0
1537911427595015,-2,0,-2,-7,9,4,-1,-2
1537911427595015,0,2,10,71,-24,-51,-5,1
1537911427609975,-3,-1,0,27,47,15,6,-1
1537911427609975,2,1,-11,3,-15,-21,-10,3
1537911427609975,-4,-11,-25,-38,-44,23,3,-3
1537911427609975,1,1,9,61,28,-9,-13,-4
1537911427631916,-2,-2,-8,-14,9,-17,3,3
1537911427631916,-2,-1,6,29,8,12,-9,0
1537911427632914,4,6,17,47,-15,50,35,6
1537911427632914,-2,-5,-12,-33,0,-15,-7,-3
1537911427646876,1,1,2,-34,-5,4,-13,-4
1537911427646876,-1,-3,-2,-10,-11,-20,4,0
1537911427654855,0,0,2,-3,-42,-20,-9,-2
1537911427654855,-3,-2,-5,-30,30,23,5,-2
1537911427669815,1,2,5,12,15,-15,-2,2
1537911427669815,-3,-4,-4,25,-4,29,7,-4
1537911427670812,-2,-1,-1,-17,-1,-3,-6,-1
1537911427670812,-1,-5,-12,-50,-35,-14,0,0
1537911427691756,0,2,3,23,-14,9,-1,-1
1537911427691756,-3,-2,2,-20,3,-17,-8,-3
1537911427692754,0,-4,-22,-45,14,-27,1,-3
1537911427692754,2,4,11,62,10,11,3,0
1537911427715694,-2,-5,-5,7,-20,12,3,-1
1537911427715694,-4,-3,-3,-34,-38,-13,-6,0
1537911427715694,1,2,10,20,0,-10,-5,-1
1537911427715694,-1,-1,-1,4,10,11,-3,-2
1537911427729657,1,-3,-8,-27,-11,-39,-10,-2
1537911427729657,2,2,5,26,14,17,4,0
1537911427730654,1,3,5,3,4,-6,-8,-3
1537911427730654,0,0,-5,-22,0,-3,-3,-1
1537911427752595,-3,-3,-1,2,-21,-12,-3,-1
1537911427752595,-1,-1,-5,-20,31,8,2,0
1537911427752595,-2,-1,4,7,18,-40,-13,-3
1537911427752595,1,3,8,68,12,-4,2,1
1537911427775534,0,-3,-10,-72,-25,-15,-7,0
1537911427775534,3,6,22,82,-15,18,29,4
1537911427776531,-7,-14,-31,-78,-11,26,-8,-5
1537911427776531,-2,-5,-14,-63,1,-27,-1,-1
1537911427789496,-1,2,7,55,54,-50,-9,-4
1537911427789496,1,3,10,2,-49,14,-5,-1
1537911427790494,-2,-3,-6,-27,35,2,-1,1
1537911427790494,-3,-1,-2,-18,-23,12,7,0
1537911427812435,0,0,-1,4,2,-1,-5,-2
1537911427812435,1,0,-2,38,15,-8,-6,-3
1537911427813432,3,6,20,76,-7,-7,5,3
1537911427813432,-2,-3,-6,-22,2,10,-7,-2
1537911427835374,0,-2,-3,-11,8,12,-2,0
1537911427835374,0,1,1,-8,10,-6,-10,-2
1537911427836372,-1,-1,1,-8,-7,-17,-7,1
1537911427836372,3,2,6,14,-14,-2,11,4
1537911427849337,-1,0,0,3,-12,-1,-7,-5
1537911427849337,-2,-4,-13,-46,1,-5,2,0
1537911427850335,-1,1,4,15,-9,5,-5,-1
1537911427850335,-1,0,6,22,5,15,-8,-3
1537911427873272,-1,-1,-6,-22,-1,5,3,0
1537911427873272,-2,-4,-9,-26,9,17,-1,-2
1537911427873272,1,5,17,50,-28,-15,4,0
1537911427873272,0,-3,-7,-16,5,15,-1,-1
1537911427895213,0,0,1,-2,9,25,3,3
1537911427895213,-3,-1,3,9,-12,-39,-7,-2
1537911427896211,1,-2,-4,10,-25,19,2,-1
1537911427896211,-1,-1,-2,-5,39,24,5,0
1537911427909176,-3,-2,-8,-45,-48,-14,1,-2
1537911427909176,-4,-4,-9,4,24,-32,-19,-3
1537911427910173,0,0,1,8,20,7,6,-2
1537911427910173,-1,1,4,13,-23,-12,1,-1
1537911427933112,-1,-5,-8,-4,18,13,2,-1
1537911427933112,-2,0,1,-7,-30,12,-4,0
1537911427933112,0,-1,-3,-16,0,-15,-3,2
1537911427933112,-2,-1,-3,-1,-2,-11,-4,-4
1537911427955054,1,3,9,17,-9,11,5,4
1537911427955054,-1,-3,-9,-26,11,7,7,0
1537911427956051,-2,-1,1,4,10,-1,-1,-2
1537911427956051,1,0,7,46,-8,25,3,3
1537911427970013,-3,-3,-11,-25,22,7,-3,-4
1537911427970013,0,-3,-5,-33,-7,-40,7,-3
1537911427970013,1,3,9,41,-11,-30,-2,0
1537911427970013,-2,-2,-9,-48,-11,-1,-8,-1
1537911427992954,-1,-1,0,31,1,12,-4,-3
1537911427992954,0,-1,-1,-13,0,0,3,3
1537911427993951,-1,-1,0,8,8,-4,1,0
1537911427993951,-1,0,-1,-3,-4,-4,2,0
1537911428014894,0,-1,0,7,-14,5,1,2
1537911428014894,-1,-1,0,8,35,-13,-3,-2
1537911428015892,-1,0,3,13,-1,19,2,0
1537911428015892,-1,0,0,7,6,1,-5,-1
1537911428029854,-1,-4,-8,-27,-9,-2,7,1
1537911428029854,0,1,4,19,-2,47,2,1
1537911428030852,-2,-2,-4,-24,3,3,-5,-1
1537911428030852,-1,-1,-1,-5,-5,-7,4,0
1537911428052793,0,1,2,0,0,-7,4,-1
1537911428052793,1,-1,-1,-4,-10,-17,4,2
1537911428053792,-2,-1,-2,-6,5,2,-7,-4
1537911428053792,-2,-2,1,0,-6,5,6,2
1537911428075730,1,0,2,7,0,-41,-4,-1
1537911428075730,0,-1,-3,-3,-7,75,1,-2
1537911428075730,0,-3,-3,-17,8,0,-1,0
1537911428075730,-1,-2,-2,15,0,-41,2,-1
1537911428089693,-4,0,0,-15,1,8,-7,-3
1537911428089693,-2,-3,2,3,-6,-24,-14,-4
1537911428090690,-1,0,-4,-8,1,20,24,1
1537911428090690,1,-2,-1,-3,3,17,14,1
1537911428112632,2,-1,-2,-2,4,1,-5,-2
1537911428112632,-1,0,0,5,-16,-39,2,3
1537911428113629,-1,1,1,-3,15,-5,-3,-2
1537911428113629,-4,-1,2,12,4,6,-4,-4
1537911428135570,-2,-1,-4,-12,-9,33,6,0
1537911428135570,0,0,2,3,5,-24,-8,-4
1537911428135570,-1,-1,0,7,-11,-4,-6,0
1537911428135570,1,-1,-1,-1,2,0,-1,-2
1537911428149534,1,0,5,43,4,-18,-11,-4
1537911428149534,-1,-5,-15,-77,-14,6,4,0
1537911428150531,-1,1,-2,-3,0,23,2,0
1537911428150531,0,-1,-2,-12,-3,-32,-5,-1
1537911428172473,1,-1,3,19,1,47,5,1
1537911428172473,-1,-3,3,23,6,-21,0,-1
1537911428173471,0,-1,-3,-8,-7,-1,-1,1
1537911428173471,-2,1,1,7,2,-1,-5,0
1537911428195412,-1,1,-1,-7,-3,4,-9,0
1537911428195412,-1,1,-1,8,6,20,28,2
1537911428196409,-2,-1,0,-7,1,-28,-10,-2
1537911428196409,0,1,6,16,-3,1,-9,0
1537911428209374,-3,-2,-7,-24,-15,-14,5,0
1537911428209374,1,0,0,6,22,-27,-5,0
1537911428210371,-3,-2,-1,8,-5,31,-1,-3
1537911428210371,-1,0,-2,-20,-20,-7,3,0
1537911428233309,2,1,2,11,36,9,9,2
1537911428233309,0,1,2,7,-12,-39,-8,-2
1537911428233309,1,2,7,48,-1,-1,-1,-1
1537911428233309,-1,-7,-20,-80,-10,21,0,0
1537911428255250,-1,0,2,-19,-10,-3,-1,-1
1537911428255250,-1,-2,-5,-2,-23,-8,0,-1
1537911428256248,0,-4,-5,-11,21,-27,-9,-2
1537911428256248,1,5,6,38,2,-7,-5,-2
1537911428269213,-2,-1,1,9,-7,-44,-12,-3
1537911428269213,0,0,1,0,6,38,2,0
1537911428270210,-1,-2,1,1,-9,-2,-1,0
1537911428270210,-2,-1,1,8,7,13,2,1
1537911428293149,-1,0,-3,-9,-5,-15,2,0
1537911428293149,0,-2,3,27,0,-1,-13,-3
1537911428293149,-2,-2,-7,-26,-3,8,-2,-2
1537911428293149,-1,0,1,15,2,-5,-4,-4
1537911428315090,-1,-3,3,31,13,8,3,0
1537911428315090,0,0,-7,-10,1,19,6,4
1537911428316088,2,1,7,39,-24,-4,4,0
1537911428316088,-2,-4,-14,-109,23,-6,-6,-2
1537911428329053,-2,-2,0,9,-14,6,14,5
1537911428329053,-1,-5,-7,-33,3,33,0,1
1537911428337032,1,2,4,16,1,-4,-6,-1
1537911428337032,1,3,12,60,-25,3,-5,-1
1537911428352989,1,0,-5,-12,32,-48,1,-1
1537911428352989,-3,-1,3,23,6,33,-6,-2
1537911428353987,-1,-2,0,-26,-1,-2,5,0
1537911428353987,-1,-1,4,36,4,-12,0,-1
1537911428374932,0,-1,-1,-13,-11,3,1,1
1537911428374932,-1,1,-1,1,-13,-30,-7,-4
1537911428375929,1,-1,-5,-7,9,2,-6,-1
1537911428375929,-1,-2,-2,-1,-8,2,10,2
1537911428388895,-2,-1,-2,-15,-7,15,0,-2
1537911428388895,-2,-1,1,0,8,-21,1,1
1537911428396874,0,-1,0,-12,-2,47,3,0
1537911428396874,1,0,1,0,12,-10,11,1
1537911428412831,0,0,0,2,-11,34,-6,-3
1537911428412831,-3,1,-1,4,4,-16,-5,-4
1537911428413829,-2,-1,-5,-13,3,-33,-8,1
1537911428413829,-1,-1,-3,-15,-30,-4,-4,-2
1537911428435768,0,-2,5,34,17,1,-4,-1
1537911428435768,0,-1,-3,-44,-8,-12,3,-1
1537911428435768,-2,-3,-5,-15,-52,20,6,0
1537911428435768,-3,-4,-5,-8,65,-3,-8,-3
1537911428448733,-2,-1,0,-17,-34,-9,-6,0
1537911428448733,-1,0,6,9,30,11,1,0
1537911428456712,-2,-1,-2,15,-2,-13,0,-2
1537911428456712,-1,0,1,20,-13,17,-2,0
1537911428472669,0,0,-4,-26,-2,17,3,-1
1537911428472669,0,-1,0,6,-14,-12,0,2
1537911428473667,-1,-1,0,2,41,-9,1,1
1537911428473667,-1,-1,1,6,-20,-15,-2,-1
1537911428495608,0,-1,1,13,17,1,-10,-3
1537911428495608,3,3,9,57,-14,5,24,4
1537911428496605,-2,-5,-14,-72,-13,-4,-6,-4
1537911428496605,-1,-1,4,24,-3,-1,-1,-2
1537911428508573,-1,-4,-13,-66,-28,1,3,3
1537911428508573,-2,-2,-1,4,2,-7,-9,-3
1537911428517549,-1,2,10,58,7,-13,-1,-1
1537911428517549,0,-2,-10,-45,-2,-4,2,-1
1537911428534504,-2,-2,2,40,-7,5,-6,-2
1537911428534504,-1,-2,-6,-61,-1,6,3,2
1537911428535502,-3,-2,-2,-22,-7,6,4,-1
1537911428535502,0,2,5,37,-6,-12,-10,-1
1537911428555448,0,3,10,68,26,-7,1,-1
1537911428555448,-2,-4,-18,-71,-62,-13,-8,-2
1537911428556445,0,0,3,59,39,-6,-3,-3
1537911428556445,0,-1,-5,-66,50,4,4,1
1537911428569410,0,0,0,-3,4,3,-3,-2
1537911428569410,0,1,4,59,19,-22,-5,-1
1537911428577389,-1,-1,-4,-29,-21,3,3,-1
1537911428577389,0,-2,4,30,-16,11,0,-1
1537911428592349,-2,2,7,35,-6,-13,-10,-2
1537911428592349,-2,1,-5,-12,12,-7,-7,-2
1537911428594344,1,1,-1,-7,-10,17,-1,2
1537911428594344,-1,-1,-1,22,-7,-3,8,4
1537911428615288,-3,-1,-1,-14,7,20,-1,-3
1537911428615288,-3,-4,-8,-19,-17,-1,-4,-1
1537911428616285,-1,-2,0,8,-6,-11,-8,-2
1537911428616285,-1,1,-1,-25,-32,-4,0,1
1537911428629250,0,-1,0,17,53,6,0,3
1537911428629250,0,2,5,-13,3,-16,2,-1
1537911428638226,-1,-2,1,3,2,0,3,1
1537911428638226,-2,-1,-6,-45,-13,-12,-11,-3
1537911428653186,-1,-3,2,6,-22,18,5,0
1537911428653186,-2,1,9,57,41,11,1,-3
1537911428654184,-2,-6,-15,-70,-29,-33,-9,-3
1537911428654184,1,1,1,-17,-81,28,18,2
1537911428675128,-1,0,-2,-1,73,7,3,-1
1537911428675128,1,-2,2,-12,-79,-39,-20,-4
1537911428677122,0,3,11,80,117,41,3,0
1537911428677122,0,-2,-4,-5,-20,-24,-11,-2
1537911428698066,-3,-1,-6,-30,-23,32,6,-2
1537911428698066,-1,-2,1,33,13,15,4,-2
1537911428699064,0,2,5,-7,-27,6,-2,0
1537911428699064,-2,-3,-2,6,18,4,1,-3
1537911428713026,1,1,-2,-12,-14,-18,7,2
1537911428713026,1,-1,0,0,14,21,-2,-2
1537911428714024,-1,0,-3,-28,-24,-21,-8,-2
1537911428714024,-2,-3,4,27,36,36,-7,-3
1537911428734968,0,-1,-3,-13,-35,-40,-2,2
1537911428734968,-3,-2,-3,-12,3,-22,-4,-1
1537911428736963,0,-1,-4,-6,9,14,13,4
1537911428736963,-1,1,2,26,0,-2,-3,0
1537911428757909,0,1,5,36,-14,10,-4,-2
1537911428757909,-1,-5,-19,-84,-27,-21,-3,-2
1537911428758906,1,2,9,33,45,0,3,1
1537911428758906,-1,-3,0,1,13,-7,8,0
1537911428772868,0,-2,-5,11,-45,-18,-7,-3
1537911428772868,2,2,12,27,61,55,8,4
1537911428773866,-6,-9,-24,-77,-31,-19,-3,-3
1537911428773866,-1,0,3,-5,-39,-8,-19,-4
1537911428795806,-1,-1,-1,4,15,-4,-3,-3
1537911428795806,2,4,12,56,-3,-17,0,1
1537911428796804,1,-1,7,24,8,5,2,-1
1537911428796804,-1,0,0,9,38,30,-7,-3
1537911428817747,-1,-3,-3,-29,-15,-11,-7,-3
1537911428817747,-2,-3,-3,3,-3,-4,-3,1
1537911428819742,1,1,0,-8,-14,-6,1,-1
1537911428819742,-1,0,0,8,5,-12,2,0
1537911428831709,0,0,-2,-21,-25,-25,4,2
1537911428831709,-3,-3,-5,-9,21,23,13,0
1537911428838691,-1,-2,1,11,-7,13,12,1
1537911428838691,-1,2,0,10,1,-13,-10,-3
1537911428855645,0,0,1,-15,7,23,-2,-1
1537911428855645,-1,-1,-2,-5,-12,-15,-6,-2
1537911428856643,-1,2,4,5,-23,1,-2,0
1537911428856643,-1,-1,-1,-2,6,-8,-3,-2
1537911428877587,-2,-1,-1,1,-8,-7,-11,-3
1537911428877587,-1,-1,0,7,22,13,-4,-3
1537911428879581,1,-2,-5,-27,-34,-6,1,1
1537911428879581,2,3,11,59,51,0,5,1
1537911428892546,1,-4,-19,-113,-30,18,4,3
1537911428892546,-3,-4,-12,-40,-9,10,0,-3
1537911428898530,-3,0,0,2,-1,-14,-4,0
1537911428898530,-1,-1,4,10,-41,3,6,1
1537911428915485,-1,1,9,65,61,10,-1,0
1537911428915485,1,-1,-4,-31,-4,2,-2,0
1537911428916482,1,2,-1,-12,-2,5,-1,0
1537911428916482,-1,-3,-3,-2,-9,-10,5,1
1537911428937426,-1,0,2,17,12,20,7,-2
1537911428937426,-1,0,-1,13,-7,-3,-1,1
1537911428939421,0,-2,1,21,5,1,9,2
1537911428939421,2,0,-4,-13,2,-19,-5,-2
1537911428952387,-2,-4,-2,3,-9,6,-2,-3
1537911428952387,-1,-2,-1,4,-6,-27,-12,-4
1537911428959368,-1,-1,0,-6,-24,14,0,-3
1537911428959368,-1,0,-4,1,38,32,0,-1
1537911428975326,-1,-1,-3,-19,-4,16,10,3
1537911428975326,-1,2,4,13,-10,17,-6,-1
1537911428976323,-1,0,2,10,-8,11,-5,-2
1537911428976323,-1,-1,-6,-19,-9,-16,-4,-1
1537911428998264,-1,1,2,14,2,-23,-7,-1
1537911428998264,0,0,2,16,3,17,11,2
1537911428999262,0,0,3,25,12,-17,-9,-1
1537911428999262,0,-1,-2,-31,-18,8,-2,-2
1537911429020206,-2,1,-3,-29,-5,-22,-6,-4
1537911429020206,0,2,7,43,-39,0,-10,-2
1537911429022200,-1,-3,-12,-50,47,11,16,0
1537911429022200,0,0,6,30,-6,-17,0,2
1537911429035166,0,-2,-8,-44,0,-19,-6,-3
1537911429035166,0,1,1,19,15,6,-6,-4
1537911429037161,0,0,5,5,-19,-7,-6,-1
1537911429037161,0,-5,-3,-4,7,2,4,-2
1537911429058105,-2,0,2,15,-6,-20,4,1
1537911429058105,-3,-3,-4,-8,-6,54,2,-1
1537911429059102,-1,1,1,9,7,-13,-1,0
1537911429059102,-2,-3,-3,-11,2,5,5,0
1537911429072068,-1,-1,0,13,-2,-1,-5,-1
1537911429072068,2,-1,2,2,7,-26,6,1
1537911429079048,-2,-1,-1,2,-2,3,-5,-2
1537911429079048,-1,0,-2,-4,1,11,-1,0
1537911429095005,1,-1,3,20,-2,-31,-8,-4
1537911429095005,-2,-1,-6,-39,-11,18,6,1
1537911429097000,-2,0,-2,3,-6,-26,-5,-2
1537911429097000,0,2,3,4,17,14,-2,0
1537911429117944,-2,-2,-7,4,-20,-2,3,2
1537911429117944,2,0,-4,-29,53,-5,-1,-1
1537911429118942,1,-2,2,10,-42,-28,-9,-1
1537911429118942,-2,1,8,31,9,12,3,0
1537911429130909,-1,-5,-14,-64,-11,-5,-12,-2
1537911429130909,0,-1,4,24,-9,-3,-4,0
1537911429140883,0,-1,-2,-5,10,-4,-3,-2
1537911429140883,-1,-1,0,2,1,40,6,-1
1537911429154846,-1,2,8,44,10,6,3,1
1537911429154846,-2,-2,-2,-10,1,-26,2,0
1537911429156841,0,1,0,1,-1,28,-3,-1
1537911429156841,-2,-4,-5,-10,-5,-28,-4,1
1537911429177785,0,0,1,0,-5,6,0,0
1537911429177785,0,-1,-2,4,-6,1,2,0
1537911429179780,-2,-2,0,13,6,2,6,2
1537911429179780,1,1,-3,-22,-18,-9,-2,-2
1537911429191748,0,1,2,8,-2,17,-3,0
1537911429191748,-1,-1,-1,-12,13,-7,-3,1
1537911429200725,-1,2,6,19,8,3,-13,-2
1537911429200725,-4,-2,-8,4,-21,-35,2,0
1537911429215686,-1,-1,3,25,0,3,0,-3
1537911429215686,-1,-1,-4,-36,-67,-16,-4,-1
1537911429216683,-1,-3,-8,-70,55,9,6,0
1537911429216683,0,1,2,2,-13,2,-4,0
1537911429237625,0,0,4,19,2,13,11,1
1537911429237625,-1,-3,-6,19,-12,-7,-2,-2
1537911429239619,-2,0,-2,10,5,9,3,0
1537911429239619,-1,0,3,2,-1,-4,4,0
1537911429251587,0,0,0,-2,-7,1,0,-2
1537911429251587,0,1,5,26,25,-3,1,-1
1537911429260563,-2,-3,0,8,-10,1,0,-3
1537911429260563,0,-1,0,12,8,20,9,2
1537911429275523,-1,0,1,-13,3,2,-4,0
1537911429275523,-1,-3,-1,-10,-6,-11,-7,-4
1537911429276520,-1,0,-2,4,18,-9,-2,0
1537911429276520,0,-2,-3,-12,-13,-7,-3,-3
1537911429297464,-3,-2,3,21,14,-10,-2,-1
1537911429297464,-1,-1,-1,15,19,32,3,1
1537911429299459,2,0,0,-3,-56,-11,-2,1
1537911429299459,-2,-1,-5,-16,10,-6,-5,-3
1537911429311427,0,1,2,29,3,-6,4,0
1537911429311427,-3,-2,1,-18,-31,-5,-1,0
1537911429320403,-3,-1,-2,1,46,-4,-5,-4
1537911429320403,1,-1,-3,-12,4,-10,0,1
1537911429335363,0,0,3,-2,10,11,2,1
1537911429335363,-1,-2,-5,-27,-18,-11,-8,-5
1537911429336360,0,-1,0,14,6,0,5,2
1537911429336360,1,0,0,-5,-12,-1,-1,1
1537911429357304,-1,0,2,1,16,22,-7,-2
1537911429357304,1,1,1,18,11,-2,11,1
1537911429359299,-2,-3,-4,-14,-28,-36,-1,-2
1537911429359299,-1,-1,1,14,22,32,-4,-3
1537911429371267,-1,-2,-5,-11,-13,-13,6,-1
1537911429371267,-2,-3,-2,-3,5,-25,-4,1
1537911429380243,1,1,0,7,-8,21,4,0
1537911429380243,-1,-2,-1,1,-9,-14,-1,-1
1537911429395203,0,-1,-6,-23,-14,-11,-1,-1
1537911429395203,-1,1,0,5,5,11,-2,-1
1537911429397198,-1,-1,2,9,3,-1,1,-1
1537911429397198,-3,-3,-7,-25,-2,-37,-5,-3
1537911429418142,1,1,4,23,6,21,-4,0
1537911429418142,-2,-1,-4,-29,-14,-7,-9,-4
1537911429419139,1,0,3,23,14,25,3,1
1537911429419139,-2,0,-2,-32,-33,-9,-3,0
1537911429431108,-2,-6,-13,-32,33,-17,4,-1
1537911429431108,0,2,7,22,8,3,-7,-2
1537911429440083,0,-1,-2,-6,-13,0,-3,1
1537911429440083,1,0,2,16,-11,-1,2,1
1537911429455043,-1,1,2,10,-5,-3,-4,-3
1537911429455043,-1,0,-2,8,12,1,-4,-2
1537911429457038,-1,-2,0,0,-14,-4,-2,-2
1537911429457038,0,1,2,23,23,-21,-5,0
1537911429477982,0,-3,-1,-13,-23,50,-5,0
1537911429477982,0,0,1,0,20,-21,3,1
1537911429478980,-2,-1,-1,-3,-7,-6,-15,-6
1537911429478980,0,0,-2,-3,-1,15,2,-1
1537911429491945,-1,-3,-2,-14,-12,-6,4,2
1537911429491945,-2,-3,-2,5,1,-10,6,0
1537911429499923,0,-1,-1,-3,-10,25,-2,-1
1537911429499923,0,-2,1,0,-3,11,-3,-1
1537911429514883,-2,1,-3,8,24,-32,-4,0
1537911429514883,-1,-1,-6,-27,0,18,0,1
1537911429516879,-2,-4,-5,-10,-12,-29,3,1
1537911429516879,-1,-3,-1,7,9,17,1,0
1537911429537822,0,0,2,-14,-16,-12,3,3
1537911429537822,0,-1,-5,-7,3,-5,2,0
1537911429538820,-1,-1,-5,-7,3,4,1,-2
1537911429538820,-1,0,1,8,-6,-3,-4,-3
1537911429551785,-1,1,1,1,24,-19,-1,-3
1537911429551785,1,1,2,13,-7,9,0,2
1537911429560761,0,-1,1,-3,0,-30,2,0
1537911429560761,-2,0,-2,7,13,46,2,0
1537911429575721,-1,-1,0,-1,-8,-1,0,-2
1537911429575721,-1,0,1,6,0,-6,-6,-2
1537911429576719,0,-1,-1,4,-1,1,0,0
1537911429576719,-1,-1,0,-7,-16,-28,-11,-2
1537911429597663,0,-2,-3,0,14,3,7,-1
1537911429597663,-1,-1,1,2,3,7,0,0
1537911429599659,0,0,-1,2,0,22,0,0
1537911429599659,-2,-3,-2,-2,9,-4,6,0
1537911429620602,-1,3,2,10,-27,19,-9,1
1537911429620602,0,-2,2,26,5,7,4,1
1537911429621600,-1,-2,-4,-28,18,-8,-1,0
1537911429621600,-3,-1,0,17,-2,0,0,-4
1537911429635562,0,-2,-3,-15,-30,-13,-2,0
1537911429635562,-2,2,4,12,15,-4,4,-2
1537911429636559,-3,-5,-6,-18,-17,19,-5,0
1537911429636559,1,0,0,0,4,-5,-1,-1
1537911429657502,1,1,3,17,8,-6,0,-1
1537911429657502,0,-1,-2,-14,-26,10,-7,-1
1537911429659497,-2,0,0,13,28,-10,-4,-1
1537911429659497,-1,-1,-2,-3,7,-10,4,-1
1537911429680441,-2,-4,-2,-6,-1,-10,3,1
1537911429680441,-2,-3,-4,-10,-17,1,3,-2
1537911429681439,1,1,1,10,-7,-10,-2,1
1537911429681439,0,-1,0,-11,2,3,6,0
1537911429695400,-1,-1,-2,-8,-7,-17,-5,-3
1537911429695400,-3,-1,0,2,3,4,-6,-4
1537911429696398,-1,0,0,3,-6,-42,7,-1
1537911429696398,-1,0,0,0,8,11,1,1
1537911429717342,-2,-1,-2,-6,-7,2,-3,-3
1537911429717342,0,-1,-1,2,4,-18,-20,-4
1537911429719336,0,2,1,4,-3,-14,-3,-3
1537911429719336,1,-2,-3,-10,-6,18,1,-1
1537911429740280,-1,-2,-1,-1,4,15,13,-3
1537911429740280,5,1,-1,1,8,56,-6,36
1537911429741278,-6,3,4,4,-9,5,-29,-23
1537911429741278,-10,-6,-3,-7,-5,-42,6,-23
1537911429754243,3,1,1,1,9,12,1,10
1537911429754243,-33,-8,-4,-1,-2,2,-12,-42
1537911429761224,40,12,10,14,2,67,10,39
1537911429761224,5,0,-2,-3,-2,9,6,25
1537911429779177,-2,-3,-3,-4,0,-29,-4,-15
1537911429779177,-4,-3,-2,-2,-9,-24,7,1
1537911429780174,-14,-5,-4,-4,0,39,6,-10
1537911429780174,-1,1,-1,-2,-5,-26,-16,-12
1537911429800121,0,1,0,8,13,30,2,7
1537911429800121,4,2,-2,1,-1,-12,10,3
1537911429802116,-6,-2,0,4,3,-21,9,-1
1537911429802116,3,0,-1,8,-12,5,2,3
1537911429814084,-9,-5,-13,-57,-21,-26,-11,-3
1537911429814084,6,2,2,7,3,-9,10,0
1537911429823060,-5,-3,-2,1,5,-13,-6,-9
1537911429823060,-3,0,3,13,10,8,-1,3
1537911429838020,1,1,3,15,-18,17,0,-2
1537911429838020,5,0,2,-1,34,-21,14,-3
1537911429839018,-3,-4,-5,-8,-6,-16,11,6
1537911429839018,1,0,1,-1,4,6,-6,0
1537911429859961,-2,-4,-1,4,-8,-50,-2,1
1537911429859961,5,1,1,-3,-15,-6,5,4
1537911429861956,-5,0,-1,-1,-10,-20,-11,-5
1537911429861956,-2,-4,-3,-5,5,-21,8,1
1537911429873923,0,1,1,3,1,-11,-4,-3
1537911429873923,0,-2,0,3,-2,17,3,5
1537911429882901,-4,-1,-1,-1,-3,-5,-13,-3
1537911429882901,0,2,-1,-13,-6,14,18,-1
1537911429897859,1,0,0,3,4,29,0,2
1537911429897859,-2,0,-1,0,-2,-23,0,-1
1537911429898857,-2,-3,-2,-1,-1,28,-3,-3
1537911429898857,2,1,1,16,-5,-8,-13,3
1537911429920800,-2,-1,0,-12,11,29,-4,-3
1537911429920800,4,0,0,20,0,20,4,2
1537911429921796,-1,-2,-7,-36,-8,-25,3,-1
1537911429921796,-2,-2,-4,-22,-12,5,-7,0
1537911429933764,-1,0,1,-9,1,6,2,1
1537911429933764,0,1,-1,-5,-1,-2,-18,-7
1537911429942740,0,1,3,3,-9,-8,10,6
1537911429942740,-1,-1,0,15,21,-7,-3,-3
1537911429957699,1,0,-1,14,3,43,-4,-1
1537911429957699,0,-1,-3,-9,-4,-10,-4,3
1537911429959694,-1,-3,-1,17,-1,12,17,0
1537911429959694,-1,0,1,-8,-4,-1,-6,-3
1537911429980639,1,-1,2,6,1,7,-5,-2
1537911429980639,0,-2,-2,-1,1,-12,4,2
1537911429981638,-3,-1,-2,-2,-3,19,1,0
1537911429981638,-1,0,0,-5,0,-9,-8,1
1537911429994602,-2,-2,-5,-4,2,-16,6,0
1537911429994602,0,1,1,-4,-8,19,-3,0
1537911430001583,-1,-1,-1,-2,-1,-36,-1,0
1537911430001583,-1,-1,-1,-3,4,8,1,-2
1537911430016543,-3,0,0,7,1,27,-5,0
1537911430016543,0,0,-1,-4,0,18,20,1
1537911430025520,1,0,1,0,0,5,8,1
1537911430025520,0,-1,-1,6,2,-47,-6,-1
1537911430040480,0,-1,-1,-2,-3,-14,6,3
1537911430040480,-3,-1,-2,-3,-2,-18,-10,-1
1537911430041476,0,1,0,2,2,-5,-10,-2
1537911430041476,-1,-2,1,-1,-5,14,3,-2
1537911430055439,1,-1,-2,-3,-2,-14,3,3
1537911430055439,-1,-3,2,-3,2,30,-12,-6
1537911430061423,-1,-2,-1,4,-1,17,0,-1
1537911430061423,-1,0,0,-1,0,-5,-4,-1
1537911430077380,0,-1,-1,2,-1,-14,-3,-3
1537911430077380,0,1,0,-1,-2,15,-3,-2
1537911430079376,-3,-2,-2,-1,0,-9,-28,-7
1537911430079376,-2,-3,-4,-6,-6,7,16,6
1537911430100320,-1,-1,2,1,0,-59,-11,-2
1537911430100320,0,0,-1,-2,-4,-27,-6,-1
1537911430101317,-1,0,0,2,1,2,-3,0
1537911430101317,0,1,-1,-1,2,11,-11,-4
1537911430114281,-3,0,-1,1,-4,-27,-7,-3
1537911430114281,-1,-3,-2,0,2,17,3,-2
1537911430123257,-1,-2,0,-1,1,2,2,-2
1537911430123257,0,-1,-2,0,-1,-4,0,0
1537911430138217,0,1,0,1,1,17,6,1
1537911430138217,0,2,0,1,0,-13,-1,1
1537911430139215,0,-2,-2,-1,1,7,3,-1
1537911430139215,-1,0,-1,-1,-1,11,-1,-4
1537911430160158,-1,-2,-1,-1,-1,2,0,-1
1537911430160158,-1,0,1,-1,-2,-5,4,1
1537911430162154,0,0,-1,-1,-2,-20,2,3
1537911430162154,-1,-2,0,-2,0,7,1,-1
1537911430174122,0,-1,-1,0,2,38,1,-1
1537911430174122,0,0,-2,-4,-1,-8,1,1
1537911430183098,0,0,-2,-1,0,2,4,-1
1537911430183098,-2,-2,-3,-2,-1,34,-9,-3
1537911430198057,-1,-1,0,0,1,-27,-10,0
1537911430198057,0,-1,0,-1,0,-6,8,1
1537911430199055,1,1,0,2,3,12,-2,-1
1537911430199055,-1,-1,-1,-2,-2,-10,-2,0
1537911430219999,2,0,0,1,2,12,-2,-3
1537911430219999,-3,-2,-2,-1,-3,-14,-9,-2
1537911430225985,-1,1,1,8,-2,-16,-1,1
1537911430225985,-1,-1,1,-5,5,-5,-1,1
1537911430233963,-3,-3,-2,-4,-7,-13,5,0
1537911430233963,0,-1,0,0,3,36,0,-2
1537911430242938,-1,-1,0,-4,0,5,1,0
1537911430242938,-1,-1,-1,3,1,2,1,-1
1537911430257897,0,1,3,8,2,-5,3,0
1537911430257897,1,-2,-2,-6,-4,2,0,-1
1537911430258895,-2,-2,-6,-7,-2,10,1,-2
1537911430258895,0,0,1,4,-3,-37,-6,-3
1537911430279838,-2,-2,-3,-11,-3,5,-4,-3
1537911430279838,1,0,0,2,-1,-9,4,-1
1537911430281834,-3,-3,-2,2,0,26,18,1
1537911430281834,0,0,3,1,-2,-3,-2,3
1537911430293802,-2,-1,-1,-3,-3,3,2,-1
1537911430293802,-1,0,-1,0,-5,-18,7,3
1537911430302777,0,0,-1,-3,6,-23,-9,-4
1537911430302777,-2,-3,-2,0,-1,5,-1,-1
1537911430317737,0,-1,0,3,0,-2,0,-1
1537911430317737,-1,-3,-2,-3,-3,-19,-9,0
1537911430319731,2,1,1,1,2,38,-2,-1
1537911430319731,0,1,0,1,-1,-3,4,2
1537911430340675,2,0,0,0,1,-19,-10,-1
1537911430340675,-3,-2,-2,0,-1,14,-3,-2
1537911430341673,-3,-2,-4,-9,-4,-15,-5,-2
1537911430341673,-2,-1,-3,1,1,-19,-7,-2
1537911430353641,-3,1,-3,-8,-4,20,7,0
1537911430353641,-2,-1,-1,3,1,-32,-5,-3
1537911430362617,-1,-1,-1,0,-5,-26,-10,-2
1537911430362617,0,0,0,-4,-2,-5,3,1
1537911430377577,-1,0,0,5,2,8,1,-2
1537911430377577,-2,-2,-4,-10,-6,-2,2,1
1537911430379572,-1,0,1,4,1,-16,-2,0
1537911430379572,0,-1,-2,-12,-6,14,-4,-3
1537911430400516,-1,-1,0,4,3,-7,-2,-2
1537911430400516,-1,0,-1,-11,-1,10,-2,0
1537911430401513,0,0,-2,-2,-8,-18,-7,-2
1537911430401513,0,-1,-4,1,6,-8,7,2
1537911430413481,2,0,0,6,1,13,8,2
1537911430413481,2,1,3,5,3,-4,-4,-3
1537911430422457,-1,-1,-1,-2,1,9,4,1
1537911430422457,0,-2,3,0,-1,13,2,-3
1537911430437418,-1,-1,-1,0,1,6,-15,-4
1537911430437418,-1,-1,-2,-7,-3,-6,4,0
1537911430439414,0,0,-1,1,-2,9,4,0
1537911430439414,-4,0,-3,-1,-2,12,1,0
1537911430460356,-2,0,-2,-2,-1,-3,-2,-2
1537911430460356,1,0,4,6,1,21,-2,0
1537911430461354,0,0,2,13,2,4,-1,-2
1537911430461354,1,-4,-4,-11,-4,-3,3,0
1537911430474319,-1,-1,1,-4,-4,-4,1,-2
1537911430474319,0,0,-1,3,2,-6,-4,1
1537911430483295,-3,0,2,1,-2,4,2,0
1537911430483295,1,-2,1,0,5,4,1,1
1537911430498254,0,-2,-3,-5,-9,4,0,-3
1537911430498254,-1,-2,-2,3,3,12,-1,-1
1537911430499252,0,-2,0,5,2,5,1,-3
1537911430499252,-1,0,1,8,-2,-7,-7,-2
1537911430528174,-1,-3,-2,-9,-2,3,2,2
1537911430528174,-2,-1,-1,0,-4,-49,-1,-2
1537911430529172,-1,0,1,2,1,20,-5,1
1537911430529172,-2,1,-1,-8,-4,-17,-6,-4
1537911430543134,0,-1,-2,-1,-3,0,1,0
1537911430543134,-2,0,-1,2,-1,-3,-4,-1
1537911430544132,-1,-3,-1,-5,2,-10,0,-2
1537911430544132,0,-1,-2,1,0,1,3,1
1537911430558094,-1,-1,-1,3,3,-2,-6,-1
1537911430558094,-1,0,-2,-4,-1,6,-1,-2
1537911430559093,-2,0,-2,-5,-2,2,3,1
1537911430559093,-1,1,0,2,-1,16,-4,-1
1537911430580036,-2,-1,0,0,1,-12,3,1
1537911430580036,-1,-1,-1,2,1,15,1,-1
1537911430582031,2,-1,-2,-11,-4,-12,-2,0
1537911430582031,1,-3,-1,1,-2,5,2,0
1537911430602976,1,1,0,1,-2,7,-3,1
1537911430602976,-2,-2,-1,0,1,-3,1,-2
1537911430603973,-2,-2,-2,-3,-1,-7,-3,-1
1537911430603973,0,-1,-1,-2,-1,12,1,-2
1537911430617937,-1,-1,-1,0,0,-1,0,2
1537911430617937,0,0,0,-3,-1,10,4,0
1537911430618934,-2,-2,3,15,-1,-5,2,-1
1537911430618934,1,4,9,32,14,-55,2,3
1537911430639877,-3,2,9,81,-22,3,-7,-8
1537911430639877,1,-1,1,-2,57,-12,17,5
1537911430641873,2,1,4,40,-53,-48,-17,-4
1537911430641873,-4,-9,-19,28,-9,-2,-2,-4
1537911430662816,2,2,-7,-97,8,25,-14,-1
1537911430662816,1,8,38,127,30,-36,16,0
1537911430664810,-13,-29,-81,-107,-72,-17,-17,-14
1537911430664810,2,4,11,57,54,25,2,-1
1537911430676780,-9,-23,-71,-73,-88,-41,-3,-2
1537911430676780,0,1,3,44,-49,15,-23,-5
1537911430683761,2,7,22,67,42,2,18,12
1537911430683761,7,12,29,81,9,28,-15,-3
1537911430700716,-3,6,22,52,39,-21,2,-5
1537911430700716,-2,-2,-9,-37,2,-15,3,-5
1537911430701713,2,4,14,31,17,-25,-9,-4
1537911430701713,-4,-8,-15,-72,-21,51,0,-1
1537911430722655,-8,0,14,8,20,-36,-15,-7
1537911430722655,3,-4,-17,-50,-21,23,-8,3
1537911430724649,2,2,12,-2,12,46,-9,-4
1537911430724649,-3,-2,-5,-33,-13,-16,2,-1
1537911430736617,-2,-1,0,-7,5,-11,4,0
1537911430736617,-5,-3,-1,1,-5,11,-3,-2
1537911430745593,-1,4,2,-17,16,27,4,0
1537911430745593,-4,-2,-6,-8,-10,-42,-1,4
1537911430760553,5,1,8,34,40,22,21,7
1537911430760553,-1,1,3,-6,-2,-27,-9,-3
1537911430761551,3,-3,-7,-41,-5,33,-7,2
1537911430761551,-1,-5,-10,-42,-11,-20,-3,1
1537911430782495,3,2,7,6,14,28,24,1
1537911430782495,2,1,4,-9,-9,5,-1,3
1537911430784489,-2,2,6,22,18,7,4,-3
1537911430784489,-4,-3,4,33,-11,-29,-5,-2
1537911430796457,1,-3,-1,7,-6,-12,-8,-2
1537911430796457,-3,-2,-7,3,1,-8,6,2
1537911430805433,1,2,4,8,-2,33,15,4
1537911430805433,-1,-3,-3,-11,-7,-19,-1,0
1537911430820393,1,0,3,12,-4,23,6,-3
1537911430820393,0,-4,-9,-22,-8,-30,-6,5
1537911430821390,-3,0,3,15,4,-45,1,9
1537911430821390,4,0,2,-10,-3,-7,-2,9
1537911430842334,0,-1,-2,-3,-8,-20,-12,-1
1537911430842334,-13,-3,-3,5,2,108,15,-36
1537911430844329,-5,1,0,-5,5,6,4,15
1537911430844329,16,2,-2,0,-1,31,4,12
1537911430856297,2,1,0,4,-9,-11,-4,3
1537911430856297,-2,-3,-4,-9,-3,-25,-10,1
1537911430865273,0,-1,3,3,4,-3,2,-4
1537911430865273,-8,-1,-2,-7,-2,12,7,-7
1537911430880233,0,0,1,14,0,-20,-5,5
1537911430880233,7,2,-2,-1,-21,-7,-2,6
1537911430882228,-2,-1,-4,26,14,20,2,-4
1537911430882228,-3,1,-1,-12,-1,-11,-3,-4
1537911430903172,-2,-4,-12,-61,-25,0,2,-4
1537911430903172,-1,-2,-6,-12,7,-16,-5,5
1537911430904170,6,3,7,50,-5,-12,8,-3
1537911430904170,-3,0,-1,-5,16,-5,-7,-10
1537911430916139,0,0,3,10,2,8,-5,2
1537911430916139,-2,-1,-2,3,-3,7,5,4
1537911430925114,-2,-2,-2,-21,-7,-23,-5,-1
1537911430925114,-1,0,2,28,3,20,23,-2
1537911430940073,-2,-2,1,9,3,-19,-10,-4
1537911430940073,2,0,-1,-11,-2,16,-2,2
1537911430942069,-1,-1,1,8,10,16,2,-1
1537911430942069,-3,0,-2,-8,-7,-2,1,0
1537911430963012,1,1,1,7,0,26,-1,-3
1537911430963012,-1,-3,-1,4,2,-12,3,1
1537911430964010,1,-2,-2,-18,-3,5,-5,-1
1537911430964010,-2,-2,0,-6,-6,5,-9,-8
1537911430975978,0,0,0,1,-2,-5,0,2
1537911430975978,1,-1,0,8,4,-17,-9,0
1537911430984954,-2,2,-1,-16,-2,0,3,-4
1537911430984954,-3,0,-2,-4,-5,1,-5,2
1537911430999914,1,3,9,49,14,2,4,0
1537911430999914,-3,-6,-14,-43,-9,-4,-1,-2
1537911431001910,0,-6,-13,-69,-23,-7,-4,-4
1537911431001910,-3,-2,-2,21,-7,-13,-5,-1
1537911431022853,-1,-1,-1,2,9,-54,1,-1
1537911431022853,1,1,2,0,4,55,-5,-3
1537911431023850,-1,0,2,5,2,-3,-3,0
1537911431023850,-2,-1,0,0,-5,15,-4,-3
1537911431036815,-4,-1,3,9,-3,-4,-2,0
1537911431036815,1,0,2,15,4,-5,-5,2
1537911431045791,0,-1,1,8,1,4,5,-1
1537911431045791,-2,1,-2,-2,1,-6,-9,-1
1537911431060751,2,-1,-2,0,-2,13,5,3
1537911431060751,-1,0,0,-4,1,-15,-4,-1
1537911431061750,2,1,1,8,2,-9,-4,0
1537911431061750,0,-1,-1,-6,-2,1,6,1
1537911431082693,-1,-1,-1,-13,-2,20,-6,-2
1537911431082693,1,1,2,16,2,-7,2,1
1537911431084688,-2,-2,-1,-7,-4,-9,8,0
1537911431084688,-2,-4,-6,-21,-4,-22,2,-1
1537911431096655,0,1,2,10,4,30,-5,1
1537911431096655,0,4,21,110,-6,11,-5,-2
1537911431105632,-1,-2,-13,-70,22,0,0,-1
1537911431105632,1,2,11,39,-1,11,-2,1
1537911431120593,-3,-3,-17,-62,83,28,6,0
1537911431120593,1,5,30,99,-88,-29,-7,-2
1537911431121590,-4,-15,-61,-75,26,-3,1,-1
1537911431121590,-4,-6,-9,28,-38,-5,14,2
1537911431142533,0,5,14,94,-21,-3,-7,0
1537911431142533,-6,-7,-22,-90,-20,12,-7,-2
1537911431144529,0,3,12,-6,-23,-22,9,6
1537911431144529,1,0,0,-39,28,1,-13,-7
1537911431156495,-5,-9,-5,10,-36,-28,6,7
1537911431156495,20,5,6,-2,34,12,-9,11
1537911431165472,5,2,16,36,-13,13,-3,-20
1537911431165472,-9,-4,-10,-15,10,8,-5,32
1537911431180431,1,6,12,6,-4,-32,-3,-27
1537911431180431,-2,-5,-11,-38,18,-12,-13,-18
1537911431181430,-1,2,7,15,8,17,-7,39
1537911431181430,-3,0,4,21,2,43,-7,-4
1537911431202373,-1,-1,-3,-16,-7,-17,-9,-4
1537911431202373,-17,-7,-10,-37,11,-10,12,-11
1537911431204368,9,5,6,41,-5,-30,-19,19
1537911431204368,-1,2,0,-9,-9,-25,-10,-42
1537911431216336,0,1,-4,-29,-13,28,4,17
1537911431216336,-12,-6,-10,-23,7,26,-3,-31
1537911431225312,1,0,11,34,1,-31,18,6
1537911431225312,-1,0,0,-8,0,10,4,4
1537911431240271,1,-3,-8,-18,-2,8,4,0
1537911431240271,-2,-2,-3,7,7,-21,3,13
1537911431246255,-7,1,12,56,10,9,1,-15
1537911431246255,4,1,1,21,-15,-18,-1,8
1537911431263210,-3,-5,-7,-37,0,13,-2,-5
1537911431263210,-1,-4,-15,-61,-21,-21,9,12
1537911431264208,2,6,25,97,29,21,-3,-5
1537911431264208,-1,-12,-37,-104,-21,-13,-1,-10
1537911431276176,2,3,15,63,5,2,1,6
1537911431276176,3,3,2,4,12,9,-1,6
1537911431285152,-2,-3,-5,-18,-18,-9,-3,-12
1537911431285152,-1,5,15,48,12,-46,1,2
1537911431299115,-2,-3,-6,-11,-11,64,8,2
1537911431299115,1,-3,-2,-7,4,-37,-2,4
1537911431306096,-4,-2,-3,-9,-7,0,-5,-11
1537911431306096,-1,2,4,10,10,9,4,-1
1537911431323051,-1,-2,-8,-23,-13,-19,4,8
1537911431323051,-1,2,3,20,12,10,0,-4
1537911431324048,-5,-2,-1,-9,-2,12,-7,-22
1537911431324048,2,1,-1,-9,-5,-1,-9,29
1537911431336015,2,0,-2,-3,2,-4,-6,-1
1537911431336015,0,2,3,17,7,8,3,-1
1537911431344991,-2,-1,-5,-22,-12,-11,3,-2
1537911431344991,2,-1,2,0,2,16,0,-9
1537911431359951,-1,-1,0,10,0,-7,-1,-7
1537911431359951,0,1,6,35,6,3,9,12
1537911431365935,-2,3,10,88,-21,-2,-5,-3
1537911431365935,-2,-4,-18,-67,26,15,8,-3
1537911431382890,-4,-9,-23,-28,-72,-15,-12,-5
1537911431382890,1,6,9,43,-6,-9,-10,-8
1537911431383887,-2,-11,-43,-128,26,9,8,6
1537911431383887,1,4,29,57,-35,-5,-2,-4
1537911431396852,-3,1,4,42,28,-13,5,1
1537911431396852,-1,-3,-2,8,-17,17,10,4
1537911431404831,2,4,18,50,19,-2,1,3
1537911431404831,-1,0,3,18,8,24,7,3
1537911431418794,0,1,-1,-28,11,4,-17,-13
1537911431418794,2,0,5,13,13,0,4,7
1537911431427770,-18,-4,1,-13,4,-10,-9,-47
1537911431427770,38,5,-5,-8,-1,22,-1,80
1537911431442731,-20,-2,2,9,-11,-19,15,-36
1537911431442731,-16,-6,-5,-23,15,-29,3,0
1537911431443729,35,8,2,-4,-20,-6,-12,16
1537911431443729,-33,-14,-8,-5,-9,-18,-18,-115
1537911431465669,21,15,12,19,18,-40,-6,9
1537911431465669,-2,-2,-9,-26,-6,32,-13,28
1537911431466667,-9,-11,-7,-24,-11,4,4,24
1537911431466667,-10,-1,7,25,7,-11,17,-12
1537911431478635,7,2,1,-5,12,13,-4,1
1537911431478635,-8,-1,-6,-18,-5,-7,9,-23
1537911431487610,1,2,1,12,-12,-17,4,6
1537911431487610,-11,-2,-1,5,11,7,-11,-5
1537911431502570,-13,-6,0,-1,-3,4,-1,-4
1537911431502570,12,3,4,50,0,16,-3,8
1537911431504565,-6,0,-5,-36,-1,13,-3,-2
1537911431504565,6,13,33,99,51,-4,3,7
1537911431525508,-4,-18,-52,-106,-52,14,6,12
1537911431525508,9,7,16,8,14,-1,0,-4
1537911431526506,-4,-2,8,-7,24,-7,-3,-3
1537911431526506,-5,-10,-28,-6,-26,-26,4,2
1537911431538474,11,15,39,120,10,13,-8,6
1537911431538474,-4,-13,-48,-128,-55,8,4,-1
1537911431547450,-7,-1,10,105,-29,-4,-3,-7
1537911431547450,7,5,6,39,3,-7,-12,3
1537911431562410,-1,-1,5,63,32,-5,0,6
1537911431562410,5,1,13,64,12,3,6,11
1537911431564405,-10,-1,-1,-6,-4,8,16,-7
1537911431564405,-10,-10,-11,-29,-4,7,-11,-5
1537911431585348,39,14,7,-13,14,-1,19,-11
1537911431585348,-25,5,2,-2,-5,-8,-30,-57
1537911431586346,-39,-30,-15,-32,0,-15,3,2
1537911431586346,28,6,-5,-28,-1,16,4,26
1537911431599313,-16,3,8,-15,-6,-16,1,35
1537911431599313,26,3,-6,-11,-1,-7,2,30
1537911431608288,2,7,-1,0,5,36,-10,-30
1537911431608288,-26,-3,4,-10,-14,16,-16,-15
1537911431623248,-2,-10,-6,-16,-3,16,16,18
1537911431623248,3,-5,-1,9,9,-18,0,-6
1537911431624247,-5,0,0,1,-2,7,0,0
1537911431624247,5,-3,2,-3,-5,-7,6,10
1537911431645190,-3,1,-4,-7,1,-10,-10,-10
1537911431645190,-5,1,9,67,23,12,2,-2
1537911431647184,15,11,15,31,-25,-10,3,8
1537911431647184,-2,-4,-15,-2,76,-4,14,2
1537911431659153,-6,-4,-2,-62,-23,-1,1,-4
1537911431659153,-7,-4,10,24,-37,-13,4,-6
1537911431668130,4,-8,-29,-77,95,13,1,13
1537911431668130,9,2,-1,30,-84,-1,1,1
1537911431690070,-14,-9,-13,16,42,6,-1,-9
1537911431690070,4,4,16,7,-25,-9,7,9
1537911431692067,11,9,15,48,-13,53,-10,5
1537911431692067,-5,0,7,46,10,-4,6,-7
1537911431705030,-22,-8,1,30,8,-20,-3,-10
1537911431705030,0,-11,-1,16,14,-7,17,10
1537911431707026,-5,-1,-9,10,-19,-22,-1,-2
1537911431707026,19,18,-1,-40,-8,18,8,45
1537911431718993,25,3,5,12,-20,-6,-13,-26
1537911431718993,-32,-6,-12,-39,12,-20,-27,-13
1537911431733958,-11,-5,-4,-25,-16,1,4,-21
1537911431733958,2,-7,2,-11,7,3,-6,9
1537911431742928,11,4,1,1,4,-8,-5,28
1537911431742928,-2,0,-7,-8,2,3,23,-8
1537911431743925,-1,0,2,6,-2,-44,-6,25
1537911431743925,5,1,1,-5,-11,-9,3,-39
1537911431764868,12,-1,-2,0,-8,1,-9,13
1537911431764868,-4,-4,-5,-19,2,8,-8,-19
1537911431766863,-5,2,0,7,-20,-25,2,1
1537911431766863,-5,-4,-2,1,4,-17,18,13
1537911431778831,-17,-4,-1,-6,-12,8,-7,-16
1537911431778831,13,9,20,88,3,7,0,12
1537911431787807,9,3,-3,68,16,5,-2,2
1537911431787807,-7,-7,-12,-103,-85,-1,-4,-5
1537911431802767,-8,-21,-41,26,-38,-15,-2,-7
1537911431802767,-1,-6,-22,-47,16,16,-18,-4
1537911431809748,10,8,30,80,40,-28,0,6
1537911431809748,-4,-2,-2,-54,9,16,1,-7
1537911431824708,-7,6,13,44,-59,-15,-6,-5
1537911431824708,8,3,2,0,-18,11,6,11
1537911431825706,-1,-7,-11,-6,-14,-13,4,-6
1537911431825706,-8,0,9,70,62,1,-18,-9
1537911431846649,9,5,10,0,45,12,4,3
1537911431846649,3,0,-4,0,7,0,-11,-26
1537911431847647,-13,-11,-2,-26,4,6,1,21
1537911431847647,37,27,10,28,8,3,19,10
1537911431861609,5,-2,-5,-40,-9,-13,-5,0
1537911431861609,-25,-5,-4,-8,-9,2,-4,-77
1537911431862607,-17,5,-2,-22,-17,-5,-10,1
1537911431862607,9,-6,-10,-20,-9,-6,0,25
1537911431884548,-4,2,7,-1,10,9,5,15
1537911431884548,18,0,-1,-9,14,-5,3,22
1537911431885546,2,-4,-5,-24,-10,-11,-2,-12
1537911431885546,-21,-10,-2,15,-4,-15,-15,-19
1537911431907487,4,8,8,0,22,38,13,3
1537911431907487,-7,-4,-3,-1,0,6,2,22
1537911431907487,5,2,-4,-19,-19,10,-1,-8
1537911431907487,-5,-2,1,16,-3,-11,-7,-5
1537911431922448,-7,-4,0,0,-5,-9,-11,-13
1537911431922448,0,2,0,-9,-3,14,-4,8
1537911431922448,9,1,1,11,-2,0,15,7
1537911431922448,-1,1,9,79,9,-3,-3,-10
1537911431944390,-11,-4,2,-34,3,-15,1,-5
1537911431944390,0,-7,-21,-12,-18,23,0,14
1537911431945387,6,1,-1,-31,-19,-18,-10,-13
1537911431945387,-10,-7,-5,-10,0,28,12,9
1537911431967327,-5,1,14,55,10,2,1,-2
1537911431967327,3,0,-1,-32,-16,-18,-2,9
1537911431967327,4,1,1,9,17,24,-4,-6
1537911431967327,-10,-4,-4,0,-9,-26,-5,-10
1537911431982287,-2,0,-4,-7,10,40,-4,-7
1537911431982287,6,3,7,12,11,-74,-11,6
1537911431983286,3,-1,-2,0,-3,14,2,5
1537911431983286,-5,-3,-1,-16,0,23,0,-3
1537911432004229,2,1,-1,-13,2,7,-1,1
1537911432004229,-2,-4,1,11,8,1,4,2
1537911432005227,3,3,0,-1,-10,14,11,3
1537911432005227,-3,1,0,-7,-1,-30,-8,-4
1537911432027167,-5,-2,-4,-5,2,-6,-3,-4
1537911432027167,-2,-3,1,4,-2,-13,6,1
1537911432028165,2,2,0,-7,-1,9,-2,5
1537911432028165,-1,-3,-6,-12,-1,-24,0,-3
1537911432042127,0,-1,-3,1,-3,-3,1,0
1537911432042127,-1,1,2,-1,1,-34,-5,0
1537911432043125,3,2,1,3,14,59,2,0
1537911432043125,-3,-2,-2,-1,-11,-11,-5,-3
1537911432064069,-4,-4,-6,-2,-6,-4,25,6
1537911432064069,1,1,4,2,31,0,-3,2
1537911432065066,0,-5,-4,1,-11,-1,0,0
1537911432065066,-1,-1,2,-13,-9,8,0,-3
1537911432088006,-1,-1,0,-4,-12,-8,-16,-8
1537911432088006,0,0,-2,5,1,11,17,5
1537911432088006,0,-4,-5,-8,1,-36,-5,-7
1537911432088006,0,0,0,7,15,42,-6,0
1537911432101969,1,0,1,-2,1,-13,-1,1
1537911432101969,-2,-2,-2,-3,3,14,11,2
1537911432102967,-1,0,0,3,-22,-16,-7,-2
1537911432102967,-1,0,-2,-4,-4,-24,-3,-5
1537911432124907,-1,-3,-2,-2,4,-2,-9,-4
1537911432124907,-2,-2,-5,3,-9,12,12,4
1537911432124907,2,1,0,-2,8,-12,-1,-2
1537911432124907,-1,0,1,4,1,8,-5,-2
1537911432147845,-3,-4,-4,-3,3,-8,6,4
1537911432147845,0,2,2,2,1,6,-15,-3
1537911432148842,0,-2,-2,-2,-3,12,5,0
1537911432148842,1,-1,-1,-4,3,-18,-7,-4
1537911432161807,-2,0,2,1,5,11,3,2
1537911432161807,0,1,1,1,-7,17,-7,-2
1537911432162805,-2,-3,-2,-6,-3,-3,-5,-5
1537911432162805,-1,-2,-4,-1,0,-8,2,-3
1537911432184746,-1,0,-1,-1,3,-5,6,2
1537911432184746,1,0,-1,2,-10,23,4,1
1537911432185743,-1,-1,-2,-2,4,3,-6,-3
1537911432185743,0,-2,0,-2,3,-20,7,1
1537911432207685,0,1,1,2,2,-6,-2,-3
1537911432207685,0,0,-1,0,-3,5,-5,2
1537911432208682,-4,-1,0,2,1,7,-3,-4
1537911432208682,-1,-1,-2,-8,-6,7,-1,-2
1537911432221647,-2,2,2,-5,-2,-20,-6,-2
1537911432221647,0,-1,0,-3,0,1,-2,-1
1537911432222645,-2,1,-1,1,1,13,-19,-7
1537911432222645,0,-2,-3,0,0,9,10,6
1537911432244587,0,1,0,1,-1,-7,-6,-4
1537911432244587,1,-3,-3,-2,-1,-5,4,2
1537911432245585,2,-2,1,-2,2,6,1,0
1537911432245585,-1,2,2,3,5,-1,-7,-5
1537911432268525,-1,-2,-1,-1,-3,13,3,2
1537911432268525,-1,1,1,-1,-1,-11,-2,-1
1537911432269523,-1,-2,-1,-1,-4,-10,10,2
1537911432269523,-1,-1,0,-1,0,-10,0,1
1537911432282486,1,0,-1,3,4,53,3,-3
1537911432282486,-1,-1,-2,-1,-1,-2,4,0
1537911432282486,-1,-2,0,-1,-3,-14,-6,-4
1537911432282486,-1,-2,-1,-2,-1,3,-1,0
1537911432316395,-1,2,-1,1,1,-12,-10,-4
1537911432316395,-1,1,1,-1,-1,6,-5,-4
1537911432316395,0,-1,-2,-2,-5,-7,4,1
1537911432316395,-1,0,-1,1,0,3,-9,-4
1537911432319386,-1,-3,0,0,-2,-10,0,0
1537911432319386,-1,0,0,-1,-3,-4,-3,0
1537911432320384,0,1,1,-2,0,-8,-2,1
1537911432320384,1,-2,-1,-2,-2,3,-4,-2
1537911432334347,-1,-1,-2,-1,-1,0,4,0
1537911432334347,-1,-1,0,-2,1,0,1,0
1537911432341328,-2,-2,-1,-2,-1,-14,-7,-3
1537911432341328,2,-2,-3,0,-5,11,7,2
1537911432357285,0,-2,-1,-2,-5,-35,6,0
1537911432357285,0,0,0,4,2,18,-12,-6
1537911432357285,0,-2,0,-2,-3,-14,-1,1
1537911432357285,-1,-3,0,-4,-6,-18,9,5
1537911432373242,0,-1,0,2,-1,0,-4,1
1537911432373242,-1,-1,-1,-1,-1,-5,-8,-2
1537911432379226,-1,0,-1,-1,-1,7,2,-3
1537911432379226,-2,-1,0,0,-1,4,0,-1
1537911432394186,1,-2,0,-1,-1,4,-3,1
1537911432394186,-1,-3,-3,-2,-1,-8,1,-2
1537911432401167,-1,0,-2,0,-1,4,3,2
1537911432401167,-1,-1,-3,-2,0,-3,-4,-3
1537911432417125,-2,-1,-2,0,-1,-4,3,0
1537911432417125,-1,-1,-3,-1,-2,0,-2,-1
1537911432418122,0,2,-2,-1,-1,-4,-1,2
1537911432418122,-1,0,-2,1,1,4,-4,-2
1537911432433083,-1,-4,-4,0,3,7,-1,1
1537911432433083,0,2,2,1,0,2,2,-2
1537911432439066,2,4,-1,1,0,4,3,0
1537911432439066,2,6,-1,-2,1,0,-3,-1
1537911432454027,2,-1,-3,-2,0,0,-2,-2
1537911432454027,1,-3,-5,-1,0,-6,4,3
1537911432461008,0,-3,-2,-2,0,3,1,-1
1537911432461008,-2,-4,-2,-1,0,23,-8,-3
1537911432484944,-1,2,11,59,1,-35,-2,-3
1537911432484944,-1,1,14,30,9,5,-5,0
1537911432484944,-3,-2,9,57,-5,37,2,-5
1537911432484944,-2,-10,-39,-59,43,-2,1,1
1537911432492924,2,9,10,-49,-26,29,0,1
1537911432492924,-5,-6,-5,-23,0,-29,-5,-8
1537911432498906,-1,-13,-50,-42,-106,-47,3,2
1537911432498906,1,20,80,115,82,25,6,2
1537911432521845,3,1,-27,-112,-60,19,17,9
1537911432521845,-6,-21,-55,-63,10,79,11,0
1537911432522843,-1,2,19,85,-50,-44,-1,-6
1537911432522843,-6,-10,-35,-113,-33,69,-24,-12
1537911432536805,6,14,46,127,-2,-72,15,10
1537911432536805,0,9,18,50,18,26,11,3
1537911432543786,12,3,-2,83,32,24,7,13
1537911432543786,-13,1,15,48,-21,17,26,-6
1537911432552763,8,-1,2,10,15,-29,-15,2
1537911432552763,2,1,-11,-24,-20,-14,-16,-7
1537911432558747,-1,0,6,-23,37,-41,-5,-2
1537911432558747,-5,-1,5,13,-16,-22,-7,-40
1537911432573707,-30,-10,-21,-44,24,25,-10,6
1537911432573707,8,0,-2,14,-9,-27,8,11
1537911432581685,17,6,15,-28,20,13,-12,9
1537911432581685,12,0,-6,-11,-15,-42,9,-1
1537911432596645,-14,-12,-20,-4,-3,34,-6,-6
1537911432596645,-14,5,18,21,-9,-33,-13,-4
1537911432603627,13,5,2,-30,18,12,6,5
1537911432603627,-4,-6,-16,-7,-15,-8,9,7
1537911432627563,7,-1,-1,17,13,11,-8,-6
1537911432627563,-4,2,9,11,0,-9,-5,-3
1537911432628560,-11,-5,-7,-32,18,24,-1,-1
1537911432628560,2,-4,-4,14,-11,-25,-2,6
1537911432633548,-1,1,7,10,6,4,-5,-17
1537911432633548,0,-1,4,-3,-1,11,6,1
1537911432641526,-7,-4,-4,-13,0,-11,-4,-6
1537911432641526,1,1,3,18,-5,-21,3,11
1537911432656486,1,-1,-5,-3,3,9,-3,-1
1537911432656486,6,2,-5,-4,-5,-2,-7,2
1537911432663467,-8,-3,-1,-4,7,18,-1,-5
1537911432663467,-2,4,12,70,4,-16,-10,8
1537911432679424,2,-5,-13,-70,-8,-1,3,2
1537911432679424,0,-1,-4,-27,-1,-12,0,-7
1537911432680422,-5,-1,2,-10,3,4,2,-2
1537911432680422,-1,-3,-6,-26,-5,7,-6,5
1537911432695382,4,0,1,30,5,5,0,1
1537911432695382,2,4,8,34,-3,1,-4,-1
1537911432701366,-6,-3,-1,-16,0,-25,-2,-5
1537911432701366,1,-1,-4,-4,-6,-29,-2,2
1537911432716327,1,-1,2,23,7,68,9,-1
1537911432716327,0,0,0,-4,1,16,5,2
1537911432724304,-1,-2,-1,4,8,-7,2,0
1537911432724304,0,-2,-4,-5,-5,-10,-3,-1
1537911432739265,-2,0,3,10,4,-33,-4,-2
1537911432739265,-1,-2,0,2,5,23,5,-3
1537911432740264,-3,-1,0,-8,2,11,-16,-3
1537911432740264,0,-1,0,-6,-8,12,8,-3
1537911432754225,-1,-2,-5,-7,1,-18,-3,-1
1537911432754225,2,3,18,90,1,-33,-1,4
1537911432761207,-5,-8,-28,-85,-21,-2,-5,-4
1537911432761207,1,0,0,3,10,5,1,5
1537911432776166,-1,0,0,2,3,-5,-3,-6
1537911432776166,-3,-2,1,12,-5,-28,0,-5
1537911432784144,1,3,7,31,6,-1,4,3
1537911432784144,-1,-1,-6,-13,-5,-7,-3,1
1537911432799105,-2,-1,-2,4,-2,16,-1,-5
1537911432799105,1,2,-1,-19,-1,13,-4,2
1537911432800103,-3,-3,1,6,0,-6,24,3
1537911432800103,0,-1,-2,-14,0,15,6,2
1537911432814064,2,2,6,16,3,-13,-6,-2
1537911432814064,-1,-5,-12,-30,-5,6,4,3
1537911432821045,-3,0,3,4,5,14,-12,-4
1537911432821045,0,0,0,11,-4,-15,0,3
1537911432836005,-2,-1,-2,-3,-1,1,0,-1
1537911432836005,-1,0,-2,-16,0,-8,-5,-3
1537911432843984,1,0,3,13,2,-2,3,-3
1537911432843984,0,-2,0,0,-2,-1,-8,2
1537911432859941,-1,-3,-3,-4,0,6,-5,1
1537911432859941,-1,-1,-2,-9,4,13,1,-4
1537911432859941,-1,-2,1,12,-3,-10,-14,-5
1537911432859941,-1,0,1,1,2,18,21,6
1537911432873903,3,5,11,37,14,-16,9,4
1537911432873903,0,8,29,85,-2,4,-17,-4
1537911432880885,-4,-10,-34,-15,11,1,4,0
1537911432880885,3,15,50,112,-15,-12,7,-3
1537911432895845,-8,-21,-57,-122,-15,12,-17,-11
1537911432895845,1,-9,-23,-76,46,-72,10,7
1537911432903824,2,17,65,22,-64,-6,6,2
1537911432903824,-10,-43,-121,-128,64,118,0,-1
1537911432919781,0,-1,31,127,-19,-28,9,2
1537911432919781,-1,1,2,-6,-40,20,-13,-5
1537911432919781,6,13,32,90,2,-42,5,12
1537911432919781,-3,12,36,82,-28,-64,-22,-20
1537911432933744,16,17,11,31,38,27,2,22
1537911432933744,-28,-12,-17,12,-9,39,5,-12
1537911432941722,21,9,5,4,25,46,-5,9
1537911432941722,6,4,8,-17,-5,-13,-7,-11
1537911432956683,-17,-11,-20,-50,3,-22,4,24
1537911432956683,0,2,16,2,-7,0,5,5
1537911432963664,-16,-6,-17,-29,-1,-2,-9,-36
1537911432963664,0,4,-2,-40,4,-13,0,3
1537911432979621,3,-1,6,-16,-23,27,-6,-4
1537911432979621,-2,-1,-2,-18,-8,-30,-4,8
1537911432980618,-12,-11,-14,-20,18,44,11,-12
1537911432980618,6,-3,-2,-6,-16,-45,-18,-4
1537911432993584,-1,4,11,-2,-4,-27,1,-12
1537911432993584,2,0,0,4,3,-14,-4,-10
1537911433001562,2,-6,-12,10,7,-7,-2,8
1537911433001562,1,4,12,5,5,-4,-5,4
1537911433016523,-2,-1,-2,0,13,24,-3,-2
1537911433016523,5,-1,-3,-3,14,-8,4,3
1537911433023504,1,-4,-9,-31,-20,6,-3,9
1537911433023504,-3,-1,3,0,-11,6,9,11
1537911433039462,-1,-1,3,1,-3,-10,-2,-13
1537911433039462,9,2,2,28,20,21,7,1
1537911433040460,-3,3,10,76,-3,-19,-2,2
1537911433040460,-6,-10,-26,-94,-4,7,-3,-2
1537911433053425,0,-2,0,13,2,-26,1,-5
1537911433053425,3,0,0,-4,-16,7,2,2
1537911433061403,-5,-1,1,16,4,-4,-10,1
1537911433061403,-1,0,9,45,4,-24,7,2
1537911433076363,1,0,-1,-20,-24,12,-5,-3
1537911433076363,-2,-1,-6,-11,3,12,2,2
1537911433084342,-3,-3,-7,-21,8,-13,8,-5
1537911433084342,3,2,6,21,-8,-30,-4,3
1537911433099303,-4,-1,1,-4,-7,-45,-7,-3
1537911433099303,5,2,4,14,-10,42,-3,-3
1537911433100301,-1,-2,-5,-1,-5,-5,-3,2
1537911433100301,-2,-1,-2,10,-7,-3,-11,-1
1537911433114263,-3,-1,0,-4,1,39,3,0
1537911433114263,-2,-3,-2,-7,-6,-37,-12,-4
1537911433121244,6,4,16,93,-17,11,8,0
1537911433121244,-3,-10,-40,-81,-17,20,4,4
1537911433136204,2,-1,0,28,4,-47,4,-1
1537911433136204,-1,-1,0,25,-4,25,1,2
1537911433144183,-3,-3,-4,-5,0,21,-7,-1
1537911433144183,0,5,18,43,0,9,-1,-3
1537911433159142,1,-1,-2,-11,1,-1,-1,-2
1537911433159142,0,-1,-3,-16,-7,-13,-2,0
1537911433160141,-2,1,-2,-26,6,-13,1,1
1537911433160141,-2,1,5,10,5,-4,-1,-1
1537911433174102,0,-1,-5,-19,0,16,-1,-4
1537911433174102,-1,-1,3,10,4,2,3,4
1537911433181083,-1,-2,-9,-35,8,-3,-5,-1
1537911433181083,3,-1,3,6,2,7,5,0
1537911433205018,1,1,2,11,-2,9,1,-1
1537911433205018,-1,-1,-3,-10,-3,-4,-2,0
1537911433206016,-2,-3,-5,-24,6,-8,-5,-2
1537911433206016,2,0,5,12,-4,3,6,1
1537911433227957,-1,0,4,8,0,2,-11,-6
1537911433227957,-2,-3,-3,-8,0,-3,4,-1
1537911433227957,-1,-3,-5,-20,4,1,-7,-3
1537911433227957,1,3,6,20,2,4,5,4
1537911433240922,1,-1,-1,-2,2,10,-1,-1
1537911433240922,-1,-2,-4,-7,0,-9,-3,-3
1537911433249898,-1,-1,-1,-5,-1,-1,0,2
1537911433249898,-3,0,4,7,-1,6,0,-1
1537911433264858,0,1,-2,-2,-1,-6,1,2
1537911433264858,1,-1,-1,-3,-4,-2,-4,-4
1537911433265856,0,-1,-1,-5,1,-4,-2,0
1537911433265856,-3,-3,0,4,1,1,-1,-1
1537911433287797,0,0,-2,-3,-1,2,1,-1
1537911433287797,-1,2,0,3,1,-3,0,-1
1537911433288795,0,-2,-3,-8,1,2,-1,0
1537911433288795,0,1,0,2,1,0,-3,-1
1537911433309739,1,-2,0,3,-2,3,0,-2
1537911433309739,0,-1,-1,-2,0,-1,1,0
1537911433310737,1,-2,-2,-7,-1,-3,1,0
1537911433310737,-2,-1,0,3,-1,0,-3,-2
1537911433324699,-1,0,-2,4,0,0,3,-4
1537911433324699,-1,-4,-2,1,0,-3,2,3
1537911433325697,-1,-2,0,2,2,3,-1,-1
1537911433325697,-1,0,1,9,1,0,-5,-3
1537911433347639,-1,0,2,8,-1,1,1,1
1537911433347639,-1,-1,-1,6,1,0,-2,-2
1537911433348637,0,0,-3,-1,-3,-5,1,0
1537911433348637,-1,-1,-1,0,0,-1,-1,-2
1537911433370577,-1,2,-3,-5,1,22,-5,-1
1537911433370577,0,1,1,-6,-1,-20,-2,-1
1537911433370577,-2,-2,-1,-7,-1,-22,-12,-1
1537911433370577,1,1,0,-2,1,38,32,5
1537911433383542,-1,-2,-3,-8,1,8,-2,0
1537911433383542,2,2,6,2,2,4,-15,-5
1537911433392517,-3,4,15,91,15,-6,-6,-4
1537911433392517,-3,2,7,9,-22,-56,-25,-10
1537911433407477,-5,-17,-50,-93,44,-23,20,6
1537911433407477,-1,4,14,95,-50,20,-11,-5
1537911433409472,-6,-9,-18,-33,-18,-30,6,3
1537911433409472,1,-9,-14,16,62,-30,-26,0
1537911433430416,6,7,34,93,-28,-19,4,1
1537911433430416,0,-18,-70,-128,0,-52,3,8
1537911433431413,3,9,27,76,-111,-43,12,1
1537911433431413,-8,-6,-17,-56,66,40,-2,-4
1537911433443381,-27,-6,8,19,25,-25,-18,-15
1537911433443381,-6,11,31,65,29,6,15,-5
1537911433452358,52,14,14,70,40,47,-34,1
1537911433452358,8,5,4,20,-34,9,25,19
1537911433467319,5,5,8,7,-4,52,36,6
1537911433467319,-41,-12,4,14,3,-16,-10,-12
1537911433469314,-17,-11,-18,-74,17,18,-5,-21
1537911433469314,22,10,5,-6,-34,-23,5,11
1537911433490258,10,1,-6,-25,-10,-15,-9,6
1537911433490258,5,2,5,12,5,25,3,8
1537911433491256,-20,-9,-13,-39,0,10,3,-8
1537911433491256,-9,-6,1,-8,-5,3,-5,-3
1537911433504220,-12,1,2,22,-9,-22,-5,-2
1537911433504220,12,-3,-3,-19,-4,-14,3,-3
1537911433520177,0,1,-3,-23,19,40,16,8
1537911433520177,-1,0,6,24,-7,-24,-15,-8
1537911433528155,2,1,6,21,-12,5,-6,-2
1537911433528155,7,2,2,52,35,15,-6,0
1537911433529153,0,-2,-12,-90,9,-17,-1,2
1537911433529153,-5,-3,-1,-4,-37,25,8,2
1537911433550097,4,4,6,49,0,13,1,0
1537911433550097,6,-2,-7,-12,47,0,-1,-2
1537911433552091,-5,-3,-6,32,8,-17,2,1
1537911433552091,-5,-2,0,11,2,-13,-4,-6
1537911433564059,5,0,-2,-35,-21,5,-4,-1
1537911433564059,5,3,10,26,-12,7,5,2
1537911433573037,-7,-2,-2,-5,10,-15,2,2
1537911433573037,-3,-2,1,-11,-5,5,-5,-7
1537911433587995,2,-1,-3,3,-2,1,-4,-1
1537911433587995,-3,0,1,-10,-12,-3,-3,1
1537911433588993,-3,-2,-1,-4,-2,-1,1,-3
1537911433588993,0,-1,0,1,-5,4,-3,-7
1537911433609936,0,0,-1,3,8,-1,-1,1
1537911433609936,-1,-2,-3,-18,-12,-3,4,-1
1537911433611931,-1,-1,0,-7,-6,5,1,2
1537911433611931,-2,0,3,22,7,-1,0,-2
1537911433623899,0,-4,-4,-13,0,-8,1,-3
1537911433623899,-1,-1,-1,-15,-15,0,7,2
1537911433632876,1,1,2,13,0,-2,1,1
1537911433632876,-2,-1,1,4,4,17,-5,-2
1537911433647835,0,1,-2,-10,-2,7,5,7
1537911433647835,1,0,1,-8,-9,-6,1,1
1537911433648833,2,0,2,9,6,-5,-2,2
1537911433648833,-2,-3,-2,-2,-2,8,-3,-4
1537911433669777,-3,-2,-1,-11,-4,-2,-7,-4
1537911433669777,8,2,0,6,-3,3,-3,-1
1537911433671773,-3,-1,0,0,3,17,0,2
1537911433671773,-1,-1,-2,-2,-4,-11,-1,-1
1537911433683741,-1,-1,-2,1,-1,0,-6,-4
1537911433683741,-4,1,3,26,-10,-29,-10,-5
1537911433692716,-2,0,0,-2,27,17,1,-1
1537911433692716,1,4,16,78,-28,-28,-7,-1
1537911433707676,0,-2,-7,-13,32,33,3,1
1537911433707676,-4,0,14,-3,-24,-31,-8,-7
1537911433709671,-1,-17,-47,-32,-48,-26,0,7
1537911433709671,2,13,51,123,37,11,8,1
1537911433730614,-2,-5,-18,-115,47,-11,-18,-5
1537911433730614,4,4,20,50,-15,32,17,10
1537911433731614,-5,4,11,91,65,-3,-11,-8
1537911433731614,-1,-11,-45,-128,-4,4,3,6
1537911433743580,-6,-3,12,-30,-128,-41,-13,-4
1537911433743580,5,-10,-30,-22,125,91,6,2
1537911433752556,21,7,20,80,18,21,13,8
1537911433752556,-22,3,24,123,13,-8,-7,-12
1537911433767516,28,17,11,79,24,26,16,12
1537911433767516,11,7,-2,-19,-46,-8,-12,-1
1537911433769512,-14,-6,3,-23,-43,-67,2,6
1537911433769512,-7,-4,-9,-21,-8,27,10,-2
1537911433790454,-3,-5,-4,-13,-1,-5,-4,-4
1537911433790454,-12,-6,-11,-21,-14,21,0,-4
1537911433791451,5,4,8,-16,3,31,4,-6
1537911433791451,12,-3,-20,-61,-10,-5,-7,6
1537911433803419,-12,-6,-7,14,23,6,5,-1
1537911433803419,-1,5,6,1,-4,-30,-9,-8
1537911433812395,-10,-2,1,-25,-7,21,8,-6
1537911433812395,-5,-4,-11,-30,-10,-15,2,0
1537911433827355,4,1,1,28,-1,-25,-5,-1
1537911433827355,1,3,28,106,5,-6,-3,1
1537911433829350,-9,-11,-37,-95,26,5,-9,-5
1537911433829350,4,-7,-22,10,-22,-22,1,1
1537911433850294,4,7,30,127,-11,-20,-1,-1
1537911433850294,-9,-11,-41,-128,59,-11,14,4
1537911433851291,-1,-1,5,-11,-23,-18,-2,-1
1537911433851291,8,4,7,2,-8,14,4,2
1537911433864256,-9,-6,-7,41,18,-18,-2,-4
1537911433864256,-5,2,10,1,-33,-5,-3,-2
1537911433873232,5,6,12,26,-1,-27,-6,1
1537911433873232,-1,-6,-14,-44,18,18,-12,-2
1537911433887195,-6,1,4,13,-8,33,9,-3
1537911433887195,2,-1,-3,14,-13,-3,1,2
1537911433889190,2,2,-1,-13,-4,2,1,2
1537911433889190,-2,-2,1,1,-7,-8,-5,-4
1537911433910133,-4,-3,-1,-18,15,10,1,-2
1537911433910133,-1,-1,-3,-6,-14,-8,-4,-1
1537911433911131,-3,-2,-4,-11,-7,7,-6,0
1537911433911131,-1,3,9,24,5,-4,2,-2
1537911433924096,2,-2,-8,-28,3,-5,-12,-3
1537911433924096,-4,-3,-6,-15,-3,11,2,-2
1537911433933072,-3,0,6,27,-16,-14,-6,-4
1537911433933072,2,1,1,-1,3,7,2,4
1537911433948032,-3,-4,-9,-26,0,-4,-1,1
1537911433948032,-2,-2,0,11,-14,-9,-1,-2
1537911433949030,0,1,1,12,4,13,3,0
1537911433949030,1,-3,0,-7,2,-3,0,-2
1537911433969974,-3,-1,-5,-21,2,-3,-1,2
1537911433969974,2,0,3,16,-6,4,-4,1
1537911433971969,1,0,1,4,-3,12,6,-1
1537911433971969,-2,-2,-4,-11,2,-8,0,-1
1537911433983936,-3,0,3,3,-6,-35,-8,-2
1537911433983936,-1,3,8,39,-25,-10,-5,-2
1537911433992912,-2,-1,-4,6,45,0,10,-3
1537911433992912,0,0,4,41,-44,16,-1,4
1537911434007872,3,7,26,81,65,-23,-8,-2
1537911434007872,-5,-17,-51,-109,-49,55,9,-1
1537911434008870,-1,-3,1,104,-28,-28,6,2
1537911434008870,1,11,28,107,10,-1,-12,-7
1537911434029814,-2,-14,-51,-124,-4,3,10,2
1537911434029814,1,6,30,127,34,28,8,1
1537911434031809,-1,0,-7,49,70,1,-11,-6
1537911434031809,-1,-1,-6,21,-70,-7,6,2
1537911434043776,-4,4,13,-30,-50,-43,-10,-2
1537911434043776,0,-4,-12,16,97,28,2,-2
1537911434052753,-1,-2,-4,-18,-16,0,0,2
1537911434052753,4,1,4,-94,-45,-11,4,1
1537911434066716,-3,-1,1,17,-11,25,-9,-4
1537911434066716,0,3,3,-20,-42,-48,-5,-1
1537911434073699,-2,1,1,-25,20,-1,1,0
1537911434073699,-5,-3,-5,-1,30,-15,-3,-4
1537911434090653,-1,-4,-3,11,-11,43,1,-2
1537911434090653,0,-1,3,-23,-12,10,-3,2
1537911434091651,4,4,11,-11,-23,8,0,2
1537911434091651,-2,-4,-9,-29,60,-27,-1,-3
1537911434103618,-1,-5,-3,8,8,16,3,7
1537911434103618,-9,3,2,-11,-86,-19,-3,-13
1537911434112594,5,3,0,-23,54,31,1,2
1537911434112594,-4,-4,-9,-12,-22,-12,-4,-4
1537911434135533,2,2,8,33,76,44,5,-1
1537911434135533,1,-1,-6,-25,-62,-70,-5,4
1537911434136531,-2,-2,2,-19,24,23,1,2
1537911434136531,-1,-4,-6,-33,-72,-51,0,-1
1537911434150492,-4,-7,-10,-6,27,9,-4,-6
1537911434150492,3,3,7,-6,10,-39,-2,-7
1537911434151491,-2,-1,-2,6,71,27,-3,1
1537911434151491,3,2,4,19,53,20,3,-9
1537911434163458,1,2,7,27,-16,-55,8,15
1537911434163458,-2,1,-8,4,30,28,-4,-18
1537911434172434,0,-4,-2,-7,-28,16,5,5
1537911434172434,-3,-2,-5,1,35,25,-10,2
1537911434187397,-6,-5,-2,-2,-81,16,10,-27
1537911434187397,-8,18,2,5,53,-28,-4,12
1537911434194375,30,-12,8,-12,-68,22,2,-17
1537911434194375,-12,-2,-5,-6,-41,-25,-1,23
1537911434210332,35,3,5,3,28,29,-2,-19
1537911434210332,-22,-3,-1,-5,-2,4,12,21
1537911434211330,-19,-16,-7,-2,-24,-35,-12,-62
1537911434211330,19,19,0,4,-5,2,-2,71
1537911434232273,-8,-3,-1,-6,1,-15,1,9
1537911434232273,-18,-9,0,2,12,26,7,-4
1537911434234268,10,4,0,-11,-74,-25,-9,11
1537911434234268,19,-1,1,6,111,18,-6,-30
1537911434247233,-19,-1,-3,-15,-114,-31,1,17
1537911434247233,15,-5,3,3,16,42,18,-2
1537911434254214,-29,3,-4,-5,-33,-40,-19,-2
1537911434254214,12,-3,-5,-9,-15,27,4,1
1537911434270171,4,7,3,5,41,3,-11,4
1537911434270171,-9,-15,-5,-1,-41,-27,-7,-12
1537911434271169,9,11,1,2,34,8,5,12
1537911434271169,-20,-5,-2,-3,17,0,-9,-43
1537911434293110,2,1,-1,-2,-15,18,5,-2
1537911434293110,6,-8,-2,4,71,-40,-15,6
1537911434294108,-4,-1,-7,-3,34,42,-8,7
1537911434294108,5,4,6,-4,6,-13,29,13
1537911434307073,-10,-5,-3,4,1,8,-10,-15
1537911434307073,13,9,9,5,-29,6,-20,-9
1537911434314054,7,5,4,0,-51,-34,9,23
1537911434314054,-16,-8,-7,-6,-36,-30,-8,-11
1537911434330011,-6,-6,-7,-2,17,-25,-17,-15
1537911434330011,3,0,-4,1,18,17,21,10
1537911434332006,-2,2,1,8,18,-19,-10,0
1537911434332006,-3,-2,-1,5,-3,18,-2,-8
1537911434352950,-8,-3,-5,-7,-9,-26,25,21
1537911434352950,18,3,2,3,4,1,-9,-3
1537911434353948,-5,2,0,-5,-18,4,1,-6
1537911434353948,-3,-2,-3,-7,-11,-3,-3,1
1537911434366913,0,1,-1,3,31,14,-10,-9
1537911434366913,-8,-7,-6,-9,-7,-3,25,2
1537911434373894,-2,-2,-5,-11,-72,-13,6,5
1537911434373894,1,-1,3,14,38,44,0,-7
1537911434389852,0,0,1,6,14,12,1,3
1537911434389852,2,1,1,2,-24,-8,-10,-2
1537911434391847,0,0,-4,-3,22,-18,1,-1
1537911434391847,-5,-5,-3,-3,-33,-4,-3,0
1537911434412791,0,1,-2,1,29,5,0,-3
1537911434412791,-1,0,-1,2,23,6,-1,-2
1537911434414786,-2,-2,2,12,-13,-3,-8,-2
1537911434414786,-4,-1,0,0,-81,9,3,-5
1537911434426753,2,-1,-8,-27,50,-6,-2,2
1537911434426753,3,1,3,-4,-9,5,-12,-4
1537911434435730,-4,0,-3,-6,-38,-29,-1,1
1537911434435730,-1,0,1,-1,13,11,6,1
1537911434450689,1,0,-2,9,7,0,-3,-1
1537911434450689,-2,-3,-5,-11,-6,-1,-5,-1
1537911434451687,-2,0,-1,-7,11,-2,5,0
1537911434451687,-1,0,3,12,52,-7,-14,-5
1537911434472631,0,0,-2,-9,-32,-5,-8,-2
1537911434472631,-1,-2,-5,-3,31,11,0,1
1537911434474625,2,-3,-2,-1,-20,10,-2,5
1537911434474625,-4,-2,-3,-6,-15,3,-3,-1
1537911434486593,0,4,6,12,15,-2,6,3
1537911434486593,3,3,1,5,-22,-2,-2,1
1537911434495570,3,1,-1,0,12,-18,18,7
1537911434495570,1,-1,-3,2,12,2,3,0
1537911434510529,1,3,3,1,-36,24,-5,-1
1537911434510529,-3,-1,-1,4,-30,-3,-4,-1
1537911434511527,-2,1,1,7,22,-11,-3,-3
1537911434511527,-1,-4,-3,-6,23,-31,-5,-3
1537911434532470,-1,-3,-2,-3,-17,21,-5,-2
1537911434532470,2,4,4,-1,13,-14,32,12
1537911434534465,-9,-2,-2,-5,22,12,-5,-8
1537911434534465,7,4,2,4,-14,-29,-5,-3
1537911434546433,1,0,0,-9,5,-13,-7,2
1537911434546433,1,0,-2,3,-7,31,-17,-3
1537911434555409,-10,-5,-4,-3,-1,0,21,-4
1537911434555409,-4,-7,-6,-14,-46,-11,10,5
1537911434569372,0,-2,4,9,28,31,10,1
1537911434569372,-1,0,6,13,45,-3,-1,-3
1537911434576353,0,-1,-5,4,36,9,-14,1
1537911434576353,-3,-1,3,11,16,-14,-1,-4
1537911434592310,-2,-2,-4,-17,-52,-41,6,3
1537911434592310,-4,-3,-1,-5,-2,4,-13,-9
1537911434594305,1,0,1,-8,-8,6,0,1
1537911434594305,0,0,0,0,21,1,2,4
1537911434606273,-5,0,0,-1,-6,-2,-5,-1
1537911434606273,9,0,1,-3,-6,-9,-1,-4
1537911434615250,2,0,-4,-2,-7,-35,16,7
1537911434615250,0,1,-1,0,13,21,-3,0
1537911434629212,-1,1,-2,-3,-34,-4,-5,-5
1537911434629212,-5,-2,-5,-4,49,-12,-10,-6
1537911434636193,1,0,6,8,3,35,-13,-3
1537911434636193,4,-2,-1,-4,12,14,11,5
1537911434653147,-4,-2,1,1,-13,-4,-5,-2
1537911434653147,-2,-3,-2,-6,-37,-12,-1,-2
1537911434654145,3,-1,1,0,10,19,-13,-3
1537911434654145,-3,1,2,3,10,-12,1,0
1537911434666113,0,-1,-2,0,6,10,-7,-4
1537911434666113,-1,-3,-3,-4,-16,-3,-2,2
1537911434675089,-3,-2,-1,0,4,4,0,-1
1537911434675089,-5,0,0,-2,-26,5,-4,-5
1537911434689052,2,-2,-1,1,18,-3,8,4
1537911434689052,-5,0,1,0,-14,-5,-5,-3
1537911434696033,0,0,0,-3,1,-18,1,-1
1537911434696033,-2,-1,0,0,8,6,0,-3
1537911434712988,1,0,0,4,14,14,-18,-7
1537911434712988,-2,-2,-2,0,2,-1,3,4
1537911434713986,0,0,0,-4,-33,4,-15,-4
1537911434713986,0,-2,0,10,41,3,19,2
1537911434734930,-1,-1,-2,1,12,-13,5,1
1537911434734930,0,-1,-1,-1,-13,15,0,-1
1537911434736925,0,-2,-1,-2,13,3,0,0
1537911434736925,-1,-1,-3,-5,0,4,-7,-3
1537911434749890,2,0,-1,2,-32,-7,7,3
1537911434749890,-2,1,0,1,-8,-7,-7,-2
1537911434755874,1,-1,-3,-1,-4,3,-1,-1
1537911434755874,-1,0,0,-2,11,2,-3,-3
1537911434772829,-1,-2,0,-1,12,-4,4,-2
1537911434772829,-3,-1,0,-3,-11,1,-4,-2
1537911434773827,-3,-1,0,0,10,-1,6,2
1537911434773827,-2,0,-1,-3,-9,0,5,0
1537911434802749,-1,-1,-2,-3,-14,-2,1,-1
1537911434802749,4,1,0,2,24,8,4,6
1537911434803746,-4,-1,1,0,2,1,-8,-10
1537911434803746,-1,-3,-3,-2,-14,-9,2,0
1537911434809730,0,1,-1,0,7,-9,1,2
1537911434809730,-1,0,-1,-2,-13,7,-6,-6
1537911434816713,-2,-2,-1,0,-9,3,-2,0
1537911434816713,1,1,-1,-2,-4,-9,-7,-1
1537911434832668,-5,-1,0,-2,1,5,-3,-20
1537911434832668,-2,-1,0,3,14,-4,3,0
1537911434833666,1,-7,-3,-2,1,0,2,23
1537911434833666,4,20,2,-1,-10,-34,-2,10
1537911434855606,0,-1,4,3,16,23,12,6
1537911434855606,-11,18,0,-3,-6,-16,2,-16
1537911434856604,4,-14,0,-1,-8,12,0,-16
1537911434856604,-4,-8,-4,-4,0,-7,-7,-29
