timestamp,emg1,emg2,emg3,emg4,emg5,emg6,emg7,emg8
1537907103730243,3,10,2,-6,-6,-3,1,1
1537907103730243,3,4,12,5,-1,1,-2,-3
1537907103731241,0,-19,18,-3,-2,0,-2,-1
1537907103731241,0,27,-30,-1,0,-1,0,-27
1537907103732238,1,3,4,8,4,1,-1,31
1537907103732238,-4,-1,-9,-5,-2,-2,-3,-11
1537907103739219,-3,1,3,15,-1,-1,0,-5
1537907103739219,-2,-11,15,-15,-5,0,-1,3
1537907103752184,0,-6,-44,-7,-1,-1,1,-2
1537907103752184,2,8,15,2,-1,-1,1,0
1537907103755177,-1,2,-7,0,3,0,-2,7
1537907103755177,0,-1,42,15,2,0,-1,5
1537907103757171,-1,2,-12,-3,-2,-3,-2,-9
1537907103757171,2,-5,-14,-12,-9,-4,-1,7
1537907103774126,-2,1,-7,-3,1,0,0,-7
1537907103774126,-2,-10,7,9,6,1,0,4
1537907103782105,-3,7,43,5,2,-1,-1,-10
1537907103782105,0,-22,-32,-7,-3,-1,-2,-3
1537907103803048,-1,3,-2,-9,-5,-2,-1,3
1537907103803048,0,-2,-8,-2,-2,-2,-2,0
1537907103804046,-3,2,4,7,5,2,1,-2
1537907103804046,-4,7,6,0,-1,-1,1,2
1537907103850921,-4,-16,-1,0,0,0,-1,-1
1537907103850921,0,3,-1,0,1,0,0,0
1537907103851918,1,-1,-3,-3,0,0,-1,-2
1537907103851918,-1,2,-2,-5,-5,-3,-2,-1
1537907103851918,1,6,-1,1,2,0,0,0
1537907103851918,0,-5,-1,0,-4,-2,-2,-2
1537907103855907,-1,-1,2,3,5,1,-1,-1
1537907103855907,0,1,6,2,0,2,-1,-1
1537907103861891,-1,-1,-20,-10,-2,-3,-1,-1
1537907103861891,0,-5,-1,-2,0,0,-1,-1
1537907103870867,-1,1,5,5,4,0,-2,1
1537907103870867,-1,3,-16,8,0,-2,-1,0
1537907103877849,-4,-18,18,-17,-14,-6,-3,-3
1537907103877849,2,8,12,1,1,0,1,2
1537907103893806,0,2,2,0,5,2,0,2
1537907103893806,0,-7,21,7,2,1,0,0
1537907103899790,-4,-4,-6,1,1,-4,-4,-3
1537907103899790,4,18,2,9,0,0,2,3
1537907103922729,-2,-11,-3,-2,18,7,0,-1
1537907103922729,-4,-11,50,71,2,-3,0,-3
1537907103923727,2,11,34,-19,10,-1,-1,-5
1537907103923727,-8,-11,-69,-65,-32,-11,-6,-3
1537907103937689,7,33,0,16,-28,-11,-4,1
1537907103937689,-1,5,86,67,57,20,3,1
1537907103938686,6,-7,39,-34,18,4,0,2
1537907103938686,-12,-9,8,61,14,-6,-7,-9
1537907103960627,-5,-35,-27,-46,-31,-11,1,-2
1537907103960627,-1,11,3,-81,-43,-12,-3,2
1537907103961625,21,9,-128,95,69,36,16,15
1537907103961625,2,5,127,-85,-26,-3,2,4
1537907103982569,-6,-6,88,0,-22,-9,-7,-3
1537907103982569,9,-7,-128,71,33,8,6,7
1537907103983566,-11,14,127,-50,-55,-17,-9,-5
1537907103983566,0,-12,58,75,39,16,3,-2
1537907103998526,-8,-28,-85,-19,2,-5,-4,-9
1537907103998526,0,6,119,-111,-48,-12,-3,-2
1537907103998526,0,31,27,112,1,1,-1,-3
1537907103998526,10,-7,-71,-52,13,11,9,11
1537907104020469,-4,25,92,88,10,-5,-4,-5
1537907104020469,-4,-13,-128,-24,37,12,5,1
1537907104021468,-4,-26,58,-79,-48,-19,-3,2
1537907104021468,-2,43,-5,-46,-49,-15,-8,-5
1537907104043407,5,-36,-25,96,90,31,11,5
1537907104043407,3,46,-87,-28,-44,-18,-6,-1
1537907104043407,-18,-78,-67,-58,-7,-4,-3,-5
1537907104043407,7,23,-6,47,18,1,-2,2
1537907104058366,5,-18,-4,-53,-3,2,2,3
1537907104058366,-8,-9,22,-1,11,3,-5,-8
1537907104058366,-10,-12,63,17,-16,-9,-2,-8
1537907104058366,0,-27,-109,-1,0,2,2,1
1537907104080307,-7,-3,-44,-28,-11,-1,-4,-2
1537907104080307,6,10,91,23,0,1,0,0
1537907104081305,4,16,-33,6,3,1,1,2
1537907104081305,-4,1,37,16,-2,-2,-2,-3
1537907104103247,0,15,38,2,-6,-3,1,0
1537907104103247,-7,-14,-6,-51,-14,-3,0,-4
1537907104104244,-1,-4,-63,-6,-3,-1,-3,-3
1537907104104244,1,22,82,46,23,7,0,1
1537907104118206,1,1,-2,-37,-21,-8,-1,-1
1537907104118206,-2,-17,8,12,0,-2,-3,0
1537907104119204,1,0,-31,-2,3,2,0,-2
1537907104119204,-4,-28,6,-17,-2,-3,-3,-5
1537907104140147,-2,-4,-17,-13,-10,0,-2,-1
1537907104140147,1,9,9,8,3,1,-1,-3
1537907104141145,3,35,25,10,11,5,0,0
1537907104141145,-3,-10,-17,13,-4,-2,-1,-1
1537907104163086,3,24,18,-9,-4,1,0,2
1537907104163086,-1,-6,-6,3,1,-1,-1,-2
1537907104164084,3,8,2,6,0,0,0,2
1537907104164084,-3,-4,-10,-3,1,-1,-1,-2
1537907104179043,-3,4,-12,2,-1,-1,-1,-1
1537907104179043,-2,-9,5,-2,-5,-2,-1,0
1537907104185027,1,5,-5,2,-2,0,-1,1
1537907104185027,-2,-7,1,-7,1,-2,0,-2
1537907104200985,0,4,5,-6,-4,-2,-2,0
1537907104200985,-1,-7,2,13,2,0,-1,1
1537907104200985,0,8,11,4,7,3,0,0
1537907104200985,-4,-4,-11,-3,-2,-2,-1,-3
1537907104222927,-1,5,3,-3,-6,-2,-2,-1
1537907104222927,0,-1,-2,-1,-2,-2,-2,0
1537907104223924,0,1,-8,2,3,-1,1,0
1537907104223924,0,-2,-2,-2,-1,0,0,0
1537907104237887,-1,4,3,-1,5,3,1,-1
1537907104237887,-1,-5,-7,-5,-12,-9,-3,-1
1537907104244868,-1,-4,7,9,8,2,1,1
1537907104244868,-1,5,4,-1,-6,-3,-2,0
1537907104260825,-1,-1,3,0,1,0,-1,-2
1537907104260825,-2,-2,21,-17,7,2,1,-1
1537907104260825,-2,-1,-5,0,-18,-8,-2,-2
1537907104260825,0,-11,-40,-8,-2,-1,-2,0
1537907104282767,5,13,19,13,-4,0,1,3
1537907104282767,-1,-5,10,-13,-1,0,-4,0
1537907104283764,0,4,16,0,3,0,0,-2
1537907104283764,-3,-3,6,-5,3,0,0,-2
1537907104297726,-2,-1,-19,-5,-7,-4,-3,-4
1537907104297726,0,-1,5,11,2,0,2,1
1537907104304708,-1,5,-2,-3,4,-1,0,0
1537907104304708,-1,-1,-11,2,-1,0,0,0
1537907104320665,0,-1,-2,-8,0,-2,1,-1
1537907104320665,-1,2,-2,9,-3,-1,1,0
1537907104321663,0,0,-8,-2,1,1,-2,0
1537907104321663,-1,1,2,1,-2,-2,-1,-2
1537907104342606,-2,0,3,2,2,1,-1,2
1537907104342606,-2,-3,-15,-3,-2,1,-2,-2
1537907104343604,-1,-1,-3,-13,-4,-1,-1,-1
1537907104343604,1,1,19,18,3,1,-2,-1
1537907104357566,-1,-2,-3,-9,-1,-1,-2,-2
1537907104357566,0,-1,-9,11,5,2,1,-1
1537907104364548,0,-3,-4,-3,0,-3,-1,0
1537907104364548,-2,-2,13,3,-10,-4,-3,-3
1537907104381502,0,-1,-24,0,2,0,1,-1
1537907104381502,0,-2,1,0,-2,-1,-2,1
1537907104382500,-1,-2,-1,2,7,3,-1,0
1537907104382500,2,-3,19,3,1,0,1,1
1537907104403444,0,-2,-5,-14,-7,-4,-2,-2
1537907104403444,0,-2,-30,9,3,0,-1,-2
1537907104403444,0,1,3,0,-1,0,1,0
1537907104403444,0,-2,-12,-3,1,0,-2,-2
1537907104417407,-2,0,14,1,-1,-1,0,-1
1537907104417407,-1,2,16,-7,0,-1,-2,-2
1537907104425386,-1,0,-15,6,-4,-1,-2,0
1537907104425386,-2,-2,-7,-2,0,0,-1,-1
1537907104440346,-2,0,-1,1,3,-2,0,-1
1537907104440346,-1,5,36,-5,9,2,1,1
1537907104441343,-5,-8,-78,-24,-40,-17,-9,-8
1537907104441343,1,-2,0,-1,10,4,4,4
1537907104464282,2,5,0,4,-5,-2,-1,2
1537907104464282,1,-3,0,9,4,2,0,0
1537907104466276,-1,3,38,1,6,2,-1,-1
1537907104466276,-3,-4,-9,-4,-2,-1,-1,-4
1537907104471264,-1,-4,-16,-11,-1,-2,0,0
1537907104471264,0,2,18,4,-3,0,0,-1
1537907104485226,2,-1,-2,6,10,5,1,0
1537907104485226,-1,-1,-12,-5,-8,-3,-4,-3
1537907104494202,1,-1,10,6,3,-1,-2,-1
1537907104494202,-1,-1,-7,-1,-7,-4,-2,-2
1537907104500186,0,1,6,3,2,0,-2,0
1537907104500186,-2,0,0,-7,-5,-2,-2,0
1537907104515146,-3,-4,-1,4,-2,0,-3,-4
1537907104515146,-4,-2,8,-4,-9,-5,-2,0
1537907104522127,0,-1,-11,4,6,2,-1,-1
1537907104522127,-1,1,6,-2,0,0,-1,-1
1537907104531102,-2,0,-1,0,-3,-3,-3,0
1537907104531102,0,0,-11,9,-1,-3,-2,-1
1537907104546063,-1,0,6,-11,-2,-1,0,-1
1537907104546063,-2,-1,0,2,0,-2,-2,0
1537907104552047,-3,-3,13,1,0,1,-1,-3
1537907104552047,-4,-3,-34,-7,-1,-2,-1,-1
1537907104560025,-2,1,23,6,0,-4,-1,0
1537907104560025,-1,0,12,-1,-2,-3,-1,0
1537907104574986,-2,-6,-25,-9,4,2,-1,-1
1537907104574986,0,-3,24,5,-3,-4,-2,-2
1537907104581967,-3,-4,-16,-6,-2,-2,0,-2
1537907104581967,-2,-6,-12,-6,-7,-4,-1,0
1537907104590943,0,0,8,9,2,0,-1,-1
1537907104590943,-2,-2,0,-9,-3,0,0,-2
1537907104604905,-1,0,7,13,4,0,0,-1
1537907104604905,-2,0,10,-13,-1,0,-1,-1
1537907104613881,-2,-4,-8,-2,2,1,2,-2
1537907104613881,0,-4,-21,-1,-2,-3,-3,1
1537907104619865,-2,1,9,-1,4,1,-1,-1
1537907104619865,0,-2,-3,11,3,-1,-1,-3
1537907104634825,-2,-3,2,0,-3,-1,-2,-2
1537907104634825,0,-2,9,-5,-3,-3,1,0
1537907104642804,1,-2,-11,-2,2,1,2,2
1537907104642804,0,1,3,-5,-1,1,0,1
1537907104650782,0,-1,-1,4,-2,-1,-1,0
1537907104650782,0,-2,-5,2,0,0,0,-1
1537907104664745,-1,-2,2,1,-3,0,-1,0
1537907104664745,-1,-1,-5,3,3,2,0,0
1537907104673721,-1,-2,-9,-12,-9,-4,-1,0
1537907104673721,-2,0,5,3,-1,0,-1,-1
1537907104679705,1,-1,2,-4,-1,0,-2,-1
1537907104679705,-2,-2,-2,1,0,1,-1,-1
1537907104694665,1,0,8,-2,1,-2,1,0
1537907104694665,-3,-4,-16,2,-2,-2,-2,-2
1537907104702644,0,2,26,0,0,0,-1,0
1537907104702644,-1,2,-8,1,-1,-3,-1,-1
1537907104711620,0,-3,-35,-1,-1,0,-2,0
1537907104711620,-1,0,9,-4,3,0,0,-1
1537907104725582,0,-2,-5,-7,-6,-3,0,0
1537907104725582,0,-3,-6,1,1,0,0,0
1537907104732564,-1,0,13,2,-1,-2,0,-2
1537907104732564,-2,-1,-10,-3,-1,-1,0,-2
1537907104739546,-1,-2,5,4,1,0,0,-2
1537907104739546,-1,1,3,-4,-4,-5,0,0
1537907104754505,-1,-1,0,3,-3,-1,0,0
1537907104754505,1,0,-3,-5,-2,0,0,-2
1537907104762484,-2,-1,5,0,1,3,0,-1
1537907104762484,-2,-2,-14,5,6,1,-1,-3
1537907104771461,-2,1,8,3,-5,-3,-2,0
1537907104771461,-1,3,14,3,0,0,1,-1
1537907104785422,0,2,-10,3,0,0,1,0
1537907104785422,1,-2,-5,-3,1,2,-1,0
1537907104792404,-1,2,45,-3,2,0,-1,0
1537907104792404,-1,-2,-43,-1,-1,0,-1,-3
1537907104799385,1,-3,-41,-7,0,0,-1,0
1537907104799385,-1,-1,-10,4,0,1,-1,-2
1537907104815343,0,3,23,8,-1,-2,-2,1
1537907104815343,1,3,31,-3,1,-1,-1,0
1537907104822324,-1,0,4,-4,-3,-4,-1,-1
1537907104822324,0,-4,-9,-5,-5,-1,-1,0
1537907104837284,-3,-3,-7,-3,-2,-1,0,0
1537907104837284,-1,-1,-2,4,2,1,0,-2
1537907104845262,-1,0,-4,-2,3,2,-1,-1
1537907104845262,0,-1,2,0,5,2,-2,-1
1537907104862217,0,0,0,-3,-13,-5,-1,-1
1537907104862217,0,0,-2,-4,-3,-2,-2,1
1537907104863214,0,6,5,0,-1,-3,-2,-1
1537907104863214,-1,2,12,-3,-1,0,1,1
1537907104875183,0,-1,-11,-2,6,2,1,1
1537907104875183,-1,-3,-4,1,-1,-1,-2,-1
1537907104882164,-2,-1,13,2,0,-1,1,-1
1537907104882164,1,2,8,-1,-2,0,-1,0
1537907104897124,-2,-3,-21,-1,2,1,-1,-2
1537907104897124,0,2,19,-5,-5,-1,-1,0
1537907104906100,0,-1,-10,6,2,0,-2,-1
1537907104906100,-2,-1,-6,0,-2,-1,-2,-1
1537907104920063,0,4,6,-2,1,1,0,-3
1537907104920063,-2,-7,-18,7,3,0,0,0
1537907104921060,1,1,-5,-15,-12,-4,-1,-1
1537907104921060,-1,0,11,-1,0,0,1,-4
1537907104935022,-3,-2,4,-4,17,7,2,-1
1537907104935022,-4,-20,-44,37,4,-3,-3,-4
1537907104942004,-7,-24,63,-25,-11,-7,-3,-5
1537907104942004,5,-12,-66,-32,-38,-11,-3,2
1537907104956964,-6,-3,3,-13,7,-4,-3,-2
1537907104956964,4,42,76,-44,-20,-2,-2,0
1537907104964943,-15,-77,-85,-6,-23,-9,-3,-6
1537907104964943,0,-13,9,-21,64,20,7,6
1537907104980900,4,36,73,-65,-103,-38,-10,-3
1537907104980900,11,-9,-128,-25,55,22,10,13
1537907104980900,6,34,127,35,6,3,0,6
1537907104980900,-4,13,18,72,32,7,0,-2
1537907104994863,-3,-19,-67,64,46,18,12,4
1537907104994863,-8,-9,21,-84,-77,-27,-11,-9
1537907105002842,5,26,-96,-9,33,19,8,1
1537907105002842,-8,-22,18,55,-40,-16,-8,-8
1537907105017801,3,4,105,21,23,7,0,-2
1537907105017801,4,9,-101,23,3,8,6,7
1537907105024783,5,17,90,30,19,7,2,6
1537907105024783,3,0,-88,-9,5,1,0,5
1537907105040740,0,-9,-59,20,12,4,-1,0
1537907105040740,-6,6,117,-36,3,-1,-1,-4
1537907105040740,-4,-4,-73,-43,-5,-3,-1,-7
1537907105040740,-7,-29,102,12,-28,-15,-7,-12
1537907105054703,11,24,-34,35,46,19,9,10
1537907105054703,0,-2,-6,-35,-59,-24,-10,-4
1537907105062681,2,-1,55,28,12,1,0,1
1537907105062681,0,-1,-7,-24,-9,-6,-2,-3
1537907105077641,-5,-20,-43,-23,-5,-2,-2,-3
1537907105077641,-5,-22,29,44,20,5,-1,-3
1537907105084623,2,7,-30,-2,-7,-6,0,0
1537907105084623,-2,7,6,-23,-11,-2,0,0
1537907105099583,-6,-3,-1,-26,-11,-3,-1,-3
1537907105099583,4,21,-8,42,26,9,2,2
1537907105107561,-3,-1,-2,-2,-16,-7,-4,-2
1537907105107561,3,11,-20,-20,11,5,4,2
1537907105114543,1,1,-13,4,-5,-3,-3,0
1537907105114543,-4,-9,24,14,3,-1,-2,-1
1537907105122522,1,-2,-25,-3,-1,1,-1,1
1537907105122522,2,7,15,-6,1,2,0,0
1537907105137481,-2,-7,-4,-4,-6,-3,-2,-1
1537907105137481,0,-3,14,14,5,2,-1,-3
1537907105144463,-2,-3,-4,-4,2,1,-1,-3
1537907105144463,1,13,-10,-3,-4,-1,1,3
1537907105159423,-2,-5,6,-6,-13,-6,-3,-3
1537907105159423,-2,-4,-3,6,13,4,2,-1
1537907105168399,-1,5,-11,7,2,0,0,1
1537907105168399,-3,0,7,-6,-3,-1,-2,-1
1537907105174383,-1,-4,-7,-6,-3,-2,-1,0
1537907105174383,-2,-2,8,10,2,0,2,1
1537907105182361,0,2,0,-13,-3,-1,-1,-2
1537907105182361,-2,0,-3,14,-2,-1,-2,0
1537907105197321,0,-2,5,-11,-2,-1,-2,0
1537907105197321,1,2,-23,12,5,1,-1,0
1537907105205300,-2,-1,2,-1,-3,-2,-1,0
1537907105205300,-3,2,1,-1,4,0,1,-3
1537907105220260,-2,-10,-97,-18,-3,-2,-1,-1
1537907105220260,4,18,30,3,0,-3,-1,0
1537907105228239,-1,-10,33,-5,-3,-1,0,1
1537907105228239,6,20,8,-1,-2,-2,-1,2
1537907105235220,-4,-15,9,12,-1,-2,-2,-4
1537907105235220,-3,-19,17,7,9,1,-1,-3
1537907105242201,-1,-3,-20,-22,-20,-7,-2,0
1537907105242201,-2,-9,-3,-3,1,0,-1,-1
1537907105257161,4,17,19,2,0,-2,0,-1
1537907105257161,-2,-6,-5,-11,-2,0,-1,-1
1537907105265140,-1,2,10,5,5,0,-1,-1
1537907105265140,-2,-5,-18,-7,2,-2,-1,-1
1537907105280100,-1,-1,37,12,-1,0,0,1
1537907105280100,-1,1,-4,6,1,0,-1,-1
1537907105288079,-2,0,-21,1,4,1,0,-1
1537907105288079,0,-1,-21,-7,1,2,1,0
1537907105303039,-5,-6,34,5,-5,-2,-2,-3
1537907105303039,4,6,-24,-11,-3,0,-1,3
1537907105304036,1,4,-1,17,4,1,1,1
1537907105304036,-1,-4,0,1,3,1,0,1
1537907105317001,0,1,27,3,4,1,-1,0
1537907105317001,-3,-7,-1,8,6,1,-1,-3
1537907105325977,-1,-1,-1,-11,-14,-5,-3,-2
1537907105325977,0,0,-2,-3,2,1,-1,0
1537907105339940,0,-1,-19,-6,-2,-1,0,-2
1537907105339940,-2,-2,3,0,-2,-1,0,1
1537907105347919,2,1,-18,2,7,1,0,-1
1537907105347919,-1,3,22,0,-5,-4,-2,0
1537907105370858,1,-4,-1,-4,-3,1,-1,0
1537907105370858,0,1,-6,0,1,1,-1,-1
1537907105372853,-1,3,86,16,3,1,0,-4
1537907105372853,-4,-7,-69,-13,-4,-2,-1,-4
1537907105384820,0,0,-40,-10,1,0,0,3
1537907105384820,0,8,39,11,1,-2,0,-1
1537907105393796,0,-3,-19,-3,2,1,-1,-1
1537907105393796,0,4,57,-4,-3,-4,0,-1
1537907105415738,-2,-5,-44,-9,-5,-2,-1,-2
1537907105415738,-2,-5,-14,-4,0,-1,1,0
1537907105417732,1,1,-3,0,0,-1,-3,0
1537907105417732,-2,-5,2,0,2,1,0,-1
1537907105430697,-1,8,16,1,0,0,-2,-3
1537907105430697,2,3,2,2,3,0,1,1
1537907105432692,0,-7,-26,-1,-2,-2,-1,-2
1537907105432692,1,-17,0,-2,0,0,-1,-2
1537907105444660,1,18,10,-1,-2,-3,-1,-1
1537907105444660,-1,5,23,10,-1,0,-1,-3
1537907105453636,-4,-4,-34,-11,-2,-3,-1,-1
1537907105453636,1,10,-19,4,-5,-1,0,1
1537907105468596,-1,-27,-1,-13,-4,-3,-1,0
1537907105468596,0,-3,-15,16,7,3,-1,-1
1537907105470591,-1,3,11,2,-5,-4,-2,-1
1537907105470591,1,6,8,-7,5,1,0,1
1537907105490537,-2,5,30,7,5,2,0,-3
1537907105490537,0,-8,-20,8,-3,-3,-1,0
1537907105498516,0,-2,-10,2,4,3,-1,1
1537907105498516,1,13,3,-8,-8,-4,-1,-2
1537907105504500,0,6,18,-11,9,5,1,1
1537907105504500,-2,-11,-26,-7,-16,-6,-3,-4
1537907105513476,0,-8,37,-3,7,2,-1,-3
1537907105513476,-3,-41,-13,-2,-2,0,-2,-1
1537907105528436,5,55,21,-14,-10,-4,0,-3
1537907105528436,5,11,-42,-6,-1,3,1,3
1537907105530431,-1,-5,2,-8,-1,2,1,-1
1537907105530431,-3,-7,1,5,0,-1,0,-1
1537907105551375,-1,-1,16,-1,0,2,-1,-1
1537907105551375,-9,-33,-67,-2,-5,-5,-3,-4
1537907105552372,5,14,36,4,3,1,1,0
1537907105552372,3,26,42,7,5,2,-1,-1
1537907105565338,0,-8,-19,3,-6,-4,-2,-2
1537907105565338,-1,7,34,-5,0,1,-1,-2
1537907105573317,-2,-9,-43,-1,-1,-1,0,-1
1537907105573317,-1,5,-1,-1,-3,-1,-2,-1
1537907105588277,0,-15,4,7,-4,-2,-2,-1
1537907105588277,0,1,14,-8,1,2,0,-1
1537907105590271,-1,0,-20,2,-3,-1,-1,-2
1537907105590271,1,5,6,-1,-2,-2,0,1
1537907105611215,-1,-10,-18,4,2,0,1,0
1537907105611215,-1,-3,12,-7,0,0,-1,-1
1537907105613210,-1,8,-5,1,-4,-2,-1,-1
1537907105613210,0,-1,-1,2,1,0,0,-1
1537907105625178,-1,-12,-16,4,2,0,1,1
1537907105625178,-1,6,33,-4,-1,-2,-1,-1
1537907105634154,-1,-1,-22,-1,-3,-1,0,1
1537907105634154,-2,-3,-16,-4,0,-1,-1,-1
1537907105649114,-2,-5,22,9,2,1,-3,0
1537907105649114,1,8,-11,-8,-6,-3,-2,-1
1537907105650111,0,-1,-21,4,3,-1,-1,-1
1537907105650111,0,-7,18,3,1,0,0,0
1537907105671055,-2,0,-11,2,-1,0,1,-1
1537907105671055,-1,0,22,-2,-1,1,-1,-3
1537907105673050,0,0,-11,0,-2,-2,-2,0
1537907105673050,-2,0,-8,-1,-1,0,0,-2
1537907105685018,0,-5,6,0,2,-2,-1,-2
1537907105685018,-3,3,-4,-3,-1,-2,-1,-2
1537907105693994,-1,-3,1,-1,-3,-2,-1,-1
1537907105693994,0,2,4,1,2,-1,-2,0
1537907105708954,-2,-5,-6,-1,-6,-2,0,-3
1537907105708954,1,-2,-3,-4,-2,-3,0,0
1537907105709951,-1,0,4,4,-1,0,-1,-2
1537907105709951,-1,-1,1,-1,0,0,1,-2
1537907105730895,-2,-1,5,-4,-1,0,-1,-1
1537907105730895,-2,6,21,-2,-7,-2,-1,-3
1537907105732890,-2,-14,-67,-2,2,0,2,0
1537907105732890,3,9,14,2,-1,-2,0,1
1537907105744858,0,-8,-18,6,4,2,-2,1
1537907105744858,-4,-5,33,2,15,5,0,1
1537907105753834,-1,3,-6,-22,-28,-9,-4,-3
1537907105753834,-4,-21,23,4,1,0,-2,-2
1537907105767796,2,-4,-3,-2,-2,-1,0,2
1537907105767796,1,-2,7,8,4,0,-1,1
1537907105774778,-2,10,4,7,8,3,0,-1
1537907105774778,-1,-5,-26,-9,-1,0,0,-3
1537907105790735,-2,-4,16,-6,-7,-3,-3,0
1537907105790735,1,7,-1,3,7,4,2,1
1537907105792730,-1,-17,20,7,0,-4,-1,-2
1537907105792730,-1,22,2,-6,-6,-1,-1,-1
1537907105804698,0,-9,-34,-7,2,0,-2,-2
1537907105804698,-2,-10,-17,-4,-5,-2,1,0
1537907105813674,1,5,28,7,4,3,1,1
1537907105813674,0,-5,5,0,1,0,-3,0
1537907105827636,-3,8,-8,-4,-3,-4,-2,-3
1537907105827636,3,1,-4,-5,-2,-3,-2,-1
1537907105834618,1,1,30,10,6,1,0,0
1537907105834618,-2,-3,-7,-24,-5,-1,-1,-2
1537907105851572,1,10,-35,1,-3,-3,-1,-1
1537907105851572,1,-1,-5,-5,5,0,1,0
1537907105853567,-6,-8,57,3,-11,-4,-3,-3
1537907105853567,3,24,-59,-3,0,-3,-2,1
1537907105873514,0,-20,12,7,6,3,1,1
1537907105873514,0,4,5,4,-2,0,-1,-1
1537907105875508,0,17,-5,1,6,1,-1,0
1537907105875508,-9,-35,-41,-6,-3,-4,0,-4
1537907105888474,4,-7,11,-3,-2,0,1,2
1537907105888474,3,10,-7,5,-2,-4,-3,2
1537907105894458,1,-2,-9,0,1,1,0,0
1537907105894458,1,15,47,-7,8,6,2,0
1537907105911412,-4,-2,-68,7,-1,-5,-2,-3
1537907105911412,-9,0,96,23,-10,-3,-1,-3
1537907105912410,-1,-12,-80,-54,-21,-8,-5,-4
1537907105912410,5,8,75,80,49,16,7,4
1537907105933354,-7,-19,65,-25,-12,-6,-3,-5
1537907105933354,7,21,33,-47,-7,-3,-4,-2
1537907105935349,-3,-19,-109,77,21,9,10,4
1537907105935349,-10,33,95,-42,-61,-28,-14,-10
1537907105948314,13,1,93,102,109,43,17,16
1537907105948314,-10,-41,-124,-93,-96,-33,-6,-8
1537907105955295,5,56,112,100,40,0,-10,-2
1537907105955295,10,-8,34,16,23,8,4,3
1537907105971253,-2,-3,-67,-80,-82,-26,-6,1
1537907105971253,4,-5,-55,77,69,25,6,5
1537907105973248,-9,-15,97,-18,-21,-5,-2,-7
1537907105973248,-1,-5,-66,13,2,3,2,-2
1537907105993194,-3,16,-28,-11,-25,-10,-5,-6
1537907105993194,2,-1,-14,16,13,4,1,0
1537907105995189,-8,-18,34,-48,-20,-9,-3,-3
1537907105995189,4,7,-72,14,24,7,2,3
1537907106007156,0,9,30,-17,6,4,0,-3
1537907106007156,-6,-3,51,0,-14,-8,-5,-5
1537907106016133,-1,-11,-51,-1,7,0,-1,0
1537907106016133,6,4,41,-11,-4,1,1,3
1537907106031093,-5,-21,-21,-19,-15,-9,-5,-5
1537907106031093,1,6,5,30,6,-1,0,1
1537907106033088,4,1,-11,-23,5,3,2,1
1537907106033088,-3,-25,-17,-12,-10,-5,-1,-1
1537907106054031,-3,1,-21,0,-8,-4,-3,-4
1537907106054031,4,5,27,6,16,6,1,2
1537907106055029,1,0,2,-12,-3,2,2,2
1537907106055029,-6,-11,-42,-7,-15,-5,-2,-4
1537907106066997,-1,13,28,22,11,1,-1,-2
1537907106066997,0,1,-13,-8,2,2,-2,1
1537907106075973,0,8,-11,-17,-4,1,0,1
1537907106075973,-3,-3,25,-8,-10,-4,-2,-1
1537907106090933,0,18,-18,15,11,3,0,-1
1537907106090933,-2,-10,-3,-6,0,0,0,0
1537907106092927,0,-6,-14,-14,-5,-3,-1,-1
1537907106092927,-2,-2,8,4,3,-1,-2,-1
1537907106112874,-2,-1,15,5,4,0,-1,-2
1537907106112874,-2,-1,-13,-10,-4,-2,-2,-3
1537907106120853,5,9,2,4,1,-2,0,1
1537907106120853,-1,-13,-13,0,1,1,-1,-1
1537907106128832,0,-2,4,-5,-2,-2,1,0
1537907106128832,-3,6,-13,-2,-2,0,-2,1
1537907106136810,1,-2,17,-1,5,4,0,-1
1537907106136810,2,2,-21,-1,-4,-3,0,0
1537907106150773,-2,6,-3,-6,-5,-3,-2,-3
1537907106150773,-5,-16,12,4,4,-1,-1,0
1537907106152767,0,-8,50,0,-2,-1,-1,0
1537907106152767,-5,15,-68,-30,-6,-3,-2,-1
1537907106173711,9,41,9,28,6,3,2,4
1537907106173711,-2,-39,11,1,3,1,-1,0
1537907106174709,0,7,-2,-12,-3,-2,-1,2
1537907106174709,-3,-10,-14,22,3,0,-3,-4
1537907106187675,-5,-9,8,-24,-14,-5,-1,-1
1537907106187675,4,30,-8,4,5,0,1,1
1537907106196650,-2,-3,-8,1,-2,-2,1,1
1537907106196650,2,-12,1,5,5,1,0,1
1537907106211610,-2,-4,-14,-3,6,0,-3,-1
1537907106211610,-1,2,19,1,-4,-1,0,-2
1537907106212607,-3,-7,-28,2,2,0,-2,-1
1537907106212607,0,6,9,-5,-2,-1,1,-1
1537907106233551,-2,-7,3,2,-1,1,-1,-1
1537907106233551,-7,-16,6,-13,-5,-2,-1,-2
1537907106235546,3,-6,-58,1,-1,-2,-1,-2
1537907106235546,0,18,20,3,2,1,0,1
1537907106247514,-2,-25,14,7,0,-2,0,1
1537907106247514,-2,7,-14,-17,-3,-2,-2,-4
1537907106256490,-4,-27,-68,0,7,1,1,-2
1537907106256490,-2,-4,-26,-10,-21,-9,-2,-2
1537907106271450,-7,-17,-9,4,6,1,0,-1
1537907106271450,2,30,17,7,3,0,1,1
1537907106272447,-3,-7,9,-17,11,4,1,-2
1537907106272447,-5,-24,-1,1,-20,-9,-3,-4
1537907106293391,2,-2,0,-2,2,0,0,0
1537907106293391,2,1,-9,-1,-3,-1,0,0
1537907106295386,4,19,14,-6,-2,-1,-1,1
1537907106295386,-1,-1,56,12,13,3,-2,0
1537907106307354,-4,-5,-42,-11,-9,-4,-1,-5
1537907106307354,7,34,21,8,3,1,1,2
1537907106316330,3,7,32,18,3,3,4,4
1537907106316330,1,0,6,-4,4,1,0,2
1537907106331290,1,1,9,0,-5,-3,-3,-1
1537907106331290,-4,-10,-29,-6,0,1,-3,-3
1537907106332288,-1,2,0,5,-5,0,-2,-2
1537907106332288,-4,-8,33,-2,-2,-1,0,0
1537907106354229,5,13,-31,0,2,1,0,4
1537907106354229,-2,-24,-3,1,-1,-1,-1,0
1537907106355226,-6,-1,33,-7,-9,-6,-3,-1
1537907106355226,3,-4,-52,-1,5,2,2,3
1537907106367194,2,4,25,4,6,0,1,0
1537907106367194,1,-8,-2,1,0,0,-1,0
1537907106376170,-1,1,14,-3,-7,-4,-1,-4
1537907106376170,0,7,1,-3,1,0,1,-2
1537907106391130,-3,-9,-3,-1,-4,-1,0,-2
1537907106391130,1,0,8,4,-1,-2,0,-1
1537907106393125,-3,7,-14,-3,-2,-5,-2,-1
1537907106393125,0,-11,0,-3,2,0,1,-1
1537907106414069,-5,4,19,4,-1,-2,-2,-1
1537907106414069,-1,-1,-31,-5,1,-1,0,-1
1537907106415066,-2,-4,5,2,-3,-1,-2,-1
1537907106415066,1,9,2,0,1,-1,0,-1
1537907106427034,-1,-12,13,-4,-3,-2,-2,-2
1537907106427034,-1,-4,-20,-3,6,1,0,-1
1537907106436010,2,18,12,-9,-4,-1,0,2
1537907106436010,2,-3,3,5,2,0,-1,2
1537907106450970,-2,-16,4,-3,-2,-1,-3,-1
1537907106450970,-3,20,-9,7,0,-1,-1,-4
1537907106452965,1,-9,-24,-1,0,-1,0,1
1537907106452965,-4,-6,10,-13,-5,-1,-1,-1
1537907106473909,2,21,0,12,3,1,2,-1
1537907106473909,-4,-5,-11,-8,-3,-2,0,-1
1537907106474906,-1,-2,18,4,0,0,0,-1
1537907106474906,-2,8,-5,-1,-1,0,-1,-2
1537907106486874,-1,-4,-11,-3,-1,-1,-2,0
1537907106486874,-1,-4,17,9,-1,0,-1,0
1537907106495850,0,2,34,8,-1,-1,-2,-1
1537907106495850,-3,-12,-93,-13,-1,-1,-4,-1
1537907106510810,3,10,22,-4,-1,0,-1,2
1537907106510810,0,-11,-6,-5,-2,-1,-1,0
1537907106512805,0,-3,2,-2,-1,0,0,-2
1537907106512805,-3,-1,24,4,-1,-2,-2,-4
1537907106533749,0,-1,-33,-8,0,2,2,1
1537907106533749,5,7,18,12,3,0,3,4
1537907106535744,-1,-4,1,-1,-1,-1,0,-1
1537907106535744,1,5,6,1,1,-1,0,0
1537907106547711,-4,-4,20,3,-4,-3,-3,-2
1537907106547711,-4,-6,-8,-12,-7,-3,-4,-2
1537907106556688,3,0,-34,1,2,1,0,1
1537907106556688,0,-1,13,0,-3,-1,-1,-1
1537907106570650,-2,1,-2,-3,-2,0,1,0
1537907106570650,-3,-6,29,1,-2,-2,-2,-3
1537907106577632,-1,-7,-19,0,-1,-1,-1,-2
1537907106577632,1,10,13,0,-2,1,0,0
1537907106593589,1,-5,9,3,1,1,-2,-1
1537907106593589,-2,-3,34,2,-1,-1,-2,-2
1537907106595584,-2,-9,-55,-5,-3,-3,-1,-3
1537907106595584,1,1,-3,-4,2,0,2,2
1537907106607552,-1,4,17,3,1,-1,0,-1
1537907106607552,-1,-3,-13,-6,0,-1,0,-2
1537907106616528,-4,1,57,-2,-4,-3,-2,-3
1537907106616528,-3,-9,-55,-5,-2,-1,0,-2
1537907106631488,3,2,-26,4,2,0,2,2
1537907106631488,0,2,2,-3,-1,1,0,-1
1537907106632485,-2,-1,19,4,0,-1,0,1
1537907106632485,-4,-7,-23,-7,-1,0,-3,-3
1537907106653429,-1,2,0,-3,-1,0,-2,-1
1537907106653429,1,-7,3,5,2,-1,0,2
1537907106655424,-1,-4,-22,-7,0,0,-1,-2
1537907106655424,0,-5,27,3,0,-2,-2,0
1537907106667392,-3,-3,-6,-3,-1,0,-1,-1
1537907106667392,-1,3,6,1,-2,-1,1,0
1537907106676368,-1,-3,-32,-3,-1,-2,-2,-1
1537907106676368,1,3,31,3,1,-2,0,3
1537907106690331,-2,-4,-8,0,-3,-1,2,1
1537907106690331,0,-2,-16,-2,1,3,2,1
1537907106698309,-2,-1,8,0,0,2,1,0
1537907106698309,4,8,29,6,3,0,0,-2
1537907106713269,1,1,-13,-7,-1,0,0,-1
1537907106713269,0,-5,-7,-1,0,0,0,1
1537907106715264,2,9,34,-6,-3,0,0,0
1537907106715264,1,-3,-40,8,1,1,0,0
1537907106727232,-2,-7,11,0,2,0,-2,-2
1537907106727232,-2,-3,4,-9,-3,-1,0,-3
1537907106736208,5,11,15,9,5,0,1,3
1537907106736208,1,-1,5,-4,-3,0,0,1
1537907106751168,0,0,9,0,-2,-2,-1,0
1537907106751168,-1,-4,-18,0,0,-2,-3,-2
1537907106752165,-4,-2,-20,-5,-2,-3,-4,-2
1537907106752165,-1,3,27,0,-2,-3,-1,-2
1537907106774107,2,0,-16,-2,0,-3,-2,-3
1537907106774107,0,1,-1,-3,-4,-2,-4,-1
1537907106775104,-1,1,-6,0,-1,0,0,-2
1537907106775104,-3,4,0,1,-1,-1,-1,-1
1537907106796048,-1,0,32,1,-1,-2,-1,-2
1537907106796048,-2,-2,-43,-4,-2,-2,0,0
1537907106802032,0,0,4,1,0,0,-1,0
1537907106802032,-2,2,6,1,-2,-1,-2,-1
1537907106811008,-2,-2,-14,-11,-3,0,-1,-1
1537907106811008,-1,2,14,8,-2,0,-1,-3
1537907106813003,1,-1,-19,1,4,0,0,0
1537907106813003,-2,0,5,5,-1,-2,-1,-1
1537907106833946,1,2,1,0,0,0,-1,0
1537907106833946,-1,1,40,1,-2,-2,-1,-2
1537907106834944,-4,-5,-45,-12,-6,-2,-1,-4
1537907106834944,-1,-8,-4,-5,0,-1,0,-1
1537907106855888,0,6,14,5,0,0,0,-1
1537907106855888,-2,1,-7,-2,-2,-2,-2,1
1537907106857883,0,-9,14,1,0,-1,0,-1
1537907106857883,-2,3,5,-5,-4,-1,-1,-4
1537907106870848,1,-15,-53,-5,2,-1,2,2
1537907106870848,0,6,7,-2,-1,0,0,1
1537907106872842,1,0,1,0,-1,-1,0,0
1537907106872842,0,-2,3,-1,-1,-1,-1,1
1537907106893786,-4,0,23,2,-1,-1,1,-3
1537907106893786,1,3,-24,1,1,0,1,1
1537907106894784,0,1,-4,2,1,1,-2,1
1537907106894784,0,-1,7,-2,-3,-1,0,-2
1537907106915728,-2,4,5,-2,-1,0,-1,-1
1537907106915728,1,-8,-11,0,0,0,-1,-2
1537907106917722,-3,-3,-5,-2,-2,-3,0,1
1537907106917722,1,4,19,2,1,0,1,1
1537907106930688,0,2,-3,-1,-2,-1,-1,1
1537907106930688,0,2,3,-2,-2,0,0,0
1537907106937669,-3,-6,-9,-2,-2,-1,-1,-1
1537907106937669,-2,-4,-8,4,1,-3,0,1
1537907106954624,-1,-1,-1,-1,-1,-1,-2,0
1537907106954624,0,2,5,0,1,-1,-1,-2
1537907106956619,-1,0,9,-3,-2,-1,0,-1
1537907106956619,0,3,-8,-4,0,1,1,0
1537907106976565,0,-1,5,2,-1,0,-1,-1
1537907106976565,-1,-4,-28,-5,-1,-2,-2,0
1537907106977563,-1,2,15,1,-2,-1,-2,-3
1537907106977563,0,-1,-8,-2,0,-1,0,-1
1537907106990528,-2,-1,6,0,-1,-1,-1,-1
1537907106990528,-1,1,13,0,0,-1,0,1
1537907106997509,0,0,0,-1,1,0,-2,-1
1537907106997509,-1,-5,-22,-3,-1,-1,-2,0
1537907107013466,0,3,9,3,-2,0,-2,0
1537907107013466,-1,-4,-22,-6,-1,0,0,-1
1537907107015461,-1,0,4,0,-1,0,-1,0
1537907107015461,0,4,1,-2,-2,-1,-1,-2
1537907107036405,-1,-4,-1,-1,0,0,-3,-3
1537907107036405,0,2,3,2,-1,-1,1,-2
1537907107037403,0,-1,1,0,0,-1,0,-2
1537907107037403,-1,0,1,0,-2,-1,-1,-2
1537907107050368,0,0,-2,-2,0,0,-1,0
1537907107050368,-2,1,11,2,0,0,-1,0
1537907107057349,-2,-1,-6,-2,-1,-2,0,-1
1537907107057349,2,5,6,-1,-1,-2,0,-1
1537907107081285,-2,-5,-6,-1,-2,-1,0,-1
1537907107081285,0,0,1,0,-1,-1,-2,-3
1537907107082283,-2,-7,-4,-1,-3,-1,-1,-2
1537907107082283,0,10,17,-1,0,1,-1,0
1537907107096245,1,-12,-13,-3,0,-2,-1,-2
1537907107096245,3,0,-32,3,3,1,-1,1
1537907107097243,0,1,6,1,-3,-1,-1,0
1537907107097243,-2,-6,-10,-2,-2,0,-1,1
1537907107110208,-1,-2,-6,22,6,1,0,-2
1537907107110208,-3,-5,45,-10,3,0,2,-1
1537907107117190,-3,20,25,-11,-6,-3,-2,-4
1537907107117190,-1,-17,-63,81,33,8,3,1
1537907107134144,5,38,74,-72,-40,-13,-3,-1
1537907107134144,-7,-17,50,68,34,8,1,-1
1537907107135142,-1,-16,37,-38,-25,-12,-5,1
1537907107135142,-7,-10,-67,-33,-17,-7,-5,-3
1537907107157083,-1,7,-27,18,5,0,-1,2
1537907107157083,-5,-9,75,-1,-7,-4,-2,-3
1537907107158080,3,10,-3,-9,11,10,4,3
1537907107158080,1,4,29,43,8,3,0,-2
1537907107170048,-3,-18,-66,-4,4,-1,-2,-1
1537907107170048,-3,12,8,-20,-14,-6,-3,-3
1537907107179024,3,-14,-53,27,5,-2,-1,1
1537907107179024,2,-4,-44,-30,-4,-4,0,2
1537907107193985,-2,11,18,3,8,-1,1,-2
1537907107193985,2,4,7,-9,-6,-1,-1,1
1537907107194982,-4,-1,-37,1,2,0,-2,-2
1537907107194982,-1,-2,22,-15,-2,1,0,-2
1537907107215925,-6,-12,9,13,2,0,-1,-3
1537907107215925,2,-3,-35,-8,-8,-1,-1,1
1537907107217920,1,2,-12,9,6,3,2,2
1537907107217920,0,-2,38,-17,-9,-4,-2,1
1537907107229888,-1,-4,-4,5,0,0,-1,-4
1537907107229888,2,3,-57,-20,-7,-2,0,-2
1537907107238864,2,5,6,3,-3,-6,-4,-5
1537907107238864,0,1,12,-3,-1,1,1,1
1537907107253824,0,-1,13,2,2,0,0,1
1537907107253824,-3,0,-10,-4,-1,-2,-1,-4
1537907107254823,-4,-2,11,3,0,1,0,-1
1537907107254823,3,1,16,-6,-3,-1,-2,2
1537907107275765,-1,-1,-1,-3,-1,-3,1,2
1537907107275765,1,0,-18,-7,-5,-2,-2,0
1537907107277760,-3,-6,1,3,0,-1,-1,-2
1537907107277760,-1,7,19,-10,-2,0,-1,-2
1537907107289728,1,-4,-11,3,2,3,-1,0
1537907107289728,-1,-2,-8,-1,-2,1,-1,2
1537907107298704,-2,1,31,5,-1,-1,-1,-3
1537907107298704,-1,6,-54,-13,0,0,1,-1
1537907107313664,-1,-12,6,0,2,-1,1,0
1537907107313664,0,-2,-9,0,-1,-4,0,-1
1537907107314661,0,5,0,-14,-2,0,-1,0
1537907107314661,-11,-15,88,10,-5,-3,-4,-7
1537907107336603,6,14,-88,1,3,1,3,4
1537907107336603,5,9,7,6,3,1,2,5
1537907107337600,-1,-4,-6,-1,0,0,-1,0
1537907107337600,0,3,20,-8,-5,-2,-1,0
1537907107349568,-7,-11,17,-4,-4,-2,-3,-5
1537907107349568,1,-3,-14,-1,3,2,1,0
1537907107358544,1,3,-5,1,3,-1,-1,-1
1537907107358544,-1,-4,-11,-3,-2,-1,0,-3
1537907107373504,-1,0,22,9,0,0,0,0
1537907107373504,-2,0,-6,-4,1,1,-1,-1
1537907107375499,0,0,3,11,1,-2,1,-1
1537907107375499,0,1,-9,-16,-6,-2,-2,-1
1537907107396443,3,-1,2,7,3,3,1,2
1537907107396443,-1,0,7,-4,-3,0,-2,-1
1537907107397440,-5,-18,-40,-3,0,1,1,0
1537907107397440,0,17,79,4,-5,-2,-1,-1
1537907107409408,4,8,-22,-3,0,-1,-1,2
1537907107409408,-3,-3,4,1,0,-1,-2,-2
1537907107418384,-1,-2,-2,3,-1,1,-2,-1
1537907107418384,-3,-5,-20,-7,-3,0,0,0
1537907107441323,-6,-8,8,-11,-3,-1,-3,-5
1537907107441323,1,8,-20,8,0,0,1,0
1537907107442320,0,-6,1,-4,-4,-1,-3,-1
1537907107442320,0,-3,6,-2,0,1,1,-1
1537907107456283,-6,-12,-18,3,-6,-4,-3,-4
1537907107456283,2,7,46,-1,5,3,3,3
1537907107457280,-1,1,6,-2,-2,-1,0,1
1537907107457280,1,0,-12,2,2,-1,-1,1
1537907107470246,-2,-3,-3,-2,-2,-1,0,-1
1537907107470246,-4,-2,-1,-3,-4,-3,-3,-4
1537907107479221,0,1,-3,0,-2,0,0,0
1537907107479221,-1,0,-11,2,2,0,2,-2
1537907107493184,0,-1,9,-2,1,1,1,-1
1537907107493184,-1,1,5,-2,-3,-1,-2,-2
1537907107495179,0,3,40,-2,1,0,2,0
1537907107495179,-4,-14,-66,4,-2,-1,-3,-4
1537907107516123,4,14,0,6,4,1,0,3
1537907107516123,-3,-1,5,-5,-8,-3,-2,-1
1537907107518118,2,-1,-8,-1,2,0,0,-1
1537907107518118,-1,-3,0,0,1,-3,-2,1
1537907107530086,-2,-1,45,2,-2,-2,0,-2
1537907107530086,-5,-12,-72,-8,0,0,-3,-3
1537907107539062,1,4,-14,-9,-4,-1,-2,0
1537907107539062,1,2,23,1,1,0,-2,1
1537907107554022,-2,-2,4,-7,-1,-1,-1,-1
1537907107554022,-2,-4,3,-2,-2,-2,-1,-2
1537907107555019,-1,1,15,7,-1,-1,-2,-2
1537907107555019,0,-1,-17,-4,1,1,0,1
1537907107575963,-1,0,17,2,0,0,-1,0
1537907107575963,1,-4,-27,-9,-2,-2,0,-2
1537907107577958,-3,-8,4,1,-2,-2,-2,-2
1537907107577958,1,8,21,5,0,1,0,0
1537907107589925,1,-1,1,1,1,-1,-1,1
1537907107589925,0,-2,4,1,-3,0,1,-1
1537907107598902,-2,-1,18,-4,-3,-2,0,-1
1537907107598902,0,-1,-18,-2,-3,0,-1,0
1537907107613862,-1,-1,-1,1,-1,0,1,1
1537907107613862,2,2,8,1,1,-2,0,2
1537907107614859,0,3,8,2,0,-2,-1,0
1537907107614859,-2,-3,6,-5,-2,-1,-1,-3
1537907107635803,-1,-8,-36,-6,0,0,-2,1
1537907107635803,1,6,13,2,-1,0,-1,-2
1537907107637798,-1,2,-9,-1,1,0,1,1
1537907107637798,0,-1,52,3,0,-1,-1,-2
1537907107649766,-3,-8,-66,-17,-6,-3,-1,-4
1537907107649766,-2,-2,25,15,2,0,0,-1
1537907107658742,2,4,-11,-2,0,0,-1,1
1537907107658742,-1,-1,-6,-1,-1,-3,1,-1
1537907107673702,-2,0,17,-1,-4,-2,-1,-2
1537907107673702,-5,-6,16,-3,-4,-3,-2,-5
1537907107674699,2,4,14,3,3,3,2,2
1537907107674699,0,-1,-15,-2,0,0,0,0
1537907107695643,-1,0,13,-2,-1,-1,0,-1
1537907107695643,-2,-2,-12,-4,-2,-1,-1,-2
1537907107697638,-3,-5,-9,2,-2,-1,-3,-3
1537907107697638,1,-1,-2,-5,-2,-1,-1,-1
1537907107709606,-2,-1,-6,4,-1,0,0,-2
1537907107709606,0,2,-4,-3,-1,-2,0,1
1537907107718582,-1,-6,-11,-2,-1,-1,-1,-2
1537907107718582,-1,-2,-22,-3,0,-2,1,0
1537907107733542,1,2,17,2,1,-1,-1,-1
1537907107733542,0,-5,-4,-3,-1,0,-1,0
1537907107735536,-1,-1,-8,-2,-1,0,-1,-1
1537907107735536,1,-2,-7,-2,-1,-1,-1,0
1537907107756480,-2,-3,21,0,-1,0,0,0
1537907107756480,-1,-3,-13,6,3,1,-2,0
1537907107757478,2,1,-15,-2,-1,-2,-1,-1
1537907107757478,-2,-2,19,5,0,-1,-2,-2
1537907107769446,0,-1,-44,-8,-1,-1,-1,-2
1537907107769446,-1,2,-18,-9,0,-2,0,1
1537907107778422,0,1,18,3,1,0,1,2
1537907107778422,0,3,10,1,0,0,0,0
1537907107793382,0,-3,1,4,0,-1,-2,-1
1537907107793382,-1,1,40,-2,-4,-2,-2,-2
1537907107795376,0,-2,-29,-5,-1,0,-1,-2
1537907107795376,-2,-6,-13,-2,-1,0,0,-2
1537907107823302,-2,2,24,1,-1,0,0,-1
1537907107823302,-1,-1,-18,-3,0,0,-1,-1
1537907107825296,-1,1,6,-4,-3,-2,-2,-2
1537907107825296,-1,3,-6,-4,-1,0,-2,0
1537907107829286,0,-1,3,5,0,0,0,0
1537907107829286,2,-2,-6,-2,0,-2,1,0
1537907107838262,-1,2,3,2,-1,-1,-1,0
1537907107838262,0,-2,-10,-2,0,0,0,0
1537907107852224,-1,0,18,-3,-1,-1,-1,-1
1537907107852224,0,-3,-12,-1,-1,1,-1,0
1537907107861201,-2,-2,5,-3,-2,-2,-1,-4
1537907107861201,2,2,-12,2,0,0,-1,-1
1537907107876160,1,2,19,1,1,-1,0,0
1537907107876160,1,2,2,0,-1,-1,-2,1
1537907107877158,-2,-8,-22,-4,-4,0,-2,-4
1537907107877158,-1,1,2,0,0,0,0,-1
1537907107899099,0,3,-1,0,-2,0,0,0
1537907107899099,0,1,37,1,-2,-1,0,-1
1537907107900096,-3,-3,-2,2,-4,-2,-1,-1
1537907107900096,2,-9,-87,-5,3,0,1,1
1537907107914059,-1,3,27,2,0,0,-2,0
1537907107914059,-1,-5,-26,-2,-1,-1,0,-1
1537907107916054,0,4,38,-1,0,-1,-1,0
1537907107916054,-2,2,24,4,-2,-1,-1,-1
1537907107936000,-1,-2,-7,-3,-2,-1,0,-1
1537907107936000,0,-1,-9,-6,0,1,0,-3
1537907107937995,-2,-5,-8,1,-2,-1,1,-2
1537907107937995,2,1,0,-1,-2,-2,-2,-1
1537907107958939,0,-1,-3,-2,0,-1,0,0
1537907107958939,-1,-4,6,0,-2,-2,-2,-1
1537907107959937,-1,-2,-15,-2,-1,-2,1,0
1537907107959937,-2,2,21,2,0,0,0,1
1537907107973899,-2,-5,-14,-4,-1,-2,0,-1
1537907107973899,-1,1,1,1,-1,-1,1,-2
1537907107974897,0,0,-9,-2,1,1,-1,-1
1537907107974897,1,1,34,5,-2,0,0,-2
1537907107995841,0,-6,-43,-4,-1,0,-1,0
1537907107995841,-2,-6,-6,2,0,0,0,0
1537907107997836,0,3,5,1,-1,-1,-2,1
1537907107997836,-2,1,20,-3,-2,-2,-2,-4
1537907108018781,1,-3,8,2,-1,0,-2,0
1537907108018781,0,4,9,1,-1,-2,-1,0
1537907108019779,0,-1,-2,-1,-1,0,-2,0
1537907108019779,0,0,2,-2,-2,-2,-1,-2
1537907108032744,-2,-5,-15,-5,-3,-1,0,-1
1537907108032744,-3,-2,9,-2,-1,-1,0,-1
1537907108039724,2,2,-11,1,2,1,0,1
1537907108039724,-2,-2,-8,-5,-3,-1,-2,0
1537907108055681,0,5,-1,1,0,0,2,0
1537907108055681,0,-2,-2,-2,-1,0,-1,-1
1537907108057676,-2,-3,-5,-3,-2,-3,-1,0
1537907108057676,-3,-5,-8,-3,-1,-1,0,-1
1537907108078619,0,-1,8,0,0,1,-3,0
1537907108078619,-2,2,-1,0,-2,1,-1,-1
1537907108079617,1,-2,0,-2,0,0,0,-1
1537907108079617,-1,-2,25,1,-1,1,1,-1
1537907108092582,-4,-4,-29,-4,-3,-3,-2,-2
1537907108092582,1,1,-15,2,3,0,2,0
1537907108099563,-1,-1,-2,-1,-1,-2,0,-1
1537907108099563,0,-2,-3,-3,-1,-1,-1,0
1537907108115521,0,3,27,0,-1,-1,-3,-1
1537907108115521,0,-2,-8,0,-3,-1,-2,-1
1537907108123499,-1,-1,-4,0,-1,-1,-1,-1
1537907108123499,-1,-1,15,2,-2,-3,-2,1
1537907108138459,0,1,-27,-3,-1,-1,0,-1
1537907108138459,-1,-4,-25,-4,-2,-1,-1,0
1537907108140455,0,7,12,-2,0,-1,-2,-2
1537907108140455,-2,-5,-12,-1,-1,-1,-2,-1
1537907108153420,0,-2,15,1,-2,1,0,0
1537907108153420,-1,-2,5,-5,-2,-1,0,-1
1537907108159404,-2,-3,0,18,4,2,1,-1
1537907108159404,-1,-16,-25,-1,7,2,-1,0
1537907108176359,-3,20,23,-34,-23,-9,-4,-4
1537907108176359,-1,-10,1,2,0,-1,1,0
1537907108177357,0,7,10,-3,-4,-4,-4,-3
1537907108177357,-6,-33,-35,16,3,0,0,-2
1537907108198301,4,-1,12,4,9,2,0,0
1537907108198301,-1,5,-7,-23,-13,-4,-4,-1
1537907108200296,0,-5,-6,1,3,1,1,-1
1537907108200296,0,5,4,-1,-1,0,1,-2
1537907108212264,2,-5,-13,0,3,0,0,-1
1537907108212264,-6,14,26,23,5,0,-1,-3
1537907108221240,-5,-11,-10,32,9,0,-1,-2
1537907108221240,-4,1,24,-42,-23,-9,-3,-4
1537907108236199,1,12,-21,-2,22,10,3,2
1537907108236199,-1,8,-5,19,0,0,0,-2
1537907108237196,0,-3,-2,-30,-31,-11,-7,-2
1537907108237196,-2,15,-7,11,6,0,0,2
1537907108259137,5,5,20,1,-9,-4,1,1
1537907108259137,0,-11,15,-1,16,4,2,3
1537907108260134,-5,4,-12,15,17,8,2,0
1537907108260134,-5,0,11,52,4,0,-2,-6
1537907108272102,4,-15,-7,-25,7,2,-1,-1
1537907108272102,-8,4,9,-8,-11,-6,-3,-2
1537907108281078,-4,-12,-38,-1,5,2,2,-2
1537907108281078,19,9,29,-17,-2,6,5,9
1537907108296038,-25,1,-28,18,0,-3,-3,-3
1537907108296038,2,-12,104,25,7,-6,-10,-18
1537907108298033,8,-14,-107,-97,-64,-23,-10,-3
1537907108298033,16,19,75,74,26,5,2,6
1537907108317980,-14,-5,21,-42,8,5,3,-1
1537907108317980,-5,-3,2,31,15,5,3,3
1537907108318978,-10,-6,41,38,29,5,0,-8
1537907108318978,8,-5,-88,-33,-49,-18,-6,3
1537907108340919,3,-5,5,-8,-42,-16,-3,9
1537907108340919,-23,-11,-55,-2,2,1,-7,-20
1537907108340919,4,17,28,33,37,13,1,-6
1537907108340919,0,11,-18,2,17,8,5,2
1537907108355880,11,-7,-1,-36,-22,-8,-4,-5
1537907108355880,24,-1,-37,-8,14,8,7,15
1537907108355880,-15,-3,13,-41,-56,-20,-5,-1
1537907108355880,4,0,16,26,13,5,-1,-2
1537907108377821,-6,-5,2,-12,11,4,1,-1
1537907108377821,0,6,-12,23,7,1,2,4
1537907108378820,12,-6,30,49,37,11,3,4
1537907108378820,-20,-7,-46,-68,-44,-18,-9,-7
1537907108400759,-6,-3,2,40,10,2,0,-5
1537907108400759,9,1,-15,-12,-8,-1,-3,2
1537907108400759,-4,9,33,6,51,16,9,6
1537907108400759,-8,-9,-10,-30,-32,-13,-7,-6
1537907108415721,2,2,1,18,9,3,1,-1
1537907108415721,4,1,4,-14,-11,-3,1,2
1537907108416717,-2,0,4,-7,-8,-2,0,3
1537907108416717,-3,-2,4,3,21,7,3,0
1537907108437660,9,-2,0,10,-3,-2,-2,-3
1537907108437660,-8,0,-2,-7,-4,-3,-3,-3
1537907108438659,4,1,-1,-5,-15,-4,-2,-1
1537907108438659,-7,-2,-4,-8,11,3,-1,-4
1537907108468577,3,2,12,25,1,-1,1,0
1537907108468577,2,0,-8,-16,-6,-1,2,5
1537907108469575,-3,1,0,-7,-8,-4,-2,-1
1537907108469575,-3,-3,4,2,5,0,-2,-5
1537907108476556,-9,-4,-1,7,7,0,0,-3
1537907108476556,2,3,-4,-11,-6,-3,-1,0
1537907108477554,5,1,2,-5,-8,-2,1,1
1537907108477554,0,0,4,5,9,3,1,2
1537907108497500,1,0,1,7,-1,-1,-1,-1
1537907108497500,1,-2,-5,-9,-9,-2,0,0
1537907108498498,-2,1,6,2,-3,0,0,-2
1537907108498498,-1,0,1,-1,5,1,1,-1
1537907108520439,2,0,-1,5,0,0,-2,0
1537907108520439,0,-1,0,-6,-4,-3,-1,0
1537907108521437,3,-1,-1,-3,-4,0,0,1
1537907108521437,-2,0,0,0,0,1,-2,-1
1537907108535400,-5,-2,-1,3,2,0,0,0
1537907108535400,-5,-1,-3,-7,0,-1,1,1
1537907108536398,12,3,1,-3,5,2,0,2
1537907108536398,7,0,1,21,-7,-4,0,2
1537907108558339,-9,-1,3,-13,-2,0,-2,-1
1537907108558339,-15,-2,-1,2,0,-1,-3,-10
1537907108558339,3,1,-3,-20,7,3,2,5
1537907108558339,-8,-1,1,11,-6,-3,-2,-5
1537907108588257,8,4,-1,8,3,1,1,1
1537907108588257,-1,-3,-2,-10,-7,-1,-2,-2
1537907108589254,0,-2,-1,6,-1,-2,-2,-4
1537907108589254,-7,0,-1,-4,6,4,3,5
1537907108595238,-13,-7,-2,1,-5,-3,-3,-6
1537907108595238,2,3,-2,-5,-7,-2,0,3
1537907108596235,12,3,4,9,-3,-1,0,3
1537907108596235,7,-1,1,-3,6,1,2,2
1537907108618177,2,1,2,6,7,2,0,-3
1537907108618177,-28,-2,2,4,-9,-5,-6,-8
1537907108618177,-11,1,-4,-3,-12,-6,-2,-7
1537907108618177,-3,-2,-1,-7,4,3,1,-1
1537907108640118,2,1,4,21,10,3,3,5
1537907108640118,12,-1,-6,-3,2,1,6,13
1537907108641115,16,1,-3,2,-9,-5,-1,3
1537907108641115,-28,-2,-1,-16,-2,-6,-11,-24
1537907108655078,7,-2,-4,-13,0,1,-3,-2
1537907108655078,-4,-1,3,23,6,1,0,-2
1537907108656076,-12,-7,-1,-3,1,-1,2,4
1537907108656076,27,4,-1,-5,2,2,3,11
1537907108678017,15,-1,1,4,-3,-4,-4,-5
1537907108678017,4,-2,0,-7,1,2,-1,1
1537907108679014,-15,-3,-1,1,-3,-1,-1,-3
1537907108679014,-1,-1,-2,1,-1,-1,0,-1
1537907108699958,-5,2,-1,-3,-7,-4,-2,0
1537907108699958,8,1,-3,-2,-3,-1,1,-1
1537907108700956,-5,1,1,-3,-1,1,0,-4
1537907108700956,2,3,-1,2,1,1,1,2
1537907108715917,0,-1,-2,-2,-3,-2,0,0
1537907108715917,-2,-3,-2,-9,-2,-2,-3,-6
1537907108715917,0,-1,-1,1,0,1,-3,-2
1537907108715917,0,-2,0,0,2,1,1,1
1537907108745836,-2,-1,-1,-5,5,3,1,3
1537907108745836,6,0,0,-1,-12,-4,-1,2
1537907108746834,-10,-4,-4,-19,-8,-3,-4,-9
1537907108746834,-3,-3,-3,1,-3,-1,0,0
1537907108768774,-3,-2,-2,-4,-3,-1,-1,-2
1537907108768774,6,1,0,3,7,1,1,4
1537907108769772,1,-1,3,9,1,-1,-3,-4
1537907108769772,-8,-1,1,-2,-2,-1,-1,-2
1537907108776753,12,0,0,1,-2,-3,-1,4
1537907108776753,-5,-1,2,4,4,0,0,-1
1537907108777750,-1,-3,0,9,-3,0,0,-1
1537907108777750,-5,-3,0,-4,-3,0,-1,-4
1537907108798694,-6,-1,-1,0,-2,-2,1,1
1537907108798694,4,1,-2,-8,-3,-1,0,1
1537907108805676,0,0,-3,3,2,-1,-1,1
1537907108805676,-3,-1,-2,2,2,-2,-1,0
1537907108820635,-1,-2,-3,-4,-4,-2,-2,0
1537907108820635,-2,-3,-3,-2,-2,-1,-3,-4
1537907108827617,-6,-2,0,3,3,-1,0,-2
1537907108827617,1,-2,-3,-3,-1,0,1,1
1537907108835596,-3,-2,-1,0,-2,-2,0,-1
1537907108835596,-1,-2,-2,-5,-1,-1,-2,-2
1537907108842577,0,1,0,-2,-1,-1,-1,1
1537907108842577,-1,-3,0,-4,-2,-1,-1,0
1537907108857537,-2,-1,-1,1,-2,-3,-1,-2
1537907108857537,2,-2,-2,-2,-1,-1,0,3
1537907108858534,0,-4,-3,-4,0,-1,1,-2
1537907108858534,1,0,-4,-1,-2,1,-1,-2
1537907108881473,-4,-1,-1,0,-2,1,0,1
1537907108881473,3,0,-1,-3,-1,0,1,0
1537907108881473,-5,-1,-2,-1,-1,-2,-3,-4
1537907108881473,-3,-2,-1,-1,2,-2,0,0
1537907108895436,-8,-5,-1,0,-1,-1,-2,-5
1537907108895436,6,0,-2,-2,0,-1,0,-1
1537907108896433,0,0,0,-2,-1,0,1,2
1537907108896433,1,-3,0,0,0,-1,0,-2
1537907108918374,4,4,-2,-4,-2,-1,0,3
1537907108918374,-5,-1,1,1,1,0,2,-2
1537907108919372,0,-1,-1,0,-2,0,0,-2
1537907108919372,0,1,-2,-3,-2,-2,-3,-2
1537907108941313,1,1,-1,0,0,-2,0,1
1537907108941313,-2,-4,-1,-2,0,-2,-1,-2
1537907108942310,3,2,0,0,-1,1,0,1
1537907108942310,0,-1,0,-1,-1,0,0,0
1537907108956273,-4,-2,1,0,-1,0,-2,-3
1537907108956273,-4,-2,0,-2,0,-1,-2,-3
1537907108956273,-2,-1,-1,-2,1,-1,-2,2
1537907108956273,1,-1,-1,1,0,0,-1,0
1537907108978214,-3,-2,-2,-2,-1,-2,-1,-3
1537907108978214,0,-1,-2,-1,-1,-2,-2,-1
1537907108978214,-2,-2,0,-1,-2,0,0,0
1537907108978214,2,0,-1,0,-1,0,-1,-1
1537907109001153,-2,-1,-2,-1,-1,-2,0,-2
1537907109001153,-1,1,-1,-1,-2,-2,-1,-1
1537907109002151,1,-1,-1,0,1,0,1,2
1537907109002151,1,-2,2,0,0,-2,-2,-4
1537907109015116,-4,-2,0,-1,-1,0,-2,-3
1537907109015116,0,-1,-1,0,-1,0,-2,-3
1537907109016113,-2,0,-1,-1,-1,-1,-1,0
1537907109016113,-1,-1,-1,-2,-2,-1,0,1
1537907109039052,2,0,-1,0,1,0,1,2
1537907109039052,0,0,-1,-1,1,0,-1,0
1537907109045036,0,-1,0,0,-1,-1,-1,-1
1537907109045036,2,0,-2,-1,0,-2,-1,3
1537907109060993,-5,-1,1,-1,0,-1,-1,0
1537907109060993,-1,-1,-2,-1,0,-1,-2,-2
1537907109061990,0,-1,-1,0,-1,0,-1,-2
1537907109061990,0,0,-1,-2,0,-1,-1,-1
1537907109074956,1,0,0,0,-1,-1,0,1
1537907109074956,-3,-1,-2,0,-1,-1,-1,-2
1537907109075953,0,-2,-1,0,-3,-3,-1,-1
1537907109075953,0,-1,1,0,0,-1,-1,0
1537907109097894,0,1,-2,0,0,2,-1,-2
1537907109097894,-1,1,1,-1,-2,-1,0,-1
1537907109105873,-4,-3,-2,-1,0,-1,-2,-3
1537907109105873,-2,0,-1,-2,-1,0,-1,0
1537907109120833,0,-1,-1,-1,-1,-1,0,-2
1537907109120833,1,-1,-1,-1,1,0,0,1
1537907109121831,-3,-1,0,0,0,-2,-2,-1
1537907109121831,-2,0,0,-1,1,-1,-1,0
1537907109135793,1,-3,0,-1,-1,-1,-1,-1
1537907109135793,1,-1,0,0,1,-1,0,1
1537907109135793,1,2,-1,-2,-1,0,0,1
1537907109135793,-3,-2,-2,-1,1,-2,-2,-2
1537907109157735,-2,-1,-2,-2,-1,-1,-2,-2
1537907109157735,-3,-1,-1,-1,-1,0,2,0
1537907109158732,1,-1,-3,1,0,0,1,0
1537907109158732,-1,0,0,-2,-3,0,-1,0
1537907109180673,2,0,0,-1,-1,0,0,1
1537907109180673,-1,-1,0,-2,-2,-2,-2,-1
1537907109181671,3,-2,0,-1,-3,-1,-1,2
1537907109181671,-3,0,-1,0,-1,0,-1,-1
1537907109195633,0,-1,1,1,1,0,-2,-2
1537907109195633,-2,-2,-1,-2,0,1,0,0
1537907109196630,3,1,0,-1,-1,1,1,0
1537907109196630,-3,-2,-2,-1,0,-1,-1,-1
1537907109217574,-2,2,0,0,-1,-2,-1,-3
1537907109217574,-3,-2,1,-1,1,-1,-2,-3
1537907109218572,-2,-2,-2,-1,0,1,-1,-1
1537907109218572,2,1,2,0,0,-2,1,1
1537907109241511,-2,-2,-1,-1,-1,-1,-1,0
1537907109241511,1,1,-1,-1,-1,-2,-1,0
1537907109241511,-4,-10,-6,-1,1,-1,0,-2
1537907109241511,-1,16,3,2,-1,0,1,0
1537907109255474,-1,-1,-1,21,4,0,-2,-3
1537907109255474,1,4,-6,-9,8,3,0,-1
1537907109256471,-11,-23,4,-14,-19,-9,-6,-5
1537907109256471,3,5,-4,10,11,4,2,-1
1537907109278412,2,2,3,31,-1,-1,1,1
1537907109278412,-6,-11,10,65,39,12,1,0
1537907109278412,-11,-43,-25,0,-13,-6,-3,-8
1537907109278412,-1,72,-2,-108,-20,-8,-7,-10
1537907109301351,6,-37,-45,73,0,-6,1,7
1537907109301351,-1,4,-13,-28,-25,-10,-4,0
1537907109302348,6,12,44,106,42,12,3,7
1537907109302348,-2,-68,15,-37,25,15,8,4
1537907109315313,-9,29,35,20,-55,-27,-11,-8
1537907109315313,1,6,-100,-38,5,3,-2,-2
1537907109316311,-4,-6,40,-35,-88,-32,-9,-6
1537907109316311,6,9,9,80,30,14,4,9
1537907109338252,8,1,20,-1,49,22,7,5
1537907109338252,-7,-12,27,97,19,3,4,-1
1537907109338252,-2,13,1,-49,10,0,-1,-2
1537907109338252,-6,-15,-39,-36,-15,-6,-4,-8
1537907109361191,-3,12,53,-116,-25,-3,0,-1
1537907109361191,-1,-13,-67,14,-11,-6,-3,-5
1537907109362188,1,10,7,24,25,8,3,4
1537907109362188,0,0,22,62,-9,-7,-1,1
1537907109375153,1,-10,-13,-36,-8,-3,-4,1
1537907109375153,-5,0,21,-30,5,-1,-2,-1
1537907109376151,0,-6,-41,-57,-15,-8,-3,-5
1537907109376151,6,-5,-17,95,39,3,0,6
1537907109398092,-1,-4,19,39,-42,-11,0,1
1537907109398092,9,6,31,-71,-22,1,0,4
1537907109399090,1,8,-3,40,36,13,1,1
1537907109399090,-10,-31,-20,-12,-26,-11,-7,-7
1537907109421030,7,24,21,41,58,18,6,3
1537907109421030,-1,-11,11,-5,-16,-8,-2,-1
1537907109422028,3,7,21,-8,-2,1,1,2
1537907109422028,0,0,-10,-9,0,4,1,1
1537907109434993,-19,-7,-23,-10,1,0,-1,-9
1537907109434993,-2,6,13,-14,-17,-5,-4,-7
1537907109450951,0,10,-8,4,1,1,0,0
1537907109450951,0,0,10,25,11,2,1,0
1537907109457932,0,-9,-54,-109,-32,-10,-3,0
1537907109457932,-2,4,43,27,2,-3,-2,-2
1537907109458929,2,-4,-28,-27,12,4,1,2
1537907109458929,-1,-2,11,8,-15,-7,-3,-3
1537907109489847,1,-8,-10,-7,3,4,0,0
1537907109489847,1,0,-2,3,1,0,0,1
1537907109490844,1,4,-5,-5,3,2,0,1
1537907109490844,-4,0,6,-16,-16,-6,-3,-3
1537907109494833,1,-2,-6,13,18,6,0,1
1537907109494833,2,-1,3,-1,0,0,2,1
1537907109502812,-1,6,4,6,-7,-2,-1,-4
1537907109502812,-4,-3,-3,-15,-4,-3,-2,-3
1537907109517772,-1,-5,-5,21,6,1,-2,-1
1537907109517772,3,1,9,-4,-3,-1,-1,2
1537907109518769,-8,-2,-7,3,-2,-1,0,-3
1537907109518769,6,1,-4,-10,-4,-1,1,0
1537907109540711,-3,-2,-1,2,3,0,0,-1
1537907109540711,-8,0,3,2,-6,-3,-4,-7
1537907109541709,5,2,-5,3,6,1,-2,1
1537907109541709,-4,0,0,-5,-5,-1,1,0
1537907109563650,0,-1,3,7,-2,-1,-1,1
1537907109563650,-2,-3,2,-1,3,1,5,3
1537907109564648,-2,-1,-4,5,1,-3,-2,-9
1537907109564648,0,0,3,-7,-2,8,0,1
1537907109577612,2,-2,-2,5,1,-6,15,-23
1537907109577612,10,4,4,5,4,-8,20,47
1537907109578609,-5,-1,-6,-6,-5,3,-46,-53
1537907109578609,-6,-3,0,-5,-6,-15,11,25
1537907109601548,-3,1,-1,1,2,-3,-23,-9
1537907109601548,0,-1,-2,-3,-1,5,13,1
1537907109601548,4,2,2,1,0,0,18,21
1537907109601548,2,1,-1,-3,0,9,-2,-8
1537907109623489,5,-2,-2,4,1,7,8,16
1537907109623489,-7,-3,1,-3,-3,-3,-7,-8
1537907109624487,0,1,0,2,1,2,4,13
1537907109624487,2,0,-1,-3,-2,0,-5,-12
1537907109639447,-1,-1,-2,1,1,-2,2,8
1537907109639447,-3,-2,0,-1,-2,-3,-13,-14
1537907109640444,0,0,-2,0,-1,0,3,-2
1537907109640444,4,-1,-1,-3,-2,-4,2,3
1537907109661388,0,-2,-1,-2,0,-4,-5,-1
1537907109661388,-7,-1,-1,-3,0,3,-8,-13
1537907109661388,-3,-1,0,2,-1,-1,7,8
1537907109661388,0,0,-1,-3,-3,-4,-3,-1
1537907109674353,7,0,-2,2,1,2,-2,3
1537907109674353,-3,1,0,-1,0,2,-5,-8
1537907109683329,-3,-2,-4,1,-1,-3,4,2
1537907109683329,-3,1,-1,-2,-2,0,-5,-5
1537907109698290,-4,-1,-2,-1,-1,1,-2,-7
1537907109698290,4,0,0,0,-2,0,2,3
1537907109698290,1,-1,0,-2,-1,-2,2,6
1537907109698290,-1,0,-2,0,0,0,-1,-5
1537907109721229,-1,-1,-2,1,-1,-1,-1,2
1537907109721229,-1,-1,0,-2,-1,-1,-2,-2
1537907109722226,-1,0,0,-1,1,0,0,3
1537907109722226,-5,0,0,-1,0,0,-1,-6
1537907109744167,-4,-1,0,-1,-2,1,1,1
1537907109744167,-1,-1,-1,0,0,-2,-3,-3
1537907109744167,0,-2,0,1,-1,0,2,0
1537907109744167,1,-1,-1,-1,-1,-2,0,2
1537907109758129,0,-2,1,2,0,-2,1,-2
1537907109758129,1,-1,1,-2,-1,1,-4,-4
1537907109766108,-4,-1,-2,-2,0,-1,0,-2
1537907109766108,1,-1,2,-1,-3,-1,-1,1
1537907109781068,-5,-1,-2,0,-1,-1,0,-1
1537907109781068,-1,0,-3,-2,-2,-1,0,1
1537907109782066,3,0,-1,1,-1,-1,0,4
1537907109782066,-1,-1,-1,-2,-3,-3,-3,-2
1537907109804007,-2,-1,0,-1,0,0,-3,-3
1537907109804007,1,0,-1,-1,-1,-1,-1,-2
1537907109805005,-1,-1,-1,0,0,-1,-2,1
1537907109805005,4,-1,0,-1,-1,0,-1,1
1537907109816973,-3,-1,1,0,-1,-1,0,0
1537907109816973,-2,-2,0,-1,0,-1,-1,-2
1537907109825949,0,0,-1,-1,-1,0,1,0
1537907109825949,-2,-3,0,-2,-2,0,-2,-3
1537907109840911,-1,0,0,-1,-2,0,0,1
1537907109840911,-1,-1,-1,0,-1,-1,-1,-1
1537907109842905,0,-3,-1,0,-2,-1,0,-1
1537907109842905,-3,-1,0,-1,0,-2,0,-2
1537907109863849,-2,-1,0,1,0,0,-1,-1
1537907109863849,-1,0,-2,0,0,-1,-1,0
1537907109864845,2,-2,0,-1,0,0,-1,3
1537907109864845,-3,-1,0,-1,0,0,-1,-1
1537907109877811,-2,-2,-1,-1,-1,-1,-1,-1
1537907109877811,1,-1,-2,0,0,-2,-1,1
1537907109885789,4,-1,0,-1,0,-1,0,0
1537907109885789,-7,-2,-3,0,-1,-1,-3,-3
1537907109900748,-3,-1,-2,-1,-1,-1,-1,-3
1537907109900748,0,0,0,-1,-1,-2,-1,-1
1537907109902743,-1,0,-2,-2,-2,-1,-2,-1
1537907109902743,1,1,0,-2,0,0,0,1
1537907109923687,3,1,1,-2,-2,0,0,1
1537907109923687,-7,-3,0,1,-1,-1,-1,-3
1537907109924685,-2,-1,0,-1,0,-1,0,-3
1537907109924685,-1,-1,-3,1,0,1,-1,0
1537907109937650,1,1,-1,-2,-1,-1,-1,1
1537907109937650,2,-1,1,-2,-1,-1,1,0
1537907109946626,-2,0,-2,0,0,1,0,-1
1537907109946626,-1,-2,-1,-1,-1,-1,0,-2
1537907109961586,-1,-3,-3,1,1,0,-1,-1
1537907109961586,1,0,-1,-1,-2,0,1,0
1537907109962584,1,1,-2,-1,-2,-2,-1,0
1537907109962584,0,-2,-2,-1,-1,-2,-2,0
1537907109984525,2,0,2,-1,-1,-1,-1,1
1537907109984525,0,-9,-3,15,3,2,0,-1
1537907109985523,-4,4,0,-12,1,0,1,-2
1537907109985523,1,-4,3,13,2,0,-1,1
1537907109997490,1,-4,-3,-3,1,-2,0,-2
1537907109997490,2,17,6,18,-7,-4,-2,-2
1537907110006468,-1,-28,9,13,22,11,4,1
1537907110006468,-3,3,-25,-87,-49,-16,-5,-2
1537907110020430,0,32,50,10,49,13,-2,-2
1537907110020430,2,-30,-42,92,2,2,2,2
1537907110027411,-1,1,-26,-26,-20,-13,-6,-3
1537907110027411,3,34,38,-5,19,8,2,1
1537907110051347,-3,-35,-73,-122,-53,-14,-1,0
1537907110051347,0,13,14,77,43,14,2,2
1537907110052344,5,-1,8,-30,-4,7,5,4
1537907110052344,-6,-19,10,20,1,-5,-3,-3
1537907110057331,-1,7,58,101,12,-1,-1,0
1537907110057331,-9,1,-35,-75,-9,-4,-4,-9
1537907110066309,-2,-6,-47,-17,-32,-14,-6,-3
1537907110066309,0,0,12,-32,-15,-2,-1,-2
1537907110082264,2,12,17,25,2,5,3,1
1537907110082264,2,-4,-5,5,8,2,2,5
1537907110083263,-1,4,22,25,16,3,-1,1
1537907110083263,-7,-8,-58,15,17,3,-2,-8
1537907110103209,2,-8,16,18,4,2,0,1
1537907110103209,-9,-3,23,-34,-38,-14,-7,-8
1537907110111187,3,6,-9,-35,9,2,2,0
1537907110111187,2,-5,-22,-11,-4,-1,0,2
1537907110117170,-2,-7,10,-9,-1,-1,-1,-1
1537907110117170,1,3,18,-20,-15,-7,-5,1
1537907110134125,0,6,5,9,-2,-1,1,1
1537907110134125,2,-4,-7,17,0,2,1,0
1537907110141106,1,1,3,-33,20,5,1,0
1537907110141106,-1,-1,1,-21,-12,-5,-3,-2
1537907110143101,-3,0,26,-2,-25,-9,-4,-3
1537907110143101,-1,-13,-52,3,10,4,1,-2
1537907110170029,2,8,-8,23,6,4,-1,3
1537907110170029,-1,0,15,-38,-6,-1,-1,-1
1537907110179007,-5,-3,6,10,3,-1,-2,-2
1537907110179007,0,2,30,2,-2,-3,1,1
1537907110180004,-6,-6,-23,2,-15,-5,-3,-4
1537907110180004,0,0,-1,-4,9,3,1,-1
1537907110185990,0,2,11,16,3,2,-3,-2
1537907110185990,2,0,3,-6,2,1,0,1
1537907110200947,-5,-6,-15,-2,-8,-4,-2,-2
1537907110200947,-1,-2,-9,0,0,0,-1,1
1537907110202942,-3,-1,8,0,6,1,-1,1
1537907110202942,-2,4,17,16,0,0,-1,-2
1537907110223886,1,2,-3,-1,-4,-3,-1,-2
1537907110223886,1,1,-7,-15,9,3,0,2
1537907110224884,0,0,-18,7,-1,0,-1,-4
1537907110224884,1,1,33,29,0,-1,-1,2
1537907110237848,0,1,-10,16,7,0,2,-1
1537907110237848,-3,-9,-17,-32,-22,-9,-4,-3
1537907110253807,-1,-1,-17,2,-1,-1,-2,-3
1537907110253807,0,4,12,18,8,2,0,-1
1537907110260787,-2,-6,-10,-3,-6,-1,-3,-2
1537907110260787,-2,-2,10,12,6,0,0,-3
1537907110266771,1,0,8,2,-3,-1,-1,-2
1537907110266771,-1,-3,-1,-5,-5,-1,-1,-1
1537907110283725,-1,-2,-9,-13,-6,-1,-1,0
1537907110283725,-1,3,7,3,8,0,0,1
1537907110284724,-1,-1,-6,3,-1,-1,-3,0
1537907110284724,1,0,12,4,4,-1,-2,-1
1537907110297688,0,1,-11,-6,-5,-1,-1,-1
1537907110297688,3,1,5,4,1,2,0,0
1537907110306665,-3,-1,-1,3,3,-1,0,-2
1537907110306665,-4,-2,-11,-9,-3,-2,-1,-3
1537907110320626,0,-3,0,-1,-3,-1,0,-1
1537907110320626,0,0,1,0,1,0,0,-2
1537907110322622,0,0,-2,2,3,0,1,1
1537907110322622,-1,-3,-6,-2,-2,-1,-1,0
1537907110343565,-2,0,-1,-1,0,-3,-2,-3
1537907110343565,-1,1,13,0,-3,-1,1,0
1537907110344562,-1,-3,-11,9,4,0,0,0
1537907110344562,0,-1,2,-6,-1,0,-1,1
1537907110357527,-1,-1,-4,3,-1,0,-1,-1
1537907110357527,-1,0,-7,-4,0,1,-1,0
1537907110366503,0,1,5,-4,1,-1,-2,-3
1537907110366503,1,-1,0,2,0,-2,-1,1
1537907110381463,-3,-1,-3,-6,-8,-4,-1,-2
1537907110381463,1,-1,-1,-4,-1,2,1,0
1537907110383458,-1,-2,4,5,0,-2,-1,0
1537907110383458,5,-1,-5,-6,-3,-1,-1,0
1537907110403404,-1,-2,0,-5,-1,0,1,1
1537907110403404,-4,0,0,3,2,0,-1,-2
1537907110409389,-2,-1,-1,3,4,1,-1,-2
1537907110409389,-3,-3,-2,-1,0,-1,1,-1
1537907110417367,2,-1,0,-5,-5,-2,0,0
1537907110417367,-1,-2,-1,-1,0,1,-2,0
1537907110426343,1,1,0,-5,-3,-2,-1,-2
1537907110426343,-1,2,-1,3,0,-1,0,0
1537907110441303,-1,-3,0,-2,-2,1,-1,-2
1537907110441303,-2,-1,-5,2,3,-1,-1,-1
1537907110442301,2,1,1,-7,-9,-2,0,2
1537907110442301,1,0,0,0,0,1,0,0
1537907110463245,0,0,1,2,0,-1,-1,-2
1537907110463245,0,-1,-1,-3,0,2,-2,0
1537907110465239,1,0,1,0,2,0,0,0
1537907110465239,-1,-2,-3,0,-2,-2,-2,-1
1537907110477207,1,-2,-1,-5,-2,-1,-1,2
1537907110477207,-2,0,-2,-2,-2,-2,1,0
1537907110492167,-3,-1,1,0,0,-1,0,-2
1537907110492167,1,0,0,3,3,2,-3,0
1537907110500146,-4,0,-1,2,0,-1,-2,0
1537907110500146,2,-1,-1,-3,-5,-5,-2,-2
1537907110515106,-1,1,0,-1,0,-1,-1,0
1537907110515106,-3,-3,-2,-2,0,-1,0,-3
1537907110524082,-3,-1,0,-1,-2,-1,-1,-1
1537907110524082,-5,-2,0,1,-2,-1,1,-4
1537907110525079,1,0,-1,-1,0,2,2,1
1537907110525079,-1,-1,1,0,1,-1,0,-1
1537907110546023,1,0,-1,-2,-2,-2,-1,1
1537907110546023,2,-3,-3,-2,-2,0,-1,0
1537907110548018,-1,-2,1,-1,0,-2,-1,-1
1537907110548018,-1,0,0,1,0,-1,0,-1
1537907110559986,-2,-3,-1,-3,-3,-1,1,0
1537907110559986,0,0,-2,0,-1,-1,1,-2
1537907110566967,-2,-2,-1,0,0,1,-1,0
1537907110566967,-2,0,-1,2,-1,1,-1,-3
1537907110583922,1,1,-2,-2,-2,0,-1,-1
1537907110583922,0,0,-3,-5,-4,-1,0,1
1537907110584920,-2,-3,0,0,-1,-1,0,-1
1537907110584920,0,0,1,-1,-1,0,-1,-1
1537907110596888,-1,-2,0,0,0,-1,-1,-1
1537907110596888,-3,0,-1,1,0,-1,-1,-1
1537907110611848,-1,-1,-1,0,-3,-1,-1,-3
1537907110611848,1,-1,-1,-1,-1,0,0,-1
1537907110619826,0,-2,0,0,0,-1,-2,-1
1537907110619826,-2,1,-1,-2,-1,-1,-2,1
1537907110628802,-1,0,-2,-2,-1,0,1,-1
1537907110628802,-2,1,-2,-2,-2,-4,-2,-2
1537907110643762,-2,-2,-3,-1,-3,-1,0,-1
1537907110643762,0,0,-2,0,1,-1,0,1
1537907110644759,1,-1,-3,-2,-1,-3,-2,-1
1537907110644759,-1,-2,0,-3,-1,-1,1,-1
1537907110665703,-1,-1,-2,-1,1,-4,0,0
1537907110665703,0,-3,0,1,0,0,-2,0
1537907110667698,-2,-1,0,0,0,0,-1,-1
1537907110667698,-1,-1,-2,0,1,0,-2,0
1537907110688643,0,0,-1,-1,0,-1,0,-2
1537907110688643,1,1,1,-1,0,0,0,0
1537907110689640,-1,0,0,0,1,1,-1,-1
1537907110689640,0,-1,-2,-2,-2,1,-2,1
1537907110703602,-1,-1,-1,0,1,0,-2,-2
1537907110703602,0,1,-1,-2,-5,-4,-1,0
1537907110704600,1,-2,-2,-1,-1,-1,-1,0
1537907110704600,-2,0,-3,0,0,-2,-2,0
1537907110726541,0,0,0,1,0,0,0,0
1537907110726541,-2,-4,-1,-1,0,-1,1,-1
1537907110727538,-2,0,-2,-2,-1,-2,-1,0
1537907110727538,-1,-2,-1,1,-2,-1,0,-1
1537907110739507,1,1,-2,0,1,-3,-2,-1
1537907110739507,-1,1,1,0,0,-1,-2,-1
1537907110748482,-1,1,-1,0,-1,0,-1,0
1537907110748482,-1,-1,0,0,-1,-1,0,-1
1537907110763442,0,-1,-1,-1,-1,1,-2,0
1537907110763442,0,-1,0,-1,0,-1,0,-1
1537907110765437,-2,0,-2,-1,-1,-3,-2,-2
1537907110765437,-1,-1,-1,-1,0,2,0,-1
1537907110786381,-2,-2,-2,-2,-1,-3,-1,0
1537907110786381,-1,0,-3,-1,-2,-1,-1,-1
1537907110787378,-1,-1,0,-2,-1,0,0,0
1537907110787378,0,1,1,0,-1,-1,0,-1
1537907110799346,0,0,0,0,1,0,-1,-1
1537907110799346,-1,0,-2,0,1,1,0,-1
1537907110808322,-2,-1,-1,-2,-3,-3,-3,-1
1537907110808322,0,1,-1,-2,-1,-2,-1,-2
1537907110823282,0,-1,-1,-1,-2,1,-1,0
1537907110823282,-2,-2,-2,0,2,-1,-1,-2
1537907110825277,0,-2,-1,0,-1,-1,-1,-1
1537907110825277,0,-2,-2,-1,-1,-3,0,0
1537907110846221,0,0,0,0,-2,0,0,0
1537907110846221,1,0,1,-2,-3,-1,-2,-1
1537907110847219,-3,0,-1,-3,-2,-1,0,0
1537907110847219,-1,-1,0,0,0,-1,-3,0
1537907110860184,1,1,0,0,2,0,0,-3
1537907110860184,0,-1,-1,0,-1,-1,-1,-1
1537907110875143,-1,-1,0,-1,-1,0,1,0
1537907110875143,0,0,-2,-1,-4,-2,-1,0
1537907110884119,-1,-1,-1,-1,-2,-2,-1,0
1537907110884119,-2,-2,1,0,0,-2,-1,-1
1537907110885117,1,-1,0,1,0,0,-1,-2
1537907110885117,-1,0,0,0,1,1,-1,-1
1537907110914040,0,-1,1,-1,-3,0,0,-1
1537907110914040,0,-1,-2,0,-2,0,0,-1
1537907110915038,0,-2,-1,-1,-2,0,0,-1
1537907110915038,-1,-2,-2,0,0,0,0,-1
1537907110920024,-3,-1,-1,0,-1,-1,-3,-2
1537907110920024,-2,-1,0,0,-1,-1,-2,-1
1537907110929000,-2,-1,-2,-1,-3,-2,-1,-2
1537907110929000,-1,-1,0,-2,-1,-1,0,-2
1537907110943960,-2,-2,1,0,-1,0,1,0
1537907110943960,-1,-1,-1,1,-1,0,-2,-2
1537907110944957,1,1,0,0,-2,-1,-1,-2
1537907110944957,-2,1,2,-1,-2,0,-1,-1
1537907110965901,0,0,-2,-1,0,-1,-2,-1
1537907110965901,-1,-1,1,-1,0,0,0,-1
1537907110967896,1,-1,-1,0,1,0,-2,0
1537907110967896,0,0,-2,-1,-2,-2,0,-1
1537907110980861,-2,-1,-1,-2,-2,-3,-1,1
1537907110980861,0,-2,0,0,1,0,0,-1
1537907110986845,0,-2,0,-2,-1,0,-1,-1
1537907110986845,-3,-2,-1,-1,0,0,-1,-1
1537907111003800,-2,-1,-1,0,-1,-1,0,-1
1537907111003800,0,0,0,-2,-2,1,0,-1
1537907111004797,0,-1,0,0,0,0,0,1
1537907111004797,0,-1,1,-1,-1,-2,-1,0
1537907111025741,0,0,0,-1,-1,-2,0,0
1537907111025741,0,0,-3,0,-2,-2,1,-1
1537907111027736,0,-1,-1,-2,-1,-1,-1,0
1537907111027736,-1,-2,-1,-1,-3,2,-1,1
1537907111040701,-1,-1,-2,-1,0,-1,0,-1
1537907111040701,-1,0,0,0,0,-1,-1,-1
1537907111047682,-2,0,-1,-1,0,-3,-2,-1
1537907111047682,-2,-2,0,0,-2,-1,-1,-2
1537907111063640,-2,-1,-2,0,2,2,-2,-1
1537907111063640,-1,-1,-2,-2,-1,-2,0,0
1537907111064637,0,0,-2,-2,-1,-1,-1,-1
1537907111064637,0,-1,0,-1,1,-1,-1,-1
1537907111085581,-2,-2,-2,1,0,0,0,-2
1537907111085581,0,-1,-2,-2,-1,-2,-2,0
1537907111087576,-1,-2,-1,0,-1,-2,1,-1
1537907111087576,-1,-2,-2,0,0,-1,-2,-1
1537907111100541,0,0,0,-1,0,0,0,0
1537907111100541,-1,0,-1,0,-1,-1,1,0
1537907111107523,0,-1,0,-1,0,0,-1,-1
1537907111107523,-1,0,-1,0,1,0,-1,-1
1537907111123480,0,0,-1,-2,-2,-2,-1,0
1537907111123480,0,-2,0,-1,-2,-1,-1,0
1537907111125475,-1,-1,0,0,-1,0,1,1
1537907111125475,0,-1,0,0,-2,-2,-1,-2
1537907111146418,1,-1,0,-1,-1,0,-1,-1
1537907111146418,-2,0,-1,-2,-2,0,-1,-2
1537907111147416,-2,-1,-1,-1,0,-2,0,-1
1537907111147416,0,-1,-1,-2,-3,-2,0,1
1537907111159384,-1,-1,0,-3,-1,-1,0,0
1537907111159384,1,0,-2,-1,0,0,0,-2
1537907111168359,-2,1,0,-1,-1,0,0,-1
1537907111168359,0,0,0,0,0,-2,0,-1
1537907111183320,-1,-2,0,1,-2,-2,-1,1
1537907111183320,-1,0,0,1,-1,0,-3,-1
1537907111185315,-2,-1,0,0,-1,0,-2,0
1537907111185315,-1,0,-1,0,2,1,1,0
1537907111206258,0,-2,-1,-2,-2,0,0,-1
1537907111206258,-1,-1,-1,-1,-1,0,1,0
1537907111207256,-1,0,-2,-1,-1,2,-1,0
1537907111207256,-1,-1,-1,-2,-1,-2,1,-2
1537907111219224,-1,-1,-1,0,0,0,-1,-1
1537907111219224,-2,-2,0,-1,0,-2,-1,-1
1537907111228200,0,0,0,-2,0,-1,-1,-3
1537907111228200,0,-1,0,-1,-2,1,0,-1
1537907111244158,-1,0,-1,0,-1,0,0,-3
1537907111244158,0,-1,-1,-2,1,0,-1,0
1537907111245155,0,-2,-2,-1,1,0,-1,0
1537907111245155,0,-1,1,0,-1,-1,-2,1
1537907111266098,-1,-2,-1,-1,-2,-1,-1,0
1537907111266098,0,1,-1,1,-1,0,0,-2
1537907111267096,-1,-1,0,-1,-2,-3,1,-1
1537907111267096,-2,-1,-2,0,-1,-1,-1,-1
1537907111280061,-1,0,0,0,-3,-1,-1,0
1537907111280061,0,-2,1,-1,1,-2,1,-2
1537907111289037,-1,0,-2,1,0,0,-1,-2
1537907111289037,-1,0,0,0,-1,0,-1,0
1537907111303997,-1,-2,0,1,-1,0,-1,-1
1537907111303997,0,1,-1,-1,-2,-1,-1,0
1537907111304995,-1,0,0,0,1,-2,-1,-1
1537907111304995,-1,-2,-2,-1,-2,-1,-1,-1
1537907111325938,0,-1,-2,-3,0,-2,-1,-2
1537907111325938,-1,-1,-1,-2,-1,0,0,0
1537907111327933,-1,1,0,-2,0,0,-1,-1
1537907111327933,0,0,-2,-2,-2,-1,0,-2
1537907111339901,0,-2,-1,0,0,0,0,-1
1537907111339901,-1,-1,-1,1,0,0,-1,-1
1537907111348877,0,-1,-2,-1,-2,0,-1,0
1537907111348877,-3,-1,-1,-1,0,-2,-2,-1
1537907111363837,0,1,-1,-1,-1,-2,0,-1
1537907111363837,-1,-1,-1,-1,-2,-1,0,-2
1537907111364834,-1,-2,-2,0,-2,-2,0,-1
1537907111364834,0,0,-1,2,-1,0,1,0
1537907111385778,-1,-1,-1,0,1,0,1,-1
1537907111385778,0,-1,-1,-3,-4,-2,0,1
1537907111387773,0,-2,-2,0,0,-1,0,-2
1537907111387773,-1,0,-1,1,1,-1,-2,-1
1537907111399741,-3,-1,-2,-2,-1,-2,-1,-3
1537907111399741,1,-2,-1,-1,-2,0,-2,0
1537907111408717,0,0,1,0,0,2,-3,1
1537907111408717,-2,0,0,-2,-4,4,0,0
1537907111423677,2,-1,-1,0,4,-15,-2,-2
1537907111423677,-2,-1,0,0,-2,11,5,0
1537907111424675,0,-2,-1,-2,-2,-7,-4,5
1537907111424675,-3,0,1,3,5,23,2,-2
1537907111445618,-2,-2,-1,-3,-7,-28,-5,2
1537907111445618,1,-1,-4,-9,-7,-15,-12,-19
1537907111447613,0,0,1,3,11,8,5,25
1537907111447613,0,-2,0,-4,-9,-4,7,6
1537907111459581,-2,-1,1,3,8,1,-5,-4
1537907111459581,-1,0,-2,2,1,16,11,2
1537907111474541,0,-2,0,-3,-1,-13,-8,-11
1537907111474541,1,-2,0,-4,-1,-3,-6,-4
1537907111482520,-2,1,1,2,-3,-6,0,-1
1537907111482520,2,1,-1,0,0,-6,-4,6
1537907111489501,0,2,-1,0,10,16,11,-4
1537907111489501,-1,-3,-6,-8,-8,-8,-1,1
1537907111521417,-1,-2,1,0,-6,7,-2,-3
1537907111521417,-2,1,-1,-1,1,3,3,3
1537907111523411,-1,-4,-2,-2,-12,-10,1,-4
1537907111523411,3,3,2,3,7,-4,-7,-3
1537907111524408,1,-1,-1,-2,1,7,5,2
1537907111524408,-1,-2,2,5,3,2,0,1
1537907111534381,-2,-5,-2,-1,-1,0,-3,-4
1537907111534381,-1,-1,-3,4,-4,-10,-1,-2
1537907111543357,0,-1,0,15,13,10,-1,-2
1537907111543357,1,0,-3,-20,-13,-9,-1,4
1537907111557320,-2,-1,0,-4,-8,-5,-6,-6
1537907111557320,-1,0,1,-7,5,-1,1,-2
1537907111566296,-2,-1,0,9,2,12,3,0
1537907111566296,2,-1,0,18,13,-3,-2,1
1537907111567293,-3,-2,-5,2,-16,-7,-1,-3
1537907111567293,-7,-4,-3,-18,-10,-2,-2,-4
1537907111579261,2,-2,-4,-3,7,3,1,4
1537907111579261,-2,-3,9,45,17,1,1,0
1537907111588237,2,-2,-16,-66,-36,-10,-5,-4
1537907111588237,-3,0,1,7,5,-1,0,0
1537907111603197,-7,-3,1,-5,-1,0,-3,-4
1537907111603197,-2,-2,-1,-6,1,-1,-1,0
1537907111610179,2,2,3,22,15,7,4,2
1537907111610179,-1,-2,-1,5,-4,-3,-1,0
1537907111626136,1,-1,-4,-14,-8,-1,0,0
1537907111626136,-2,-1,-1,-5,1,1,0,0
1537907111627133,-1,0,4,22,16,5,1,0
1537907111627133,0,-1,-1,2,-11,-7,-3,-4
1537907111648077,1,-1,-5,-13,-7,-1,-1,0
1537907111648077,-3,-3,3,-4,-2,-2,-1,-1
1537907111650072,0,0,3,22,2,1,1,0
1537907111650072,-3,-4,-4,4,8,-1,-1,-3
1537907111663037,1,1,-2,-4,0,1,0,1
1537907111663037,-4,-3,-5,-38,-27,-10,-6,-4
1537907111670019,0,0,-2,-15,-4,1,0,-1
1537907111670019,-1,0,1,20,8,1,-1,1
1537907111685976,-1,1,1,-19,-7,-3,1,0
1537907111685976,-2,-2,-2,-3,1,-4,-3,-2
1537907111687971,-2,-2,4,6,4,3,1,0
1537907111687971,1,0,-1,-3,-2,1,1,1
1537907111708915,-1,-2,0,1,3,3,1,-1
1537907111708915,-1,0,-2,2,2,-1,0,1
1537907111709912,-4,1,2,-4,-2,-3,-3,-2
1537907111709912,3,2,0,-7,1,-1,1,1
1537907111722878,-2,-1,-2,31,1,-1,-1,-2
1537907111722878,-3,0,-5,-39,-11,-3,-1,-3
1537907111729859,1,-1,-1,4,1,0,-2,0
1537907111729859,-2,-2,2,-4,3,1,0,1
1537907111745816,0,0,1,-1,-6,-3,-2,0
1537907111745816,-1,-4,-3,13,3,-1,-1,-1
1537907111747811,0,0,3,1,5,2,0,-1
1537907111747811,0,-2,-9,-10,-6,0,0,-1
1537907111768755,-2,-2,-8,-3,-1,-2,-2,-1
1537907111768755,-2,-9,7,-9,-3,-1,0,-2
1537907111769752,-1,5,-19,-1,1,-1,1,-1
1537907111769752,1,8,14,6,4,2,0,1
1537907111781720,-2,-9,16,19,8,4,-1,0
1537907111781720,-1,5,3,-8,-8,-5,-2,-1
1537907111790696,-1,-3,-2,0,-2,-1,-1,1
1537907111790696,-3,-6,-8,-16,-4,-1,-1,0
1537907111805656,-1,2,2,1,2,1,0,0
1537907111805656,-3,-2,-2,19,6,1,1,0
1537907111807651,-3,-9,-2,-5,-4,-4,-1,-4
1537907111807651,1,4,-3,17,2,-1,-1,-2
1537907111828595,0,13,8,-31,-17,-6,-3,-1
1537907111828595,-1,3,-10,4,5,3,0,-2
1537907111829592,-3,-15,-8,-5,0,-1,-1,0
1537907111829592,3,9,14,11,8,2,1,1
1537907111842558,-3,-4,1,6,2,2,1,0
1537907111842558,3,16,-12,-3,-5,-2,-1,0
1537907111851533,-1,1,9,-1,-4,-4,-1,1
1537907111851533,-4,-14,-10,-3,0,-1,-2,-3
1537907111866493,-1,-1,-2,-2,-3,-4,-1,-2
1537907111866493,1,6,3,-1,-1,-1,-1,0
1537907111867491,1,0,2,6,3,2,0,-2
1537907111867491,1,-2,1,-4,-3,-1,0,0
1537907111888435,0,-1,-5,-7,-1,3,1,0
1537907111888435,2,-4,2,15,12,6,2,0
1537907111890430,3,-8,1,11,-7,-3,-1,1
1537907111890430,-9,4,-3,-4,-2,-6,-2,-5
1537907111902398,-4,-6,-11,-13,-13,-5,-6,-8
1537907111902398,1,-8,0,4,2,-1,-1,-1
1537907111911374,-3,9,5,-1,4,6,0,0
1537907111911374,2,-8,-3,0,2,1,1,2
1537907111926334,1,6,2,6,5,1,2,0
1537907111926334,-5,-10,-3,-4,-1,-4,-3,-4
1537907111927331,1,4,0,-6,-2,-3,-2,0
1537907111927331,2,2,-3,-2,-5,-2,-1,0
1537907111948276,-1,-11,-3,0,1,0,0,2
1537907111948276,-2,-3,21,6,-1,2,1,0
1537907111950270,2,5,-22,-7,0,-1,0,-2
1537907111950270,-2,-20,-11,-8,-8,-3,-2,-3
1537907111962238,-4,9,15,6,2,2,0,-3
1537907111962238,6,5,-1,2,1,0,-2,2
1537907111971214,-10,-5,6,5,2,1,0,-3
1537907111971214,3,0,-1,-6,-2,0,-1,2
1537907111986174,2,1,-8,-5,-3,-1,-1,1
1537907111986174,-2,-3,-4,-1,-3,0,-1,1
1537907111987171,-1,-5,2,-1,2,-1,-1,0
1537907111987171,0,2,-2,-7,-1,-1,-1,-1
1537907112008115,-2,1,2,18,3,-1,-1,-2
1537907112008115,1,-2,-6,-21,-8,-3,-2,-1
1537907112010110,1,2,1,-1,-1,0,-1,-2
1537907112010110,-4,-1,2,-4,-2,1,-1,-4
1537907112022078,1,0,-2,1,1,-1,0,1
1537907112022078,-1,-3,-4,2,1,0,1,0
1537907112031054,0,4,3,3,2,1,0,-1
1537907112031054,1,2,1,4,-2,-4,-1,-1
1537907112046013,-1,-6,-5,-16,-7,-1,-2,-2
1537907112046013,1,2,-3,4,1,1,1,-1
1537907112048008,1,-3,4,-7,-3,-2,0,1
1537907112048008,-3,3,2,8,2,2,2,-1
1537907112067955,0,-2,-7,-3,-5,-3,-2,1
1537907112067955,-3,-2,-1,-3,-1,-1,0,0
1537907112074936,0,1,1,0,-2,0,-2,-3
1537907112074936,1,1,1,0,0,-1,0,-1
1537907112081918,1,0,-4,-1,-2,-1,1,0
1537907112081918,-3,-1,0,-1,0,-1,-1,0
1537907112090893,-1,1,1,0,-2,0,1,0
1537907112090893,0,1,1,5,-1,0,0,-1
1537907112105854,-1,-3,-2,-8,1,1,-3,1
1537907112105854,0,-1,-4,5,7,2,-1,-1
1537907112107848,-1,7,-3,-22,-4,-1,-1,-2
1537907112107848,2,-9,12,38,0,-1,-1,2
1537907112128792,-7,-3,42,5,-1,2,0,-7
1537907112128792,8,0,-38,-20,18,3,0,0
1537907112129790,6,8,-45,-22,1,-1,2,5
1537907112129790,-5,-55,30,-51,-46,-15,-10,-6
1537907112141757,9,82,67,29,21,7,5,5
1537907112141757,-7,11,-86,-112,-39,-14,-7,-3
1537907112157715,6,-7,54,19,39,17,8,8
1537907112157715,1,11,51,-49,-41,-20,-6,1
1537907112165694,8,-20,-73,92,60,26,13,6
1537907112165694,-12,9,56,-52,-82,-29,-10,-13
1537907112167688,3,2,-62,-16,10,8,2,2
1537907112167688,18,69,9,76,103,36,12,10
1537907112188633,-17,-76,4,-65,-96,-38,-17,-11
1537907112188633,-4,-8,-1,-2,15,0,-1,-2
1537907112189630,-6,-23,-12,-18,-27,-6,-1,-6
1537907112189630,-6,0,-35,32,7,1,-1,-5
1537907112202595,5,11,29,-30,28,8,2,1
1537907112202595,1,-3,0,63,14,5,1,-1
1537907112211571,-7,-10,29,60,-21,-13,-6,-6
1537907112211571,1,9,-11,19,18,11,5,3
1537907112226531,-3,2,-74,-98,-6,0,0,0
1537907112226531,-5,-14,29,-25,-65,-18,-7,-3
1537907112227528,6,29,8,28,26,5,5,3
1537907112227528,-3,-9,-31,-46,-7,-2,1,-1
1537907112248472,1,7,-65,32,14,2,-1,2
1537907112248472,0,-12,106,11,23,7,4,3
1537907112250467,0,10,27,-15,-14,-8,-5,-3
1537907112250467,-4,-22,-48,25,-16,-7,-3,-3
1537907112262435,-1,-13,8,-28,8,0,-3,-2
1537907112262435,4,-16,-22,43,24,10,4,2
1537907112271411,-10,-28,-15,25,-3,-6,-6,-5
1537907112271411,-2,16,18,-16,-2,1,-1,-3
1537907112286371,-3,-3,-2,36,9,-3,-1,-1
1537907112286371,-1,-8,28,15,-4,-2,0,-3
1537907112287368,-1,-15,-72,-13,10,4,3,3
1537907112287368,-5,9,6,-15,-17,-8,-3,-2
1537907112308312,1,13,17,43,7,2,0,-1
1537907112308312,4,3,-2,26,34,11,3,2
1537907112310307,-2,1,9,-38,-34,-13,-8,-5
1537907112310307,-2,-5,4,16,22,6,2,-2
1537907112332249,1,-9,-34,9,7,-2,-1,0
1537907112332249,3,20,64,-19,-20,-8,-1,0
1537907112334243,1,4,2,0,10,4,0,2
1537907112334243,1,-2,-10,5,7,-1,0,1
1537907112345214,-3,-7,52,20,8,0,0,-3
1537907112345214,1,7,-42,-6,5,2,0,0
1537907112353192,-1,-10,-61,14,4,1,0,-1
1537907112353192,0,5,28,-11,-15,-6,-3,-1
1537907112368153,2,-4,4,-20,-16,-2,0,0
1537907112368153,-6,4,0,15,9,4,0,-1
1537907112370148,-2,6,25,3,3,-1,-1,-3
1537907112370148,-2,-21,-10,-10,-5,2,0,-1
1537907112382115,-7,-5,23,15,-28,-11,-5,-6
1537907112382115,14,60,-25,35,23,8,6,8
1537907112391091,-3,-14,28,-11,2,-1,-2,-3
1537907112391091,0,-24,-17,-39,-19,-9,-4,-2
1537907112406052,0,15,50,0,-1,0,0,1
1537907112406052,-5,-24,-12,20,10,2,-1,-4
1537907112407049,0,14,13,-12,-13,-4,-2,0
1537907112407049,-1,0,-3,7,8,4,0,1
1537907112428990,0,-1,-14,-15,-13,-5,-3,-2
1537907112428990,-4,-13,-34,-8,1,0,0,-2
1537907112429987,-1,6,14,-5,3,1,3,0
1537907112429987,-2,4,3,-6,-3,-2,-1,-3
1537907112441955,-3,-4,-14,-7,-4,-2,0,-2
1537907112441955,-1,-4,-6,0,5,1,-1,1
1537907112450931,-2,-2,20,3,-1,0,-2,-2
1537907112450931,1,3,1,-2,-7,-3,-2,0
1537907112464894,-5,0,-14,-12,-4,0,0,0
1537907112464894,-1,-8,-8,0,3,0,1,-1
1537907112471875,-1,1,10,-2,-4,-2,0,-2
1537907112471875,2,3,-12,-4,-2,0,1,0
1537907112488830,2,0,-5,-5,-1,0,-2,0
1537907112488830,0,-6,-5,-1,-1,-1,-1,-3
1537907112489827,-2,-3,2,-4,-5,-3,-2,-2
1537907112489827,2,2,1,-2,2,0,0,-3
1537907112501795,-4,-5,-1,0,3,1,-1,0
1537907112501795,5,-3,-5,-5,-4,-2,-2,0
1537907112510771,-5,1,2,-3,-2,-2,-3,-2
1537907112510771,1,-1,0,3,3,2,-1,0
1537907112525731,1,-1,-5,-3,-1,3,0,0
1537907112525731,-12,-5,-8,-7,-4,13,0,-4
1537907112539694,1,2,2,-3,-3,-29,-7,-2
1537907112539694,1,0,0,-3,-5,-1,-1,0
1537907112548670,5,-1,-3,-1,1,1,3,0
1537907112548670,-3,0,-4,-1,2,2,-1,3
1537907112549667,-5,-3,2,0,-1,5,-4,-1
1537907112549667,-3,0,-1,0,-3,-4,0,0
1537907112572606,-2,-1,-4,-3,-1,-1,-2,-1
1537907112572606,4,-2,-3,0,1,-4,1,2
1537907112573603,-2,-1,2,-2,1,4,2,-2
1537907112573603,-6,-1,-3,7,0,-4,-3,-2
1537907112585571,2,2,-1,-4,10,7,2,1
1537907112585571,0,-4,-7,-8,2,-7,-2,0
1537907112592552,3,-1,-4,-2,-27,-10,-4,-2
1537907112592552,-6,1,1,-3,-1,5,0,-4
1537907112608510,-3,-3,0,17,2,-2,-1,0
1537907112608510,0,-1,0,-2,5,-2,-1,-2
1537907112610505,4,-1,-6,-33,16,10,3,3
1537907112610505,3,-7,3,19,-12,-4,-2,-2
1537907112631449,-1,13,1,-1,2,-2,-1,1
1537907112631449,0,-12,-14,-5,-23,-9,-4,-2
1537907112633444,-3,-6,17,11,9,5,2,-2
1537907112633444,-4,1,-11,-9,1,1,-1,-2
1537907112646409,0,-17,-1,8,3,-4,-2,0
1537907112646409,2,30,6,-5,-1,3,0,-1
1537907112652393,-6,-6,-7,19,2,2,-2,-3
1537907112652393,1,3,-1,2,5,1,-2,0
1537907112668350,-1,1,-3,2,-7,-3,-3,-4
1537907112668350,1,-2,9,8,2,-1,-1,-1
1537907112670345,-1,8,-4,-18,-2,2,1,0
1537907112670345,-4,-15,-16,4,4,0,0,-1
1537907112691289,1,3,5,-14,-6,-1,0,0
1537907112691289,-2,-7,3,8,0,-3,-1,-1
1537907112692286,2,3,1,13,4,0,0,-1
1537907112692286,2,4,5,-7,1,0,-1,3
1537907112704254,-2,-10,-10,-5,-4,-2,-2,-3
1537907112704254,-4,4,-10,-10,-3,-4,-2,-4
1537907112713230,7,-4,6,-9,-2,0,1,4
1537907112713230,0,5,0,0,-3,-2,-1,1
1537907112728190,0,-6,-7,-16,-3,-1,0,-1
1537907112728190,0,4,27,14,6,-1,1,-1
1537907112734174,-5,-6,-26,2,-1,-1,0,-2
1537907112734174,1,-2,-2,-8,3,0,-1,-2
1537907112751129,1,5,8,7,-5,-3,-1,1
1537907112751129,-3,-7,-6,-7,-1,0,-1,-1
1537907112752126,0,1,6,4,-1,0,0,-1
1537907112752126,-1,0,3,-4,-5,-3,-1,-1
1537907112765091,-1,1,-1,7,0,0,-2,0
1537907112765091,0,-1,-6,-4,4,2,1,0
1537907112774067,-1,1,-4,-11,-9,-5,-1,2
1537907112774067,-1,2,4,-5,-1,0,0,-3
1537907112789027,-1,-6,10,11,5,-1,0,-2
1537907112789027,0,1,0,-16,-11,-1,-2,1
1537907112790103,-1,4,1,19,6,1,-1,-3
1537907112790103,-3,-1,-7,-9,-5,-3,0,-1
1537907112818947,2,6,-4,-11,-4,-2,0,-1
1537907112818947,0,-9,-3,3,4,-1,-1,-1
1537907112819945,1,5,0,3,3,1,-1,0
1537907112819945,0,-6,-2,-3,-2,-1,1,0
1537907112824931,-1,-3,-4,-9,-7,-2,-1,-1
1537907112824931,-3,-1,-3,8,5,1,0,-1
1537907112833907,-1,-2,0,-5,-4,-1,1,-2
1537907112833907,-2,-1,3,12,6,2,0,0
1537907112848867,3,0,-6,-18,-3,-1,-1,-1
1537907112848867,-1,-1,-2,13,-5,-4,-1,-2
1537907112849865,-3,-5,3,0,2,1,-2,-2
1537907112849865,0,2,1,-2,-3,-2,0,-1
1537907112870809,0,2,-3,-2,0,-1,-1,-1
1537907112870809,0,-4,-2,-6,-1,0,-1,1
1537907112872803,-2,-1,1,9,3,1,0,-1
1537907112872803,-2,-1,1,5,4,1,0,-1
1537907112884771,0,5,-6,-29,-5,0,0,0
1537907112884771,0,-7,2,11,-2,-3,-1,-2
1537907112893748,2,8,2,2,-2,0,1,-1
1537907112893748,-1,0,-4,-12,-6,-3,-2,0
1537907112908707,-1,-5,-1,8,3,1,0,0
1537907112908707,-1,-2,1,1,5,1,-1,0
1537907112909705,-1,6,-2,-11,0,0,-1,0
1537907112909705,3,4,3,5,2,-1,-1,-1
1537907112930649,-4,-11,-1,8,-1,-1,-3,-2
1537907112930649,-1,-5,-6,-10,-2,0,0,-1
1537907112932644,-1,2,2,6,-2,-2,-1,-1
1537907112932644,-3,-1,-3,-7,-3,-1,0,0
1537907112945609,0,5,4,14,1,0,0,-2
1537907112945609,0,-3,-4,-14,-2,0,-1,-1
1537907112952590,-3,-2,0,-13,-7,-1,-2,-1
1537907112952590,1,-3,-1,5,4,3,-1,-2
1537907112968547,-2,1,-5,-8,-7,-4,-2,-1
1537907112968547,-1,-10,-1,18,8,3,1,1
1537907112969545,1,-5,1,-10,0,-1,-2,1
1537907112969545,-2,3,-2,0,-3,-2,-1,-1
1537907112991486,-1,7,3,4,-6,-2,-2,-3
1537907112991486,-1,-3,-2,-1,3,1,-1,-1
1537907112992484,0,-14,-4,-4,-4,-3,-1,0
1537907112992484,-3,-1,3,3,2,1,-1,-1
1537907113005449,0,0,0,-1,0,-2,-1,1
1537907113005449,0,1,-1,-15,-4,-1,-1,-2
1537907113012430,0,11,1,8,1,-1,-1,0
1537907113012430,-2,-11,-4,-7,0,-1,-1,0
1537907113028387,0,4,0,2,-2,0,-1,-2
1537907113028387,0,1,-1,8,0,-2,-1,-1
1537907113030382,0,-3,0,-18,-2,-1,0,-1
1537907113030382,0,5,-1,-1,0,1,-1,0
1537907113051326,-1,-13,-3,4,0,1,0,1
1537907113051326,2,18,5,16,10,5,2,0
1537907113052323,-4,-12,-5,-2,-14,-6,-4,-2
1537907113052323,-1,-4,-3,-5,-3,-3,-2,-2
1537907113064292,0,14,1,-5,-5,0,-1,0
1537907113064292,-5,-51,-10,-3,-1,-1,-2,1
1537907113079251,1,8,3,9,5,2,0,0
1537907113079251,-2,4,6,-6,-3,-1,0,0
1537907113088227,-4,-4,-2,9,5,1,0,-2
1537907113088227,3,9,-2,-19,-8,-5,0,0
1537907113090222,-3,-5,-2,6,0,-1,-3,-1
1537907113090222,0,-1,-3,2,-2,0,-2,-2
1537907113111166,-1,-8,-9,-3,1,-1,1,0
1537907113111166,-1,9,-3,-2,-3,-4,-2,-2
1537907113117150,2,-2,8,8,2,0,1,-1
1537907113117150,0,4,5,4,3,0,-1,-2
1537907113133108,0,0,1,-4,3,2,0,0
1537907113133108,-2,2,-11,-6,-6,-1,-2,-2
1537907113135102,2,-6,4,7,5,0,0,0
1537907113135102,0,5,0,16,7,1,0,0
1537907113148067,-3,-5,-4,-34,-15,-6,-5,-2
1537907113148067,-2,-1,-4,-11,-6,-3,-1,-1
1537907113150062,1,-1,-14,-1,2,3,0,-1
1537907113150062,0,1,20,15,0,1,-1,-1
1537907113171006,0,-2,8,-4,1,0,0,1
1537907113171006,1,-3,-14,8,1,1,-1,-2
1537907113172004,-1,16,4,-4,-1,-2,0,0
1537907113172004,-1,-14,-7,-3,-3,-2,-1,1
1537907113184969,0,-1,-1,2,-2,-2,0,0
1537907113184969,-3,3,7,-2,-4,1,-1,-2
1537907113193945,1,-5,7,-1,-1,0,-1,0
1537907113193945,0,-4,-17,-5,-1,-2,0,-1
1537907113207908,0,9,23,9,4,2,0,-3
1537907113207908,0,2,-7,0,0,-2,0,-1
1537907113208906,0,16,-6,-2,0,-1,1,-1
1537907113208906,-3,-16,-10,-10,-5,-1,-1,0
1537907113229849,-2,-4,22,5,0,0,-1,-3
1537907113229849,2,7,3,6,1,1,0,0
1537907113230846,-5,-12,-18,-7,-3,0,-2,-2
1537907113230846,4,7,14,1,-1,-2,0,1
1537907113252788,1,0,8,4,1,0,1,-1
1537907113252788,-5,-9,-19,-8,-5,-1,-1,0
1537907113253785,-3,4,32,-3,0,-1,-1,-1
1537907113253785,1,7,-13,-6,-4,-2,-1,-1
1537907113267748,-1,-16,-36,1,2,-1,-1,0
1537907113267748,0,3,-18,-2,2,-3,-2,0
1537907113268745,1,0,-2,3,-2,0,0,-1
1537907113268745,-2,-1,27,4,-1,0,-2,-1
1537907113290686,-1,7,1,6,2,-1,0,-2
1537907113290686,-1,-13,2,-2,0,1,-1,-1
1537907113290686,-3,-16,-14,0,-1,-1,0,-2
1537907113290686,0,13,7,-6,-5,-3,-3,-2
1537907113312628,-1,3,-24,-4,-2,-1,-1,-1
1537907113312628,1,16,8,-7,-2,-1,-2,-1
1537907113313625,0,9,27,8,1,-1,-2,-2
1537907113313625,-4,-19,-12,1,0,-1,-1,-3
1537907113327588,1,0,-48,-7,0,-1,0,1
1537907113327588,-3,6,26,4,-1,0,0,-2
1537907113328585,3,-1,27,0,-3,-2,0,0
1537907113328585,-1,5,-2,-4,-2,-1,-2,-2
1537907113350526,-3,-13,5,4,0,-1,-1,-2
1537907113350526,-1,-13,17,-2,2,1,1,0
1537907113351524,-6,-7,-48,-9,-2,-2,-1,-1
1537907113351524,4,13,-7,7,2,0,0,1
1537907113372468,-2,-13,14,6,1,-2,-1,-1
1537907113372468,3,21,16,0,-3,0,-1,0
1537907113373465,0,-19,-23,-6,-3,0,-2,-2
1537907113373465,-2,-3,-11,-14,-4,0,-1,1
1537907113387428,0,5,12,14,2,-1,0,1
1537907113387428,-1,-1,-14,-7,-3,-4,-2,-2
1537907113388425,1,-5,2,13,3,-1,0,-1
1537907113388425,-5,-9,-35,-9,-2,-2,-1,-2
1537907113410366,1,-9,62,-3,-4,-1,-1,-1
1537907113410366,-2,7,31,8,2,-1,-1,-3
1537907113411364,-1,0,-46,-5,-1,0,0,1
1537907113411364,0,-18,-3,2,2,1,0,0
1537907113433305,-3,6,14,-10,-4,-2,-2,0
1537907113433305,-3,1,-20,6,-1,-2,-1,-2
1537907113433305,0,-3,57,11,0,0,-1,-1
1537907113433305,-2,11,-26,-7,0,0,0,1
1537907113448265,-3,-5,10,0,1,0,0,0
1537907113448265,0,-7,-19,-6,2,2,2,2
1537907113448265,2,3,-10,-5,-3,-3,0,0
1537907113448265,-2,-2,14,3,-2,-2,-1,-1
1537907113470206,0,17,-11,5,3,1,1,-2
1537907113470206,-1,-1,-10,-9,-6,-3,0,-1
1537907113471204,0,12,39,3,1,2,-1,-1
1537907113471204,0,-4,-4,-4,0,0,0,-1
1537907113493145,-3,-27,-40,-6,-1,0,-1,0
1537907113493145,-1,-7,2,15,4,2,0,0
1537907113493145,2,21,-58,-7,-5,-3,-1,-1
1537907113493145,1,-2,53,1,-2,-3,-3,-2
1537907113508105,-2,-4,-43,4,2,1,-1,-1
1537907113508105,0,-10,-40,-20,-3,-3,0,1
1537907113508105,-1,-8,36,4,0,1,-1,1
1537907113508105,-6,-17,-29,-3,0,0,-1,-2
1537907113530047,2,8,14,-6,-4,-3,-1,-1
1537907113530047,-2,-2,9,4,-2,0,-4,-3
1537907113531044,-4,-9,-35,-1,7,1,-1,-2
1537907113531044,0,9,23,0,-8,-3,0,-2
1537907113552985,1,-4,-22,-5,0,-1,-2,0
1537907113552985,3,23,36,4,2,-1,1,2
1537907113553983,-8,-16,30,2,-5,-5,-3,-3
1537907113553983,1,0,-64,-3,2,2,0,2
1537907113567946,2,8,14,3,2,2,0,0
1537907113567946,-3,-10,0,-4,-4,-2,-1,-4
1537907113568942,-4,-10,1,-3,0,-1,-2,-1
1537907113568942,3,2,19,9,0,0,0,-1
1537907113589887,-3,7,-5,-2,-2,-1,-1,-1
1537907113589887,1,-10,-10,3,0,0,0,5
1537907113590884,-4,2,-13,-6,-2,-2,-2,-12
1537907113590884,1,17,35,2,-1,-1,0,-1
1537907113612825,-3,-14,-32,-4,-3,-2,-1,-1
1537907113612825,1,10,33,6,3,1,-1,0
1537907113613823,3,-18,-5,-4,-4,-1,2,6
1537907113613823,-1,12,13,-7,-1,-2,1,7
1537907113627785,2,4,-71,1,2,0,0,-11
1537907113627785,-7,-8,73,1,-3,0,-5,-13
1537907113628783,4,28,9,-6,-2,-1,-9,-21
1537907113628783,5,-31,-55,-6,2,1,11,57
1537907113650724,5,27,41,1,-2,1,8,10
1537907113650724,-7,-9,-37,-6,-1,-1,-10,-45
1537907113650724,-5,-3,5,5,0,0,-3,-4
1537907113650724,-3,-3,16,10,1,0,-8,-11
1537907113672665,2,-3,11,-4,-5,-3,2,20
1537907113672665,3,-2,-17,-4,-4,-1,2,11
1537907113673663,2,-21,25,3,1,0,5,9
1537907113673663,-1,0,-30,-5,-1,-2,2,-3
1537907113688623,2,3,13,1,2,0,0,-1
1537907113688623,0,-7,1,4,1,-1,2,7
1537907113689620,-2,4,0,1,1,0,1,6
1537907113689620,-4,-2,11,0,-3,-2,-4,-13
1537907113710564,-3,3,42,-4,-3,-1,-6,-15
1537907113710564,1,-6,-51,-7,1,0,0,3
1537907113710564,1,0,-63,11,3,2,4,7
1537907113710564,-4,5,8,-18,-6,0,-4,-16
1537907113741481,-2,23,61,4,1,0,-4,-5
1537907113741481,1,0,34,-4,-7,-3,3,12
1537907113741481,-1,16,-34,-30,-7,-3,0,1
1537907113741481,2,-1,-2,8,5,1,-2,-8
1537907113747466,2,8,-30,2,0,-1,-3,-1
1537907113747466,-8,-15,25,9,2,-1,0,3
1537907113748463,0,6,-27,-5,-2,-2,-2,-4
1537907113748463,-1,-6,48,3,1,0,0,-8
1537907113770405,-2,1,-10,7,1,-2,-2,1
1537907113770405,1,8,-6,3,-4,-2,1,0
1537907113771403,5,1,12,-6,-2,-1,0,2
1537907113771403,-2,-8,-5,-2,-1,-2,-1,-2
1537907113793344,0,-6,-4,0,0,-3,-1,-2
1537907113793344,1,1,-9,1,2,-1,0,0
1537907113793344,-4,-9,11,2,0,-1,1,0
1537907113793344,2,27,-4,-1,1,0,-1,-2
1537907113808304,0,-11,9,-1,-2,0,-1,-4
1537907113808304,-3,6,-2,-2,1,3,10,15
1537907113808304,3,-7,-6,-3,1,3,5,38
1537907113808304,0,3,6,4,0,-1,0,3
1537907113830244,-1,-5,0,-3,-2,-2,4,8
1537907113830244,0,-8,34,3,-1,-1,-6,-14
1537907113831242,-5,-3,-40,5,0,-1,-3,-15
1537907113831242,2,-2,-23,-12,-1,0,2,2
1537907113853183,-2,-14,16,-3,-3,-1,-4,1
1537907113853183,1,5,30,1,0,-2,1,4
1537907113860165,-2,1,6,2,0,-3,-2,-8
1537907113860165,-2,-1,1,4,-1,-2,-5,-9
1537907113868143,-3,-1,-16,-6,-2,-3,-2,-4
1537907113868143,0,-11,-31,-5,2,0,-2,-2
1537907113868143,2,6,24,27,6,0,0,-5
1537907113868143,-3,-1,24,-23,-15,-5,-2,-1
1537907113890085,1,0,-26,-10,-2,0,1,0
1537907113890085,-1,-10,-7,-5,-5,-2,-4,2
1537907113891082,1,18,-9,2,0,-1,-2,-3
1537907113891082,5,-2,0,12,10,3,4,2
1537907113913023,-4,-9,40,4,-4,-2,0,0
1537907113913023,4,17,-14,3,3,2,-3,-11
1537907113914022,-4,-10,9,-8,-4,-2,-3,-4
1537907113914022,-3,-1,-4,3,0,-1,-2,-5
1537907113927983,-1,-2,-15,-5,-3,-2,-1,-2
1537907113927983,1,2,-15,3,0,1,2,4
1537907113928981,-1,-4,9,-4,-1,-1,-1,-3
1537907113928981,-2,0,-5,1,-2,-1,-1,-2
1537907113949924,0,-6,-6,2,0,2,-3,-6
1537907113949924,-4,4,-12,-4,-2,-1,1,6
1537907113950923,0,3,5,-3,-3,-1,-1,-1
1537907113950923,-5,-13,1,-1,-1,-1,-1,-2
1537907113973861,-1,0,22,-1,0,-2,1,-1
1537907113973861,0,6,-51,-1,-1,-1,-2,2
1537907113973861,0,1,29,-4,-1,-1,-2,-6
1537907113973861,0,8,-21,5,0,0,-1,1
1537907113987825,-2,-3,32,-2,-2,-1,-2,-1
1537907113987825,-2,-4,-10,4,1,-2,0,-1
1537907113988822,1,-4,-14,-8,-2,0,1,3
1537907113988822,-4,-9,-6,-4,-2,-1,-2,-3
1537907114009764,0,-4,-21,-1,-1,1,-1,-2
1537907114009764,0,6,45,0,-2,-1,0,-2
1537907114017743,3,3,-18,5,2,1,1,1
1537907114017743,0,-3,-1,0,0,0,0,1
1537907114033700,-2,-1,-6,-2,-1,1,-4,-7
1537907114033700,0,-3,-5,-1,0,-2,-2,-3
1537907114034698,-3,-5,8,-3,-1,0,0,-6
1537907114034698,-1,2,7,0,0,-3,-1,1
1537907114047663,0,-2,-18,1,2,-1,0,2
1537907114047663,0,0,38,-3,-3,1,-1,-2
1537907114048661,0,-1,-35,3,0,0,-1,-2
1537907114048661,0,0,-10,-6,0,1,1,-1
1537907114070602,-3,-5,-11,1,-2,-2,-1,1
1537907114070602,1,9,9,1,0,0,0,-1
1537907114070602,-3,-14,0,-1,0,-2,-2,2
1537907114070602,-1,-4,33,0,-2,-1,-1,-3
1537907114093540,2,0,-41,-1,1,0,-1,1
1537907114093540,-2,1,-29,-5,-3,-3,-7,-25
1537907114094538,-1,-6,29,-3,0,1,7,24
1537907114094538,-1,-4,-8,-1,0,1,1,-1
1537907114107503,-1,-4,2,0,0,-1,-2,-4
1537907114107503,-2,-1,-7,-1,-2,-3,-2,-3
1537907114115482,0,3,-15,-3,-3,0,-2,-8
1537907114115482,0,-6,27,4,0,-1,-2,-2
1537907114130442,-1,-1,-13,-3,0,0,1,4
1537907114130442,1,-2,2,0,0,-1,1,7
1537907114131439,-3,-8,-40,-6,0,-1,-3,-6
1537907114131439,0,6,38,5,-1,0,0,2
1537907114153381,2,5,-28,-2,0,0,-2,-3
1537907114153381,0,-6,-22,-2,-1,-2,0,4
1537907114154378,-3,-1,28,1,-2,-1,-2,-3
1537907114154378,-2,-2,16,2,-1,-2,-3,-7
1537907114167343,-2,4,-30,-6,0,-1,-1,-1
1537907114167343,-3,-12,6,1,-2,-2,0,-1
1537907114175322,0,4,5,-2,0,-1,1,0
1537907114175322,-1,-5,0,1,0,0,-1,-3
1537907114190282,-1,9,-6,-1,-1,-1,0,-1
1537907114190282,1,1,-7,-3,1,-1,1,5
1537907114191279,-2,2,19,2,-3,-1,-3,-5
1537907114191279,0,-3,-19,-4,-2,0,-1,2
1537907114213220,-2,-10,1,0,-3,-2,0,1
1537907114213220,2,6,22,5,2,2,0,0
1537907114214218,0,-6,7,3,0,-1,-1,-2
1537907114214218,3,14,-37,-8,-3,-1,-1,1
1537907114227183,2,1,41,2,-2,-2,0,0
1537907114227183,0,-3,-12,-2,0,0,-1,2
1537907114235161,-1,-4,4,0,0,0,-1,-2
1537907114235161,-1,-4,-63,-3,-1,-2,-1,2
1537907114250122,-1,8,40,3,-1,-1,2,3
1537907114250122,1,-5,13,3,0,-1,-3,-7
1537907114251119,1,2,1,-1,-1,-2,-1,-1
1537907114251119,0,0,-19,-4,0,-3,-1,-3
1537907114273060,-2,-5,1,-1,-2,0,0,-1
1537907114273060,-2,4,6,-9,-1,-1,-1,2
1537907114274058,1,5,9,9,-3,-1,0,1
1537907114274058,0,-3,-25,-2,0,0,-1,-2
1537907114287023,1,-1,20,3,0,0,0,1
1537907114287023,-1,8,-20,-2,-1,1,1,2
1537907114295002,-3,-10,20,-6,0,-1,-1,-3
1537907114295002,-2,9,18,4,-2,-1,0,1
1537907114309961,1,0,4,2,2,0,-1,3
1537907114309961,-3,-4,-8,-4,-2,-2,-2,-1
1537907114310959,3,9,-36,-1,2,0,0,0
1537907114310959,-2,-3,18,4,0,-1,0,-2
1537907114333898,-1,-19,-14,-2,-3,0,-3,-3
1537907114333898,-1,11,7,2,-2,-2,-1,0
1537907114333898,-1,-2,-2,1,0,0,0,-2
1537907114333898,-1,-6,-18,-2,-1,-2,-1,-2
1537907114346863,-2,2,29,-4,-2,1,-1,-2
1537907114346863,1,8,-7,0,-1,-2,-1,2
1537907114355839,-4,-12,10,-1,0,-2,-1,1
1537907114355839,0,4,22,6,-2,-2,-2,-11
1537907114370799,-3,-9,-44,-5,0,0,-1,0
1537907114370799,-2,-3,9,-2,-1,-1,-2,-3
1537907114370799,0,8,-6,-3,-1,-1,1,1
1537907114370799,-3,-8,31,0,-1,-1,-1,1
1537907114393738,0,1,-13,0,0,-3,-1,-3
1537907114393738,0,-7,-14,3,0,0,1,1
1537907114393738,0,6,0,-4,-3,-1,-1,-2
1537907114393738,0,-4,11,0,-1,1,1,0
1537907114406704,-2,1,-7,-6,-4,-1,-1,-3
1537907114406704,-2,-2,-6,-1,-1,-2,-1,2
1537907114415680,1,-2,14,0,1,-1,-2,-3
1537907114415680,1,4,-15,-3,-1,-2,0,0
1537907114430639,-1,-3,10,-2,0,-1,0,-2
1537907114430639,-4,-4,-14,-3,0,-1,0,-2
1537907114430639,-3,-1,1,0,-4,-2,-1,-2
1537907114430639,4,-7,-14,-6,-3,0,-2,5
1537907114453578,-3,6,33,1,-2,-1,1,1
1537907114453578,0,-3,-41,3,4,2,1,0
1537907114454576,-1,0,-4,-4,-2,0,-1,-3
1537907114454576,-1,0,-17,-1,1,0,1,1
1537907114476517,-1,-5,-14,-3,-1,-1,-2,-1
1537907114476517,-1,-2,20,-2,-3,1,0,-3
1537907114476517,0,0,16,-1,-5,-3,-2,3
1537907114476517,-3,-3,-39,0,1,-1,-1,-1
1537907114490479,2,5,-3,3,2,-1,1,0
1537907114490479,-2,-7,23,-3,-2,-1,-1,-2
1537907114491477,1,-6,-25,-3,-1,-1,-2,2
1537907114491477,-2,1,23,-3,-2,-2,-1,-8
1537907114513418,1,2,8,6,1,-1,-1,-2
1537907114513418,1,0,-17,-8,-3,0,-1,-1
1537907114514416,-1,-4,-6,-3,-2,-1,1,0
1537907114514416,1,9,48,8,-1,1,0,3
1537907114536357,1,-6,-31,-4,0,-1,0,0
1537907114536357,1,-1,3,3,-2,-3,-2,1
1537907114536357,0,4,2,-1,0,0,-3,-1
1537907114536357,-1,-6,-50,-6,-3,1,-1,0
1537907114550320,-1,4,63,6,-2,0,0,-3
1537907114550320,-1,-2,7,0,-2,-2,-1,1
1537907114551317,1,-1,-14,-4,-1,0,0,-1
1537907114551317,-2,-3,-1,2,0,-3,0,-1
1537907114574256,0,3,3,-2,-1,-1,-1,1
1537907114574256,2,0,6,0,-1,-1,-2,0
1537907114574256,-2,0,-13,5,2,0,-1,-1
1537907114574256,-2,-1,8,-3,-1,-1,-2,-2
1537907114596197,-1,-1,-3,-4,-3,-2,-3,-1
1537907114596197,-1,5,11,-3,0,-1,-1,-2
1537907114597195,-2,-3,-3,3,0,1,0,-2
1537907114597195,1,-4,-2,-5,-2,-1,1,0
1537907114610160,-5,-6,-29,3,-1,-1,-1,-2
1537907114610160,1,8,21,5,-1,0,-1,-3
1537907114611158,-1,-2,-2,-4,0,-1,-2,-1
1537907114611158,-2,-2,7,0,0,-1,0,2
1537907114633098,-2,-5,-25,-3,-2,-2,-4,-9
1537907114633098,-1,-2,-3,7,1,-1,0,0
1537907114634096,-1,-1,-6,-13,-3,-1,0,-4
1537907114634096,1,1,35,-2,-3,0,0,2
1537907114656037,1,2,-11,-3,-1,0,1,2
1537907114656037,-3,-8,-10,0,-2,-1,-2,-1
1537907114657034,1,3,19,5,1,-1,0,-1
1537907114657034,1,3,17,2,-1,-1,-1,0
1537907114669999,0,-4,1,0,1,-1,0,-1
1537907114669999,-1,-2,-10,4,-1,1,-2,0
1537907114670997,-1,-3,11,-11,-2,-1,-1,0
1537907114670997,-2,1,-12,-4,-2,-1,-3,-2
1537907114693935,-2,-6,0,-8,-2,1,-1,0
1537907114693935,-1,3,0,3,1,-2,0,-1
1537907114693935,2,6,-16,2,1,0,1,0
1537907114693935,0,9,20,2,2,-2,0,-2
