timestamp,emg1,emg2,emg3,emg4,emg5,emg6,emg7,emg8
1537907766390479,0,17,9,1,2,1,0,1
1537907766390479,-1,-12,-7,5,-1,0,-2,-2
1537907766391477,-2,9,2,-5,-4,-3,-2,-2
1537907766391477,-1,0,-36,-4,-2,-2,-1,0
1537907766392474,-5,1,20,-1,1,0,-1,-2
1537907766392474,0,4,-4,6,-5,-1,0,2
1537907766405439,-1,2,11,1,2,0,-3,-7
1537907766405439,0,-6,-21,3,3,1,0,2
1537907766408431,-3,-9,-17,-4,-6,-4,-2,-11
1537907766408431,3,9,15,-3,1,1,2,36
1537907766411423,0,-3,-15,1,1,-1,-3,-16
1537907766411423,0,-1,0,-3,-2,-1,8,29
1537907766422394,-1,-9,9,10,5,2,0,3
1537907766422394,2,29,11,-5,-4,-2,-3,-15
1537907766436357,-3,-37,-7,9,-2,-3,0,-2
1537907766436357,-7,1,-31,-10,3,0,-5,-8
1537907766441343,4,16,19,-1,-9,-5,-1,-2
1537907766441343,0,-9,-50,-3,0,0,-1,-1
1537907766456303,0,4,-17,-4,2,1,1,5
1537907766456303,0,4,56,7,-2,1,-2,-10
1537907766467275,-3,-10,-30,-5,2,1,1,3
1537907766467275,-1,-2,20,0,1,-1,-1,-11
1537907766479242,0,2,2,3,-2,0,3,29
1537907766479242,-6,-11,-5,-7,-3,-2,-8,-30
1537907766519136,-1,-12,4,12,2,3,1,-1
1537907766519136,1,35,5,2,-5,-4,-2,1
1537907766521130,-4,-27,30,5,3,0,-1,-1
1537907766521130,0,4,-28,2,-2,-1,1,4
1537907766524122,-1,21,12,1,1,-3,-2,-4
1537907766524122,0,-6,0,1,2,0,1,2
1537907766525119,0,5,-10,-3,-4,-1,-2,-31
1537907766525119,2,0,25,-2,2,-1,-1,18
1537907766531103,-1,-3,0,-7,-1,1,-1,-1
1537907766531103,-1,-10,2,13,1,1,-1,-1
1537907766540080,-2,7,-9,0,0,-1,0,-3
1537907766540080,1,-6,-12,-14,-10,-3,-2,-10
1537907766546063,-1,1,-8,0,1,-1,-1,-5
1537907766546063,0,-3,11,-6,-1,-1,0,2
1537907766561023,2,-4,4,2,2,1,0,6
1537907766561023,-5,-2,-33,-9,-2,0,-2,-6
1537907766568005,-1,-4,7,-3,-2,-3,-2,5
1537907766568005,2,-9,1,2,2,1,0,1
1537907766591450,0,-2,-12,3,2,0,0,4
1537907766591450,-3,3,17,3,1,-1,0,0
1537907766592445,-1,-7,-3,-3,-1,-1,-1,-3
1537907766592445,4,29,6,-3,3,2,0,0
1537907766606407,0,6,-3,-13,-7,-1,1,25
1537907766606407,-3,-10,-2,6,0,1,0,-55
1537907766607404,-5,-6,-14,-4,-3,-3,-13,-16
1537907766607404,2,-8,4,0,0,1,7,17
1537907766629346,-1,4,-7,-1,2,-1,0,6
1537907766629346,-2,3,7,3,1,-2,1,6
1537907766629346,2,0,4,2,-5,-2,-1,-6
1537907766629346,-2,-10,-9,-5,-3,-3,-4,-13
1537907766651287,0,7,-11,1,1,-1,0,0
1537907766651287,-2,-6,-26,-4,-1,-1,-2,8
1537907766652284,1,9,67,8,-3,1,3,6
1537907766652284,-2,-14,-64,-11,3,2,-1,4
1537907766666247,2,8,-2,-12,-7,-2,-2,1
1537907766666247,-2,-13,7,3,2,-2,-4,4
1537907766667245,-2,2,-5,-6,1,0,3,6
1537907766667245,1,1,23,9,-1,-1,-1,-2
1537907766689186,-2,1,16,1,0,-2,-4,-8
1537907766689186,-2,-4,-7,-1,0,0,-2,-11
1537907766690183,2,-1,-4,7,2,0,4,42
1537907766690183,4,-6,9,0,-2,0,0,4
1537907766711127,-1,6,-11,-19,-3,0,-2,-4
1537907766711127,-1,6,30,19,2,-2,-2,7
1537907766712125,-4,-13,-25,4,-2,1,0,-10
1537907766712125,-7,-7,-18,-11,-4,-4,-2,-10
1537907766726087,5,0,9,-4,2,1,4,32
1537907766726087,1,10,-11,0,1,-2,-6,-22
1537907766727084,2,3,-14,3,3,3,0,-2
1537907766727084,-5,-1,19,0,-2,-4,-5,-7
1537907766749026,-3,-7,-33,10,1,1,0,-6
1537907766749026,4,-4,10,-14,-3,0,4,16
1537907766750023,0,9,-13,-5,-1,-3,-1,-11
1537907766750023,1,7,15,5,-2,-2,-1,1
1537907766771964,-2,-13,-11,15,6,1,2,-11
1537907766771964,2,6,-28,-29,-9,-4,1,34
1537907766772962,1,7,13,-5,-2,0,0,1
1537907766772962,-5,-24,-7,-15,2,1,0,-6
1537907766786925,0,21,32,20,1,0,-2,-1
1537907766786925,-2,-10,13,10,-3,-1,1,-5
1537907766786925,-1,8,-5,-7,-1,-3,-3,-4
1537907766786925,2,6,5,-6,-4,-1,0,8
1537907766808866,2,9,-1,11,1,-1,-3,-16
1537907766808866,-3,-8,5,-18,-1,2,0,7
1537907766809863,1,-15,-11,-3,-2,-4,-1,-3
1537907766809863,-6,5,0,7,1,-1,-2,-6
1537907766831805,-2,-10,-14,-3,-1,0,-2,-2
1537907766831805,0,1,-6,-1,3,0,-3,-3
1537907766832802,-1,-4,-1,3,0,-1,1,0
1537907766832802,-2,1,-11,11,3,-1,-2,-5
1537907766846764,-1,-5,34,-3,2,-1,-1,0
1537907766846764,3,9,-11,-4,-4,-2,0,3
1537907766847762,-1,-3,-1,-28,-4,1,1,-3
1537907766847762,0,-5,-19,7,-6,-5,-2,-2
1537907766868706,-3,-6,-6,-3,-2,-2,0,-1
1537907766868706,-1,8,31,10,6,3,1,-3
1537907766869703,-2,-9,-14,10,-2,0,-1,-2
1537907766869703,-1,10,40,-15,0,0,-2,-1
1537907766892642,-1,-10,-37,-5,-2,-1,0,1
1537907766892642,-1,0,8,12,0,-2,-1,5
1537907766892642,1,0,-4,5,2,-1,0,-4
1537907766892642,-1,-11,-2,13,1,-1,1,5
1537907766905607,-3,-3,1,-23,-6,-2,0,-7
1537907766905607,-1,4,18,-4,-6,-1,0,-5
1537907766914583,0,-9,-18,10,3,-2,-1,1
1537907766914583,1,6,35,-14,-7,-1,-1,-8
1537907766929543,-1,-7,-24,-3,0,-3,-2,-1
1537907766929543,2,-3,-19,10,3,2,1,-1
1537907766929543,-5,5,22,1,-2,-1,-1,0
1537907766929543,1,-7,-12,1,-1,-1,0,3
1537907766952482,-4,0,-8,1,0,-2,-3,-7
1537907766952482,-1,2,9,-1,0,0,-1,0
1537907766952482,0,-8,-16,-12,3,0,0,1
1537907766952482,-1,6,22,9,-5,-1,-1,-1
1537907766965447,2,-6,8,-4,-1,-2,1,5
1537907766965447,0,-3,-28,4,0,-2,-3,-8
1537907766974423,1,11,8,10,0,0,-2,-28
1537907766974423,-2,0,-29,-28,-3,0,-2,16
1537907766989383,-2,-2,53,27,0,-1,-1,7
1537907766989383,1,-2,-17,-17,-3,-2,0,-3
1537907766989383,-1,-1,-9,-3,-1,0,1,-1
1537907766989383,-3,6,-20,9,1,0,-2,-10
1537907767012322,-1,-2,8,0,-2,-1,-2,-3
1537907767012322,0,11,14,0,1,-1,-1,4
1537907767013319,2,-6,-24,-11,-3,-2,2,31
1537907767013319,0,-1,1,8,5,2,-2,-30
1537907767026285,-3,-1,-9,-7,-1,-3,-1,6
1537907767026285,0,3,34,6,0,0,1,-1
1537907767034263,-4,-7,-32,-8,-3,-1,-2,0
1537907767034263,1,6,0,3,1,1,1,10
1537907767049223,2,0,-23,-12,-2,0,2,2
1537907767049223,-5,-15,9,-2,-4,-4,-4,-9
1537907767050221,-2,1,-2,5,-3,-2,1,2
1537907767050221,-2,3,9,0,6,-1,-3,-7
1537907767072162,1,8,55,2,-7,0,0,18
1537907767072162,-4,-13,-74,0,-1,-1,1,9
1537907767073159,-1,-1,-1,-18,-4,-3,-3,-2
1537907767073159,0,-3,-6,2,-1,-2,0,5
1537907767086124,-1,5,-3,4,4,0,-1,-11
1537907767086124,-1,-8,42,-2,0,1,0,0
1537907767094103,-1,1,9,12,2,1,-2,-4
1537907767094103,-2,4,-25,-27,-7,-2,1,0
1537907767109063,0,-24,-11,-7,-4,-1,0,-3
1537907767109063,1,10,-1,17,4,1,0,-3
1537907767110061,-2,0,12,-3,3,0,0,-2
1537907767110061,0,0,10,-1,-7,-3,0,0
1537907767132002,-5,-3,-22,-1,-4,-1,-2,-3
1537907767132002,2,2,-3,-2,-2,-1,-2,3
1537907767133000,4,-2,5,2,1,0,4,16
1537907767133000,-1,-9,6,9,2,-1,-5,12
1537907767145965,-3,5,-13,-12,4,0,1,2
1537907767145965,0,1,23,6,-9,-3,-1,-13
1537907767153943,-2,3,-12,0,0,-3,-3,1
1537907767153943,2,-6,-18,0,-3,-2,0,0
1537907767168903,1,-2,27,11,2,0,0,-7
1537907767168903,-4,-6,-7,-9,3,0,0,6
1537907767169901,-2,-2,8,-4,-4,1,-2,-7
1537907767169901,0,-3,-2,18,2,0,1,-1
1537907767191842,-1,-14,-29,-33,-5,-2,-3,-4
1537907767191842,-2,14,9,2,2,0,-2,-10
1537907767192839,-4,10,8,4,-4,0,-1,-5
1537907767192839,2,-10,-42,-6,4,0,1,-4
1537907767205805,0,-4,20,11,-2,0,0,2
1537907767205805,1,-2,-22,2,2,0,0,3
1537907767213784,-3,-6,1,-8,-3,-3,-2,-5
1537907767213784,-2,4,12,12,6,0,-1,1
1537907767228744,0,9,-1,1,0,2,-1,-2
1537907767228744,-3,-5,4,-6,-9,-4,-4,-29
1537907767229741,0,-4,28,11,2,0,0,37
1537907767229741,7,20,5,-4,-1,0,1,-3
1537907767252679,1,-2,-1,10,8,0,0,-1
1537907767252679,-5,-8,-35,-14,2,0,-3,-6
1537907767252679,-1,-2,18,2,-3,-1,-2,-15
1537907767252679,-2,-3,1,-6,-5,-2,-1,0
1537907767265645,0,8,-12,6,1,0,-1,0
1537907767265645,1,-7,5,4,0,0,0,7
1537907767273623,4,15,1,-1,1,0,-1,-7
1537907767273623,-4,-15,-8,0,-1,-1,-1,4
1537907767288584,-1,0,2,7,2,0,-2,-8
1537907767288584,0,1,19,4,2,1,2,10
1537907767289581,1,-1,-30,-24,-9,-3,-2,-6
1537907767289581,-5,-9,4,9,-1,0,-1,-7
1537907767319501,-4,6,4,-7,-7,-4,0,-1
1537907767319501,6,-2,26,2,0,-1,0,5
1537907767320498,1,-3,-71,1,5,-1,-1,-4
1537907767320498,3,17,42,-1,0,1,-1,-6
1537907767334461,3,-21,-12,-16,-6,-1,1,39
1537907767334461,-4,4,15,15,1,0,-1,6
1537907767335459,-2,-6,-1,-20,-2,-1,2,-13
1537907767335459,-7,-13,-11,-2,-2,-4,-7,-17
1537907767349421,0,12,-1,7,-4,-2,-1,-10
1537907767349421,-4,3,-9,0,-1,1,-4,-13
1537907767349421,6,-14,3,10,0,1,2,16
1537907767349421,0,5,-8,-10,-2,0,1,1
1537907767372359,0,10,17,7,0,-1,0,-8
1537907767372359,-3,-19,-24,-12,-2,-1,4,29
1537907767373357,-5,5,14,7,7,2,-1,-8
1537907767373357,2,2,22,5,-8,-2,0,4
1537907767394301,-1,-2,-20,-8,1,0,0,-6
1537907767394301,0,0,-11,-1,-4,-5,-2,-1
1537907767395298,-2,7,47,3,2,2,0,-5
1537907767395298,-4,-16,-52,-12,-4,-1,0,3
1537907767409261,-2,-1,19,-7,-2,-1,-4,-7
1537907767409261,8,9,-8,-1,1,0,-1,-2
1537907767410258,-4,-5,20,5,1,-1,-1,-33
1537907767410258,0,0,-1,9,3,0,-1,13
1537907767432199,-2,2,5,-7,-4,0,-3,-8
1537907767432199,-3,5,-3,-9,0,0,-1,0
1537907767433197,-4,-17,-9,4,-4,-3,-2,-4
1537907767433197,-2,-1,16,0,2,1,0,-1
1537907767455138,-3,-6,-38,1,0,-1,0,-2
1537907767455138,-1,10,14,4,-1,-2,0,-4
1537907767455138,-1,2,-14,-7,1,0,-2,6
1537907767455138,1,-3,8,-12,-1,0,0,-1
1537907767469101,0,4,5,-6,-5,-1,-1,1
1537907767469101,-3,-13,-10,0,-1,0,-3,-7
1537907767470098,-2,4,1,2,-1,-1,-3,-6
1537907767470098,7,0,33,2,3,-1,2,37
1537907767491042,-5,-7,-26,-4,-5,-3,-6,-34
1537907767491042,0,0,-30,11,6,2,0,6
1537907767500018,-2,-3,-4,-24,-10,-4,0,2
1537907767500018,-7,-12,-12,1,0,0,-3,-35
1537907767514978,6,3,-2,3,2,0,1,26
1537907767514978,-5,-5,16,-3,-2,-1,-2,-4
1537907767516973,2,12,16,10,3,-1,-1,7
1537907767516973,-3,-15,-31,-12,-9,-3,-1,-12
1537907767536920,-1,0,-1,12,4,-1,1,-3
1537907767536920,-2,9,15,-4,-1,0,-1,-5
1537907767538914,3,-1,11,15,0,2,2,7
1537907767538914,-2,-5,-30,-10,1,2,-1,0
1537907767550882,-2,-1,29,3,-1,0,-2,-2
1537907767550882,-2,-2,0,2,2,-1,-2,6
1537907767559859,0,1,-10,-13,-8,-3,-3,-1
1537907767559859,-1,7,23,15,-1,0,-1,-1
1537907767574818,-1,-5,-38,-11,4,1,0,4
1537907767574818,3,0,15,3,0,-1,0,-9
1537907767575816,-2,-1,-4,1,-5,-2,0,2
1537907767575816,0,6,3,-22,-4,-2,-2,-1
1537907767596759,0,-6,-8,2,3,-1,1,5
1537907767596759,0,9,32,-8,-2,-1,0,-11
1537907767598755,-1,4,-29,5,-1,-1,1,28
1537907767598755,-6,-15,-5,3,0,-1,0,1
1537907767610722,1,18,23,12,3,0,-2,-2
1537907767610722,6,-1,-10,-12,-4,-1,1,9
1537907767619698,2,0,12,4,2,-1,-1,-9
1537907767619698,-1,4,-8,-6,-1,-2,-1,-4
1537907767634658,-5,3,18,3,-1,-2,1,4
1537907767634658,-3,-22,-28,7,0,1,1,-17
1537907767636653,-4,-4,5,-13,-4,-3,-5,-15
1537907767636653,-3,3,3,5,-4,-2,0,2
1537907767657597,7,1,2,12,0,-1,0,-9
1537907767657597,3,6,8,-14,-2,0,1,14
1537907767658594,-1,-6,-7,-2,2,0,1,-1
1537907767658594,-1,3,-10,4,1,-1,-2,-4
1537907767670562,-3,-2,-3,-8,-5,0,-1,4
1537907767670562,-1,-3,-15,0,-3,-1,2,5
1537907767679538,-1,-6,-10,4,1,0,-4,-9
1537907767679538,-2,4,15,10,4,2,-2,-25
1537907767694498,0,6,54,7,-2,-1,0,6
1537907767694498,1,6,-29,-27,-8,-3,-3,-1
1537907767696493,-4,-8,-14,-8,-2,-1,-1,1
1537907767696493,1,9,10,13,1,-2,0,0
1537907767717437,-1,-6,-12,-2,-1,-2,-1,-7
1537907767717437,-3,-5,4,2,0,1,-3,-2
1537907767718435,0,7,10,10,5,2,1,-1
1537907767718435,1,-6,-11,-8,-4,-2,-1,3
1537907767730403,-5,-1,-17,-9,-4,-2,0,-3
1537907767730403,3,3,0,-2,4,0,0,8
1537907767739379,-3,-13,-14,11,-5,-1,-1,-2
1537907767739379,1,-3,21,-3,0,-2,-2,2
1537907767754339,-4,-3,-12,2,-1,-1,0,2
1537907767754339,-2,-4,2,13,3,0,-1,-5
1537907767756333,1,2,21,3,2,0,1,4
1537907767756333,1,5,-8,-37,-8,-2,-2,3
1537907767777277,-2,-2,-16,-1,0,-2,-1,-6
1537907767777277,-1,-6,-12,9,-1,-2,-1,-5
1537907767778275,-1,4,2,3,1,0,-2,-4
1537907767778275,3,7,-11,8,5,1,4,45
1537907767791240,3,-11,20,-9,-5,0,0,-13
1537907767791240,-5,2,-6,1,-5,-1,-4,-14
1537907767800216,-1,-3,4,0,-1,-2,-2,3
1537907767800216,0,7,0,0,2,2,0,-16
1537907767815176,0,-13,-27,-5,-1,1,0,9
1537907767815176,4,9,9,-1,0,1,-2,10
1537907767816173,-4,-6,-5,-3,2,-2,-2,-10
1537907767816173,0,0,10,-2,-7,-3,-1,3
1537907767837117,-2,0,-6,-4,1,-1,-1,2
1537907767837117,-8,-16,-10,3,0,0,-2,-6
1537907767839112,3,18,24,-3,-1,1,0,5
1537907767839112,-4,-6,-4,2,3,0,0,-5
1537907767860056,-2,18,-13,3,0,-1,0,2
1537907767860056,-1,-23,17,-2,-1,-1,-1,-9
1537907767861053,5,-5,-28,-5,-4,1,1,12
1537907767861053,-4,0,7,1,4,-1,-1,-28
1537907767875015,2,4,15,6,-6,-2,-3,16
1537907767875015,0,11,30,15,5,3,-1,3
1537907767876013,-5,-14,-11,-1,4,-2,2,1
1537907767876013,-1,5,-10,-4,-8,-2,0,-5
1537907767896957,-1,0,-4,-2,4,0,-2,-13
1537907767896957,-2,7,-9,12,-3,-4,0,1
1537907767898952,1,-1,15,-14,-2,-2,0,0
1537907767898952,-1,-4,-10,2,0,0,-1,3
1537907767919896,2,-9,-2,-9,-3,-1,-1,-1
1537907767919896,3,14,-1,8,0,0,0,10
1537907767920893,-2,-2,-21,-15,-2,0,1,-8
1537907767920893,1,-1,8,12,2,-2,-1,6
1537907767934856,-1,0,-1,-2,-2,-1,1,11
1537907767934856,1,2,-5,-6,2,2,-2,-28
1537907767935854,-5,-11,10,5,-2,-2,-4,-4
1537907767935854,-2,-2,-12,18,3,1,-2,-24
1537907767956798,5,-10,-7,-33,-4,0,-1,17
1537907767956798,-2,-1,-4,-18,-5,-2,1,14
1537907767958792,0,8,-6,9,3,0,0,-1
1537907767958792,-4,-4,24,13,-2,-2,-2,-8
1537907767979736,-4,5,8,5,-3,-2,0,-10
1537907767979736,-1,-3,-32,-7,-2,-3,2,3
1537907767980734,-2,0,32,-5,-2,0,-1,0
1537907767980734,-3,-12,-16,10,4,1,-2,9
1537907767993698,1,24,14,6,0,0,-1,-12
1537907767993698,3,-16,-16,-21,-2,0,-1,13
1537907768000680,-3,1,11,3,-5,-3,-2,-3
1537907768000680,3,20,0,-1,2,0,-1,8
1537907768017634,2,-11,-7,9,6,1,0,-5
1537907768017634,-4,3,18,-2,-5,-2,-2,-4
1537907768018632,0,-6,-12,-2,-2,-1,-3,-7
1537907768018632,-2,1,-16,-10,-2,-1,-1,4
1537907768039576,-1,-8,13,10,2,-1,-3,-6
1537907768039576,-3,-2,-12,-13,-1,-1,0,2
1537907768041571,0,3,1,14,2,0,1,2
1537907768041571,0,-2,-7,-27,-5,-1,2,5
1537907768054536,-5,-2,-17,8,-6,-1,-3,-18
1537907768054536,1,-6,7,4,2,0,4,40
1537907768060520,0,2,-13,-1,-3,-2,-3,-1
1537907768060520,0,-5,7,1,0,-1,1,3
1537907768077475,-2,-4,10,11,3,0,0,1
1537907768077475,0,0,-14,-21,-7,-3,-2,-15
1537907768078472,-2,7,19,-2,-4,0,0,1
1537907768078472,0,-1,21,0,1,-1,-1,0
1537907768099416,-6,-11,-16,-7,-2,-2,0,0
1537907768099416,0,0,4,3,-2,-3,0,19
1537907768101411,8,9,-6,2,2,-1,-1,-20
1537907768101411,-4,-10,-10,-4,-1,0,-3,-2
1537907768114376,-2,4,9,-3,0,0,1,0
1537907768114376,-3,5,3,10,0,0,-2,-16
1537907768120360,1,7,-11,-14,-3,1,2,15
1537907768120360,2,4,0,1,0,0,-1,5
1537907768137314,-3,-7,7,2,1,0,-3,-5
1537907768137314,-2,-5,1,17,0,-1,1,-2
1537907768138312,-3,-3,-8,-3,0,0,1,-3
1537907768138312,-4,-5,-6,6,0,-2,-3,-30
1537907768159257,5,8,-15,-17,-3,-1,0,39
1537907768159257,-2,-1,13,2,0,0,-2,-12
1537907768161251,0,-4,5,7,0,0,1,-2
1537907768161251,-5,-12,-20,-13,-4,-4,-3,1
1537907768174216,1,-2,22,-3,2,0,-2,-10
1537907768174216,-1,3,-75,4,0,-1,-2,-7
1537907768181198,5,2,6,-2,-7,-3,-1,6
1537907768181198,-1,5,11,3,3,2,1,10
1537907768197155,-1,0,15,-5,-4,-2,-1,-6
1537907768197155,-4,-6,14,9,2,-1,-4,-4
1537907768198152,-5,-3,-30,-15,-3,-1,-1,-1
1537907768198152,1,11,-1,2,0,-1,0,2
1537907768220093,1,-1,-4,12,2,-3,0,-5
1537907768220093,1,-10,13,2,2,1,2,-2
1537907768221091,-5,-2,11,-16,-6,-3,-5,-7
1537907768221091,1,-6,-16,-10,-2,1,-1,4
1537907768234056,-3,1,13,10,4,1,0,-5
1537907768234056,5,4,-5,-4,0,-2,3,49
1537907768242035,2,9,3,13,3,0,-5,-18
1537907768242035,-2,-11,1,-15,-6,-1,-2,4
1537907768256995,1,10,-10,-2,-1,-1,1,-1
1537907768256995,-4,-13,1,-1,1,1,0,-15
1537907768258989,-2,2,-1,11,1,0,2,8
1537907768258989,2,-5,23,-3,-2,0,-1,4
1537907768279934,-2,-2,-24,0,-1,-2,-1,-8
1537907768279934,-2,-1,29,3,2,1,-1,-8
1537907768280931,-4,-10,-49,6,-2,-1,-1,4
1537907768280931,0,-6,23,-8,-3,-2,-1,-9
1537907768292898,0,10,14,-1,-8,-2,0,2
1537907768292898,-4,-10,4,-11,-1,1,0,-12
1537907768301875,-2,-11,-27,4,1,0,2,5
1537907768301875,-3,10,3,5,-1,-1,-1,3
1537907768316835,-1,-17,6,2,0,0,0,0
1537907768316835,0,18,1,11,-2,-2,-2,-8
1537907768318830,-2,1,0,-30,1,0,0,-1
1537907768318830,-2,-8,-8,-5,-2,-2,0,2
1537907768339774,-3,2,2,-3,2,-1,-4,-10
1537907768339774,2,-1,9,0,-2,-2,2,23
1537907768345758,0,0,2,14,6,0,-2,2
1537907768345758,0,5,3,4,-4,-3,-2,-7
1537907768353736,2,0,-6,-4,0,1,-1,6
1537907768353736,1,1,-16,2,0,0,-2,-13
1537907768362712,1,-2,34,-1,-2,-1,1,3
1537907768362712,0,3,-13,5,1,0,-1,5
1537907768377672,-4,-2,-33,-6,1,0,0,1
1537907768377672,0,-5,-14,-9,-5,0,-2,-29
1537907768378670,-6,-3,16,-1,0,-1,-3,-4
1537907768378670,-3,-2,8,18,1,-3,0,-6
1537907768399613,4,4,13,-16,-6,-3,-1,-2
1537907768399613,-3,-3,-5,-5,-2,-1,0,8
1537907768401608,1,-3,1,16,2,-2,0,3
1537907768401608,0,-1,-12,-27,-1,0,0,-5
1537907768413576,-3,4,7,1,3,0,-1,3
1537907768413576,-2,-12,-4,-5,-1,-1,-2,-3
1537907768422552,3,10,33,0,-3,1,0,-4
1537907768422552,-1,1,-26,0,3,1,0,3
1537907768437512,1,-9,-14,11,-2,-1,0,3
1537907768437512,-1,13,36,4,0,-1,-3,-9
1537907768438510,-2,-6,0,-6,-2,1,1,6
1537907768438510,2,-1,-2,-2,-3,-1,-1,-3
1537907768459454,0,-9,-8,-9,2,-1,-1,-4
1537907768459454,-4,14,2,10,1,-2,-1,-6
1537907768461448,1,-4,-15,-1,0,2,3,7
1537907768461448,3,2,-3,3,-3,-1,-3,2
1537907768473416,-2,-2,15,-2,-4,-1,-1,-3
1537907768473416,-1,-8,-7,-4,2,0,-2,-1
1537907768482392,-3,-9,-5,-2,2,0,2,-4
1537907768482392,3,33,-1,14,2,-2,0,1
1537907768497352,1,-11,-18,-20,-12,-2,0,6
1537907768497352,-2,0,13,6,-2,-1,-3,-2
1537907768498350,0,-3,-13,-15,-2,0,-1,0
1537907768498350,-2,-8,7,3,2,1,-2,1
1537907768519294,-2,2,5,14,5,-1,-2,-8
1537907768519294,1,6,16,2,-2,-2,0,-1
1537907768521288,-1,4,-22,-3,-3,-1,-1,17
1537907768521288,-9,-22,1,-3,-4,-1,-1,2
1537907768533256,4,20,-19,-1,1,0,0,-2
1537907768533256,1,-12,-5,-8,-4,0,-2,5
1537907768542232,1,5,-2,8,0,-2,2,21
1537907768542232,-1,-3,7,-7,0,-1,-4,-27
1537907768557192,-2,1,1,15,-1,-2,0,5
1537907768557192,2,18,0,-20,-4,-1,-1,-9
1537907768558189,-2,-21,-1,-2,-5,-3,-2,-2
1537907768558189,1,-4,-11,-3,1,-1,0,2
1537907768580132,-7,-8,7,6,-1,-1,-2,-6
1537907768580132,3,5,-10,3,2,1,-1,3
1537907768581130,3,12,9,-1,2,1,-1,-5
1537907768581130,-5,-12,4,-1,-5,-1,0,2
1537907768593096,-4,0,2,-1,4,1,2,-1
1537907768593096,4,-1,-4,-13,-4,-1,0,3
1537907768602072,-3,-8,2,-3,-2,-1,-2,-7
1537907768602072,1,5,-10,10,3,0,0,1
1537907768625011,-4,-13,41,3,1,0,0,-12
1537907768625011,5,20,-6,-2,0,-2,0,7
1537907768626008,-5,-9,-4,-2,1,-1,-1,-12
1537907768626008,2,4,-9,0,-5,-1,0,9
1537907768639971,-2,-6,0,-4,-1,-1,-1,-6
1537907768639971,-4,-9,0,6,0,-1,-1,0
1537907768640968,-1,6,4,-2,-2,-2,-3,-7
1537907768640968,-4,-14,-5,-5,-1,-1,1,-5
1537907768652936,5,4,-4,-3,-1,1,0,6
1537907768652936,-5,-10,-12,9,5,-1,1,-5
1537907768661912,-2,5,2,2,-2,-1,-3,-3
1537907768661912,1,1,2,-17,-2,0,0,3
1537907768676872,0,6,-6,1,-3,-4,0,4
1537907768676872,-3,-8,-1,-2,1,-1,-4,-6
1537907768678867,-2,-9,7,9,-5,1,-1,-6
1537907768678867,2,5,-8,-1,2,-2,1,4
1537907768699811,-1,-6,-15,-5,-1,0,-2,-1
1537907768699811,-4,-1,4,-6,-5,-1,-2,-3
1537907768700808,0,8,20,1,1,0,-1,0
1537907768700808,0,2,-9,3,0,0,-1,-2
1537907768713774,-3,-12,-15,15,3,0,0,3
1537907768713774,2,-8,11,-28,-7,-3,0,-1
1537907768729731,-4,-2,-16,-2,-5,-2,-3,-28
1537907768729731,4,7,8,3,-1,-1,1,38
1537907768736712,0,-1,-2,-5,1,0,-1,0
1537907768736712,-1,4,4,5,3,0,-1,-2
1537907768738707,0,-1,-16,8,2,-1,-1,-3
1537907768738707,-7,4,14,-5,-3,-3,-3,-15
1537907768759651,3,11,-4,-1,-1,-1,-2,-1
1537907768759651,-6,-27,0,8,1,-1,-2,1
1537907768760649,3,7,3,-5,-2,0,-1,9
1537907768760649,-2,-7,-7,5,4,2,-2,-6
1537907768782590,-2,0,12,8,0,-1,0,3
1537907768782590,0,-2,-14,-19,-7,-1,1,-1
1537907768783587,-5,-9,-5,-2,1,-4,-1,0
1537907768783587,-1,-8,-6,-7,-4,-1,0,-4
1537907768796552,0,4,6,-5,-1,-1,0,-3
1537907768796552,-2,3,-15,18,4,0,-1,-2
1537907768803534,1,-1,14,-11,-5,-2,-2,1
1537907768803534,1,0,3,3,2,2,0,0
1537907768819491,-2,-12,-16,0,-5,-2,-1,-3
1537907768819491,1,24,28,5,4,1,1,0
1537907768821486,0,-7,-25,-7,-2,0,2,3
1537907768821486,-2,0,4,6,0,-2,-1,-6
1537907768842430,-1,-4,1,-11,0,0,-2,-2
1537907768842430,-2,-6,14,10,0,0,-1,0
1537907768843427,-1,3,2,-7,0,-1,-1,-1
1537907768843427,1,3,-6,-17,-4,-3,-1,-3
1537907768855395,-2,-3,-3,15,1,-1,-1,1
1537907768855395,-2,1,-8,-27,-11,-1,-1,0
1537907768864371,2,2,12,8,0,1,-1,-3
1537907768864371,1,3,0,6,0,0,1,-1
1537907768879333,-2,-3,-5,-12,-1,1,0,0
1537907768879333,-2,-4,-13,16,7,-1,-1,-3
1537907768881328,2,4,14,-1,-3,-2,2,1
1537907768881328,-1,-1,-27,-1,-3,-2,-1,-1
1537907768902271,-2,-5,29,-6,0,-1,-1,-3
1537907768902271,1,3,-28,15,6,3,1,4
1537907768903270,-1,3,15,-4,6,2,1,2
1537907768903270,0,-5,-8,-2,-7,0,0,0
1537907768916234,1,15,-4,-10,-8,-4,-2,-1
1537907768916234,-7,-17,0,-20,-3,-1,-2,-2
1537907768925211,0,-3,-2,7,-3,-2,-1,0
1537907768925211,-2,-2,1,7,7,1,-1,-3
1537907768940170,0,1,-13,-7,2,1,0,-2
1537907768940170,2,7,7,7,-1,-1,0,1
1537907768941168,-1,3,1,4,0,-1,-1,1
1537907768941168,-2,-8,14,4,-2,-3,0,-3
1537907768962112,-2,-6,-7,-8,4,2,0,-1
1537907768962112,-3,-3,-25,5,-7,-5,-3,-2
1537907768964107,-1,6,37,6,-7,-5,0,1
1537907768964107,1,3,-23,0,4,1,-1,1
1537907768976074,-1,-6,-4,-11,-7,-3,-1,0
1537907768976074,1,3,32,3,3,1,1,0
1537907768985050,-4,-24,-35,-3,4,1,-2,-2
1537907768985050,-3,-2,-5,-8,-5,-3,-1,-2
1537907769000011,0,-7,-19,-2,2,-1,0,0
1537907769000011,-1,13,1,3,0,-1,0,0
1537907769001009,2,8,20,5,-1,-1,-1,0
1537907769001009,1,-3,-5,-9,-1,-1,-1,0
1537907769021950,-1,-1,2,4,-2,0,0,0
1537907769021950,-2,-3,13,-2,-3,-1,0,-3
1537907769023945,0,-4,-25,1,4,2,0,1
1537907769023945,-1,4,27,5,-2,1,1,-1
1537907769035913,-2,2,-10,-18,-6,-1,-2,-3
1537907769035913,7,13,12,2,2,1,0,3
1537907769044889,1,4,3,-2,-1,0,0,1
1537907769044889,-1,-5,-4,-4,1,2,0,-3
1537907769059849,1,2,18,15,0,-1,-1,1
1537907769059849,-1,-10,-21,-4,-2,0,1,-3
1537907769060846,0,9,-8,-10,0,-1,0,-2
1537907769060846,0,-11,1,3,-1,0,-2,-2
1537907769081790,-2,0,17,4,-2,-2,-1,-2
1537907769081790,-1,-4,-22,-14,-4,-3,0,1
1537907769083785,-1,4,6,-2,-2,-1,1,-1
1537907769083785,-1,3,4,4,0,-1,0,1
1537907769095753,0,2,-10,0,3,3,1,-2
1537907769095753,-2,-6,-8,-6,-4,-2,-3,-2
1537907769104729,-3,-5,13,1,-1,-2,-3,-1
1537907769104729,1,8,20,7,3,1,2,0
1537907769119689,0,1,-3,2,1,0,-1,0
1537907769119689,0,-6,1,0,2,0,0,-1
1537907769120687,-3,0,11,11,15,0,-10,-7
1537907769120687,-6,-8,3,-24,-39,-17,-6,-3
1537907769142628,0,-4,-35,-48,3,1,0,-1
1537907769142628,0,3,-38,36,-11,-4,0,0
1537907769143626,6,19,70,33,15,10,8,4
1537907769143626,-4,-20,-83,22,20,15,4,-1
1537907769155593,-5,-7,70,-65,-41,-19,-4,0
1537907769155593,3,-5,-78,50,35,10,2,2
1537907769164569,-2,20,70,-109,-59,-17,-1,-3
1537907769164569,-4,-14,-90,-24,-4,-15,-8,-4
1537907769179532,-1,9,48,2,-31,-11,-5,-2
1537907769179532,-5,-17,46,93,38,9,-4,-5
1537907769181526,0,-5,59,23,26,18,2,2
1537907769181526,6,-4,-16,-80,-22,-4,5,8
1537907769202469,-6,11,72,13,9,0,-12,-11
1537907769202469,5,1,52,57,9,-6,5,5
1537907769203466,-15,-40,-128,-24,-32,-6,-8,-14
1537907769203466,17,20,127,65,56,32,18,16
1537907769216432,-5,-7,33,24,-13,-16,-6,-6
1537907769216432,-2,7,27,5,-6,7,-2,-3
1537907769224409,17,24,24,44,35,3,10,14
1537907769224409,-4,40,46,-81,-39,-11,-3,-6
1537907769239369,6,-1,-128,29,50,25,12,10
1537907769239369,-2,6,90,0,-10,-7,-6,-5
1537907769241364,-20,-37,-66,34,-50,-26,-19,-18
1537907769241364,12,43,6,22,27,16,9,11
1537907769262307,0,-18,100,50,22,6,1,-1
1537907769262307,-11,50,34,-66,-23,-3,-2,-6
1537907769263305,4,4,-122,29,57,18,8,10
1537907769263305,-18,-31,-33,-43,-19,-12,-12,-18
1537907769276270,20,-7,-27,74,-10,1,8,14
1537907769276270,0,-59,-18,-87,-16,-6,-4,1
1537907769285246,-1,11,127,28,14,-8,-6,-6
1537907769285246,-8,-41,-68,12,-10,-6,-5,-10
1537907769299209,-4,-6,3,-71,-4,-2,-3,-4
1537907769299209,0,2,48,-29,-23,-13,-4,-1
1537907769301204,-1,-14,45,-21,6,9,3,2
1537907769301204,-3,20,-83,43,-15,-9,-3,-3
1537907769322148,-4,5,-48,-21,-12,-1,0,-1
1537907769322148,0,3,-57,24,14,6,2,1
1537907769323145,-8,3,22,-35,-25,-14,-6,-10
1537907769323145,-3,-17,47,-50,1,3,0,-1
1537907769336111,6,7,36,39,14,3,2,2
1537907769336111,0,-10,-44,-35,-4,-4,0,1
1537907769352068,1,3,57,-20,-36,-18,-2,0
1537907769352068,-5,0,96,63,4,-4,-5,-5
1537907769359049,-7,-14,-102,7,-3,-5,-1,-2
1537907769359049,3,-6,-36,-31,1,3,2,0
1537907769366030,1,-15,-45,-13,-8,-1,0,-1
1537907769366030,0,-12,-44,28,-2,-3,-3,1
1537907769381988,-5,-2,62,-16,10,3,-1,-3
1537907769381988,0,6,1,-15,-7,0,-2,-1
1537907769383983,9,17,-86,10,17,9,8,9
1537907769383983,0,-7,-3,22,8,-1,-2,-1
1537907769404926,0,15,14,5,0,-1,-2,-3
1537907769404926,-6,-4,-10,-17,-2,-3,-1,-3
1537907769405924,4,4,-62,-1,-4,0,1,1
1537907769405924,2,5,47,4,6,3,1,3
1537907769419886,-2,5,-25,-24,-10,-5,-4,-3
1537907769419886,0,3,8,20,4,0,0,0
1537907769420883,-3,-9,-19,-4,5,3,-1,-1
1537907769420883,-2,7,20,0,2,0,-2,-4
1537907769443822,-1,4,-35,1,-2,-2,0,-1
1537907769443822,-1,-1,9,9,1,-2,1,-1
1537907769444819,1,3,19,6,2,0,-1,1
1537907769444819,-1,-2,0,-2,0,-1,-1,-2
1537907769455790,-1,-3,-7,-1,1,-1,-1,0
1537907769455790,-3,0,3,0,1,1,-2,-3
1537907769464766,-1,-4,0,-10,-4,-3,0,0
1537907769464766,2,1,9,8,1,-1,-1,-1
1537907769478729,-4,-5,-18,-5,-1,-2,-2,-2
1537907769478729,-5,-5,0,-7,-4,7,3,-10
1537907769485710,2,1,1,3,-1,-8,0,20
1537907769485710,0,-2,1,-1,0,0,-1,-4
1537907769501668,-4,3,7,9,0,-1,-7,-2
1537907769501668,3,-1,-4,-2,-4,-3,0,2
1537907769503662,-2,-5,4,-3,1,4,1,-6
1537907769503662,-1,-2,1,-9,-2,-5,3,1
1537907769515631,1,6,0,4,3,0,-1,2
1537907769515631,0,2,3,6,2,1,-1,-2
1537907769524607,-4,-4,-7,-6,-3,0,-1,-10
1537907769524607,2,4,5,0,0,-3,0,6
1537907769539566,-3,-5,-8,0,0,0,2,-4
1537907769539566,2,5,-4,-6,-2,-2,-2,3
1537907769545551,1,0,8,3,1,3,1,-1
1537907769545551,-3,-6,7,9,8,3,-2,0
1537907769562506,-1,-4,-24,-26,-17,-6,-1,3
1537907769562506,1,4,-3,-6,-5,-5,-1,0
1537907769563504,-4,-6,-7,0,-1,-3,-2,-2
1537907769563504,1,5,7,9,1,1,-1,-1
1537907769575472,2,-2,-1,-1,8,3,2,-1
1537907769575472,-1,3,12,23,8,-2,-1,0
1537907769584448,-4,-5,0,-14,-13,-3,-2,-7
1537907769584448,2,1,-48,-6,3,0,-1,2
1537907769599407,0,3,16,9,-4,0,0,-1
1537907769599407,-1,0,-4,-7,-2,-1,0,2
1537907769605391,0,2,5,3,10,6,2,-2
1537907769605391,-2,-3,15,3,-1,-2,-1,-1
1537907769629327,-3,2,19,-8,-9,-5,-1,-3
1537907769629327,-2,-4,-37,0,3,1,3,0
1537907769631322,1,3,-3,-2,0,0,-2,1
1537907769631322,-2,0,11,-11,-3,0,-1,-1
1537907769635311,2,3,-11,2,5,-1,0,-1
1537907769635311,-2,-1,20,-2,-5,-3,-1,-2
1537907769644286,0,-1,-2,4,0,-1,0,-1
1537907769644286,0,0,-7,-4,-2,-2,0,0
1537907769659246,0,-1,5,2,2,2,-1,-1
1537907769659246,-2,-5,4,7,-4,-1,-1,-2
1537907769666228,1,-1,-7,2,3,1,-1,-1
1537907769666228,0,1,10,1,-4,-1,-2,0
1537907769682185,-1,-4,-6,-1,0,1,0,-1
1537907769682185,3,2,-6,-15,-7,-5,-1,1
1537907769683182,-1,-1,1,1,4,-1,0,-2
1537907769683182,-2,-5,6,5,-3,-1,-3,-5
1537907769705123,1,0,-5,-8,-3,1,0,0
1537907769705123,0,-1,0,0,1,0,-1,1
1537907769706121,-1,-3,11,5,0,-1,0,1
1537907769706121,-2,0,-9,-9,-6,-3,-2,-3
1537907769719086,-1,-3,-9,4,3,1,1,0
1537907769719086,-2,-2,8,-1,-1,0,0,-2
1537907769726068,-1,3,-6,-2,-1,-2,0,1
1537907769726068,-2,-2,0,1,2,1,1,0
1537907769742027,-1,-1,1,3,0,-1,-1,-1
1537907769742027,0,0,0,-3,-2,0,0,-1
1537907769744021,-1,-1,2,2,5,1,1,-2
1537907769744021,-1,-1,-3,-7,-4,0,-1,1
1537907769764965,1,0,0,9,0,-2,0,1
1537907769764965,-1,-1,0,-3,-1,0,1,0
1537907769765963,-1,0,-2,13,1,-1,-3,0
1537907769765963,-1,-2,3,-3,8,3,0,0
1537907769778927,-1,0,-7,-16,0,0,2,-1
1537907769778927,-2,-3,-5,23,-9,-7,-4,-2
1537907769785909,0,4,28,-13,-6,-3,-3,-2
1537907769785909,2,6,-19,3,-1,0,-2,0
1537907769801866,1,-18,-20,10,16,9,2,1
1537907769801866,2,38,84,2,21,8,5,0
1537907769803861,-11,-39,-95,-49,-30,-11,-7,-9
1537907769803861,4,-11,48,-74,-68,-20,-6,-1
1537907769825802,-3,-7,66,-64,24,4,0,0
1537907769825802,0,-20,-95,7,-44,-15,-4,3
1537907769827798,1,13,5,124,81,30,12,8
1537907769827798,-3,7,20,9,12,-2,0,-6
1537907769838767,2,41,-46,39,-58,-16,-8,-5
1537907769838767,-9,-20,65,-104,-6,-10,-10,-9
1537907769847745,1,-10,-62,74,27,9,3,8
1537907769847745,2,9,20,-85,-22,0,3,3
1537907769861706,-6,23,40,21,14,2,-6,-8
1537907769861706,10,50,-5,-1,-17,5,7,7
1537907769863701,5,-49,-33,10,-53,-24,-8,-2
1537907769863701,1,-3,-6,127,93,25,7,8
1537907769884644,6,11,44,-70,-37,-8,1,7
1537907769884644,-2,-8,24,-28,25,5,-9,-13
1537907769885641,-21,-2,7,39,18,6,-5,-21
1537907769885641,-12,5,25,81,40,13,1,-5
1537907769898606,-9,-8,-88,-92,-77,-47,-13,-10
1537907769898606,6,-12,-10,125,78,14,11,13
1537907769907582,17,25,27,-101,-19,0,5,15
1537907769907582,2,22,64,-8,9,1,-3,1
1537907769922542,1,-30,30,34,86,29,9,5
1537907769922542,-6,-7,44,-27,-75,-27,-7,-4
1537907769923540,2,-14,-36,-21,66,16,3,2
1537907769923540,3,-4,-113,-4,-76,-23,-3,1
1537907769944483,4,-27,35,15,17,4,2,2
1537907769944483,-4,-18,1,-30,-27,-9,-5,-3
1537907769946478,1,-3,59,-24,10,6,2,-2
1537907769946478,-6,10,22,-51,-17,-9,-4,-7
1537907769958446,1,-9,-48,105,47,17,6,1
1537907769958446,-6,-10,-59,-69,-25,-4,-2,-3
1537907769967423,-2,15,25,-37,-59,-17,-5,-3
1537907769967423,5,12,-18,18,37,11,3,2
1537907769982382,-6,3,-29,-41,-63,-17,-7,-6
1537907769982382,0,24,72,44,29,11,4,2
1537907769983380,1,-22,-23,-16,57,9,4,7
1537907769983380,-14,-10,26,-13,-78,-27,-10,-12
1537907770004324,6,11,-38,-9,28,14,4,6
1537907770004324,6,-4,-48,-1,-5,0,1,3
1537907770011305,4,25,36,48,-1,-4,1,-1
1537907770011305,0,-3,14,-62,16,6,0,1
1537907770018286,-3,7,1,15,-12,-5,-2,-1
1537907770018286,-3,-7,-4,58,44,13,3,0
1537907770027262,-2,15,-12,-25,-44,-16,-7,-3
1537907770027262,0,-16,-20,25,15,4,1,1
1537907770042222,-2,-17,12,16,-10,-5,-1,-3
1537907770042222,-4,-4,-18,-29,17,6,1,-3
1537907770043220,-2,15,55,45,-15,-2,-3,-3
1537907770043220,0,-7,-21,-27,-18,-5,-1,0
1537907770065161,-3,-9,2,23,21,6,2,2
1537907770065161,0,4,-8,33,8,1,-3,-1
1537907770066159,-1,-16,-54,3,-6,-3,-1,-1
1537907770066159,-1,13,46,-3,7,1,-1,-3
1537907770078126,1,1,8,12,9,1,0,1
1537907770078126,0,-9,-12,11,6,1,-1,0
1537907770087103,2,8,28,-33,-23,-7,-3,-2
1537907770087103,-4,-16,1,16,7,0,-1,0
1537907770102062,-3,4,22,-28,13,4,0,-3
1537907770102062,2,0,-109,-9,-37,-11,-4,-3
1537907770104057,0,-2,49,6,-3,0,0,2
1537907770104057,-1,-19,-12,2,18,5,1,3
1537907770125998,-3,10,14,17,-21,-7,-2,-5
1537907770125998,8,0,20,-16,10,2,3,6
1537907770126996,-13,1,-3,-8,-10,-3,-1,-3
1537907770126996,-3,-7,-22,2,0,-2,-3,-11
1537907770137966,-2,-5,5,-2,8,2,-1,-1
1537907770137966,-9,-6,8,-7,-6,-2,-3,-5
1537907770146943,6,11,2,-15,-4,0,2,2
1537907770146943,-1,-5,-10,-1,6,1,1,4
1537907770161903,0,0,-11,2,-3,-1,0,0
1537907770161903,9,3,17,5,4,-2,-1,2
1537907770163898,-2,0,3,-2,-5,-4,-2,-1
1537907770163898,2,-3,-14,3,1,-1,-1,-1
1537907770184842,-24,-2,-3,-1,2,0,1,-3
1537907770184842,6,0,11,1,-3,-3,-2,0
1537907770185839,11,-3,-5,-14,-3,-2,0,3
1537907770185839,-30,-2,-10,6,2,0,-1,-7
1537907770198804,9,-5,0,-1,-7,-1,-1,-8
1537907770198804,-7,-1,10,4,7,14,7,0
1537907770206783,10,9,-4,-1,-2,-7,-6,-11
1537907770206783,14,2,-9,-4,0,2,10,20
1537907770221743,-16,-5,0,3,0,2,1,-3
1537907770221743,-6,-7,1,-2,-2,-7,-11,-13
1537907770223737,-41,-11,-2,-6,-3,-8,-40,-20
1537907770223737,42,5,-3,9,1,-1,-2,3
1537907770244681,5,1,-2,-3,1,4,-37,-9
1537907770244681,-7,-2,1,-3,0,-1,39,-7
1537907770245679,16,8,1,-4,0,23,13,27
1537907770245679,-17,-10,-5,-6,-2,-23,-12,-26
1537907770258644,3,1,-1,4,-1,0,12,12
1537907770258644,-4,-3,1,-4,-4,-6,-25,-15
1537907770267620,-4,1,2,1,2,3,9,5
1537907770267620,20,7,-1,0,4,12,16,18
1537907770281583,5,3,-1,4,-1,3,12,1
1537907770281583,1,-3,3,0,0,-6,-21,4
1537907770282580,-19,-6,-3,-7,-4,-7,7,-7
1537907770282580,7,4,-2,0,-2,7,-3,5
1537907770303524,24,5,0,-1,1,-3,6,5
1537907770303524,-7,3,3,2,0,-3,5,9
1537907770304521,0,-3,-7,3,6,-1,-5,-5
1537907770304521,-21,-9,-8,-24,-20,-9,-8,-21
1537907770326463,-2,-4,-2,-6,-5,-5,-3,4
1537907770326463,32,3,5,5,5,3,-6,11
1537907770327460,-3,0,-4,0,-7,-7,0,-13
1537907770327460,-22,-5,-4,4,1,0,-3,-7
1537907770341423,9,-1,0,1,0,-1,7,3
1537907770341423,-16,-6,-2,-5,-5,3,4,8
1537907770342420,4,6,3,4,5,1,1,-2
1537907770342420,6,2,0,4,3,1,4,4
1537907770364362,-24,-6,-2,-2,-4,-4,-10,-7
1537907770364362,7,1,0,1,0,-2,0,-1
1537907770364362,27,3,2,0,-2,-1,3,11
1537907770364362,-12,0,-1,3,1,0,-11,-11
1537907770387300,-3,1,-2,-4,0,-2,-5,-4
1537907770387300,-19,-7,-1,0,-1,1,4,-3
1537907770388298,3,0,0,-1,-4,-2,-1,3
1537907770388298,-6,-7,-1,-3,1,1,2,4
1537907770409242,11,0,-1,1,-1,-3,-2,-5
1537907770409242,-7,-1,0,-1,-2,-3,-36,-1
1537907770410239,-20,1,1,1,2,8,43,5
1537907770410239,31,5,1,1,-1,1,21,5
1537907770424202,-3,-2,-3,-1,-1,-6,-15,0
1537907770424202,-4,-1,-3,0,-1,1,8,-3
1537907770424202,8,-5,-1,-4,-3,-4,-17,-3
1537907770424202,-15,-3,-3,1,-1,3,9,-3
1537907770446143,-11,1,1,-2,-2,-10,-9,-3
1537907770446143,1,-3,-3,-4,-1,1,3,-5
1537907770447141,17,3,-2,-2,0,-2,-7,5
1537907770447141,-5,-1,2,2,2,2,-1,-1
1537907770470079,11,1,1,1,0,3,4,7
1537907770470079,-6,4,0,-1,-1,-3,8,-1
1537907770470079,-12,-9,0,-2,0,0,-3,-8
1537907770470079,3,5,-1,0,3,10,2,-9
1537907770484041,-17,-3,-2,-4,-4,13,3,7
1537907770484041,46,9,3,2,0,-18,-16,-14
1537907770485039,-23,-2,-4,0,0,-17,22,-2
1537907770485039,63,15,-1,-3,-4,-2,12,55
1537907770505982,-75,-12,3,4,6,23,-42,-61
1537907770505982,-5,0,-1,0,4,30,-7,-40
1537907770506980,8,1,3,3,8,69,46,31
1537907770506980,-23,-13,-3,-8,-14,-82,-51,43
1537907770520943,38,4,-6,-4,-7,-26,39,115
1537907770520943,0,1,-1,-1,3,15,19,-26
1537907770521940,-33,8,0,1,-3,6,-48,-105
1537907770521940,-13,3,4,9,13,43,-24,3
1537907770543881,-5,-13,2,2,2,-10,51,73
1537907770543881,33,15,3,2,1,-37,-34,89
1537907770544879,-40,-25,-4,-5,-11,-19,-24,-18
1537907770544879,21,-6,-1,1,-18,-62,-1,-20
1537907770566820,20,3,-3,-1,3,11,-40,34
1537907770566820,5,7,-1,-1,6,27,70,26
1537907770566820,2,-17,-3,-2,8,85,31,36
1537907770566820,-7,17,16,14,9,-12,23,20
1537907770581780,-30,-2,-7,-5,-20,-59,-21,-122
1537907770581780,29,-8,2,-1,8,82,-44,90
1537907770581780,32,17,3,8,0,-15,84,116
1537907770581780,-36,-34,-23,-25,-29,-66,-88,-128
1537907770603723,-41,4,6,4,6,102,100,27
1537907770603723,-24,-1,4,-2,-8,44,0,42
1537907770604721,30,14,-10,-10,-11,-70,-65,-15
1537907770604721,-5,-9,-5,-3,8,127,68,-44
1537907770626662,14,-2,6,3,-3,-65,20,108
1537907770626662,-12,-30,-12,-12,-18,-54,-68,-128
1537907770627659,-35,0,7,8,-3,-52,-29,39
1537907770627659,45,5,-8,-3,0,-53,-39,68
1537907770641621,14,-2,0,-5,0,11,-25,68
1537907770641621,-6,9,-3,2,6,-49,34,30
1537907770642621,-44,-16,0,-2,2,24,31,-10
1537907770642621,-21,-8,5,8,5,22,-8,-52
1537907770663563,46,14,1,5,12,42,34,-39
1537907770663563,2,3,1,1,-11,-31,-84,14
1537907770664562,0,-4,11,6,1,-15,-27,-36
1537907770664562,-9,3,1,3,6,5,7,43
1537907770686500,24,13,6,8,11,17,55,25
1537907770686500,-17,-11,-4,-3,1,53,6,-6
1537907770687498,-45,-7,-7,-6,3,17,-55,-101
1537907770687498,4,6,4,1,2,14,-2,98
1537907770702458,7,-5,-1,0,5,51,-7,-10
1537907770702458,-23,-11,-4,-6,-11,-87,11,55
1537907770703456,-38,4,8,3,2,3,16,35
1537907770703456,38,17,0,1,0,-13,10,12
1537907770724399,-6,1,-2,-3,-1,33,-29,-14
1537907770724399,-10,-9,-4,0,3,-38,-16,-51
1537907770724399,43,0,-4,0,-2,0,-33,-24
1537907770724399,-26,-7,-3,-5,-3,10,32,-14
1537907770746341,1,1,-2,-2,0,-11,-31,-65
1537907770746341,-35,-5,-2,-3,-4,9,4,-52
1537907770747338,36,0,-5,-1,2,6,8,23
1537907770747338,-11,0,3,2,3,19,-2,-1
1537907770761301,15,-1,-7,-4,-12,-49,-19,-33
1537907770761301,-16,4,4,5,3,3,27,2
1537907770762298,37,11,2,2,1,3,15,76
1537907770762298,11,-1,-4,0,6,29,10,-4
1537907770784240,-8,-4,-4,-4,-5,-19,-33,-59
1537907770784240,6,7,3,3,5,16,38,13
1537907770784240,15,0,-5,-6,-13,-34,-16,-15
1537907770784240,-11,-2,-3,-2,4,6,-6,-24
1537907770806182,-2,-3,0,-3,-3,-19,-1,9
1537907770806182,19,4,-1,1,-1,2,5,-1
1537907770807181,-1,-2,-5,-4,0,7,0,-18
1537907770807181,-3,-2,2,2,-1,1,8,9
1537907770821141,-6,0,-2,0,-1,-15,-15,-11
1537907770821141,-5,0,-2,1,1,15,5,-18
1537907770822139,9,1,-4,-2,0,4,2,-1
1537907770822139,-8,2,1,-11,-5,0,6,3
1537907770844079,0,-1,6,54,12,-1,-15,-13
1537907770844079,7,1,-7,-54,-10,5,10,-6
1537907770845077,4,-3,-7,-13,-7,-8,6,4
1537907770845077,-1,0,-4,10,-3,-1,-4,-4
1537907770866021,-7,-4,-1,-40,-7,-7,-9,-11
1537907770866021,0,1,14,28,5,1,7,1
1537907770867018,6,2,-2,6,4,2,4,2
1537907770867018,-9,-1,-1,2,-1,5,0,-9
1537907770880982,-3,-2,-6,55,11,-3,-4,-4
1537907770880982,1,0,-6,-53,-8,0,7,2
1537907770881978,3,1,3,-11,-1,-1,-5,-7
1537907770881978,-5,-3,0,9,3,0,-2,-6
1537907770903919,1,-2,-4,31,3,-4,0,0
1537907770903919,0,1,1,-53,-15,-4,-2,-1
1537907770904916,2,-1,-3,6,0,2,-1,-2
1537907770904916,0,2,-2,-12,1,0,2,1
1537907770926857,-1,-1,-2,2,-5,-5,-3,-2
1537907770926857,-5,-1,8,46,10,3,-2,-8
1537907770926857,1,-1,-6,-23,-5,1,1,-1
1537907770926857,-1,3,1,19,9,0,2,3
1537907770941818,-4,-3,2,-16,-7,-7,-7,-8
1537907770941818,1,-2,-8,-2,-11,-5,-2,-3
1537907770941818,3,2,-2,-39,-7,0,1,2
1537907770941818,-4,-6,-10,-14,-3,-1,-2,-5
1537907770965754,-3,-2,1,-19,0,1,-1,-2
1537907770965754,-1,-2,0,45,13,3,5,1
1537907770965754,3,1,3,44,10,-1,2,1
1537907770965754,-5,-1,0,-35,-17,-7,-4,-5
1537907770986699,2,1,-4,-18,-5,-2,-2,-2
1537907770986699,-2,1,-1,3,-1,0,2,-1
1537907770987696,-1,-1,0,19,9,3,0,-1
1537907770987696,-1,-2,1,11,0,0,-2,-3
1537907771001658,-2,0,1,-10,-6,-3,-1,0
1537907771001658,0,-4,-10,12,5,3,0,-1
1537907771001658,1,1,4,15,-3,-5,-1,-2
1537907771001658,0,-1,10,17,2,0,-1,-1
1537907771023599,-2,-3,-14,-64,-15,-5,-2,-1
1537907771023599,-1,1,5,11,3,1,-1,0
1537907771024597,-1,-1,1,-5,-3,0,-1,-1
1537907771024597,0,-2,2,1,-1,-1,1,0
1537907771046538,0,-1,0,18,6,0,1,0
1537907771046538,-3,-2,-3,1,-5,-1,0,-1
1537907771053519,-1,-1,6,-7,-4,-1,1,-2
1537907771053519,-2,-1,-6,-4,5,0,1,0
1537907771061498,-2,-1,-1,-5,-1,-1,-2,-2
1537907771061498,0,0,-2,2,-3,-1,-2,-1
1537907771062495,-1,0,-4,-4,-3,-2,-1,-1
1537907771062495,0,-1,-2,-1,-2,1,-1,0
1537907771083439,-1,0,3,-3,1,-1,0,-1
1537907771083439,0,-2,-1,-5,-1,0,0,-1
1537907771084437,0,-1,-3,9,1,1,0,-1
1537907771084437,-2,-1,0,-4,-1,-1,-2,1
1537907771107375,0,-2,1,-4,-1,1,0,-1
1537907771107375,0,-2,-1,4,0,0,0,1
1537907771107375,0,1,-2,-6,-1,0,0,1
1537907771107375,0,1,-1,-2,0,1,-1,-3
1537907771121338,0,-1,0,-2,-4,-3,0,0
1537907771121338,1,0,1,1,1,-2,0,0
1537907771122335,-1,1,11,9,4,2,1,0
1537907771122335,0,1,-22,-3,2,0,0,0
1537907771144276,-4,-10,45,30,9,0,-2,-3
1537907771144276,1,5,-30,22,1,0,1,0
1537907771144276,-6,-7,-11,-70,-36,-13,-7,-8
1537907771144276,5,5,-50,114,58,16,4,4
1537907771167216,-2,0,23,-102,-49,-19,-5,-6
1537907771167216,-3,-13,-65,22,18,2,0,-2
1537907771168212,-5,3,8,-74,-15,-4,0,1
1537907771168212,-6,-56,-3,70,-1,-7,-11,-9
1537907771181178,14,51,77,46,45,14,3,6
1537907771181178,-5,4,-80,-88,-76,-27,-7,-6
1537907771182175,-5,-62,-31,41,6,0,-5,-2
1537907771182175,-2,16,95,-40,-56,-11,2,5
1537907771204116,-8,-13,39,28,12,-6,-10,-7
1537907771204116,5,-3,-38,127,120,40,14,9
1537907771205114,-22,-35,77,-93,-85,-48,-25,-23
1537907771205114,5,32,10,9,35,13,5,2
1537907771227055,18,6,-94,108,83,31,20,19
1537907771227055,-7,-17,4,-55,-64,-19,-10,-7
1537907771228053,-2,10,-12,33,11,12,7,3
1537907771228053,7,37,89,-37,-38,-12,0,0
1537907771241018,-14,-32,23,-124,-64,-20,-10,-17
1537907771241018,2,-9,-47,119,32,13,5,4
1537907771248997,17,26,-114,73,37,21,14,19
1537907771248997,8,23,82,53,27,4,2,1
1537907771263957,-14,-20,-125,68,-10,-9,-5,-6
1537907771263957,5,-24,-40,-32,-39,-11,-4,-2
1537907771264954,8,41,82,69,88,32,13,8
1537907771264954,-15,-14,-78,-54,-29,-24,-12,-10
1537907771286896,2,1,67,87,53,16,6,6
1537907771286896,-5,-35,-18,-50,-21,-14,-3,1
1537907771287894,-3,45,15,70,52,11,-2,-7
1537907771287894,6,5,-23,-17,16,12,6,6
1537907771300858,0,-4,-71,-43,-44,-11,-5,0
1537907771300858,-5,10,127,-11,9,5,-1,-5
1537907771308837,-5,-9,-16,-36,-22,-6,-5,-6
1537907771308837,-2,-20,-72,-87,-53,-16,-7,-6
1537907771323797,-2,-7,94,13,25,7,2,0
1537907771323797,12,31,25,-40,-29,-6,0,4
1537907771324794,2,-13,-40,-34,-31,-12,-2,0
1537907771324794,-3,-11,-18,-20,3,0,-2,-2
1537907771346737,4,0,6,27,31,12,4,4
1537907771346737,-3,25,102,-28,-10,-8,-6,-7
1537907771347734,-1,-25,-98,51,12,0,2,0
1537907771347734,1,-8,-11,20,20,10,5,4
1537907771370672,4,12,14,20,32,11,4,3
1537907771370672,-7,-9,19,11,17,1,-2,-3
1537907771371670,7,28,-43,-58,-49,-13,-5,-3
1537907771371670,-6,-7,-33,56,27,8,1,-2
1537907771383637,-2,-6,-81,-83,-47,-15,-6,-3
1537907771383637,4,-2,16,6,11,3,2,3
1537907771384635,0,-5,59,54,12,2,1,2
1537907771384635,-5,-7,-1,13,6,0,0,-5
1537907771407573,-3,2,-1,-6,-22,-10,-5,-6
1537907771407573,0,6,22,24,20,6,1,-1
1537907771407573,4,6,-41,-51,5,3,1,3
1537907771407573,-3,-2,-3,5,-19,-4,-1,-1
1537907771429515,-4,-1,36,26,-26,-9,-2,-2
1537907771429515,1,6,-26,-1,15,2,1,0
1537907771430514,-1,-6,33,10,-2,-2,-3,-1
1537907771430514,-5,-5,23,40,20,3,-1,-3
1537907771444476,-3,-10,-64,-44,-19,-4,-1,-2
1537907771444476,-3,16,18,20,3,-1,-2,-3
1537907771444476,-3,-24,-52,-37,-1,0,1,-1
1537907771444476,7,29,39,-42,-6,-2,0,3
1537907771467414,-1,-3,16,27,-7,-3,-3,-3
1537907771467414,1,2,-33,-18,1,1,1,2
1537907771467414,-5,-5,15,33,13,3,-2,-2
1537907771467414,-1,-8,-14,-57,-17,-6,-4,-1
1537907771480381,0,2,4,8,7,3,0,-1
1537907771480381,-5,-1,-13,1,17,6,0,-2
1537907771489356,1,3,43,4,-5,-3,0,2
1537907771489356,0,-11,-25,9,-2,-1,-1,-2
1537907771504314,-1,2,68,-14,9,1,1,-1
1537907771504314,-2,-12,-90,-43,-16,-6,-4,-2
1537907771504314,0,-3,36,13,2,0,1,0
1537907771504314,2,6,13,4,-1,0,2,5
1537907771527253,1,8,22,-3,1,-2,-1,0
1537907771527253,-4,-1,22,15,1,-2,-2,-2
1537907771528250,1,2,6,35,26,8,1,1
1537907771528250,0,-2,44,-26,-26,-11,-6,-4
1537907771549194,-3,-12,-91,-4,-14,-3,1,-3
1537907771549194,0,1,33,10,1,-1,0,1
1537907771550191,4,3,14,0,-8,-3,-2,-1
1537907771550191,-8,-5,-14,17,24,6,2,-4
1537907771564154,-5,0,-12,-3,-4,-3,-3,-3
1537907771564154,-1,-1,9,-2,-9,-4,-2,-2
1537907771565151,1,-4,4,10,3,3,0,1
1537907771565151,2,-4,-42,0,-9,-3,0,3
1537907771587093,-1,1,45,6,2,0,-2,-1
1537907771587093,-1,-4,-88,-4,1,0,1,0
1537907771588090,0,2,26,6,-3,-3,0,2
1537907771588090,-1,-5,-4,2,-1,0,-1,0
1537907771610031,-2,1,-12,0,-1,0,0,0
1537907771610031,0,1,34,29,10,2,-1,-1
1537907771610031,-1,0,4,-10,-4,-1,0,-1
1537907771610031,-4,-6,-26,-18,4,0,-2,-3
1537907771623994,-1,-2,-3,-22,-16,-6,-2,-2
1537907771623994,1,0,1,14,10,3,1,1
1537907771624992,-3,-1,-22,-30,-24,-8,-3,-5
1537907771624992,0,1,10,20,10,1,-1,1
1537907771646934,3,3,-10,10,7,1,2,3
1537907771646934,-5,-1,20,-13,-2,0,-2,-2
1537907771647931,-2,2,25,-7,-9,-1,-2,-4
1537907771647931,-5,-9,28,8,-1,-2,0,-4
1537907771669873,8,9,7,4,12,8,5,6
1537907771669873,2,-6,55,25,-5,-2,-1,2
1537907771669873,1,4,-20,-43,-16,-4,-1,2
1537907771669873,-1,0,29,10,2,0,-2,-1
1537907771683837,-3,1,-18,-2,-2,-2,-4,-3
1537907771683837,-2,-1,6,19,16,5,0,-1
1537907771684834,-1,2,6,27,9,0,0,-1
1537907771684834,1,-1,-21,3,-5,-2,-1,-1
1537907771706774,-2,-6,-8,0,5,0,1,0
1537907771706774,-3,3,-33,-21,-15,-5,-3,-3
1537907771707771,-4,-9,7,-8,1,-2,-1,-1
1537907771707771,1,3,-27,-5,0,0,1,0
1537907771729712,-2,0,16,13,5,1,0,-1
1537907771729712,1,-5,-17,-13,-2,-2,0,0
1537907771730710,-1,4,-8,15,2,-2,-3,-1
1537907771730710,-1,-2,44,-2,-2,-1,-1,-1
1537907771743675,2,1,-24,5,-2,-2,0,1
1537907771743675,-2,5,26,12,-12,-4,-1,-2
1537907771744672,-3,-12,-15,-5,0,-1,-1,-3
1537907771744672,1,0,-19,-33,-10,-2,-1,1
1537907771767611,-1,-4,-3,0,-5,-3,-2,-2
1537907771767611,-1,2,-1,-13,-2,1,-2,0
1537907771767611,-1,-6,8,9,7,2,0,-1
1537907771767611,-2,-2,-7,7,-1,-1,-3,0
1537907771789552,1,1,-3,-10,0,0,0,1
1537907771789552,0,-4,9,5,12,2,3,0
1537907771790550,0,-1,-11,-13,-14,-5,-3,-1
1537907771790550,-3,3,-4,6,-5,0,1,-1
1537907771803515,0,0,-5,-11,0,1,0,2
1537907771803515,-3,-3,-32,7,6,1,-1,0
1537907771804513,3,8,18,3,4,-1,1,2
1537907771804513,1,0,7,4,2,-1,-1,-1
1537907771827451,-3,-1,4,2,0,0,-3,-4
1537907771827451,-4,-3,51,7,-6,-3,-3,-4
1537907771827451,-5,-2,-76,-13,-1,-2,-2,-3
1537907771827451,4,-2,21,-9,0,2,1,5
1537907771849392,-3,-1,12,0,-9,-3,-1,-1
1537907771849392,0,-2,2,3,3,-1,-2,-2
1537907771851387,-3,2,14,-6,2,0,-1,0
1537907771851387,-3,-3,-19,1,3,0,0,-1
1537907771863355,-1,-7,-22,-3,2,0,-1,0
1537907771863355,1,6,32,-6,-10,-4,-1,-1
1537907771872332,0,4,-9,12,7,2,1,-1
1537907771872332,-4,-13,-23,-4,-8,-3,-4,-6
1537907771887292,5,11,19,18,2,0,2,2
1537907771887292,-1,-7,-22,-39,-11,-4,0,-2
1537907771888291,-1,-1,13,17,-3,-2,-1,0
1537907771888291,0,5,34,12,9,2,0,2
1537907771909232,-5,-7,-72,-22,1,0,-2,-6
1537907771909232,2,-1,0,-1,-12,-3,-2,-2
1537907771911227,2,0,14,-5,2,2,0,0
1537907771911227,1,-4,22,7,8,-1,1,-1
1537907771923195,-2,-4,-23,4,-10,-3,-3,0
1537907771923195,0,4,-12,-4,5,0,0,2
1537907771932171,-1,-5,11,-2,-1,-1,-1,-1
1537907771932171,-1,1,-23,0,-2,0,-2,-1
1537907771947131,0,2,39,2,4,1,1,0
1537907771947131,1,-3,-56,-5,5,0,-1,-2
1537907771948129,-3,-7,19,-3,-7,-3,-2,-1
1537907771948129,0,4,17,-3,-2,0,-1,-2
1537907771970070,-1,-1,23,-11,1,0,0,0
1537907771970070,0,-3,12,4,-6,-3,-2,0
1537907771971067,3,-3,-6,1,5,-1,-1,1
1537907771971067,-5,-1,-18,11,1,-1,-2,-2
1537907771983035,-3,0,40,2,3,-1,-3,-2
1537907771983035,-4,-4,-52,-16,-16,-4,-1,-1
1537907771992011,1,2,42,-12,-3,-2,-1,0
1537907771992011,0,1,-55,-13,-4,0,1,1
1537907772006971,2,-6,-2,6,4,1,0,1
1537907772006971,2,8,53,-3,1,1,0,-1
1537907772008966,-2,-4,-18,1,0,-1,0,-3
1537907772008966,-3,0,2,-1,-5,-1,-1,0
1537907772029909,-2,2,25,-2,7,1,-1,-2
1537907772029909,1,-1,-21,12,3,0,0,0
1537907772030908,-1,-7,7,-5,-3,-1,1,-1
1537907772030908,-1,-9,-61,-9,4,0,0,0
1537907772042876,3,14,17,16,-10,-5,0,1
1537907772042876,-3,0,35,-2,2,0,-2,0
1537907772051851,-2,6,20,17,3,2,-2,-2
1537907772051851,-1,-3,29,-11,8,1,0,0
1537907772066811,-2,-13,-89,-28,-18,-6,-2,-3
1537907772066811,-2,-2,-25,1,0,1,0,-2
1537907772068805,2,3,-15,13,1,0,0,0
1537907772068805,1,3,17,-7,-6,-1,-1,0
1537907772089749,-5,-3,9,-5,-1,-3,-1,-3
1537907772089749,0,-4,24,3,13,4,-1,1
1537907772090747,-4,-1,-19,1,-7,-2,-1,-3
1537907772090747,-3,-1,-6,6,-8,-4,-2,-3
1537907772103712,4,-1,-8,-20,2,2,1,2
1537907772103712,0,1,24,1,2,0,-1,0
1537907772111691,-1,5,2,3,-1,-3,-4,-1
1537907772111691,0,-7,-10,8,-1,0,0,0
1537907772126650,-1,3,13,9,-1,0,-1,-2
1537907772126650,-1,-11,6,6,16,3,2,0
1537907772128646,-4,-4,7,-39,-25,-7,-3,-5
1537907772128646,-1,4,-35,-14,-5,-2,-2,-1
1537907772149590,-1,-3,-10,-3,-6,-3,-3,-3
1537907772149590,5,5,-22,4,6,2,4,3
1537907772151584,0,1,28,14,9,2,-1,2
1537907772151584,-1,-3,8,4,1,-1,-1,0
1537907772163552,-1,0,2,2,0,-3,-1,-3
1537907772163552,-2,-4,10,-5,-6,-1,1,-1
1537907772172528,0,-2,-22,2,1,0,-1,-1
1537907772172528,0,2,15,0,1,0,1,-1
1537907772187488,0,5,1,4,4,0,-2,0
1537907772187488,-1,8,-1,-2,-8,-4,-1,1
1537907772188485,1,2,-4,3,5,3,2,1
1537907772188485,-3,-1,3,0,1,-1,0,-2
1537907772209429,-4,-1,17,8,1,-1,-2,-3
1537907772209429,-5,-5,-9,-4,-6,-4,-1,-3
1537907772211424,2,-4,-14,-5,1,0,2,1
1537907772211424,3,5,17,0,0,0,-1,2
1537907772232368,-3,-7,-8,1,-2,-2,-3,-2
1537907772232368,-7,-5,-4,-1,-2,-2,0,-1
1537907772233365,5,3,-7,-1,1,0,1,1
1537907772233365,4,-1,10,2,-3,-2,4,0
1537907772247328,4,-1,-5,-1,1,6,5,23
1537907772247328,-4,1,-3,-1,-3,-1,8,4
1537907772248325,4,-7,3,-1,4,23,-4,-17
1537907772248325,-14,1,1,10,3,-35,-17,-22
1537907772271264,-6,-10,-7,-9,-6,9,0,15
1537907772271264,32,5,5,-1,7,62,8,18
1537907772272261,-40,-6,-8,-6,-16,-98,3,-5
1537907772272261,2,-4,-7,-4,-5,8,-63,-62
1537907772283232,-21,-2,0,2,7,34,5,9
1537907772283232,-5,0,3,1,-7,-45,12,-36
1537907772292208,26,6,-5,0,2,39,-14,19
1537907772292208,9,-5,-4,-2,3,43,45,73
1537907772306170,-9,0,8,3,4,-12,21,48
1537907772306170,-18,-6,0,0,-7,-21,16,10
1537907772313152,20,1,-1,6,8,-17,-35,-55
1537907772313152,3,6,11,2,-3,8,32,-18
1537907772330106,-17,-8,-6,-2,-4,-41,-21,-77
1537907772330106,-10,-1,1,1,4,63,-23,-9
1537907772331104,-18,3,0,4,5,-6,18,-6
1537907772331104,16,0,8,6,2,-57,-9,55
1537907772343072,-5,-5,-11,-8,-4,41,1,59
1537907772343072,14,5,1,-2,-6,-54,2,2
1537907772352048,27,3,-2,-4,2,25,-16,-21
1537907772352048,-14,-13,-7,8,1,43,61,-30
1537907772366011,29,16,4,-10,3,-13,2,-2
1537907772366011,-3,-8,-3,0,-3,-48,-12,18
1537907772372993,-11,-4,-3,-8,-8,25,4,24
1537907772372993,-7,4,2,6,10,-2,11,34
1537907772389948,-20,-11,0,2,-13,-25,-18,-58
1537907772389948,17,6,-1,7,6,23,-14,13
1537907772390945,-16,-4,-2,7,7,8,21,13
1537907772390945,0,1,-5,-19,-12,-21,-18,-7
1537907772402912,-3,3,0,0,-1,10,-7,-20
1537907772402912,1,-1,-4,-10,-4,16,-8,6
1537907772411888,13,1,0,8,0,-19,5,13
1537907772411888,-17,3,2,0,1,9,-18,-10
1537907772426848,16,4,1,8,5,14,1,10
1537907772426848,-10,-3,-4,-9,-4,-16,2,-13
1537907772432832,-2,-6,-3,-6,-8,0,10,17
1537907772432832,-3,-9,1,-4,-6,5,-21,-18
1537907772449787,6,3,1,2,0,-11,5,-1
1537907772449787,-12,-3,0,4,2,-7,-8,-6
1537907772450784,-2,-4,0,-1,1,7,3,0
1537907772450784,2,-8,-6,-6,-2,3,6,1
1537907772471728,5,3,5,9,1,-17,-7,-8
1537907772471728,-7,-2,-3,-3,0,15,-20,-6
1537907772473723,-15,3,3,-4,-3,-9,18,8
1537907772473723,18,2,-2,3,-1,-6,0,18
1537907772486688,9,-7,-7,-6,-2,5,1,3
1537907772486688,14,-1,2,3,6,47,24,36
1537907772493670,-21,-5,-1,-1,-11,-77,-11,-19
1537907772493670,-42,1,2,1,-1,-3,-13,7
1537907772509627,21,3,1,1,7,15,-20,-33
1537907772509627,10,2,0,-3,3,60,20,-49
1537907772511621,-59,-9,-1,0,-12,-48,-17,-89
1537907772511621,40,10,-2,-4,0,44,-13,51
1537907772532565,-40,-4,-3,-3,2,40,16,-46
1537907772532565,11,-1,-4,-6,-17,-85,-16,29
1537907772533563,0,3,1,2,12,18,19,-1
1537907772533563,1,-2,0,-2,0,14,8,-19
1537907772546528,-28,-2,3,4,4,1,8,1
1537907772546528,20,6,0,-2,-10,-62,-10,0
1537907772553509,16,-1,-7,-3,-3,41,-6,15
1537907772553509,-9,6,1,1,-3,-83,-27,-56
1537907772569467,29,-3,2,0,-2,8,49,109
1537907772569467,-57,-7,5,2,-7,-52,-24,-61
1537907772571461,24,7,-6,-7,3,13,-32,61
1537907772571461,44,3,2,5,4,26,-4,59
1537907772592405,-27,-4,2,1,-7,-13,2,-103
1537907772592405,-33,-14,-8,-6,-6,-11,8,-24
1537907772593403,17,12,6,2,6,54,-4,-4
1537907772593403,-28,-9,-1,4,12,90,72,-19
1537907772605371,-28,-10,-8,-10,-30,-105,-74,-100
1537907772605371,4,5,5,3,3,57,9,-10
1537907772614347,-12,-10,-3,-1,7,45,-3,-3
1537907772614347,-2,4,-2,-4,-3,21,-3,16
1537907772631301,33,1,-5,-4,-6,-47,15,41
1537907772631301,-3,3,-5,-2,-2,-11,-33,-6
1537907772632299,12,-2,-4,-3,-7,-30,-21,-19
1537907772632299,9,4,3,-1,2,-5,10,-17
1537907772652246,13,0,1,1,12,74,65,59
1537907772652246,-4,-4,-1,-4,-10,-62,-70,-32
1537907772653243,22,-5,3,5,4,3,47,21
1537907772653243,-11,0,-7,-7,-9,-33,-16,-21
1537907772666208,34,8,1,4,13,31,-2,15
1537907772666208,52,9,-3,-2,6,65,46,52
1537907772674187,-12,-6,-1,1,-1,-33,22,6
1537907772674187,-13,0,7,4,-10,-73,-18,-89
1537907772689148,-13,-4,-5,-4,-5,-3,-19,58
1537907772689148,16,2,2,7,9,24,8,10
1537907772691144,7,0,-4,-2,1,33,-5,12
1537907772691144,2,-2,-2,-3,-2,-6,-2,-3
1537907772712087,2,-3,0,0,3,-12,-7,-12
1537907772712087,-1,0,-1,0,2,12,15,5
1537907772713085,-6,2,0,-2,-2,1,-4,6
1537907772713085,-11,-9,-2,-4,-5,-8,0,5
1537907772735024,1,2,1,1,0,-4,-20,-18
1537907772735024,-18,-6,-2,-1,3,14,7,8
1537907772736022,4,1,-2,-1,1,0,-1,-4
1537907772736022,1,1,-1,-2,-4,-5,-12,11
1537907772749984,-4,-2,1,-3,0,6,-6,-3
1537907772749984,0,3,-2,-2,-1,3,10,-3
1537907772750981,2,-1,2,2,1,-5,-4,0
1537907772750981,-3,-5,-2,1,4,2,-4,4
1537907772771925,-1,2,1,2,-1,0,-4,4
1537907772771925,-6,-5,-3,-3,-3,0,9,3
1537907772773920,-4,-2,2,4,-4,-2,-8,-6
1537907772773920,-3,-4,-8,12,3,5,-5,7
1537907772785888,1,0,-2,-11,-1,1,0,-1
1537907772785888,-4,1,12,13,-6,-4,-1,1
1537907772794864,-2,-1,-5,-43,-5,2,-3,1
1537907772794864,3,0,5,43,1,1,-3,1
1537907772809824,0,-1,-4,-34,5,-2,-1,-2
1537907772809824,-7,-2,-7,22,6,5,2,1
1537907772810822,2,2,11,-5,3,-1,-2,4
1537907772810822,-1,-2,-5,-12,-6,-5,-4,-1
1537907772831766,-4,1,7,-12,-17,-6,-6,-5
1537907772831766,-2,-1,-6,-15,1,5,2,3
1537907772833761,-3,-3,-5,-2,2,1,-2,-3
1537907772833761,1,0,1,1,6,1,-3,5
1537907772845729,1,1,-4,13,3,0,-1,1
1537907772845729,1,0,2,-3,-1,-1,3,0
1537907772854705,-5,-5,-4,10,-2,-4,-3,-4
1537907772854705,-3,-2,-2,-8,-7,-3,-4,-3
1537907772870663,-3,-1,-3,7,-2,0,-2,-1
1537907772870663,1,1,1,-2,2,0,4,2
1537907772872658,0,-1,-1,12,4,2,-1,0
1537907772872658,-1,3,-2,-14,-6,-4,-1,1
1537907772892604,0,-2,-1,3,-1,-1,0,0
1537907772892604,-2,-2,0,-4,2,1,-1,1
1537907772893602,-1,-2,0,4,-2,0,0,-1
1537907772893602,0,-3,-1,-10,-1,0,0,-1
1537907772905569,1,-1,-1,3,-1,-1,-1,-1
1537907772905569,-1,0,0,0,0,1,1,-2
1537907772914547,-1,1,-3,-1,-5,-4,-1,0
1537907772914547,0,1,-2,-5,2,1,-2,1
1537907772929505,-4,-2,2,12,5,1,-2,-1
1537907772929505,-4,-1,-1,-5,-8,-2,-1,0
1537907772931500,-1,-1,-3,5,3,2,-1,-2
1537907772931500,2,0,0,6,10,5,1,3
1537907772951446,-3,-6,-13,10,-2,-2,-3,-3
1537907772951446,5,7,16,-10,0,3,2,2
1537907772958427,-1,-20,5,-28,1,-2,-1,-2
1537907772958427,-7,4,-17,73,1,-3,-1,-5
1537907772965409,4,12,47,-96,-58,-10,-3,-2
1537907772965409,-7,3,-27,-55,-14,-9,-8,-5
1537907772974384,-1,-17,-48,104,52,15,6,7
1537907772974384,1,-6,89,11,1,3,5,4
1537907772989345,-9,-10,-18,5,2,-7,-6,-5
1537907772989345,7,12,10,127,36,10,8,7
1537907772995330,-5,20,-29,-92,-29,-8,-3,-3
1537907772995330,-5,-23,-48,9,-9,-4,-3,-1
1537907773012283,10,34,1,-33,46,25,17,9
1537907773012283,-8,-37,65,35,-9,-9,-6,-6
1537907773013282,4,57,15,-54,-16,-8,-9,-5
1537907773013282,5,14,-32,-54,-84,-31,-9,-2
1537907773026246,-6,-35,-53,69,-30,-19,-12,-7
1537907773026246,2,9,60,20,35,12,3,4
1537907773034224,1,-2,30,73,41,13,3,-1
1537907773034224,-1,-16,-76,58,43,12,2,0
1537907773049184,5,-2,8,-23,30,1,1,3
1537907773049184,6,15,-9,-31,-35,-10,-2,-1
1537907773051179,0,2,59,48,-10,-2,-1,-2
1537907773051179,-4,-2,35,-99,-6,1,-1,-2
1537907773072123,-4,-37,-39,66,46,15,7,-3
1537907773072123,4,53,-46,-69,-40,-8,-2,-1
1537907773073120,-15,-38,95,-121,-69,-17,-4,-8
1537907773073120,-8,36,-95,-15,-15,-6,-5,-9
1537907773086085,2,34,3,93,29,10,6,6
1537907773086085,-6,13,70,-41,-4,-3,-2,0
1537907773095062,3,45,-54,34,20,3,1,5
1537907773095062,0,4,74,4,7,2,0,1
1537907773110021,-2,-11,-13,-36,-24,-9,-7,-1
1537907773110021,6,-28,-35,-11,4,2,0,7
1537907773111019,1,-53,-35,13,8,0,-2,-1
1537907773111019,4,-32,28,18,17,4,2,1
1537907773131963,0,-47,17,-22,-19,-6,-3,-6
1537907773131963,-1,-75,-39,-10,8,3,-1,-4
1537907773133958,4,-30,-1,48,14,3,2,1
1537907773133958,0,-20,-14,-42,-35,-8,-6,-4
1537907773145926,-8,44,57,-6,-9,-1,-2,-6
1537907773145926,-10,19,-26,6,3,0,-2,-8
1537907773154902,-1,21,-70,-19,4,1,4,1
1537907773154902,-2,37,-7,32,24,6,2,2
1537907773169862,3,16,6,-16,-2,0,-1,2
1537907773169862,-6,-10,-24,34,-1,0,-1,-4
1537907773170860,-2,18,36,12,-12,-2,-3,-2
1537907773170860,1,0,18,11,14,2,2,2
1537907773191803,-1,-8,0,8,-5,-5,-3,1
1537907773191803,0,6,6,-13,5,2,0,-1
1537907773193798,3,-6,-19,-35,1,-2,-1,1
1537907773193798,2,-4,-42,-40,-1,0,0,0
1537907773205766,-5,-50,-32,22,-1,-3,-2,-2
1537907773205766,3,34,81,-6,-14,-6,-1,3
1537907773214742,-5,-20,-33,-13,-4,-3,-2,-3
1537907773214742,1,6,68,41,2,2,-2,0
1537907773230699,-1,10,-30,-26,1,-1,0,0
1537907773230699,-5,-20,-46,19,5,1,-2,-3
1537907773235686,-2,3,16,14,-4,0,0,-2
1537907773235686,2,6,16,-23,-1,-2,-1,-1
1537907773251645,1,14,14,1,-1,1,0,-1
1537907773251645,-3,-13,-13,7,2,0,0,-1
1537907773253639,1,9,14,11,-10,-2,0,0
1537907773253639,0,-2,-26,5,11,3,0,-1
1537907773265607,2,4,-14,24,5,2,1,0
1537907773265607,-1,-7,-40,-35,-6,-1,0,-3
1537907773274582,-4,-1,8,8,4,2,-1,-2
1537907773274582,-2,-6,44,5,-2,-4,-1,-3
1537907773288545,-4,2,6,3,-5,1,-3,-1
1537907773288545,3,3,-22,0,7,2,1,2
1537907773295525,1,-9,-40,-8,-3,0,-1,2
1537907773295525,2,12,58,10,6,2,1,0
1537907773312480,0,-3,17,-18,-10,-5,-1,-4
1537907773312480,-3,-8,-31,-1,-4,-2,-1,1
1537907773313478,-1,-3,12,-1,-5,-3,-1,0
1537907773313478,-4,-31,-3,-10,3,1,1,-1
1537907773342400,2,36,-33,-10,-2,-2,-2,-3
1537907773342400,2,12,53,7,-6,-3,-2,-2
1537907773343398,0,-8,-1,5,-2,0,0,0
1537907773343398,-1,-2,-9,-4,2,1,-1,0
1537907773348384,4,-13,24,-4,2,0,2,3
1537907773348384,-5,-8,-15,-2,-2,-2,-3,-3
1537907773355366,-2,7,-4,-4,1,-1,-1,-3
1537907773355366,2,0,18,2,-2,-2,0,-2
1537907773372320,-5,-9,-59,-6,-1,1,0,0
1537907773372320,2,16,-1,4,1,0,2,2
1537907773373318,2,-6,19,1,-2,-2,-1,-2
1537907773373318,-3,4,-34,-5,3,0,-3,-3
1537907773385286,-8,-4,19,7,-3,-1,-3,-2
1537907773385286,2,-5,0,6,4,3,-1,0
1537907773394262,4,3,-9,-13,2,0,0,3
1537907773394262,-1,2,-6,-6,-5,-4,-1,-2
1537907773409222,1,2,12,4,-3,-2,-1,-2
1537907773409222,8,-3,0,4,2,0,2,3
1537907773416203,-6,3,9,4,-1,-1,0,-1
1537907773416203,-7,-3,-22,-1,0,0,-4,-4
1537907773432161,-8,-1,18,-1,0,1,-2,-2
1537907773432161,10,-2,-8,4,6,1,1,-1
1537907773433158,4,2,-2,2,-3,4,-6,0
1537907773433158,-12,-13,-15,-9,-1,8,41,2
1537907773454102,12,8,14,6,4,-5,-26,21
1537907773454102,8,-3,3,3,3,40,53,32
1537907773456098,-10,-1,2,0,1,-9,-29,-73
1537907773456098,-20,0,-10,-3,-7,-23,0,65
1537907773470060,39,-4,-6,-8,-15,-73,-16,-32
1537907773470060,-25,7,-6,-8,0,24,-6,6
1537907773477041,-22,4,15,12,-15,-113,-30,-20
1537907773477041,9,-4,-21,-8,-5,84,-82,47
1537907773492002,-10,-7,8,-1,0,-40,69,-50
1537907773492002,62,-6,-4,-1,-2,15,-21,125
1537907773493998,-31,-4,-9,-5,12,75,40,-80
1537907773493998,1,13,12,7,-8,-128,103,17
1537907773514942,-59,-37,3,3,-9,-21,-120,-59
1537907773514942,-10,-6,-8,-10,-3,20,20,-38
1537907773515938,1,1,4,1,8,76,29,61
1537907773515938,28,14,4,9,15,2,30,15
1537907773527906,-11,-1,1,-1,3,54,31,21
1537907773527906,-34,-5,6,9,-2,-27,-5,-61
1537907773536881,51,1,-2,1,-2,-5,14,42
1537907773536881,-35,-7,-11,-14,-21,-29,-71,-93
1537907773551841,54,19,2,4,10,8,-1,15
1537907773551841,-24,-4,-1,-4,-6,-32,-44,-36
1537907773553836,1,-4,-6,-5,1,44,10,58
1537907773553836,12,10,-1,3,6,36,21,2
1537907773574780,-25,-3,2,-1,-3,-26,-27,-58
1537907773574780,-4,-1,-4,-4,-3,3,-5,-57
1537907773575777,-3,1,-4,-5,-12,-48,18,70
1537907773575777,0,8,1,0,3,2,-16,-84
1537907773587745,-4,10,-3,-4,1,38,20,29
1537907773587745,-8,1,0,2,3,-4,11,-7
1537907773596721,6,2,6,5,5,16,2,-17
1537907773596721,-5,-12,0,1,-2,-31,-5,14
1537907773611681,11,-1,-8,-8,-4,19,-6,17
1537907773611681,15,6,6,6,0,-7,9,-11
1537907773618662,-3,-15,1,4,6,31,11,37
1537907773618662,6,-13,-1,-4,-6,2,-29,-36
1537907773634620,-15,-4,1,-1,-5,-16,18,-1
1537907773634620,13,2,-1,4,10,1,2,71
1537907773635617,3,3,-1,-1,-10,-54,-35,8
1537907773635617,-4,0,2,3,7,47,14,-2
1537907773648582,17,12,6,5,2,6,8,80
1537907773648582,-3,0,-4,-8,-8,-1,-3,-18
1537907773657558,-1,8,-2,-1,1,-8,9,-25
1537907773657558,-2,0,-2,-1,5,27,-2,15
1537907773672518,11,9,0,-1,-2,-12,-4,36
1537907773672518,-13,-6,1,1,3,7,5,8
1537907773673515,0,-3,-3,-3,-4,4,4,-27
1537907773673515,13,-2,-3,-2,-2,-29,-12,25
1537907773693462,-4,-1,0,1,5,24,9,-22
1537907773693462,3,1,-3,3,2,3,-1,-2
1537907773702438,-3,4,2,0,1,-3,1,-36
1537907773702438,1,-2,-2,-4,-10,-23,-17,25
1537907773708422,5,-3,-2,-1,2,10,10,-3
1537907773708422,-10,9,3,3,1,-14,-4,-11
1537907773717398,-4,0,-1,-4,-2,-12,-10,12
1537907773717398,-7,-1,-1,1,4,17,6,-16
1537907773732358,-3,-2,2,-1,2,15,9,12
1537907773732358,16,-4,-5,-4,-7,-20,-2,-9
1537907773733356,-9,-4,-4,-2,3,3,-12,-11
1537907773733356,13,1,-2,3,5,12,4,5
1537907773754300,-8,1,-4,-6,-16,-2,3,-7
1537907773754300,-10,-5,-4,-8,-4,-8,-2,16
1537907773756295,-3,-1,-4,-3,-3,-6,-15,-23
1537907773756295,0,-2,0,2,3,6,5,10
1537907773769260,-1,-1,0,3,7,0,5,3
1537907773769260,-4,-3,-1,0,-2,2,-4,-9
1537907773777238,0,-4,-2,-4,-6,-22,1,8
1537907773777238,3,3,-1,0,-1,-3,-3,5
1537907773792198,-5,-6,-4,-6,-1,5,3,-11
1537907773792198,-4,-2,0,0,-1,-1,0,-1
1537907773793196,13,4,-1,2,2,4,-2,8
1537907773793196,-7,-1,-2,-4,-2,6,-2,-7
1537907773814141,-5,-1,2,0,1,-2,2,-7
1537907773814141,-1,-1,-1,-1,-3,-8,-4,0
1537907773816135,-5,-3,-1,0,-1,-3,-3,1
1537907773816135,2,1,0,0,2,6,6,1
1537907773828103,9,3,2,2,0,1,1,7
1537907773828103,-8,-3,1,4,1,-6,-4,-9
1537907773837079,-2,-3,-2,9,3,4,-2,-3
1537907773837079,9,0,-2,-11,-7,0,0,-1
1537907773852039,-2,-1,-5,-11,-9,-4,1,2
1537907773852039,-3,-2,0,-1,-1,0,-2,-1
1537907773854034,-3,-2,2,5,2,1,-3,-5
1537907773854034,0,0,-4,20,13,1,2,2
1537907773874978,0,0,1,-20,-4,-1,1,2
1537907773874978,1,0,7,-1,-6,-6,-3,-2
1537907773875976,0,0,-2,-4,0,1,-2,2
1537907773875976,-4,-5,-2,57,7,3,2,-1
1537907773896918,-3,-3,-4,-6,9,1,0,-2
1537907773896918,-3,1,-4,-82,-37,-11,-5,-4
1537907773898913,-3,-2,-9,0,-1,-2,-4,-1
1537907773898913,-1,-2,11,-1,-8,-1,-2,-2
1537907773911878,1,1,2,61,12,3,2,-1
1537907773911878,-2,-8,-19,-35,2,1,1,0
1537907773913873,1,-1,10,14,-1,-1,0,-1
1537907773913873,-3,-1,-9,-24,2,0,0,-3
1537907773934817,-1,-1,-1,-8,-1,0,0,1
1537907773934817,1,1,0,-2,-7,-5,-2,0
1537907773935814,-1,0,4,6,-4,-1,-1,0
1537907773935814,-1,-3,-8,53,14,4,0,-2
1537907773948779,-2,1,11,-69,-21,-3,-1,-1
1537907773948779,0,-4,13,120,32,5,1,0
1537907773956758,2,3,-18,-110,-36,-10,-4,-2
1537907773956758,-4,-8,-35,41,3,0,0,-2
1537907773971718,1,-1,35,-45,-6,-1,0,-1
1537907773971718,-3,-17,-9,29,12,2,-1,-2
1537907773973713,3,15,-22,6,-5,-4,-4,0
1537907773973713,1,2,62,-124,-48,-9,-4,-1
1537907773994657,-3,-9,-80,63,18,3,1,-1
1537907773994657,-4,-16,19,-38,-4,-3,-3,-1
1537907773995654,2,50,24,127,56,17,7,2
1537907773995654,3,-25,-20,-79,-16,-1,4,3
1537907774008619,-23,-73,-69,49,-1,-11,-12,-16
1537907774008619,21,70,49,43,10,9,6,8
1537907774017596,4,30,102,-128,-69,-15,-4,3
1537907774017596,-5,-5,-99,87,25,-1,-3,-2
1537907774031558,9,-11,9,33,20,11,10,12
1537907774031558,-9,-32,-27,53,12,1,0,-2
1537907774033553,-3,-15,7,20,29,7,1,-3
1537907774033553,0,14,63,-24,-13,-5,-2,-4
1537907774054497,-2,8,17,6,-6,-3,-3,-4
1537907774054497,-4,2,-14,-47,-9,-1,0,-6
1537907774056492,3,-10,-13,-13,-4,-4,-1,1
1537907774056492,0,-8,-13,-24,-4,-3,-1,-2
1537907774068459,1,16,-9,-8,-6,-6,-1,1
1537907774068459,-2,3,9,1,10,4,1,1
1537907774077436,-7,-32,-28,21,2,-1,-2,-5
1537907774077436,-3,5,11,22,6,1,-1,-3
1537907774092395,1,22,-10,-55,-14,-1,-1,1
1537907774092395,2,6,-18,-24,-11,-1,0,0
1537907774093393,-2,-13,-21,-7,-4,-1,0,-1
1537907774093393,-6,14,12,11,11,3,1,-1
1537907774114337,1,15,38,6,0,1,1,1
1537907774114337,-5,-2,-7,-3,-8,-3,-4,-2
1537907774116332,-3,-4,-58,14,8,2,0,-2
1537907774116332,3,8,30,-12,4,1,0,2
1537907774128300,1,-5,-6,7,-4,-4,-2,0
1537907774128300,0,-12,-2,7,-2,-3,-2,-1
1537907774137276,3,-14,4,5,8,2,-1,0
1537907774137276,1,-2,17,6,-6,-2,-2,-1
1537907774151239,-2,-5,1,-9,1,-1,-2,-4
1537907774151239,3,1,-23,-8,-8,-4,-2,0
1537907774158221,-1,2,7,7,1,1,0,-2
1537907774158221,-2,-7,-19,-8,-3,0,0,-3
1537907774174177,-1,15,16,17,9,1,-1,0
1537907774174177,0,-8,14,30,8,0,-1,-1
1537907774176173,-2,-7,-18,-24,-14,-5,-2,-1
1537907774176173,-2,-1,-6,1,-1,-1,-2,0
1537907774188140,-1,2,-7,1,-3,-1,1,0
1537907774188140,-1,-2,0,-3,1,0,1,-1
1537907774197116,-6,-1,21,11,-1,-1,-2,-1
1537907774197116,-4,-2,-12,3,4,1,-1,-2
1537907774211078,0,4,12,2,-5,-2,-1,-2
1537907774211078,0,2,12,-10,-8,-2,-2,0
1537907774218060,-1,-10,-16,3,4,-1,-2,-1
1537907774218060,1,-3,-11,-11,1,-1,1,1
1537907774236013,0,2,-9,-18,-10,-3,-1,-1
1537907774236013,-2,1,20,-8,-3,-2,-1,0
1537907774237010,0,-9,1,0,7,3,0,0
1537907774237010,-1,8,-5,12,-2,-2,-1,0
1537907774256956,1,-7,-1,0,0,0,-2,0
1537907774256956,-2,6,2,-7,3,1,0,-2
1537907774258950,0,0,18,1,-9,-4,-1,-2
1537907774258950,-3,-5,-29,-7,-2,-2,-2,-2
1537907774270918,2,5,6,-24,-12,-3,-3,-2
1537907774270918,-1,-5,-10,-1,3,0,-1,0
1537907774277900,-2,0,-4,4,2,2,0,-2
1537907774277900,1,-3,8,8,1,-2,1,-1
1537907774294855,-1,-2,15,4,5,1,0,0
1537907774294855,0,-2,-19,-10,-4,-3,-1,-1
1537907774295852,-1,-2,-15,1,1,1,0,0
1537907774295852,-1,0,26,-3,-1,0,0,0
1537907774316796,1,-1,-4,2,-2,-1,0,1
1537907774316796,-1,2,-5,1,-1,-1,0,-1
1537907774318790,0,-8,-5,4,-3,-3,-2,0
1537907774318790,-1,-4,0,2,2,2,0,-2
1537907774331756,-5,-23,7,5,0,1,2,0
1537907774331756,3,24,-3,2,2,0,0,-1
1537907774337740,-2,-15,-32,-16,-8,-4,-1,0
1537907774337740,2,15,25,-3,-3,0,-1,0
1537907774354694,-1,1,-30,-4,2,1,-1,0
1537907774354694,-2,-8,-3,5,6,1,0,0
1537907774355692,0,7,12,3,4,-1,-1,-1
1537907774355692,-1,-6,-7,-22,-4,-3,-2,-1
1537907774376636,0,6,13,11,1,-2,0,-2
1537907774376636,-5,-4,-4,-6,-10,-3,-3,-4
1537907774378631,3,9,15,6,3,1,1,1
1537907774378631,-2,-7,-21,8,0,0,-1,-1
1537907774391596,0,5,32,-4,2,-2,-2,-3
1537907774391596,-1,-5,-26,2,0,1,1,1
1537907774398577,-2,-1,4,2,-1,0,-2,-2
1537907774398577,-1,1,4,1,-2,0,-2,-2
1537907774414534,-2,3,3,3,0,0,-1,1
1537907774414534,1,-2,2,0,0,0,0,-1
1537907774416529,-3,-2,-3,-1,-2,-1,0,-2
1537907774416529,0,2,1,3,3,0,2,2
1537907774437473,1,3,-11,0,-2,-2,-1,0
1537907774437473,-1,-7,5,-2,-2,-2,-2,-1
1537907774438470,1,5,1,-2,-2,-3,0,-1
1537907774438470,-1,0,2,1,-1,-1,0,-1
1537907774451436,-1,-2,-11,-3,2,3,0,0
1537907774451436,-1,-3,8,2,0,-3,-1,-1
1537907774458417,-2,-4,0,3,2,0,-2,-2
1537907774458417,-1,-1,-4,2,-2,-1,-1,-1
1537907774474374,0,3,0,-1,0,-2,-1,-1
1537907774474374,0,-2,1,-5,-3,-2,-1,0
1537907774476369,0,1,-3,0,2,0,-3,0
1537907774476369,-3,-3,2,2,-1,-3,-1,-1
1537907774498311,-2,0,0,0,2,-1,-1,0
1537907774498311,-3,-4,-3,0,-2,0,-1,-2
1537907774500305,-1,-2,-1,1,1,0,1,0
1537907774500305,5,-8,-4,-2,-5,-2,0,1
1537907774510278,-4,11,3,3,-1,-1,-1,-2
1537907774510278,1,5,-1,-2,1,-1,-1,-1
1537907774519255,2,-6,3,0,-1,1,0,2
1537907774519255,-3,-7,-2,-2,-1,-2,-1,-2
1537907774534215,5,4,-2,-2,-4,-1,0,-2
1537907774534215,-4,-2,0,-1,0,0,-1,0
1537907774536211,2,7,-2,-2,-1,0,0,-2
1537907774536211,2,-2,0,0,0,0,-2,2
1537907774557154,-9,-6,2,0,0,-1,-1,-4
1537907774557154,2,-3,-1,-3,0,1,-1,2
1537907774558151,0,0,0,7,2,2,2,4
1537907774558151,-16,-5,-6,-9,-2,-2,-8,-14
1537907774571117,-7,-8,-3,-1,-2,-4,-4,-5
1537907774571117,0,-5,-3,-7,6,42,42,10
1537907774580093,8,9,4,4,-7,-55,-12,-2
1537907774580093,5,-3,-1,24,5,5,-13,5
1537907774595053,9,17,6,-38,0,24,8,2
1537907774595053,-11,-5,-5,18,-11,-73,-32,-18
1537907774596051,-17,-39,-27,-25,0,77,15,0
1537907774596051,12,36,8,23,-5,-49,11,8
1537907774616995,-4,-12,6,-11,-17,-5,23,2
1537907774616995,4,20,23,6,0,-1,-57,-5
1537907774618990,-9,-8,-3,26,1,-71,-11,-6
1537907774618990,0,-5,-14,-8,4,36,1,-4
1537907774630957,11,16,13,19,15,44,32,23
1537907774630957,-8,-26,-5,-4,10,11,49,24
1537907774639933,-9,-11,-11,-3,-4,25,-32,-22
1537907774639933,15,15,13,-7,4,4,11,57
1537907774653896,-11,2,3,12,-8,-52,8,-30
1537907774653896,-13,-7,-2,-6,13,74,-73,-36
1537907774661875,-10,-3,-5,-7,-24,-100,43,-79
1537907774661875,18,24,-3,-3,11,108,10,45
1537907774676833,6,-7,5,4,3,-7,-30,-19
1537907774676833,-16,-7,-1,6,-13,-104,-37,-9
1537907774678829,-5,3,-3,-6,6,24,-73,-38
1537907774678829,-13,-21,-4,-17,-7,14,-5,-7
1537907774690797,-3,5,-10,6,5,9,0,8
1537907774690797,1,-10,3,-5,2,60,57,11
1537907774699772,16,4,11,4,7,4,7,44
1537907774699772,-7,-10,7,-1,-5,-27,16,-24
1537907774714732,-8,-27,-23,-8,-2,19,-12,14
1537907774714732,19,28,-7,3,5,-22,19,8
1537907774715729,26,21,9,-7,-6,24,12,25
1537907774715729,-17,-1,-1,0,4,-10,-11,-17
1537907774736673,4,10,2,2,-10,-29,-3,-4
1537907774736673,19,11,-1,-4,-2,18,13,44
1537907774738668,-28,-5,3,2,2,-3,-25,-47
1537907774738668,6,1,-8,-4,-3,-9,-7,-14
1537907774750636,4,7,-1,-3,-15,-39,-4,6
1537907774750636,-2,-11,-7,-9,-8,8,16,-11
1537907774766593,15,28,9,4,12,34,13,33
1537907774766593,-21,-20,4,3,8,3,28,-13
1537907774774572,-4,-4,4,2,-4,-18,-29,-10
1537907774774572,-3,1,-2,-4,-6,-9,-7,-8
1537907774775569,2,-5,0,3,6,16,22,18
1537907774775569,7,4,-1,-4,-11,-10,-9,-9
1537907774798508,-2,-6,-9,-5,5,7,3,1
1537907774798508,2,5,-8,-5,1,12,4,0
1537907774799506,3,20,14,10,2,-3,-1,9
1537907774799506,6,0,1,1,1,-8,-2,2
1537907774810476,3,0,-3,4,6,14,-1,9
1537907774810476,-3,-4,0,-2,-9,-15,-8,-12
1537907774819452,-6,-6,2,-4,1,12,12,20
1537907774819452,-9,-9,-6,-4,-4,-19,-9,-6
1537907774834412,7,11,1,4,4,6,3,1
1537907774834412,-4,-4,4,0,0,2,2,-7
1537907774836407,1,-2,-3,-5,-1,2,7,9
1537907774836407,-4,-4,0,-2,-4,-14,-7,-9
1537907774857351,-8,-13,-6,-4,0,8,-6,-8
1537907774857351,0,-4,2,2,1,1,3,3
1537907774858349,-1,-4,-1,-2,-3,1,2,8
1537907774858349,-2,-4,-1,-2,-3,-8,-6,-7
1537907774870317,-3,-2,-1,0,3,7,3,2
1537907774870317,-2,-1,0,0,-4,-8,-2,-2
1537907774879293,-3,-3,-4,-4,0,-2,1,0
1537907774879293,0,-2,-6,-6,-1,-3,-2,-3
1537907774894254,2,0,-2,0,2,3,1,4
1537907774894254,-4,-5,-4,-2,-3,-6,-2,-5
1537907774896248,-3,-8,-6,-5,-5,1,-4,-4
1537907774896248,-1,-1,2,2,1,-1,-2,-1
1537907774917192,0,-2,0,-6,-6,-4,-3,-1
1537907774917192,-1,-1,-2,0,1,-2,-1,-3
1537907774918190,0,-2,-3,-1,0,4,2,5
1537907774918190,3,0,2,3,-1,-4,-2,-1
1537907774931154,-2,-3,2,5,2,3,0,-3
1537907774931154,0,0,1,-3,2,-1,0,2
1537907774940131,1,0,-4,-8,-5,-3,1,0
1537907774940131,-1,-1,-4,0,-7,-5,-3,-3
1537907774955090,-3,-6,-1,-14,0,0,-3,-4
1537907774955090,-1,-3,1,12,-2,0,0,-1
1537907774961074,0,-1,3,7,8,4,-1,2
1537907774961074,1,1,-5,-12,-6,-2,-2,-1
1537907774977031,5,5,-8,11,4,3,3,5
1537907774977031,-1,-1,9,-10,-9,-7,-4,-5
1537907774978028,0,0,6,3,-1,-3,0,-1
1537907774978028,-3,0,0,26,5,-1,0,-3
1537907774990993,-1,0,-4,-24,-2,2,-1,-2
1537907774990993,-1,-2,-2,1,0,-1,0,0
1537907775005953,-1,-2,2,5,0,2,1,1
1537907775005953,-4,-2,5,2,0,-2,-1,-1
1537907775013932,5,-5,14,5,-1,0,-1,-1
1537907775013932,-1,7,10,0,-1,0,-1,-1
1537907775020913,-5,-16,-28,-3,-2,0,0,0
1537907775020913,4,10,-24,-4,3,1,0,1
1537907775036871,-3,-10,-6,4,-4,-4,-1,-2
1537907775036871,2,-1,4,-5,1,-1,-2,-1
1537907775038866,-1,2,7,0,-2,-3,-1,-1
1537907775038866,-2,-5,6,-6,1,-1,0,-1
1537907775050833,-1,2,-1,1,-4,-3,-4,0
1537907775050833,0,-2,-6,3,-1,1,-1,1
1537907775059810,-1,4,1,-6,-5,-4,3,1
1537907775059810,-3,-4,1,-3,0,-4,-6,-4
1537907775073772,-3,2,3,1,-2,-2,1,-5
1537907775073772,0,-1,-5,-3,-1,1,1,-2
1537907775080754,3,-3,1,-2,0,-1,-4,3
1537907775080754,0,1,4,-5,-3,-1,1,1
1537907775096711,-3,0,-3,6,2,1,1,0
1537907775096711,-2,-3,-6,-2,0,-2,-2,-1
1537907775098706,2,0,0,-2,-2,0,0,1
1537907775098706,0,-2,0,2,0,0,5,-1
1537907775110673,-3,2,-1,-3,-4,3,-2,1
1537907775110673,-4,-10,-11,-3,-1,12,2,-2
1537907775119649,3,3,-1,-6,0,-8,-1,-1
1537907775119649,4,0,9,0,-2,12,23,-23
1537907775133612,8,-4,-2,0,5,22,2,-29
1537907775133612,-14,-7,-6,-4,-9,-50,-69,25
1537907775141591,-7,5,-3,-3,15,86,86,43
1537907775141591,-23,-9,-3,-3,-18,-109,-42,28
1537907775156551,3,-5,-14,-10,-31,-87,-85,-93
1537907775156551,4,-3,-12,-5,9,86,42,69
1537907775157548,-7,2,6,2,-10,-88,-9,-39
1537907775157548,10,0,-5,-8,18,127,52,17
1537907775178492,47,19,26,14,-9,-52,33,97
1537907775178492,-49,-17,-4,-3,-7,-22,-76,-104
1537907775179490,-44,-13,-14,-5,2,7,-42,-30
1537907775179490,49,13,5,5,10,37,61,31
1537907775193453,-27,0,-6,-3,-14,-51,-42,-12
1537907775193453,12,-13,2,0,10,17,34,45
1537907775201431,11,4,2,-2,-5,53,35,38
1537907775201431,-15,-10,2,-2,-12,-65,-54,-28
1537907775216391,-29,-12,-6,1,24,86,27,26
1537907775216391,29,23,9,6,-3,-44,60,-7
1537907775217389,-24,-18,-8,-3,-8,-36,-55,-14
1537907775217389,-4,0,-9,-4,0,-1,-16,19
1537907775239330,12,-3,-5,2,7,22,22,0
1537907775239330,-9,9,-3,-1,0,0,0,-11
1537907775239330,12,1,8,6,-4,-5,-9,-3
1537907775239330,7,12,7,3,0,-1,-8,-20
1537907775253293,-11,-3,-1,-3,3,16,6,-2
1537907775253293,-3,-9,-2,0,-2,-1,-3,-11
1537907775261271,16,5,4,1,4,4,4,9
1537907775261271,-3,-1,-2,-2,-6,-24,13,-14
1537907775276231,-7,-1,-5,-1,-1,4,4,2
1537907775276231,9,2,0,-1,0,-1,4,10
1537907775277230,18,9,-1,0,-2,-12,-8,-16
1537907775277230,-16,-5,2,-3,0,15,-1,0
1537907775299170,0,-1,-3,-2,4,10,5,0
1537907775299170,9,5,-2,-4,-2,-6,1,-7
1537907775299170,7,1,0,0,0,5,-1,5
1537907775299170,-8,-1,-1,1,-1,-1,-10,-9
1537907775313133,6,1,0,-2,1,0,4,4
1537907775313133,2,0,-1,0,0,-1,-5,-6
1537907775321111,-2,-3,-1,-2,1,1,1,2
1537907775321111,-5,-6,-2,-2,-1,-5,-8,2
1537907775336072,3,2,2,2,2,1,5,-3
1537907775336072,0,2,3,2,0,4,3,1
1537907775337069,3,1,0,4,1,-1,-4,-2
1537907775337069,0,-1,-2,-3,-3,-10,-8,-6
1537907775359011,-1,-1,-4,-12,-5,6,3,2
1537907775359011,0,-4,-1,16,3,1,0,-4
1537907775360010,3,3,4,6,1,-4,-1,2
1537907775360010,-2,-1,-2,-44,-9,-5,-5,-5
1537907775373972,-3,1,7,-10,-7,3,3,1
1537907775373972,3,1,-3,7,5,0,-1,2
1537907775380953,-1,-1,4,0,-11,-12,-4,-2
1537907775380953,-4,-2,-2,23,10,8,0,1
1537907775404888,-3,-2,-6,1,-1,1,-1,-1
1537907775404888,0,2,4,-7,-5,-6,-2,-4
1537907775404888,-4,-4,-5,-13,-7,0,-3,-3
1537907775404888,-2,-2,-1,18,2,1,-2,-2
1537907775418850,-2,-3,-4,12,7,2,1,-1
1537907775418850,-1,-1,4,-16,3,0,-2,1
1537907775419847,-1,-1,-5,-18,-6,-2,-2,0
1537907775419847,1,1,-1,-11,-7,-3,-3,1
1537907775433810,0,-2,2,11,3,2,1,-2
1537907775433810,0,-1,0,7,1,3,3,-2
1537907775434807,4,-1,1,0,2,-1,0,0
1537907775434807,3,-3,-1,4,0,-3,-3,-3
1537907775456748,0,-2,1,-2,4,1,-1,-2
1537907775456748,6,0,-1,-5,-4,-3,-1,-2
1537907775456748,3,-4,-1,5,0,-2,-2,-1
1537907775456748,6,-1,-4,-3,1,-1,0,-2
1537907775478690,0,-3,0,2,6,3,0,-1
1537907775478690,0,3,2,-2,-7,-3,-1,-1
1537907775479687,-2,-1,1,5,1,0,0,-2
1537907775479687,-5,-2,-1,5,0,0,-2,-1
1537907775493650,-4,-1,1,-5,-1,-1,0,-2
1537907775493650,-3,-1,-2,-5,-2,-1,0,0
1537907775494647,-4,-1,-2,-1,-1,-1,-2,-1
1537907775494647,-5,0,0,-2,-1,-2,-3,0
1537907775516589,-2,-2,-1,1,-1,0,-1,0
1537907775516589,-4,-1,-4,2,0,0,0,-3
1537907775516589,-3,-1,-2,-1,-2,-2,0,1
1537907775516589,-2,-1,0,1,0,0,-1,1
1537907775538532,-3,1,-2,-1,-3,-3,-2,0
1537907775538532,-2,-2,-1,3,0,1,0,0
1537907775539529,-2,1,-2,0,1,-1,-1,-1
1537907775539529,-1,0,0,1,1,-1,0,-1
1537907775553492,0,-1,-2,0,2,1,-1,0
1537907775553492,1,0,-2,-3,-3,-1,-2,0
1537907775554489,-1,-2,-1,-2,1,0,-1,-2
1537907775554489,0,0,1,3,-1,-2,-2,-1
1537907775576430,-1,1,-1,1,-1,-1,-2,-1
1537907775576430,2,0,-1,-3,-1,-2,-2,-1
1537907775577429,-1,-2,0,1,0,0,-3,-1
1537907775577429,-3,-3,-2,-1,-2,0,-2,0
1537907775599369,1,-1,-2,-1,2,1,1,1
1537907775599369,-5,-5,-4,-3,-4,-2,-2,-17
1537907775599369,2,1,2,2,11,57,34,55
1537907775599369,10,12,9,3,-14,-80,-6,35
1537907775614328,-8,-4,-2,-4,-5,6,-39,-32
1537907775614328,-6,-6,1,2,14,43,7,-24
1537907775614328,-17,15,9,8,-3,-15,70,72
1537907775614328,28,-10,-10,-6,-6,-4,-19,-102
1537907775636269,-22,11,2,3,17,17,-25,-48
1537907775636269,14,-24,-15,-14,-29,-100,51,98
1537907775637266,-5,15,-4,1,7,-34,-23,-60
1537907775637266,-36,-20,0,-4,-15,-40,-78,-27
1537907775659207,5,16,-2,-7,8,72,70,60
1537907775659207,21,0,17,20,28,44,-40,-4
1537907775659207,15,-1,-16,-16,-62,-91,-79,-22
1537907775659207,-28,3,1,1,-6,3,22,12
1537907775674167,76,-7,0,0,-3,-3,50,56
1537907775674167,-2,3,-10,0,29,127,29,-3
1537907775674167,15,16,12,8,26,44,26,-23
1537907775674167,-12,-6,10,10,20,86,20,-6
1537907775698104,-34,-16,-3,1,4,1,6,-33
1537907775698104,2,0,-2,-3,-7,-48,2,18
1537907775704088,-6,-18,-1,1,0,4,-37,-16
1537907775704088,-5,6,-3,-3,2,-9,-11,-8
1537907775713064,-9,-1,-2,-3,-7,-2,5,13
1537907775713064,-5,1,-5,-8,-27,-75,-49,-23
1537907775715060,-9,7,1,1,1,-11,-19,-29
1537907775715060,11,2,0,-3,4,25,44,53
1537907775735006,-1,0,-2,-2,-8,-38,-17,-6
1537907775735006,-14,3,-1,-3,-7,2,-32,-38
1537907775736004,6,-10,-3,-2,6,36,41,29
1537907775736004,5,0,-5,-1,2,-5,1,-6
1537907775747971,10,10,8,3,0,-2,-19,-1
1537907775747971,-10,5,0,-1,4,44,5,-16
1537907775755949,0,-6,-1,-1,6,-17,23,24
1537907775755949,10,-3,-9,-3,-4,-5,-30,2
1537907775770909,4,-2,-6,-2,-9,-20,-9,-5
1537907775770909,11,3,11,3,-3,9,12,7
1537907775771906,5,-7,-2,-3,3,3,-11,-11
1537907775771906,1,-9,0,-4,-1,18,3,-1
1537907775786866,-7,-4,-2,-3,2,1,-6,-3
1537907775786866,-4,0,0,0,0,-12,8,11
1537907775792850,-2,-4,-1,0,-1,19,-14,-3
1537907775792850,-3,2,1,-1,2,-4,2,1
1537907775816786,-11,0,0,-2,-1,1,-1,3
1537907775816786,-6,4,1,-2,-5,-11,-5,-3
1537907775816786,-9,-7,0,-1,2,7,-11,-11
1537907775816786,2,9,1,2,1,9,11,14
1537907775831746,-4,1,-1,-2,-5,-15,-8,-2
1537907775831746,-6,1,-3,-1,-6,-4,-6,-9
1537907775831746,-5,-5,0,-1,0,2,-3,-4
1537907775831746,1,2,-1,-1,2,1,11,13
1537907775846706,-5,-4,-4,5,-1,-2,-8,-4
1537907775846706,-6,0,0,6,-4,-8,-1,-4
1537907775852690,-6,-6,-11,-26,-11,2,-3,0
1537907775852690,-1,-1,-3,-1,0,0,0,1
1537907775867650,-4,-1,1,-8,-10,-4,-9,-6
1537907775867650,1,1,2,3,4,0,3,3
1537907775875629,4,3,6,39,9,-1,-2,1
1537907775875629,1,0,-5,-34,-4,4,1,1
1537907775891586,-1,-3,2,4,3,-3,-5,-1
1537907775891586,0,-2,-9,-16,-9,-5,2,2
1537907775891586,1,0,4,-7,-7,-3,-5,-1
1537907775891586,-2,-1,-5,6,1,1,-1,0
1537907775907543,0,0,18,35,10,2,2,1
1537907775907543,-2,0,-11,-16,-3,-5,-2,-1
1537907775913527,0,1,0,-28,-8,-1,-4,-4
1537907775913527,2,0,-10,-5,6,3,4,3
1537907775928487,0,-2,-1,15,-2,-3,-1,-1
1537907775928487,-4,1,14,-29,-8,-6,-5,-6
1537907775935469,-2,1,-2,-6,-2,-2,-2,-1
1537907775935469,3,2,6,12,0,-1,1,3
1537907775951426,-2,-3,-17,-25,-1,-1,-3,-2
1537907775951426,1,-1,7,29,9,0,0,-3
1537907775952423,1,0,-12,2,3,5,1,0
1537907775952423,1,-3,-3,11,-4,-2,0,-2
1537907775967383,-2,-2,2,-3,-5,-3,-3,-1
1537907775967383,3,-1,-27,-9,2,1,2,3
1537907775973367,1,-2,5,-11,-2,-3,-3,-2
1537907775973367,2,-1,-9,12,-6,-4,-2,-1
1537907775988327,1,0,42,2,-1,0,-1,-5
1537907775988327,1,-14,-48,-2,0,1,1,1
1537907775995309,0,-2,-7,13,5,0,0,2
1537907775995309,-1,11,15,-1,3,0,1,3
1537907776012263,-1,-1,-13,-9,-4,-1,-2,-1
1537907776012263,1,2,41,10,-2,-3,-2,1
1537907776013261,-3,-6,-26,8,4,4,-1,-2
1537907776013261,0,-2,8,-5,-1,1,1,1
1537907776027223,-1,-1,-5,-17,-5,-6,-1,1
1537907776027223,-4,1,-9,13,4,3,0,-2
1537907776033208,-1,0,8,0,-1,-2,1,-1
1537907776033208,-4,0,5,-7,-4,-1,0,0
1537907776048167,-2,-2,-3,0,3,3,1,0
1537907776048167,0,1,-5,-1,-4,-3,-2,1
1537907776055149,0,0,11,-1,-3,-3,0,0
1537907776055149,-1,-1,2,0,-1,0,-1,-2
1537907776071106,0,-3,-18,0,-1,-2,0,0
1537907776071106,0,2,9,0,1,0,1,0
1537907776072103,0,1,2,-4,-5,-3,-1,1
1537907776072103,-2,-4,-7,6,1,-1,-2,-2
1537907776088061,0,0,-6,-7,-5,-4,0,1
1537907776088061,0,3,9,-2,1,-1,-1,0
1537907776093047,0,-1,3,4,2,2,1,-2
1537907776093047,-1,-3,-6,1,1,1,1,-2
1537907776108007,-1,0,0,-5,-1,-2,-1,0
1537907776108007,-1,1,7,2,2,1,0,-1
1537907776115986,-2,-5,-5,0,0,1,0,0
1537907776115986,-1,-6,-2,-3,-2,7,3,2
1537907776130947,4,2,-3,-4,2,17,9,-31
1537907776130947,2,0,-2,0,-15,-67,-5,32
1537907776131944,-6,-6,-2,-3,3,62,16,20
1537907776131944,2,3,0,-3,-2,-61,30,-34
1537907776146904,-25,-19,-7,-6,1,29,-65,12
1537907776146904,31,12,6,5,4,-25,23,12
1537907776152889,-30,5,-8,-10,-2,1,61,-97
1537907776152889,7,9,6,1,-24,-82,-84,-25
1537907776167849,-29,-29,-25,-18,-21,-19,-77,-39
1537907776167849,11,16,9,9,23,58,43,-69
1537907776175828,13,11,13,8,1,-41,-38,77
1537907776175828,-6,-25,-21,-13,15,101,64,69
1537907776191784,13,17,6,7,-6,-85,36,36
1537907776191784,-12,-18,-7,-14,-22,11,-27,-47
1537907776191784,-22,2,6,8,10,39,10,-113
1537907776191784,18,17,7,6,-12,-51,-30,77
1537907776206744,-25,-10,0,0,1,31,20,43
1537907776206744,38,1,1,-1,-1,-59,-1,19
1537907776212728,-23,-2,5,3,-8,-7,-22,-29
1537907776212728,2,-11,-10,-8,-1,5,-8,-30
1537907776228685,15,7,0,2,4,56,29,-10
1537907776228685,-32,-8,-8,-1,2,-7,-23,-22
1537907776235666,22,15,2,0,2,-8,-26,7
1537907776235666,-9,-1,4,1,0,11,19,-13
1537907776250626,4,-6,-3,-5,-1,0,14,-9
1537907776250626,-13,-3,0,-2,-1,21,-4,18
1537907776258605,3,-10,-5,-3,-5,-28,-8,62
1537907776258605,1,-1,1,-1,1,25,10,-30
1537907776265587,-1,18,8,6,5,-5,11,-14
1537907776265587,3,-4,-2,-3,-4,-3,-27,-5
1537907776273565,5,-10,-7,-2,1,2,21,11
1537907776273565,3,8,5,7,8,15,9,26
1537907776288525,4,-2,3,3,-3,-13,-12,-8
1537907776288525,-6,1,-1,0,2,10,10,-1
1537907776295507,8,-1,-4,-5,-3,2,-17,19
1537907776295507,-5,1,3,3,4,20,2,14
1537907776310467,3,3,2,2,5,2,-6,-55
1537907776310467,-25,-5,-3,-2,-9,-27,7,53
1537907776318446,9,-1,-3,-4,-3,-2,-16,-35
1537907776318446,-6,-2,-6,-5,-3,-4,-3,-24
1537907776325427,23,7,2,2,7,1,26,26
1537907776325427,17,3,-1,-2,-6,20,8,7
1537907776333406,17,-3,0,-2,5,-10,-8,15
1537907776333406,-4,-6,-2,-3,-10,-31,-5,6
1537907776348365,0,1,-1,2,3,0,3,26
1537907776348365,-8,-1,2,-3,2,13,-11,-25
1537907776355347,-6,-7,-4,-1,-3,-9,-10,6
1537907776355347,-14,-6,-1,0,5,17,9,-18
1537907776370307,5,4,2,-1,-6,-17,1,32
1537907776370307,-15,-4,-3,-2,-1,1,0,-14
1537907776379283,-8,0,-2,1,-1,5,6,-2
1537907776379283,3,2,0,-1,2,4,-5,-11
1537907776385270,0,-1,-1,-4,-3,-8,-7,-5
1537907776385270,-1,-1,0,-2,-2,8,1,16
1537907776393246,5,5,4,4,-1,-3,9,13
1537907776393246,-2,0,1,2,1,3,-4,-1
1537907776408207,-1,-3,0,-1,-3,-11,-1,-5
1537907776408207,-3,2,1,0,4,14,2,-5
1537907776415188,-3,-3,-2,1,0,-3,6,15
1537907776415188,-4,-2,3,1,-2,-8,-12,-8
1537907776431144,-5,-1,-2,-1,-1,9,0,-12
1537907776431144,-1,-2,1,1,2,5,-3,0
1537907776439123,-1,-3,-1,0,-2,-7,-1,4
1537907776439123,0,2,0,2,-1,0,-1,2
1537907776446104,3,0,1,2,1,-1,2,-3
1537907776446104,-2,-1,-2,1,-2,4,-1,3
1537907776453085,-1,-2,-1,-4,-3,-8,1,3
1537907776453085,-1,1,-1,29,11,8,2,-5
1537907776468045,0,2,-6,-34,-7,0,3,2
1537907776468045,0,-2,-2,-12,-2,-5,-9,-2
1537907776476024,-1,-3,0,21,3,4,1,1
1537907776476024,-1,-1,2,-39,-7,-2,-3,-4
1537907776490985,0,1,-1,25,6,2,-2,-2
1537907776490985,-1,-1,1,-3,-2,4,0,2
1537907776498964,2,-1,0,24,4,-2,1,0
1537907776498964,1,1,9,15,6,3,0,0
1537907776513923,-2,-4,-17,-39,-8,-8,-1,-2
1537907776513923,-1,-7,-2,2,2,2,1,-2
1537907776514922,2,3,-5,-30,-6,-3,0,5
1537907776514922,2,3,16,11,7,1,-2,-2
1537907776527886,0,1,-9,13,-3,-2,0,-2
1537907776527886,1,0,9,-16,-4,0,-1,0
1537907776535865,0,2,26,5,0,-2,0,0
1537907776535865,-3,-7,-46,6,1,-1,-1,0
1537907776550825,2,-3,-13,-18,-3,0,1,-1
1537907776550825,0,11,1,13,4,1,2,4
1537907776558804,1,2,13,-3,-3,-3,0,1
1537907776558804,-1,1,20,-11,-7,-3,-2,-3
1537907776573764,-1,-2,2,23,8,1,-2,-2
1537907776573764,-3,-7,24,9,4,-1,0,-1
1537907776574762,-1,2,-39,-13,-6,-2,-3,-2
1537907776574762,0,-1,-5,-5,-2,1,0,2
1537907776596702,-1,-4,9,9,1,1,0,-1
1537907776596702,-1,-1,-19,-6,-1,-1,-2,-2
1537907776596702,-3,-4,9,-6,-2,-1,0,-3
1537907776596702,-2,-1,-14,2,0,0,-1,-1
1537907776619642,0,3,17,1,-1,-1,-1,-1
1537907776619642,0,-1,8,-3,-1,0,-1,-1
1537907776620640,-1,-4,-2,3,3,2,0,-1
1537907776620640,-1,-6,-36,-9,-7,-5,-3,0
1537907776642579,-1,12,28,2,0,-4,0,-1
1537907776642579,-2,-5,-10,2,0,2,0,0
1537907776642579,1,-1,-5,-4,-1,-2,-1,1
1537907776642579,-3,-1,19,-2,1,2,-1,-2
1537907776656542,-1,-5,-6,-1,0,1,-2,-1
1537907776656542,0,1,-1,3,0,0,-1,0
1537907776657539,-1,0,-3,-4,-4,-3,-1,1
1537907776657539,0,-1,3,-3,-6,-2,-1,-1
1537907776679480,-2,-3,-5,4,2,1,0,-1
1537907776679480,0,-1,-6,0,0,-1,-1,-1
1537907776680479,-1,-4,-1,-4,-4,-2,-1,-1
1537907776680479,1,1,6,-1,1,1,0,-1
1537907776702419,-2,-2,-6,0,-4,-3,-2,-1
1537907776702419,-1,-1,0,1,3,1,1,0
1537907776702419,-2,-2,0,2,2,0,-1,0
1537907776702419,1,1,2,-3,-3,-4,-2,-2
1537907776716382,-2,-2,-3,1,3,2,0,-2
1537907776716382,-1,-2,-2,1,-1,-1,0,-3
1537907776717380,1,0,1,0,1,-1,3,0
1537907776717380,-7,-3,-1,-2,3,18,-4,-31
1537907776739320,8,4,3,2,12,36,11,-1
1537907776739320,18,5,6,7,3,28,35,85
1537907776745305,-30,-1,-3,-4,-15,-92,-68,-60
1537907776745305,27,-2,0,-3,9,62,76,97
1537907776762259,-25,-12,-6,-7,-32,-109,-29,-57
1537907776762259,3,6,3,2,-3,-63,-57,-42
1537907776763257,-14,-7,0,2,20,104,-24,-58
1537907776763257,-10,-9,-8,-7,-16,-64,25,37
1537907776775225,23,7,2,-3,-26,-56,-54,-35
1537907776775225,-21,-12,-17,-10,-5,76,-15,-85
1537907776784201,-10,-1,8,9,10,24,28,54
1537907776784201,-12,6,-4,-4,9,70,-4,-45
1537907776799161,8,-5,-9,-2,18,56,65,97
1537907776799161,4,8,10,8,-14,-104,-10,50
1537907776806142,-42,-3,-5,-4,-9,8,-17,-83
1537907776806142,10,4,-3,-4,-1,0,-3,15
1537907776822099,11,1,6,10,12,-1,3,77
1537907776822099,-25,-10,-8,-6,-9,-5,6,-5
1537907776823096,1,-4,-6,-2,10,22,7,-18
1537907776823096,24,7,13,9,-2,-41,-12,-19
1537907776836062,-21,-10,-4,0,9,29,1,-51
1537907776836062,7,-3,-5,-5,2,16,10,11
1537907776845038,13,6,3,3,-4,-12,37,52
1537907776845038,-11,-2,-2,-3,-8,-20,-32,-38
1537907776859997,-26,-14,-5,-3,1,17,-3,-1
1537907776859997,23,9,3,2,5,15,13,2
1537907776860995,15,5,-3,-3,-7,-32,4,12
1537907776860995,-23,-13,-3,-5,-5,-7,-28,-22
1537907776881939,9,12,6,4,5,32,6,-6
1537907776881939,-3,-1,0,1,3,-4,9,-3
1537907776883933,12,-2,-3,-1,-5,-4,-1,8
1537907776883933,6,-2,0,-1,-1,-8,-16,6
1537907776895901,-1,6,0,2,2,6,8,-1
1537907776895901,-2,-3,-2,-2,2,10,12,-1
1537907776904877,14,-2,-3,-2,-5,-8,-13,8
1537907776904877,-5,0,2,0,5,6,0,-4
1537907776918840,-1,0,-3,-5,-5,-12,-6,-20
1537907776918840,-3,-2,2,0,1,8,-5,-4
1537907776925821,20,5,-2,-1,2,8,18,22
1537907776925821,8,6,5,2,-2,-11,-1,-3
1537907776942776,12,-3,-1,-1,-1,-2,-8,-11
1537907776942776,4,-1,0,-2,3,11,1,-2
1537907776949758,6,-1,0,-4,-3,-7,8,14
1537907776949758,-9,-1,-1,-1,-5,-8,-8,-13
1537907776955742,-2,1,3,-1,-1,4,0,2
1537907776955742,-9,-4,-3,0,0,6,-2,-3
1537907776964718,-2,-3,0,0,-1,-8,1,2
1537907776964718,-8,-1,-1,2,1,0,-2,-2
1537907776978681,-3,-1,-1,-1,1,5,-1,-3
1537907776978681,-3,-2,0,5,-2,-4,1,-3
1537907776985662,1,-2,-3,-8,-2,-5,-2,4
1537907776985662,-3,-1,7,8,5,4,1,2
1537907777001620,0,-1,-10,64,9,1,5,-3
1537907777001620,-4,-1,-4,-103,-28,-9,-8,-12
1537907777003615,0,-1,4,-1,-4,-2,1,7
1537907777003615,-2,-1,-2,-1,0,1,-1,1
1537907777015582,-2,-2,5,24,5,-1,-2,-5
1537907777015582,-1,2,6,69,18,7,3,0
1537907777024558,-3,-3,-17,-50,-17,-5,-1,1
1537907777024558,0,1,15,-13,-2,-6,-1,-1
1537907777038520,1,-1,-5,-26,-5,-4,-5,-3
1537907777038520,0,-1,-1,17,-3,3,-1,0
1537907777045501,-1,-2,1,8,5,2,4,4
1537907777045501,0,-2,8,11,2,-1,-1,-4
1537907777063453,0,3,21,8,-1,-1,-1,-2
1537907777063453,-1,-5,-32,-3,4,3,-1,-3
1537907777064451,2,-5,-20,3,6,1,1,4
1537907777064451,2,-7,-28,-4,-2,-2,-2,-1
1537907777075421,-1,5,12,-29,-6,1,1,2
1537907777075421,8,8,53,26,-2,-3,-4,-2
1537907777084397,0,-1,-11,-20,-3,-3,1,0
1537907777084397,1,-1,7,12,-3,1,0,0
1537907777098360,1,-1,-2,-14,-4,-2,-2,-1
1537907777098360,-4,2,-18,-51,-1,-2,-2,-1
1537907777105341,1,1,13,37,6,1,0,0
1537907777105341,-5,-1,7,-8,-7,-2,-1,-4
1537907777122296,-4,-5,-6,8,0,-1,-1,-2
1537907777122296,0,1,-8,12,-2,-4,-3,1
1537907777124291,1,-1,2,10,1,3,1,1
1537907777124291,-2,1,-1,-8,-1,0,-1,-1
1537907777135261,-3,-3,-13,-4,-3,0,-2,-2
1537907777135261,-3,-3,-6,5,2,1,0,-1
1537907777144237,-2,-1,0,-8,-1,-2,-2,0
1537907777144237,0,0,3,15,-1,-1,-1,0
1537907777159197,-1,-1,-1,-23,-2,-2,2,-1
1537907777159197,-2,-4,2,9,3,2,-1,-2
1537907777165181,-2,-2,1,6,-4,-4,-2,-1
1537907777165181,-2,1,-6,-2,0,0,-1,0
1537907777182136,-1,0,-3,-7,1,0,-2,-1
1537907777182136,-2,-2,-2,2,1,0,0,-1
1537907777183134,0,1,3,-3,-2,-3,-1,0
1537907777183134,1,0,-6,-5,-3,-2,-1,0
1537907777204077,-5,-2,-6,-9,-5,-2,-1,-1
1537907777204077,-5,-2,-2,2,-1,1,-1,-2
1537907777206072,3,-1,5,2,0,-1,1,-1
1537907777206072,-2,0,-6,-4,1,-3,0,0
1537907777219037,2,-3,-4,-1,-2,-1,0,0
1537907777219037,-3,-3,1,4,-1,0,0,-1
1537907777226019,1,0,4,5,1,0,-1,0
1537907777226019,3,1,-3,-4,-1,0,1,-1
1537907777241976,-2,2,0,3,0,1,-1,1
1537907777241976,-7,3,1,0,-2,1,-1,-2
1537907777242974,-2,-1,0,0,1,0,-1,-5
1537907777242974,-6,-5,-3,-3,-3,-3,-3,-1
1537907777264915,15,-1,-1,-4,-1,-2,-1,2
1537907777264915,-3,2,-3,-2,-1,-1,-4,-4
1537907777265913,-12,-6,2,3,2,15,23,24
1537907777265913,-14,-4,-3,0,-1,-14,-30,2
1537907777278878,6,5,2,4,5,5,19,-17
1537907777278878,19,1,2,6,13,48,9,-17
1537907777285860,16,0,2,3,-19,-89,26,97
1537907777285860,-22,-11,-7,-11,-9,27,-6,-86
1537907777301817,13,9,12,31,50,97,67,23
1537907777301817,1,0,-6,-25,-33,-103,-4,51
1537907777303811,-7,-4,-5,-9,-6,33,-34,-35
1537907777303811,-33,22,-2,3,-8,-50,-92,-67
1537907777324755,-26,-10,-23,-42,-42,-49,-47,-3
1537907777324755,20,-16,6,29,35,83,70,2
1537907777325753,12,14,0,-1,3,-35,-17,-13
1537907777325753,9,11,5,59,19,16,42,42
1537907777337720,14,-13,6,-57,-25,2,1,-34
1537907777337720,-11,7,-8,-31,-5,28,1,24
1537907777346696,-12,-5,1,-2,-3,-29,-6,3
1537907777346696,12,-10,-1,12,10,11,13,-2
1537907777361657,-6,5,1,38,12,-6,-12,1
1537907777361657,21,-3,1,4,-9,-24,-8,3
1537907777363652,-11,-4,-2,-1,11,59,-4,-17
1537907777363652,-1,-6,1,-12,-3,-21,21,4
1537907777384596,-4,3,0,6,-6,-38,-10,14
1537907777384596,-6,3,-4,-9,-5,-14,-24,-19
1537907777385594,-19,-16,-1,7,10,37,7,-35
1537907777385594,9,-2,-1,-16,-4,14,15,32
1537907777398561,-19,-7,-1,-3,-8,-8,-4,2
1537907777398561,27,3,-2,10,4,0,-9,-10
1537907777407534,-12,-4,2,4,2,8,-4,-20
1537907777407534,11,-8,-5,-18,-7,0,10,8
1537907777422495,-7,-2,-3,-1,-3,-9,-30,-14
1537907777422495,-13,-2,3,7,11,38,20,-8
1537907777423494,-1,2,-1,-4,-13,-47,-2,-4
1537907777423494,9,-1,-1,-13,4,23,13,68
1537907777444435,-11,-1,-1,9,0,-21,-13,-98
1537907777444435,24,4,-1,-1,-6,-13,-14,96
1537907777446430,-10,0,-1,-5,3,24,14,13
1537907777446430,3,-1,-4,-7,-6,-16,-8,-3
1537907777458398,16,5,1,4,2,17,11,13
1537907777458398,-19,0,-1,0,-1,-1,-4,-27
1537907777467374,-5,1,-1,2,-1,-2,2,15
1537907777467374,26,5,0,-1,10,56,23,30
1537907777482334,-17,-4,-1,5,-8,-82,-35,56
1537907777482334,17,2,1,-6,-13,-43,-2,19
1537907777483332,4,0,-4,-3,-6,-8,-17,-11
1537907777483332,-9,-6,0,-3,0,8,6,-27
1537907777504275,3,-1,0,0,2,24,2,15
1537907777504275,-13,2,-1,3,2,-13,5,-10
1537907777506270,1,-1,-1,-3,-10,-32,-8,-3
1537907777506270,5,-1,2,1,-1,-6,-3,9
1537907777518238,10,-2,-5,-5,-6,16,6,2
1537907777518238,-23,-8,-1,0,2,1,-11,-24
1537907777527214,17,7,0,1,7,28,11,-7
1537907777527214,-8,-1,0,-3,-4,-7,-5,-19
1537907777542174,-9,-2,-2,2,3,10,11,22
1537907777542174,-7,1,-2,-2,-2,2,-5,-30
1537907777543172,11,5,1,-3,-2,7,0,-1
1537907777543172,6,1,2,-2,2,-9,-2,10
1537907777564116,-5,0,0,11,7,6,3,-9
1537907777564116,-14,-7,-8,-9,-6,-6,-9,-14
1537907777566111,3,-1,5,-11,-10,6,-3,-9
1537907777566111,-5,-3,1,-10,-4,-11,-4,-3
1537907777578079,3,1,1,10,4,11,7,3
1537907777578079,-6,-1,1,76,20,8,-3,-16
1537907777587055,1,-1,4,-55,-1,5,1,2
1537907777587055,1,5,3,-63,-40,-14,-4,-6
1537907777602014,5,1,-2,43,7,5,1,3
1537907777602014,-3,0,0,-60,-17,-4,-7,-3
1537907777603012,0,-3,-3,51,17,5,1,-8
1537907777603012,-4,-4,-11,62,14,0,1,0
1537907777624953,1,0,3,-96,-22,-2,0,-2
1537907777624953,-8,-5,3,12,-2,-1,-4,-9
1537907777625951,6,6,10,-6,5,7,2,0
1537907777625951,0,2,2,71,21,0,1,-2
1537907777637918,-2,-2,-5,-10,-19,-7,-2,-1
1537907777637918,-4,-3,-17,-45,0,3,-1,-8
1537907777646895,2,-1,9,54,10,5,0,-1
1537907777646895,2,-1,-22,-81,-10,-1,0,2
1537907777661855,3,3,20,62,-6,-1,0,-1
1537907777661855,-5,2,14,-36,-14,-8,-8,-8
1537907777663849,1,0,-16,-57,-11,-2,-1,1
1537907777663849,-1,-4,4,39,18,3,1,-1
1537907777684794,2,1,-5,-8,8,2,4,3
1537907777684794,-2,-2,-10,-30,-5,0,-3,-4
1537907777685792,-1,-3,1,31,10,3,1,-1
1537907777685792,-3,-1,1,5,1,-2,-1,-4
1537907777706735,-2,-2,-7,-29,-2,1,0,-1
1537907777706735,-3,-2,4,51,9,1,1,-1
1537907777708730,0,-1,-4,5,-6,-4,-1,-1
1537907777708730,-4,0,0,-20,-10,-6,-5,-1
1537907777721695,-1,-5,-4,2,2,-1,-1,-2
1537907777721695,1,1,4,14,2,1,-1,-1
1537907777723690,-1,-2,-6,-11,-5,1,-1,-2
1537907777723690,-1,-2,1,-15,-5,-4,-1,-2
1537907777744634,-1,-4,0,14,8,4,0,1
1537907777744634,1,1,-4,4,2,2,1,1
1537907777745632,-7,-1,-2,-5,-6,-4,-1,-3
1537907777745632,8,-1,1,12,-1,-2,-2,2
1537907777758596,-4,1,-3,-2,5,3,-1,-3
1537907777758596,1,1,2,1,-1,-1,-1,-2
1537907777767572,-2,-2,-3,2,-2,0,-2,-2
1537907777767572,4,-1,0,-1,0,-2,-2,-1
1537907777782532,-8,-1,-6,-6,2,0,2,2
1537907777782532,-5,-4,-1,-2,-3,0,-1,-34
1537907777783530,12,7,1,7,1,1,23,48
1537907777783530,-2,4,5,4,9,18,-3,-6
1537907777804473,24,-3,-1,-1,15,80,7,-86
1537907777804473,-14,-2,-3,9,-9,22,33,-5
1537907777806468,4,1,2,5,15,-28,-37,50
1537907777806468,14,1,-5,-13,-33,-86,-48,93
1537907777818436,-22,-1,1,4,16,86,46,-74
1537907777818436,32,34,6,7,10,31,41,86
1537907777827412,-33,-37,-5,-4,-34,-74,-78,-128
1537907777827412,21,18,-3,-16,-20,-36,-60,54
1537907777840377,3,-24,-12,-8,-14,14,-18,38
1537907777840377,-12,-9,-5,2,20,120,34,7
1537907777849353,23,26,12,12,28,84,86,3
1537907777849353,16,-3,4,12,17,47,51,-21
1537907777864315,-11,8,3,3,-4,-65,-29,29
1537907777864315,-2,-8,-3,1,3,-17,-16,-6
1537907777866310,-1,-1,-5,-5,-7,17,6,-3
1537907777866310,-40,-15,-1,-3,-1,-5,-22,-59
1537907777878277,13,6,-1,0,-7,-84,-2,44
1537907777878277,6,-2,1,-3,-9,-37,-32,-17
1537907777887255,-30,-8,-9,-7,-2,1,-22,-31
1537907777887255,-11,-3,2,-2,6,21,27,-4
1537907777901228,11,-2,-1,-2,-8,-34,-5,-62
1537907777901228,-2,-4,-2,1,-12,-64,-26,14
1537907777908196,9,1,-4,-6,-6,5,-22,-2
1537907777908196,-4,2,0,1,5,38,34,-14
1537907777924153,12,4,1,2,-1,-1,-8,37
1537907777924153,-21,-13,-3,-1,-7,-21,-23,-49
1537907777926148,7,1,-3,-2,1,4,14,19
1537907777926148,-3,-5,-1,-1,1,2,4,-21
1537907777938116,-9,-2,-2,0,2,2,4,22
1537907777938116,-6,0,-1,0,-1,-8,-6,-4
1537907777947091,2,-4,-2,0,-3,3,12,34
1537907777947091,-6,-5,-3,0,0,0,-2,-16
1537907777961054,-8,0,-1,-2,-3,6,-4,14
1537907777961054,3,0,0,0,-1,4,3,11
1537907777968035,1,0,-3,1,0,-7,-3,-12
1537907777968035,-6,-3,-2,-12,-7,-4,4,-2
1537907777983992,-2,-2,2,4,1,6,0,9
1537907777983992,0,-1,2,30,5,-3,-3,-11
1537907777985987,3,-1,-2,-19,-2,-2,6,10
1537907777985987,-4,-5,-9,44,11,8,1,-7
1537907777997956,-7,1,5,-76,-23,3,3,16
1537907777997956,5,0,-4,-13,-6,-5,-4,-5
1537907778006931,-1,0,2,66,15,9,6,8
1537907778006931,2,5,27,-28,-9,3,4,5
1537907778020894,-2,-3,-26,12,8,-4,-3,-5
1537907778020894,1,1,15,8,-6,-5,2,3
1537907778027876,2,0,5,-29,-2,3,3,2
1537907778027876,2,-1,-3,36,14,4,3,-6
1537907778044831,1,1,7,37,9,3,1,3
1537907778044831,-2,-2,-9,-19,-2,1,0,0
1537907778045829,1,0,-4,6,0,3,1,7
1537907778045829,1,0,-1,-6,-1,1,-1,-5
1537907778057796,-1,0,0,-2,0,1,1,5
1537907778057796,-1,-1,-8,-11,-1,-1,0,2
1537907778066771,0,1,2,-12,-5,-3,0,-4
1537907778066771,-1,0,-5,-3,-3,-5,0,1
1537907778081733,1,2,0,-3,-1,-1,-3,1
1537907778081733,1,-1,1,11,2,-2,-1,-1
1537907778087717,-3,-2,1,5,-1,-1,1,-1
1537907778087717,-2,0,-9,-9,-1,1,2,-1
1537907778104671,-1,0,4,-4,-4,0,0,2
1537907778104671,-1,-2,1,4,0,-3,-1,-2
1537907778105667,-1,1,-4,-4,-3,0,-2,1
1537907778105667,-1,0,-8,-26,1,2,1,1
1537907778126611,-2,-1,2,12,3,-1,-1,-1
1537907778126611,0,-2,-1,0,1,-3,-1,1
1537907778128606,1,-2,0,-4,-2,0,0,0
1537907778128606,3,1,2,13,5,2,-1,-1
1537907778141571,-2,-2,0,4,-3,-3,-2,1
1537907778141571,0,-1,-5,-38,-8,-3,-4,-2
1537907778148553,-3,0,-7,-11,-4,-2,0,0
1537907778148553,-2,-3,-1,-2,-1,1,-3,-2
1537907778164510,-2,-1,0,7,7,3,0,0
1537907778164510,2,1,2,27,6,1,2,3
1537907778165507,-1,-2,-6,-32,-12,-5,-4,-4
1537907778165507,-1,-1,-3,1,-3,0,0,-1
1537907778186451,0,-1,-1,-2,0,0,0,0
1537907778186451,-3,-1,-1,8,3,2,1,-2
1537907778188446,-1,-2,0,17,5,0,-1,-1
1537907778188446,-1,1,3,-7,-7,-3,1,-2
1537907778201411,-1,0,-5,8,2,1,-1,0
1537907778201411,-2,0,2,-10,-2,-3,0,-1
1537907778208393,-1,0,-1,27,3,1,0,-2
1537907778208393,0,2,5,-30,-7,-5,-1,1
1537907778224350,-2,0,-6,-32,-7,-2,-3,-3
1537907778224350,2,-1,-3,-9,-2,-2,0,1
1537907778226345,-1,0,-3,-14,-2,-1,1,-1
1537907778226345,0,-2,0,21,6,1,-1,-1
1537907778247288,-1,-1,-4,-3,-7,-4,-1,-1
1537907778247288,-2,-1,2,-4,-4,-3,-1,-1
1537907778248286,0,-1,1,0,0,-1,-2,1
1537907778248286,-1,-1,0,8,2,0,-2,-1
1537907778269230,0,2,2,4,1,0,-2,0
1537907778269230,4,-2,-4,3,-1,-1,-1,-1
1537907778271225,-7,-2,3,2,1,0,0,1
1537907778271225,-2,1,-2,-2,12,83,41,11
1537907778284190,11,1,3,10,-7,-69,-20,-42
1537907778284190,11,4,3,7,23,116,28,77
1537907778286186,-14,-6,-6,-8,-13,-75,-16,2
1537907778286186,6,-1,-4,-5,24,43,66,92
1537907778307129,6,-3,3,0,-35,-32,-16,-32
1537907778307129,-40,-9,-12,-10,-19,63,22,-113
1537907778308126,0,0,-5,-7,4,97,-4,-6
1537907778308126,-11,-3,-2,-4,-28,-56,-39,50
1537907778321091,-3,-4,-8,-3,-1,60,-3,-30
1537907778321091,-13,-2,-2,-1,1,-57,-67,-14
1537907778329070,6,0,-1,-1,11,103,38,34
1537907778329070,3,20,11,14,30,56,35,-32
1537907778344030,4,-20,1,4,14,70,66,127
1537907778344030,55,6,0,1,-12,-70,-1,-16
1537907778346025,-34,-4,3,1,4,-39,-14,0
1537907778346025,22,0,-1,0,-8,-23,-36,-45
1537907778366969,-27,3,3,2,3,-14,-3,-22
1537907778366969,-2,-7,-5,-4,-5,-22,-7,10
1537907778367966,14,3,5,4,4,12,20,5
1537907778367966,-12,-7,-5,-4,-16,-40,-24,-16
1537907778380932,-6,2,-1,0,6,12,-7,-12
1537907778380932,-2,0,3,2,7,25,21,32
1537907778389908,8,5,2,2,-3,-25,-11,-15
1537907778389908,-9,-8,-4,-6,-13,-11,-15,-31
1537907778404867,6,1,0,0,6,10,-4,12
1537907778404867,-2,5,6,8,5,-11,3,1
1537907778405865,2,-4,-2,30,3,-21,-5,-12
1537907778405865,-5,-9,-17,18,3,-6,-8,-8
1537907778426809,3,5,7,-61,-15,-1,1,6
1537907778426809,-9,-5,2,54,-2,-18,-10,5
1537907778428804,4,2,-16,-39,-1,1,2,-3
1537907778428804,-2,-5,13,31,17,12,3,4
1537907778440771,-2,-4,-19,68,30,1,-2,-4
1537907778440771,-7,6,33,-73,-56,-15,-6,-9
1537907778449748,3,-1,-1,-29,-13,-4,-4,1
1537907778449748,2,-2,-21,-34,-7,-6,-3,-4
1537907778464708,2,2,25,67,14,1,0,-3
1537907778464708,-2,-8,-37,16,28,13,4,5
1537907778465705,4,3,20,1,-7,-5,1,2
1537907778465705,-4,2,-4,-70,-18,-12,-10,-4
1537907778486650,-3,2,2,27,8,3,-3,-2
1537907778486650,1,2,-6,-13,5,6,6,11
1537907778488644,-1,-3,-6,21,3,-4,-2,-5
1537907778488644,-3,-4,-1,18,-1,-3,-4,-7
1537907778500613,0,-1,-3,14,3,2,0,1
1537907778500613,-4,-2,-1,-31,-7,-5,1,-1
1537907778509588,-2,-1,-8,-12,-1,-6,-1,-2
1537907778509588,-2,0,11,12,-5,-4,-3,-3
1537907778524548,1,1,0,5,2,1,1,2
1537907778524548,0,-1,-8,-4,-7,-3,-2,2
1537907778530532,-1,-2,-8,83,18,2,-1,-2
1537907778530532,0,3,15,-98,-52,-12,-5,-3
1537907778547487,-1,0,-5,6,-1,-3,-4,-4
1537907778547487,-1,-2,-2,13,9,2,2,0
1537907778548484,1,2,-1,-2,-4,-1,-1,2
1537907778548484,0,0,0,46,16,4,2,-2
1537907778560452,-2,-1,-5,-35,-8,-2,-3,0
1537907778560452,1,0,3,-3,1,-2,-2,1
1537907778569429,0,-2,4,-12,-4,-2,-1,-1
1537907778569429,0,-3,-5,15,2,-1,-2,0
1537907778584388,-1,-1,1,-34,-9,-5,-1,-2
1537907778584388,-2,-1,-1,18,9,6,2,0
1537907778586383,1,0,4,-1,-4,-3,-1,1
1537907778586383,-2,-2,-6,0,1,-1,-2,-2
1537907778607326,-1,0,-3,-11,-5,0,-1,0
1537907778607326,-1,-1,1,8,3,0,-1,-1
1537907778608324,1,0,1,-11,-4,-2,-1,-1
1537907778608324,0,-1,-1,9,3,1,-2,-1
1537907778620292,1,0,-1,-12,-4,-2,-1,-1
1537907778620292,-1,-1,1,2,3,0,-1,0
1537907778629267,0,0,0,-12,-6,-4,-2,0
1537907778629267,-3,-1,-2,17,6,2,1,0
1537907778644227,-2,-1,-2,-8,-6,-2,-2,-1
1537907778644227,0,-2,0,-1,1,0,-1,-1
1537907778646222,0,0,0,-1,-1,-1,-1,-2
1537907778646222,-2,-1,-2,10,3,0,-1,-2
1537907778667166,0,1,-2,-4,0,0,0,-1
1537907778667166,0,0,-1,-3,-1,-1,0,0
1537907778668164,1,-3,-1,-7,-5,-2,-1,0
1537907778668164,-2,-2,-2,3,1,0,-1,0
1537907778680132,0,-2,-3,-4,-4,0,-1,2
1537907778680132,0,-2,1,6,1,1,1,0
1537907778689108,0,1,-1,-3,2,0,-1,0
1537907778689108,1,1,-1,5,-1,-2,0,1
1537907778704068,-2,-1,-3,-5,0,2,0,-21
1537907778704068,3,2,2,4,7,23,59,86
1537907778706062,19,-1,2,-1,10,64,-19,-88
1537907778706062,-24,-5,-3,-5,-22,-86,-33,37
1537907778727006,7,2,4,3,29,104,71,81
1537907778727006,2,-2,1,5,-24,-128,-50,-49
1537907778728004,-45,-21,-19,-22,-28,51,-95,-5
1537907778728004,16,11,5,10,31,93,64,-51
1537907778740969,18,3,3,-4,-11,-84,22,36
1537907778740969,-50,-11,4,6,-11,-41,-91,-90
1537907778749945,-31,-6,-9,-12,-31,-88,-47,119
1537907778749945,12,8,-3,-1,4,17,8,-128
1537907778764905,31,10,3,2,4,40,-1,75
1537907778764905,14,-3,-6,-4,19,43,18,56
1537907778765902,11,15,24,29,35,40,84,-82
1537907778765902,-4,-4,-6,-7,-17,-18,-17,97
1537907778786846,-29,-2,0,-3,-1,-9,-5,-35
1537907778786846,9,-2,-6,-3,-6,-30,7,-6
1537907778788841,-8,0,-2,-5,-15,-66,-8,-66
1537907778788841,0,-5,2,5,13,42,23,47
1537907778800809,-5,-3,1,2,0,16,-8,-50
1537907778800809,3,-1,-2,-4,-6,23,3,21
1537907778809785,-10,-6,-5,-8,0,3,13,15
1537907778809785,11,1,5,3,1,-18,-6,-22
1537907778823748,-6,-3,-1,-3,-18,-38,-38,-15
1537907778823748,-1,2,-2,-5,7,44,-1,-39
1537907778830730,27,7,3,0,7,-2,33,42
1537907778830730,1,-3,-2,-1,-8,-24,-31,12
1537907778846688,-14,-7,-5,-4,-5,-2,-9,-38
1537907778846688,3,3,-2,0,4,29,24,18
1537907778848683,7,0,0,1,2,-24,5,-2
1537907778848683,-3,-5,-1,0,-3,-1,-12,6
1537907778860650,-9,-3,-5,-3,-1,-6,-14,-18
1537907778860650,3,3,2,0,1,17,13,-12
1537907778869626,5,0,-1,-2,-5,-6,4,15
1537907778869626,-10,-3,-1,0,1,6,-6,-19
1537907778891567,6,2,0,-1,-3,-8,-1,3
1537907778891567,2,-1,-1,-1,-1,-1,1,1
1537907778893561,1,0,-1,0,1,12,3,1
1537907778893561,-1,1,0,0,0,-2,3,9
1537907778906527,0,-4,-2,0,-1,-3,-9,-15
1537907778906527,0,1,0,-1,0,6,1,3
1537907778908522,0,-3,-1,-1,2,3,2,4
1537907778908522,-2,-1,-1,0,-1,-1,3,-5
1537907778930463,-3,-2,-3,-3,-3,-8,-6,-5
1537907778930463,-2,0,-2,-1,-1,6,2,-10
1537907778932458,6,4,0,3,5,5,9,10
1537907778932458,0,0,-2,-1,-3,-7,-4,0
1537907778943428,0,0,-1,-4,-1,1,-5,-6
1537907778943428,2,2,0,-1,3,2,3,6
1537907778950410,-2,-5,-6,18,5,2,2,-3
1537907778950410,-3,-1,2,-22,-8,-2,-3,0
1537907778967364,-4,-2,-3,16,-5,-3,-5,-6
1537907778967364,1,-2,-7,-59,-11,1,0,-3
1537907778968361,-1,-1,-2,-28,-1,-1,1,2
1537907778968361,-2,-3,2,9,3,-1,-3,-4
1537907778980329,3,-1,-3,34,9,0,0,3
1537907778980329,1,0,2,3,1,1,2,0
1537907778989305,0,-2,-4,23,5,1,-1,-1
1537907778989305,-4,-1,0,6,-3,-4,-1,0
1537907779003268,-1,1,8,2,-4,-3,-3,-3
1537907779003268,-2,-3,-23,-18,0,2,0,0
1537907779010249,2,4,19,-39,-16,-2,0,2
1537907779010249,0,-3,-8,12,4,2,-1,-1
1537907779027204,-1,0,12,33,12,2,-3,-1
1537907779027204,-3,0,1,25,-2,0,-1,-3
1537907779028201,1,-1,-9,7,-2,-1,1,2
1537907779028201,-2,-2,4,-37,-13,-6,-2,-3
1537907779051140,-1,1,-8,-21,-9,-5,-3,-4
1537907779051140,-1,-2,2,17,4,1,-1,0
1537907779052137,2,-2,-1,15,7,2,0,0
1537907779052137,-1,-4,-9,57,7,1,-2,0
1537907779064105,-5,-3,-12,-29,-8,-2,-1,-2
1537907779064105,-3,0,2,2,-3,0,0,-2
1537907779070089,1,-1,-4,-21,1,1,1,0
1537907779070089,2,0,11,34,9,0,0,1
1537907779087044,0,-2,-2,0,-6,-3,0,1
1537907779087044,0,-1,0,-6,-2,-1,-1,-1
1537907779088042,-1,1,7,25,6,3,1,0
1537907779088042,0,-2,-7,-24,-2,1,1,-1
1537907779108985,-1,-2,5,-7,-2,0,-1,-1
1537907779108985,-1,-3,3,34,6,-1,-1,-1
1537907779110980,1,-1,-10,-37,-8,-5,-3,1
1537907779110980,-1,-1,-4,-1,3,4,1,0
1537907779122948,1,0,-4,-17,0,1,0,-1
1537907779122948,0,3,16,16,-1,1,-1,-1
1537907779131925,-1,0,-2,-32,-14,-6,-1,-1
1537907779131925,0,0,0,-8,-1,-2,-1,1
1537907779146884,0,-1,-11,-17,-3,-1,-1,-1
1537907779146884,1,0,3,-8,0,0,1,0
1537907779147881,-3,-2,-3,10,4,1,-1,0
1537907779147881,-2,0,0,11,2,1,2,0
1537907779169823,0,0,-7,-33,-2,1,-1,-2
1537907779169823,-1,-1,-2,-1,-4,-4,-3,-1
1537907779170820,-1,-2,1,7,-2,-3,-1,-3
1537907779170820,-1,0,-3,-7,-2,-1,-1,-1
1537907779182788,0,0,2,7,1,1,0,0
1537907779182788,0,-2,-2,-5,-3,-1,0,-1
