timestamp,emg1,emg2,emg3,emg4,emg5,emg6,emg7,emg8
1537915510984444,-2,-3,-1,2,1,7,-11,-6
1537915510984444,0,-2,-5,-4,-4,17,-14,1
1537915510985441,2,-2,-2,-1,1,-4,10,-2
1537915510985441,-5,-2,-2,-2,-1,8,-11,-7
1537915510988433,0,1,0,-2,-1,3,7,4
1537915510988433,-1,1,2,4,-1,-25,-12,2
1537915510989430,-1,-2,-4,-5,-4,-1,0,0
1537915510989430,0,-2,0,1,2,-3,-8,2
1537915510996412,-1,-1,0,-2,1,-15,-5,-7
1537915510996412,-1,-2,1,4,11,17,28,-1
1537915511005388,-2,0,0,1,16,-5,0,4
1537915511005388,0,0,-1,-7,-47,-34,10,0
1537915511010374,-2,-2,-1,-3,-5,24,-11,-7
1537915511010374,-1,-1,-2,-4,-3,11,-7,1
1537915511025334,-3,0,1,1,-5,5,-11,-4
1537915511025334,0,-1,1,3,16,2,9,0
1537915511035308,1,-1,-1,-1,4,-9,-29,0
1537915511035308,1,0,2,2,1,-1,41,2
1537915511050268,1,1,-2,-3,-9,8,25,-3
1537915511050268,-1,-2,-3,-4,-5,-16,-3,1
1537915511056251,-1,1,-2,0,-4,-25,-13,4
1537915511056251,2,1,-1,0,17,-3,-1,-3
1537915511070214,-4,-1,0,1,-21,23,-21,-4
1537915511070214,2,0,1,1,9,-5,12,1
1537915511112102,-1,-3,-2,-4,6,2,-1,-5
1537915511112102,0,-1,1,4,12,1,-6,-1
1537915511112102,0,0,0,0,2,-9,11,0
1537915511112102,-1,-1,-2,0,15,-2,-4,-3
1537915511116092,-1,1,0,4,-4,-3,-9,-1
1537915511116092,-1,-2,-3,-3,-19,-10,5,-1
1537915511117089,0,1,2,2,14,8,-9,-3
1537915511117089,0,-2,-2,-1,-7,-6,3,-1
1537915511123073,0,-1,2,3,3,-11,-11,3
1537915511123073,0,-2,-4,-6,4,3,-8,-1
1537915511130054,0,-1,-1,-1,-12,-24,-4,0
1537915511130054,-2,0,-1,-6,3,23,7,1
1537915511139030,-2,0,-1,1,11,18,-6,-3
1537915511139030,-1,-2,0,-4,-11,0,13,0
1537915511152993,0,-2,-1,0,11,10,-7,-1
1537915511152993,-1,-1,-1,3,6,-39,9,-1
1537915511161970,-3,-3,-4,-15,-52,-7,-26,-2
1537915511161970,1,2,2,2,17,34,40,4
1537915511183911,-3,-3,-4,-5,-16,-31,7,-1
1537915511183911,-2,0,2,9,31,60,-7,-5
1537915511184909,0,-3,-4,-7,-23,-5,-27,-1
1537915511184909,-3,-2,-4,-7,-14,-24,-17,-4
1537915511197873,3,3,6,5,12,-3,-5,5
1537915511197873,1,0,0,-5,-21,-1,12,0
1537915511206849,0,-2,0,5,19,1,0,5
1537915511206849,-6,0,-1,0,0,-3,9,-1
1537915511221809,-3,1,0,1,4,6,-9,-18
1537915511221809,1,-1,-2,-2,-9,-12,-15,2
1537915511222806,4,1,-1,0,9,2,15,7
1537915511222806,-3,2,1,2,3,-7,-8,0
1537915511243750,-7,0,0,0,1,13,19,-10
1537915511243750,3,-2,-3,-5,-12,-11,-8,10
1537915511245745,-4,0,-1,-1,4,-3,19,-8
1537915511245745,1,-3,-1,1,4,1,-18,-4
1537915511257713,-2,-1,-4,-2,-9,-15,-2,-5
1537915511257713,-2,0,1,-3,-12,27,0,1
1537915511266689,-2,-2,0,-1,-1,-19,2,1
1537915511266689,2,1,2,7,21,2,5,-4
1537915511281649,0,-2,-2,-1,9,26,-15,5
1537915511281649,-4,-3,-4,-9,-24,-30,19,-1
1537915511282646,1,1,-1,-1,2,4,25,2
1537915511282646,0,-1,-1,-5,-7,0,-2,0
1537915511303590,0,-2,2,4,19,-23,0,3
1537915511303590,0,0,-1,2,-5,30,-27,-3
1537915511305585,-1,-1,1,3,4,-16,-5,-1
1537915511305585,-2,-2,-2,-1,0,-3,-15,0
1537915511317553,-2,0,-2,0,-1,6,8,7
1537915511317553,-2,-3,-1,-1,0,-25,6,0
1537915511326529,-2,0,1,3,7,27,-1,-14
1537915511326529,0,1,-2,0,-7,2,-3,-8
1537915511341489,2,0,-3,-5,-9,6,-10,9
1537915511341489,-1,-1,-1,0,1,-14,-9,-9
1537915511342487,2,1,0,0,3,1,7,6
1537915511342487,-2,-1,0,-2,1,-5,12,6
1537915511363431,-1,0,-1,-4,-16,11,13,-6
1537915511363431,0,-1,1,1,4,-11,-13,16
1537915511365425,-1,0,-1,6,11,-1,14,-5
1537915511365425,-4,-1,0,4,1,-28,-27,-7
1537915511377393,-1,-2,-2,-8,-18,44,20,-3
1537915511377393,-2,-2,-2,-2,8,7,8,0
1537915511386369,-2,1,0,5,30,8,-3,3
1537915511386369,-7,-3,0,-9,-57,-16,-12,-11
1537915511401329,4,2,-1,-3,-11,-42,6,11
1537915511401329,-2,1,-1,-2,-23,24,29,40
1537915511403324,-2,-1,-2,0,14,6,-39,-40
1537915511403324,1,0,3,4,22,-4,4,-4
1537915511424268,-7,-4,1,16,64,51,-3,-46
1537915511424268,1,3,10,43,108,65,-18,-3
1537915511425265,-4,-6,-9,-22,-50,-101,17,10
1537915511425265,2,-1,-5,-19,18,109,31,16
1537915511437234,5,-3,-4,-6,-11,0,-2,19
1537915511437234,-13,3,8,10,12,54,32,-36
1537915511446209,6,2,5,43,97,14,-77,10
1537915511446209,3,1,-7,-12,-48,-84,34,6
1537915511461169,6,3,-6,-43,-107,83,98,40
1537915511461169,14,-4,-23,-48,9,-66,-68,-20
1537915511463164,-3,-4,-9,-51,-69,95,70,18
1537915511463164,-9,5,21,40,60,-42,-72,-48
1537915511484109,33,7,15,94,127,94,-78,31
1537915511484109,-10,2,9,-1,-87,-101,65,-2
1537915511485107,7,-12,-41,-77,11,-56,-57,-15
1537915511485107,-7,-10,-27,-95,-95,104,4,-38
1537915511498071,-13,-1,0,-26,-78,-103,-5,-21
1537915511498071,26,16,39,74,89,118,25,16
1537915511506050,7,13,27,106,83,-90,18,43
1537915511506050,-20,-18,-18,-41,-50,1,-18,-40
1537915511521010,-7,-2,-3,-6,30,56,2,9
1537915511521010,7,-2,-3,9,-42,-104,54,19
1537915511523004,-10,6,10,31,13,-1,-14,-14
1537915511523004,14,2,2,54,127,61,-13,16
1537915511551926,-10,-10,-26,-75,-128,-128,-13,-30
1537915511551926,-42,-22,-38,-117,-64,87,72,5
1537915511552924,9,0,2,-28,-57,93,-13,-40
1537915511552924,-1,3,16,47,-13,-69,-6,53
1537915511557911,9,8,19,61,127,31,18,-12
1537915511557911,-1,4,18,53,26,-35,-59,-16
1537915511566887,-11,2,20,69,87,118,49,-20
1537915511566887,2,-8,-26,-53,-118,-83,12,21
1537915511581847,-20,-11,-11,-15,-19,-10,-11,-31
1537915511581847,-3,-9,-29,-99,-94,-63,-41,-28
1537915511582844,-7,1,4,-7,-18,-19,32,3
1537915511582844,13,12,25,61,28,-63,21,10
1537915511603788,9,5,0,71,-4,34,-10,23
1537915511603788,-3,-4,-3,-55,79,57,-20,-11
1537915511605783,0,-7,-15,-29,-80,103,-4,18
1537915511605783,11,12,29,42,93,34,17,-17
1537915511627724,0,-3,-7,42,-78,57,-40,13
1537915511627724,-15,-19,-45,-65,-46,48,-102,-57
1537915511629719,-10,-4,3,16,-42,-10,37,30
1537915511629719,6,2,-5,-51,-46,-35,-7,35
1537915511640690,-11,-5,2,7,16,36,-19,-13
1537915511640690,6,8,21,109,127,46,-9,-13
1537915511647671,3,5,6,-54,24,-43,69,-15
1537915511647671,-5,-6,-16,39,-24,14,20,4
1537915511663628,3,2,6,-76,-13,16,-2,29
1537915511663628,-3,-3,-3,-41,-43,2,0,6
1537915511665623,7,12,31,98,81,-128,13,49
1537915511665623,11,6,16,120,27,127,-7,12
1537915511677591,-22,-13,-36,-113,-12,40,44,-27
1537915511677591,9,-14,-41,24,-81,-81,-46,24
1537915511686567,2,9,22,35,40,47,-28,-33
1537915511686567,18,23,60,110,127,-59,-6,5
1537915511700529,-4,-3,-4,-69,29,-2,-33,12
1537915511700529,-14,-6,-15,-71,-65,14,-8,-10
1537915511707511,-10,-19,-52,-128,-102,-110,-32,-19
1537915511707511,5,6,26,46,10,-12,41,8
1537915511723468,11,8,28,-14,115,42,-37,4
1537915511723468,-19,-23,-55,-65,-54,-51,-3,-1
1537915511725463,-6,-12,-41,-92,-128,-88,-15,-8
1537915511725463,-12,-8,-14,6,12,10,-60,-7
1537915511746407,12,20,54,127,88,-44,-3,-22
1537915511746407,10,19,38,111,-61,-53,12,14
1537915511747404,6,-6,5,47,72,84,39,-24
1537915511747404,-7,-14,-30,-74,-69,-38,-38,13
1537915511760369,8,3,-1,32,-9,-7,33,43
1537915511760369,14,4,9,-11,-24,-11,-2,10
1537915511767351,14,10,26,85,81,83,44,12
1537915511767351,-12,-4,-8,-13,79,105,34,-11
1537915511784305,-28,-31,-64,-68,-117,-84,-47,-44
1537915511784305,8,14,31,52,126,24,-5,21
1537915511785303,-4,2,11,69,58,-4,-17,-10
1537915511785303,-6,-12,-32,-105,-77,-13,37,58
1537915511806247,-1,6,14,49,-3,61,14,-11
1537915511806247,6,4,14,61,-50,-116,-38,-11
1537915511808241,-2,-5,-7,30,97,30,-4,13
1537915511808241,3,7,6,-73,119,101,-29,20
1537915511820210,-5,-5,-18,-101,-25,-72,37,-35
1537915511820210,-5,-7,-4,-36,-102,-6,74,-19
1537915511829186,15,11,23,72,24,81,-11,29
1537915511829186,-13,-12,-25,-54,37,2,18,-31
1537915511844145,5,-1,-3,-34,-103,-73,-110,13
1537915511844145,0,9,35,116,127,127,56,-12
1537915511845143,-13,-16,-29,-128,-28,42,-26,-15
1537915511845143,-4,2,8,81,-15,-73,48,-10
1537915511866087,1,0,0,20,63,24,-1,0
1537915511866087,-6,-8,-18,-57,-45,-27,-17,-17
1537915511868082,-2,1,12,45,-2,61,-31,35
1537915511868082,5,-1,-5,31,-26,-30,-17,-1
1537915511881047,4,-6,-9,42,16,25,19,13
1537915511881047,-3,-4,-11,-95,-77,-17,5,-11
1537915511888028,-6,-2,-4,-31,-65,19,23,9
1537915511888028,2,1,4,39,75,10,-33,-39
1537915511903985,1,3,6,38,-14,9,18,-9
1537915511903985,5,7,20,101,57,41,-28,24
1537915511904983,-8,-8,-16,-92,-1,-5,-31,-28
1537915511904983,-4,-4,-10,-74,-78,-33,6,0
1537915511925927,-5,-3,-4,15,-35,-41,-28,-19
1537915511925927,0,-2,-6,-32,-45,-92,-45,10
1537915511927922,2,4,7,36,15,-44,38,16
1537915511927922,-5,-5,-3,-16,-50,34,-40,-28
1537915511940887,4,1,2,-19,51,4,107,33
1537915511940887,4,4,13,45,45,46,-42,-5
1537915511947868,1,1,3,36,0,-24,-11,-15
1537915511947868,-2,-3,-9,-33,-37,14,-21,-1
1537915511963825,-5,-2,-5,-9,-47,-30,-5,4
1537915511963825,-1,2,6,30,75,57,21,-18
1537915511965820,3,-3,-10,-66,-42,-8,21,20
1537915511965820,2,-2,1,19,-23,-30,3,20
1537915511993746,-3,0,2,-19,2,-16,-24,-14
1537915511993746,0,1,2,3,-2,32,34,2
1537915511995741,-5,-5,-7,-26,-36,-19,-26,-19
1537915511995741,0,2,2,9,1,-3,11,-6
1537915512000727,1,2,8,29,25,3,12,13
1537915512000727,4,-2,-5,-18,31,0,12,20
1537915512007708,-3,0,1,22,-11,-40,-43,-15
1537915512007708,1,-1,-2,-13,0,16,36,1
1537915512023666,1,0,3,16,13,20,23,4
1537915512023666,-2,-1,1,-11,13,9,-17,8
1537915512025660,2,0,0,1,-5,-20,-15,-7
1537915512025660,-3,1,1,6,-16,-19,-8,-12
1537915512048599,-4,-2,0,-9,0,20,-30,-9
1537915512048599,2,0,0,4,17,6,24,8
1537915512050594,0,-1,-2,6,-8,5,9,-1
1537915512050594,-3,-2,0,-6,-3,-13,-3,-23
1537915512053586,2,5,2,15,10,-18,-10,-22
1537915512053586,0,-4,-4,-12,3,-21,10,-3
1537915512062562,-1,-1,0,6,7,68,-16,2
1537915512062562,-1,-2,-5,-11,-13,-17,-10,17
1537915512075527,-1,-1,2,1,11,4,7,26
1537915512075527,0,1,-1,7,6,-15,8,20
1537915512084503,0,-1,-2,-11,-16,-26,1,5
1537915512084503,0,2,4,3,2,15,0,3
1537915512098466,-3,-4,1,4,3,-9,0,-7
1537915512098466,-2,-2,0,-3,4,0,-3,-6
1537915512105447,-4,-2,-3,0,-9,-15,-8,-10
1537915512105447,-1,-1,-2,1,0,5,-2,-8
1537915512121404,0,-1,-2,3,0,-10,4,-1
1537915512121404,-1,-1,0,-5,1,8,-22,-3
1537915512122402,-3,-4,-3,-1,-4,-11,14,-7
1537915512122402,-2,-4,-1,3,-6,-54,-5,-6
1537915512135367,-2,-2,0,-2,0,71,8,0
1537915512135367,0,0,-1,0,11,0,-4,4
1537915512144344,-1,-2,-2,-5,-22,-21,-1,-1
1537915512144344,-2,-3,-3,-6,-2,5,-1,-1
1537915512158306,-2,-1,2,1,-4,-21,-5,0
1537915512158306,-1,0,1,3,10,16,2,-2
1537915512172268,-1,1,-1,5,16,2,-5,-3
1537915512172268,-4,-3,-4,-6,-19,-13,-11,-4
1537915512181244,2,0,1,3,9,-2,5,6
1537915512181244,1,0,-1,2,0,-12,-15,-3
1537915512183239,-2,-2,-2,-6,-10,0,30,2
1537915512183239,0,-1,1,3,7,29,-14,-4
1537915512195208,-2,-1,-1,1,-2,-8,-2,0
1537915512195208,-2,-2,0,1,7,3,11,-2
1537915512204183,-4,-2,1,2,0,-11,-22,-7
1537915512204183,2,2,9,2,3,3,19,3
1537915512218146,0,-2,-10,1,2,4,-2,-1
1537915512218146,-4,-3,-2,-2,13,-44,-1,-3
1537915512225127,-2,1,-2,-7,-39,39,-12,-1
1537915512225127,-2,-4,-3,-5,-3,24,10,-2
1537915512241084,0,0,4,-3,-3,-15,-4,1
1537915512241084,-2,-2,0,-2,-2,-2,2,-2
1537915512243079,1,0,-1,8,23,9,-13,-1
1537915512243079,-1,-1,-3,-7,-15,-16,2,-1
1537915512255047,0,-1,-3,-2,-5,-12,-2,0
1537915512255047,-3,-1,-2,0,1,30,-1,-1
1537915512264023,-1,-1,1,1,10,-21,2,0
1537915512264023,-2,-1,-2,1,5,17,7,0
1537915512279980,-2,-2,1,1,1,-14,-4,-1
1537915512279980,1,2,-1,-3,-6,9,3,1
1537915512284967,0,-2,0,-2,1,-8,-1,-2
1537915512284967,-1,-1,-2,0,-1,-11,-11,-3
1537915512299927,-1,-2,-2,-2,-2,-1,14,-2
1537915512299927,0,0,0,-4,-5,4,-5,1
1537915512307906,-2,-2,0,-1,-4,-20,-4,-2
1537915512307906,-1,0,-2,-1,3,10,0,-1
1537915512322866,0,-2,1,0,3,1,-3,1
1537915512322866,0,0,-1,-2,3,18,8,-1
1537915512323863,1,0,-1,0,5,-3,-2,-2
1537915512323863,0,-1,-1,1,8,-4,0,0
1537915512338823,-2,-2,-2,-4,-15,-34,-11,-2
1537915512338823,-1,-1,-2,-2,-7,1,10,1
1537915512344807,0,-1,-4,-6,-22,-20,-11,-2
1537915512344807,0,0,2,3,16,6,-14,-1
1537915512359767,-2,-1,-2,0,9,18,16,2
1537915512359767,1,-1,-3,0,0,-11,-3,-2
1537915512367746,-1,0,2,4,12,3,6,1
1537915512367746,-1,-2,0,-2,-5,2,-1,-2
1537915512382706,-1,1,0,-1,-4,-5,-9,-1
1537915512382706,-1,-2,-1,-1,-5,-2,0,-2
1537915512383703,-3,-2,-1,1,1,4,3,-9
1537915512383703,4,-1,-1,-3,-6,-6,0,4
1537915512398663,0,0,1,1,-1,0,-21,-2
1537915512398663,-1,-1,-1,0,-2,10,24,0
1537915512404647,1,-2,-1,-1,0,-7,-3,1
1537915512404647,-1,-1,-1,-2,-4,-7,6,-1
1537915512419607,0,-1,-1,0,3,0,2,-1
1537915512419607,-1,1,-2,0,3,6,-10,-4
1537915512427587,2,-1,-3,1,20,25,-40,2
1537915512427587,1,0,-2,-5,-39,-35,90,3
1537915512445539,-1,-3,-1,-6,-19,0,3,1
1537915512445539,-1,-2,0,-2,-7,-12,-4,-1
1537915512445539,-3,-2,0,1,2,-3,0,0
1537915512445539,-2,1,0,6,22,20,-32,-5
1537915512458503,0,0,1,0,5,1,-4,-2
1537915512458503,-1,-2,-1,-2,-4,-5,3,1
1537915512465484,-1,-1,0,-3,0,-4,7,-2
1537915512465484,-1,-1,-1,0,-1,3,-16,-2
1537915512480445,-1,-1,-3,-3,-3,2,9,-1
1537915512480445,-1,0,1,0,2,-3,-25,0
1537915512487426,-2,-2,1,0,-5,1,19,0
1537915512487426,-1,-3,-1,-6,3,-8,-15,-2
1537915512503383,0,-1,-1,-3,-5,-3,-1,-1
1537915512503383,0,-2,0,-1,-1,-1,0,-1
1537915512504381,-6,-2,-1,-1,-9,-5,7,-9
1537915512504381,0,0,-1,-1,3,3,-8,-2
1537915512519341,-1,1,1,8,18,12,-2,-2
1537915512519341,0,-1,-1,-1,-5,-1,1,5
1537915512525324,-1,0,-2,-4,-26,-39,3,-2
1537915512525324,-2,-1,-1,-2,7,27,-7,-1
1537915512548263,0,-1,1,2,7,-5,-6,-1
1537915512548263,-2,-2,1,5,14,3,5,-1
1537915512549261,1,-1,-3,-4,-15,15,-5,1
1537915512549261,-2,-2,-3,-2,4,-12,3,-1
1537915512563223,0,-2,-1,-5,-28,-15,-17,-1
1537915512563223,-2,2,0,3,6,0,24,-1
1537915512564221,1,0,0,-2,2,-1,1,3
1537915512564221,0,-1,-1,-1,1,6,-5,1
1537915512579181,-2,-2,0,2,9,7,-4,0
1537915512579181,-1,1,1,1,3,-2,-8,-2
1537915512585165,-1,0,-2,0,2,2,-11,1
1537915512585165,-1,-1,1,1,-4,-5,-2,-3
1537915512600124,0,0,-2,1,6,5,6,0
1537915512600124,0,-2,0,-3,-13,-1,-12,0
1537915512607106,1,-1,-2,0,4,-3,9,0
1537915512607106,-3,-1,0,0,-2,2,-3,-2
1537915512623063,-2,-1,-1,-1,-1,1,3,4
1537915512623063,2,-2,-2,-3,-6,4,-1,-1
1537915512624061,-1,-2,-1,0,2,-5,-1,-1
1537915512624061,-4,-2,-2,1,2,-3,2,-8
1537915512639021,0,-1,0,-1,5,1,-4,1
1537915512639021,-1,0,-1,-2,-8,2,2,-3
1537915512645005,0,-1,-1,1,4,-13,-1,-1
1537915512645005,0,0,-1,-1,-11,0,-11,0
1537915512659965,-2,-4,0,-3,-1,8,1,-4
1537915512659965,-1,-1,-3,-3,0,1,-2,2
1537915512667944,0,-1,1,1,7,9,4,0
1537915512667944,0,-1,-1,-1,-5,-25,-20,1
1537915512682904,-1,1,0,2,15,15,17,0
1537915512682904,0,-1,-1,-4,-13,-17,-18,1
1537915512683902,1,-1,-1,-4,-8,18,-15,1
1537915512683902,0,-1,1,-1,-15,-24,43,5
1537915512698863,-2,0,3,7,36,-5,-15,-5
1537915512698863,4,4,7,19,21,-9,-13,-7
1537915512704846,-1,2,1,22,103,105,6,-7
1537915512704846,-8,-4,-3,-14,-23,-96,-70,-41
1537915512719806,12,4,-7,-14,-8,112,65,49
1537915512719806,0,-2,-3,-27,-105,-111,10,-38
1537915512727785,-10,-1,11,23,58,19,-40,-15
1537915512727785,16,13,14,60,18,-23,45,25
1537915512743742,-19,-20,-25,-28,36,-93,-67,-55
1537915512743742,-6,-8,-14,-47,57,73,3,89
1537915512743742,-11,-13,-28,-123,-128,-71,63,-28
1537915512743742,-1,-8,-3,5,127,-50,-34,34
1537915512758702,6,12,26,56,78,75,-26,21
1537915512758702,43,16,4,18,-23,-110,32,22
1537915512764687,-17,-5,-1,6,40,95,-19,-33
1537915512764687,-32,3,-1,-24,-128,5,29,-52
1537915512780644,10,-4,11,33,15,-4,13,-44
1537915512780644,7,23,38,102,127,-27,-12,13
1537915512787626,8,-9,-27,-38,-74,64,46,21
1537915512787626,-34,-8,-1,11,127,33,-51,-59
1537915512803583,-2,0,-15,-76,-127,-63,7,43
1537915512803583,-17,-11,-2,-8,23,100,-1,-29
1537915512803583,10,8,22,51,23,-128,36,3
1537915512803583,13,6,0,20,-9,-14,-26,49
1537915512818542,-3,-2,-2,-1,16,47,56,6
1537915512818542,-6,-4,-7,-7,47,66,-58,-15
1537915512825522,-14,8,23,62,127,3,30,4
1537915512825522,12,-15,-29,-86,-93,127,-50,11
1537915512840482,-15,-4,-2,-15,-80,2,16,-49
1537915512840482,-1,-3,0,7,29,86,31,16
1537915512847464,-7,-8,-12,-34,-67,-83,-42,-9
1537915512847464,12,3,3,-1,3,2,10,38
1537915512863421,-4,6,10,19,-2,-98,-25,-50
1537915512863421,-22,-17,-19,-44,-89,56,-11,-18
1537915512864418,10,4,2,5,-34,-54,-36,21
1537915512864418,15,11,15,43,60,26,32,-16
1537915512879378,-13,-4,4,42,42,-66,-1,33
1537915512879378,-1,-6,-21,-66,-49,-30,1,29
1537915512885362,18,13,17,47,112,1,3,11
1537915512885362,-9,-16,-29,-86,-122,63,-14,-37
1537915512900322,-3,3,8,37,127,93,-17,-19
1537915512900322,12,7,5,5,14,-84,37,-3
1537915512907303,5,-5,-11,-10,-72,-11,-18,24
1537915512907303,-4,-4,0,4,-12,14,-18,28
1537915512923261,-4,-4,-10,-49,23,-70,-36,-30
1537915512923261,-7,0,6,28,24,61,67,17
1537915512924259,-7,-8,-10,-23,-71,-14,9,-11
1537915512924259,8,5,18,55,85,-84,11,18
1537915512945203,-2,2,-2,0,-8,2,18,11
1537915512945203,3,-7,-9,-21,-52,-7,-40,-6
1537915512953181,16,-3,-6,-22,-55,68,-15,50
1537915512953181,-3,8,13,27,54,-50,28,-21
1537915512968141,1,-3,-7,-22,-72,97,2,0
1537915512968141,-14,1,9,59,72,61,-44,-48
1537915512969138,15,-3,-15,-71,-55,-106,16,85
1537915512969138,19,2,3,4,-60,68,37,41
1537915512991079,10,0,-4,14,45,81,-14,16
1537915512991079,3,1,5,16,39,-94,-32,-20
1537915512991079,-16,-4,0,-5,-1,63,-49,-56
1537915512991079,-8,-6,-13,-39,-11,-2,42,9
1537915513005042,5,7,13,26,38,4,8,-6
1537915513005042,-6,-8,-11,-37,-115,28,-8,-4
1537915513013022,-3,6,22,74,127,-3,23,-63
1537915513013022,1,-1,-4,6,20,14,-19,-7
1537915513027981,17,-4,-18,-50,-103,-46,0,54
1537915513027981,10,-5,-6,-20,-66,-87,-53,32
1537915513028978,7,8,5,22,27,12,15,-17
1537915513028978,2,2,10,37,87,1,-2,0
1537915513050920,-4,-7,-16,-56,-58,6,-13,3
1537915513050920,0,5,4,-10,33,5,50,-21
1537915513051917,-5,-3,-6,21,-47,-38,-14,-8
1537915513051917,8,6,6,-10,70,86,11,27
1537915513064882,3,6,4,19,-5,-17,56,-16
1537915513064882,-14,-6,-8,-16,-31,-59,18,-25
1537915513072861,-2,-3,-6,-17,-64,-31,-43,-9
1537915513072861,-15,1,6,19,19,11,28,-21
1537915513087821,11,1,4,9,27,-17,-39,-3
1537915513087821,-4,1,9,34,20,69,5,1
1537915513088819,-1,4,9,52,61,-22,41,-3
1537915513088819,-3,-10,-20,-58,-38,-21,-29,-9
1537915513110761,-9,-11,-18,-71,-117,-81,-26,-8
1537915513110761,4,7,16,48,69,33,21,9
1537915513111761,-6,-2,2,9,60,-3,-11,-22
1537915513111761,-3,-5,-10,-36,-24,12,25,35
1537915513133700,3,-3,-3,34,-31,-54,-26,16
1537915513133700,3,-2,-10,-42,9,-7,19,3
1537915513134697,-9,-1,7,12,58,103,-19,-22
1537915513134697,8,-3,-9,-12,-32,-98,-9,13
1537915513148660,-2,3,9,29,47,29,-9,-15
1537915513148660,-1,-3,-1,6,27,34,-1,17
1537915513148660,7,-1,-11,-29,-53,-29,-37,4
1537915513148660,-12,-4,-4,-6,-54,-29,-2,-6
1537915513171598,-9,1,3,12,7,10,-2,-21
1537915513171598,12,1,-1,1,-2,-4,5,-1
1537915513172595,-2,0,4,0,27,15,6,16
1537915513172595,0,0,4,28,11,2,-4,-13
1537915513193540,-3,-1,4,20,45,28,6,2
1537915513193540,-8,1,-2,-22,70,19,-36,-21
1537915513194540,-6,-6,-11,-35,-4,-29,44,7
1537915513194540,-6,4,2,-3,-50,-10,21,-27
1537915513208500,4,6,12,36,38,-7,2,-20
1537915513208500,-4,1,2,11,24,33,26,-3
1537915513208500,4,0,-4,-11,-9,34,-16,14
1537915513208500,-7,-5,1,15,-9,-23,-7,-19
1537915513231438,2,1,0,3,7,12,6,24
1537915513231438,-3,-1,0,2,-23,-21,-10,-6
1537915513232435,-9,-2,-2,-7,-21,-4,-5,-9
1537915513232435,7,-3,-5,-11,-29,17,5,-9
1537915513253378,3,7,11,50,55,98,13,16
1537915513253378,-4,-6,-21,-68,2,-103,-32,4
1537915513254376,-6,-7,-9,-14,-98,-25,-15,2
1537915513254376,11,2,4,-3,44,6,10,-1
1537915513268338,-18,-6,-5,-25,8,-8,-23,-45
1537915513268338,10,4,12,46,16,0,31,58
1537915513269336,0,-1,3,2,35,31,17,2
1537915513269336,0,-3,-7,-5,-28,-13,-20,7
1537915513291277,-1,-2,-1,10,-3,-38,12,4
1537915513291277,-6,-3,-5,-21,-38,13,13,-25
1537915513292275,1,6,12,34,57,34,2,-15
1537915513292275,-9,-3,0,1,20,16,7,-10
1537915513314216,5,-1,-1,-20,12,26,32,7
1537915513314216,-10,0,3,23,-17,-8,-14,-31
1537915513314216,-7,-4,-7,-19,-10,4,10,9
1537915513314216,0,-1,0,-4,31,-4,-54,-12
1537915513328179,-9,-5,-6,-30,-74,-19,-18,-26
1537915513328179,-4,-3,-3,-1,-21,-3,4,4
1537915513329176,8,1,3,12,-2,-16,40,38
1537915513329176,-1,1,5,19,18,45,-10,-8
1537915513351118,9,-2,-6,-15,25,-30,-15,18
1537915513351118,-2,-1,-1,14,-5,18,14,-12
1537915513352115,5,0,-1,-7,-6,-24,-18,3
1537915513352115,0,1,-1,23,18,-25,-6,7
1537915513374056,1,-6,-15,-49,-37,-7,-2,31
1537915513374056,-4,0,3,-4,-14,-4,-13,-9
1537915513374056,-1,0,-1,-9,10,1,0,1
1537915513374056,4,1,-2,0,-1,-24,-9,-2
1537915513388020,-7,2,3,18,-6,-30,11,-2
1537915513388020,3,-3,-5,-7,1,4,-27,-9
1537915513389018,-2,-1,0,-1,-20,-21,7,16
1537915513389018,-13,-1,2,10,25,0,2,-13
1537915513411957,2,0,-1,2,10,2,18,7
1537915513411957,-3,-3,-3,-15,-38,0,-12,-4
1537915513411957,10,2,6,18,35,36,19,6
1537915513411957,-8,-2,0,4,-33,-45,-8,-7
1537915513433897,12,1,-2,2,12,-6,-26,13
1537915513433897,-1,-7,-15,-32,-19,-3,83,-13
1537915513434908,-2,0,-2,-10,-6,3,-44,14
1537915513434908,5,0,-4,-20,-10,12,4,2
1537915513447859,-4,0,6,8,-7,-2,-8,0
1537915513447859,18,1,3,30,17,-9,-26,24
1537915513448857,-5,-2,-3,-9,4,3,7,-25
1537915513448857,-1,-2,-4,-11,-7,5,1,2
1537915513471794,7,1,1,8,6,-3,15,26
1537915513471794,-9,0,0,8,15,9,-23,-19
1537915513477779,-5,-3,-2,-5,-12,-8,-5,-17
1537915513477779,16,2,1,6,4,2,-10,10
1537915513485757,-8,-4,-1,11,23,-24,-10,-10
1537915513485757,-4,-1,-4,-29,-32,34,0,-4
1537915513486754,-1,-3,-4,-5,-10,-13,-3,-11
1537915513486754,-8,-3,3,-3,-6,1,8,-10
1537915513499720,-2,-1,-1,-2,3,4,9,-7
1537915513499720,1,2,2,9,8,-8,-10,5
1537915513507698,-1,-1,4,18,8,15,-4,-6
1537915513507698,3,0,-3,0,15,-19,9,38
1537915513522658,-8,-4,-8,-24,-40,-12,-25,-14
1537915513522658,-3,1,2,6,4,-4,22,3
1537915513530637,4,0,-3,-5,-18,-9,-22,-4
1537915513530637,-1,-2,-2,-5,-2,6,41,-5
1537915513545598,-3,0,2,0,6,8,-5,-2
1537915513545598,-1,0,1,7,-2,-14,-6,-6
1537915513546595,-5,-1,0,-3,4,1,1,-8
1537915513546595,-3,1,3,1,5,13,3,1
1537915513559560,2,0,-4,-3,3,-6,-9,-5
1537915513559560,0,0,1,9,-2,4,10,-3
1537915513567540,-1,0,3,14,12,-2,-15,6
1537915513567540,-1,-5,-6,-11,-2,-3,-6,-1
1537915513582499,4,-2,-5,-22,-23,-1,-1,-1
1537915513582499,1,0,1,-2,-2,-2,-9,-6
1537915513590478,4,-2,-2,-5,-10,-14,-2,11
1537915513590478,-2,2,3,7,-4,7,-15,-15
1537915513605438,-1,0,3,10,12,2,20,1
1537915513605438,-2,-4,-1,0,5,-5,-8,3
1537915513606435,2,-1,-1,-2,0,-2,18,13
1537915513606435,-3,-1,0,4,3,8,-2,-11
1537915513620397,-6,-2,0,0,3,3,4,-13
1537915513620397,1,-1,-1,-2,-1,-3,-5,7
1537915513627379,-3,-2,-3,-6,-2,0,0,-4
1537915513627379,3,0,-1,-3,-4,0,-5,3
1537915513642339,3,1,0,0,-3,3,4,9
1537915513642339,-4,-1,0,2,0,-7,-10,-5
1537915513650317,-3,0,-3,-4,1,3,9,-7
1537915513650317,-3,-1,-1,-4,-2,0,1,-2
1537915513666275,-2,4,1,3,0,1,7,1
1537915513666275,0,-1,0,0,5,1,-4,-1
1537915513666275,0,-7,-4,-5,-1,-3,1,-6
1537915513666275,-5,-2,0,1,-2,3,-1,-6
1537915513680237,-5,-2,2,2,1,1,-3,0
1537915513680237,-5,-1,0,-1,-2,-3,1,-3
1537915513687219,4,4,-1,-2,-1,0,-1,7
1537915513687219,2,-1,-1,1,-2,-2,-6,-16
1537915513702179,2,-2,-2,3,2,-1,7,7
1537915513702179,-3,0,-1,-1,-4,-2,7,7
1537915513711155,-1,-2,1,-2,-2,1,-1,-33
1537915513711155,2,-3,-2,-2,-4,1,0,17
1537915513726115,-5,-3,-1,-1,0,2,4,-19
1537915513726115,4,2,0,2,1,-1,-10,9
1537915513726115,-5,-1,-2,-1,-2,-2,4,0
1537915513726115,2,1,0,1,-3,-2,-1,-11
1537915513740078,-1,-1,-1,-2,-2,0,-3,-6
1537915513740078,-2,-3,-1,-3,-1,-1,-1,9
1537915513747060,-2,1,-1,-1,-1,0,-1,5
1537915513747060,2,0,0,-3,-1,1,14,11
1537915513763017,-1,-2,0,2,4,-3,-13,-8
1537915513763017,1,-3,-2,0,-1,-4,14,2
1537915513770996,1,0,-1,0,2,11,-7,4
1537915513770996,-3,-2,1,4,15,6,-6,-3
1537915513785955,0,-2,-2,-8,-24,-7,7,15
1537915513785955,-1,-1,0,2,1,-1,-5,-10
1537915513785955,-1,-3,-1,-1,-6,-7,7,0
1537915513785955,-2,-2,-2,-5,-5,-2,-5,-3
1537915513799920,2,1,1,2,11,6,-2,4
1537915513799920,-4,-1,2,0,5,7,-1,-9
1537915513807897,-4,-1,1,-1,-7,-8,3,3
1537915513807897,-1,1,-1,-2,0,-6,-4,-4
1537915513822857,-1,-2,0,0,3,14,-4,-4
1537915513822857,0,-1,-1,-1,-3,-1,-1,4
1537915513830836,0,0,-1,-1,3,7,0,-5
1537915513830836,-1,0,0,-1,-2,-4,-2,-1
1537915513845795,1,-1,-1,1,-5,-12,4,4
1537915513845795,1,-1,-1,0,-1,1,-4,-2
1537915513846794,-1,0,-3,1,5,1,-2,0
1537915513846794,2,-2,0,2,-3,-6,0,1
1537915513861753,-1,-2,0,1,3,-1,4,4
1537915513861753,-4,-2,-3,-6,-5,-1,-2,-6
1537915513867736,1,0,-1,-2,-3,-4,-3,-1
1537915513867736,-2,-1,-2,0,1,-1,2,4
1537915513882696,0,0,0,0,3,4,2,-3
1537915513882696,0,2,0,0,2,-3,-3,0
1537915513890675,-3,-1,-2,-2,-2,-1,-2,-1
1537915513890675,-2,-1,-1,-3,-5,1,3,-5
1537915513905635,-3,0,1,0,0,-1,2,-1
1537915513905635,2,-1,-1,0,-1,0,-2,0
1537915513906632,-1,-1,-2,0,0,-2,2,-1
1537915513906632,-3,-3,-2,-1,-1,0,-2,-1
1537915513919597,-3,0,-2,-4,-2,0,-1,1
1537915513919597,-2,-1,0,-2,-2,0,0,-1
1537915513927576,-1,-1,1,-1,1,-1,-1,-1
1537915513927576,-2,0,1,2,-2,1,-1,-2
1537915513942536,-1,-1,1,0,-2,-2,0,0
1537915513942536,-4,-1,-2,-1,-4,0,-3,-3
1537915513950515,0,-1,1,2,-1,-3,-2,0
1537915513950515,4,1,-2,-4,-6,4,-1,3
1537915513965475,1,0,-2,-1,1,-4,5,13
1537915513965475,-2,-1,0,1,4,0,-2,-9
1537915513966472,-4,-2,0,0,1,1,-1,-7
1537915513966472,-2,2,3,9,37,32,0,-10
1537915513980435,4,-1,1,15,47,0,-6,3
1537915513980435,-2,5,3,10,-41,-39,-5,-26
1537915513987417,-6,-2,-4,-14,29,64,-2,-9
1537915513987417,0,-4,-7,-21,-58,-1,6,-13
1537915514002377,-6,-3,-5,-18,-27,21,-22,-16
1537915514002377,4,1,0,-12,-9,4,13,14
1537915514010355,-1,-1,7,29,85,40,-14,14
1537915514010355,6,11,17,42,10,-55,15,-3
1537915514025315,-22,-2,2,5,-48,7,3,-26
1537915514025315,15,-2,-12,-20,-1,32,2,5
1537915514026312,-2,-12,-22,-57,-128,-90,-30,-24
1537915514026312,-11,2,9,12,37,124,33,3
1537915514040275,30,4,2,8,-87,-128,-38,20
1537915514040275,-15,-7,-10,-21,-83,69,23,-4
1537915514047256,-5,-1,5,26,106,5,-19,-8
1537915514047256,-5,-15,-27,-70,-128,-113,-32,2
1537915514062216,-5,-7,-7,-38,38,-75,6,-11
1537915514062216,-9,9,7,5,-55,54,9,5
1537915514071192,7,-2,0,7,-7,-45,-2,-4
1537915514071192,-8,9,15,47,26,6,-3,5
1537915514086152,15,-1,9,30,88,44,20,14
1537915514086152,0,-17,-13,-6,43,30,-18,8
1537915514086152,6,22,9,8,44,46,24,43
1537915514086152,6,10,8,35,127,51,-15,-23
1537915514108094,-27,-9,-17,-51,-109,-86,20,-23
1537915514108094,16,-5,-1,10,127,61,-12,24
1537915514109091,7,-5,1,1,44,-44,-18,29
1537915514109091,7,-10,-9,-26,18,60,31,18
1537915514122056,-13,5,-3,10,-8,19,-25,-17
1537915514122056,14,6,11,32,46,31,-20,4
1537915514131032,-5,-6,-6,9,-44,-128,17,1
1537915514131032,7,-4,6,17,113,73,-19,4
1537915514144995,4,11,6,19,68,-71,11,21
1537915514144995,-18,-8,-12,-41,6,46,-6,-14
1537915514152973,-10,-2,0,-20,-50,89,13,-24
1537915514152973,20,3,4,2,-70,-73,-17,16
1537915514159955,7,-3,1,19,32,38,-11,0
1537915514159955,-15,-2,-1,-18,-16,-78,-2,5
1537915514167934,19,9,10,26,73,127,4,2
1537915514167934,-13,-13,-13,-35,-128,-103,7,-7
1537915514182893,4,3,10,33,22,78,14,12
1537915514182893,-11,4,4,45,58,-59,-22,-32
1537915514190872,-11,-8,-13,-47,-51,12,10,-20
1537915514190872,-11,-6,-12,-30,-43,61,23,-3
1537915514204835,11,5,16,41,113,127,-8,4
1537915514204835,-4,3,0,14,-63,12,18,-22
1537915514212814,3,-5,-2,-8,22,-17,-2,2
1537915514212814,-2,4,9,24,89,27,-21,1
1537915514219795,-10,-18,-37,-101,-128,-72,-31,-9
1537915514219795,-7,-3,2,-17,90,7,13,-15
1537915514227774,1,4,7,43,-11,7,8,11
1537915514227774,7,2,2,-20,71,-1,-2,42
1537915514242734,-6,-1,1,11,-65,-49,7,-11
1537915514242734,10,3,6,15,-2,-53,-24,-4
1537915514250713,14,-2,1,22,13,-42,0,21
1537915514250713,10,-2,-1,10,44,87,-5,2
1537915514264675,1,-3,-7,-25,-55,-46,5,3
1537915514264675,0,1,-4,-17,-37,26,1,10
1537915514273651,-8,-1,0,-9,-70,-29,26,-1
1537915514273651,-22,2,3,30,75,93,-6,-43
1537915514279635,-5,-3,-8,-47,-19,-14,-2,9
1537915514279635,6,-4,2,5,-12,28,21,4
1537915514287614,-4,10,7,12,3,-15,3,-12
1537915514287614,-6,1,4,5,-34,-59,17,29
1537915514302574,2,2,4,35,30,72,25,2
1537915514302574,-9,-1,-4,-46,-49,-82,-18,-30
1537915514310552,2,3,9,23,43,23,4,2
1537915514310552,-4,-9,-14,-16,-122,-84,-3,-9
1537915514325513,-1,-4,-7,-47,-20,79,-5,5
1537915514325513,10,4,8,38,21,20,33,24
1537915514333491,13,-7,-15,-20,-54,-61,-9,28
1537915514333491,3,6,6,7,32,1,-18,-5
1537915514348451,-8,-4,1,19,-3,-45,-11,-12
1537915514348451,10,-1,-3,1,-41,-49,-1,7
1537915514348451,-3,-1,-3,-23,-7,-4,-7,-26
1537915514348451,4,-1,-1,6,-5,-54,7,54
1537915514370392,-9,0,2,-5,72,66,-7,-14
1537915514370392,-7,-2,0,-2,55,-10,6,4
1537915514379368,-28,-4,-2,-7,-39,1,12,-32
1537915514379368,8,1,3,32,3,-7,-8,-5
1537915514394328,-5,0,4,-4,38,89,23,-14
1537915514394328,-1,0,1,26,-78,-22,-21,3
1537915514395326,-8,-6,-7,-43,-14,-78,-5,-13
1537915514395326,-8,-5,-9,-27,-40,-2,1,-20
1537915514416270,6,5,10,31,22,3,5,14
1537915514416270,-6,-4,-4,-4,-15,-29,-29,-24
1537915514418264,6,-3,-1,17,33,43,4,2
1537915514418264,-9,-7,-11,-54,-56,-45,-11,-28
1537915514430232,7,1,1,15,-10,9,10,-3
1537915514430232,-5,6,6,8,26,-13,-39,-9
1537915514439209,13,5,7,34,18,38,3,75
1537915514439209,1,-2,-8,2,15,-36,3,-6
1537915514454169,-5,-3,-7,-28,-16,-38,-8,-19
1537915514454169,-6,-6,-2,-22,-4,4,0,-5
1537915514455166,-1,2,7,17,-18,-16,-5,-12
1537915514455166,-1,0,7,48,45,22,7,-5
1537915514476110,-2,-4,-4,-14,57,2,1,14
1537915514476110,-5,1,3,14,-20,-17,8,-13
1537915514478105,-2,-2,-13,-49,-61,-51,-10,3
1537915514478105,-6,-8,-8,-23,-9,11,-25,-22
1537915514491070,9,2,2,10,-51,-25,2,28
1537915514491070,4,1,0,-3,38,20,21,9
1537915514497054,-13,1,9,47,0,-13,-21,-56
1537915514497054,6,4,4,-1,50,0,25,40
1537915514514009,-3,-8,-14,-29,-29,-12,-15,-10
1537915514514009,5,-4,-4,-8,-2,12,12,37
1537915514515006,1,-2,0,-1,19,78,-5,-6
1537915514515006,-1,-3,-5,-38,-39,-73,-18,-13
1537915514535950,-5,3,10,42,-10,4,0,-26
1537915514535950,9,2,3,17,66,11,13,30
1537915514537945,-12,-8,-18,-50,-49,-29,-4,-3
1537915514537945,20,7,7,9,6,38,-2,11
1537915514550911,1,2,4,21,63,4,10,8
1537915514550911,-11,-4,-3,-23,-110,-28,-11,-23
1537915514557892,12,0,3,21,51,24,2,17
1537915514557892,-7,0,1,2,11,-12,8,-12
1537915514573848,5,3,5,21,-13,4,-9,-1
1537915514573848,1,-3,-4,-11,37,-17,6,-25
1537915514574846,-1,1,3,3,32,-5,3,-18
1537915514574846,-6,-4,-4,11,-7,1,-4,-2
1537915514596787,2,-1,-6,-25,-16,14,-13,-8
1537915514596787,-5,0,2,3,-1,1,-7,-15
1537915514597785,3,1,2,5,18,28,-3,25
1537915514597785,-4,0,0,16,-20,12,0,-7
1537915514609753,-3,0,-1,-14,24,14,-4,-4
1537915514609753,-2,-2,-7,-16,-17,54,5,-1
1537915514618729,-2,-4,-7,-16,-56,-18,-6,-5
1537915514618729,-3,2,3,4,6,3,8,7
1537915514633689,2,0,0,4,13,3,0,14
1537915514633689,2,1,2,7,15,-17,17,18
1537915514635684,-1,-2,-1,8,18,17,-5,1
1537915514635684,-7,-3,0,-3,-11,19,-17,-18
1537915514656627,0,2,1,12,7,-5,-17,-9
1537915514656627,6,0,-1,4,2,-11,11,4
1537915514657625,-13,2,8,-4,-2,-3,47,-3
1537915514657625,13,7,-12,-10,-12,-5,14,8
1537915514669592,6,-7,0,4,-13,-28,-37,5
1537915514669592,-1,1,17,6,1,6,38,8
1537915514678569,10,18,22,-9,1,-8,-98,-10
1537915514678569,-14,-33,-29,-18,-19,1,60,-3
1537915514693529,46,45,-6,2,-1,-17,-21,2
1537915514693529,-19,14,-13,3,4,16,38,0
1537915514695524,5,-51,-16,-10,3,9,45,12
1537915514695524,0,-10,-2,-12,-10,5,-41,-16
1537915514716468,-9,16,17,17,2,18,4,2
1537915514716468,-8,-21,-7,-15,-3,-20,-76,-11
1537915514717465,5,21,-12,-11,-6,-9,21,-7
1537915514717465,6,9,-9,-7,-12,-29,11,-3
1537915514730431,-12,-8,0,3,2,16,9,25
1537915514730431,25,7,10,5,7,13,13,-5
1537915514739408,-27,-42,-9,10,8,1,-36,-17
1537915514739408,-7,31,30,3,-6,3,13,-6
1537915514754367,6,2,-10,5,2,-12,-46,28
1537915514754367,7,-13,-13,-3,-4,-11,17,19
1537915514755366,-7,6,-4,3,9,27,2,-9
1537915514755366,-4,-2,5,2,-4,-13,-24,-1
1537915514776310,-17,-10,15,2,-3,-24,14,-23
1537915514776310,-3,2,-6,1,0,-3,53,16
1537915514778304,19,16,-4,-12,-4,8,11,17
1537915514778304,-3,-27,4,-1,-4,23,-11,-4
1537915514790271,-19,9,0,2,5,5,5,-18
1537915514790271,5,-14,-13,-6,-2,-11,-42,20
1537915514799247,6,20,12,-2,-8,-13,-15,-27
1537915514799247,0,10,7,8,6,-4,3,21
1537915514814207,-12,-22,-10,-7,-14,-15,11,-7
1537915514814207,-8,5,7,5,5,1,4,5
1537915514815205,-16,-1,2,2,1,16,10,-19
1537915514815205,12,-1,-7,-1,-4,3,-16,-24
1537915514836149,18,15,-2,-3,4,3,-8,44
1537915514836149,-13,-1,7,5,0,-18,-32,-40
1537915514838144,-1,-9,-7,0,3,-14,47,10
1537915514838144,-16,-4,0,5,12,49,-7,-6
1537915514850112,2,-9,-5,-8,-15,-21,12,-17
1537915514850112,6,2,-2,-8,-23,-29,-67,-24
1537915514859089,2,4,-2,-1,-1,0,29,18
1537915514859089,2,2,2,4,6,-2,-15,-19
1537915514874047,-8,0,3,3,10,30,53,-10
1537915514874047,1,-7,-2,0,5,8,8,29
1537915514880031,26,0,-6,-3,-5,-19,-18,25
1537915514880031,-4,12,2,-2,-8,-7,45,8
1537915514895988,-2,-1,0,0,2,16,-12,-11
1537915514895988,3,-14,1,0,1,-24,-63,62
1537915514897983,-18,7,0,3,4,22,70,-2
1537915514897983,5,1,2,3,-3,-23,-29,-22
1537915514909950,9,-15,3,-5,-4,-1,7,11
1537915514909950,-20,8,-15,-14,-7,1,-6,-46
1537915514918926,-21,5,1,2,-2,1,-41,-35
1537915514918926,-5,-8,-5,-1,-5,1,2,-1
1537915514932889,27,-2,-4,-8,-2,-15,27,23
1537915514932889,-6,17,13,8,9,12,16,-3
1537915514939870,-17,-13,-4,-6,-1,9,-13,-8
1537915514939870,5,-3,-3,1,-3,-10,5,-7
1537915514956825,-11,-15,-22,-1,0,-15,-35,-3
1537915514956825,11,0,4,3,5,17,48,-36
1537915514957823,12,0,29,6,4,9,-28,32
1537915514957823,5,5,-3,-16,-11,-21,-10,5
1537915514978768,-6,-14,-23,-6,-12,-31,24,-8
1537915514978768,-13,-6,0,8,3,-3,-11,13
1537915514980763,16,15,3,3,12,-22,-6,6
1537915514980763,-11,-5,4,7,11,52,-23,-16
1537915514993728,-5,-6,7,0,-8,-4,10,-3
1537915514993728,-2,-2,-11,-14,-24,-42,55,-11
1537915514999711,0,-4,0,-4,-11,39,-87,-9
1537915514999711,-1,-7,3,-2,10,48,100,44
1537915515016665,1,2,7,13,41,20,11,4
1537915515016665,15,7,2,6,-8,-7,-8,4
1537915515017663,-7,-9,-8,-4,-8,-48,-18,6
1537915515017663,6,-1,-6,-6,-4,-47,-7,20
1537915515029630,-8,6,4,-6,-6,-18,15,-24
1537915515029630,-4,-4,0,-1,3,-1,-42,-5
1537915515044590,-7,-4,-3,-2,-8,43,29,-37
1537915515044590,1,-20,4,-3,-13,-39,-10,33
1537915515053567,-15,-7,-8,6,15,60,16,-15
1537915515053567,5,1,3,-1,7,10,-34,1
1537915515059551,1,-2,-13,-4,-6,-14,19,0
1537915515059551,1,-5,-3,1,-3,-31,-42,-10
1537915515076505,2,20,8,-4,-10,8,-15,-2
1537915515076505,-12,-21,-3,3,-1,-6,42,11
1537915515077502,3,12,0,5,10,29,4,-55
1537915515077502,-5,-3,3,0,-1,-15,-26,-11
1537915515098447,33,-1,-5,-6,-13,-26,16,18
1537915515098447,1,14,8,1,5,37,42,34
1537915515100441,-6,-17,-6,-4,-3,-44,6,13
1537915515100441,-11,2,-5,-2,-1,19,-6,-17
1537915515113406,-1,1,5,2,-5,5,-15,-10
1537915515113406,3,2,1,3,22,19,-9,-11
1537915515120388,5,-4,-3,-1,-2,2,-5,16
1537915515120388,1,6,-6,-9,-35,-33,4,7
1537915515136345,-12,1,7,-1,-2,21,-22,5
1537915515136345,12,-1,-4,-4,-8,-15,1,8
1537915515137342,-8,-2,-1,6,22,-7,-44,-50
1537915515137342,3,8,-2,-3,-11,5,10,-23
1537915515159283,-4,-4,2,-7,-6,-34,-9,7
1537915515159283,7,16,28,8,-3,32,19,31
1537915515160281,-3,-33,-28,-6,-4,-12,4,-12
1537915515160281,-27,-6,-23,-3,14,27,-4,-28
1537915515173246,5,45,15,4,4,-18,-35,10
1537915515173246,-7,-2,-24,2,4,9,25,-25
1537915515180227,23,-35,-20,-15,-9,-47,-22,15
1537915515180227,-1,-2,9,2,0,0,-18,4
1537915515196185,-2,-11,-12,-3,-4,3,93,-4
1537915515196185,0,8,2,0,7,19,-29,-8
1537915515198180,2,19,11,3,-5,15,35,34
1537915515198180,-2,-7,-7,0,2,-22,-12,-34
1537915515219125,-8,-11,10,21,71,-13,-72,-44
1537915515219125,15,0,2,2,-3,80,24,20
1537915515220122,-11,-5,-10,-35,-80,-85,-35,10
1537915515220122,2,8,5,-4,0,15,-40,11
1537915515233088,-12,-8,11,14,9,90,-12,0
1537915515233088,2,-8,-6,6,40,-51,-22,-29
1537915515240069,-2,15,7,10,26,1,1,12
1537915515240069,2,3,2,-6,-22,-43,1,14
1537915515256026,-4,-10,-8,-5,-16,-77,-10,-31
1537915515256026,-21,-10,-6,-5,4,28,33,-26
1537915515258020,-3,14,9,4,2,1,25,-11
1537915515258020,9,3,4,6,16,8,-12,12
1537915515278964,-3,-14,-7,-2,0,27,0,3
1537915515278964,-8,5,11,-1,-2,-30,8,-17
1537915515279961,-3,-2,-15,-9,-29,-1,7,-1
1537915515279961,-5,-1,5,7,10,15,26,-14
1537915515292926,-1,-9,-14,-8,-13,11,11,25
1537915515292926,2,4,1,-8,-23,-21,-48,-38
1537915515299907,6,5,7,13,20,-9,-22,67
1537915515299907,-2,-20,-3,-1,3,33,26,0
1537915515315865,-6,2,0,-7,-18,-35,2,2
1537915515315865,-4,-4,-3,2,18,16,19,1
1537915515323844,-5,4,2,2,15,41,14,-23
1537915515323844,4,-4,-8,-9,-22,-59,-30,-1
1537915515338804,-2,-6,-1,-6,-15,0,3,14
1537915515338804,0,-5,-3,-5,-3,29,22,18
1537915515339801,-1,4,6,10,25,34,-10,-15
1537915515339801,7,15,3,4,11,9,37,21
1537915515352766,-2,-9,1,-5,-21,12,-36,-10
1537915515352766,0,-3,-7,0,4,-28,-24,1
1537915515361743,2,0,5,0,-10,-6,-13,-9
1537915515361743,5,6,1,5,9,6,35,25
1537915515376703,0,2,-3,-4,1,-10,32,-11
1537915515376703,-1,-9,-4,-2,0,5,14,1
1537915515377700,-3,1,2,-1,-18,-20,-30,-3
1537915515377700,2,3,2,-1,-9,-66,-11,3
1537915515398644,-1,0,1,-1,4,75,-22,-10
1537915515398644,0,-3,-4,-2,-4,-13,-4,6
1537915515400639,-4,3,3,2,15,11,41,-7
1537915515400639,-4,0,-2,3,14,10,-41,-6
1537915515412607,-1,-2,-4,-5,-4,-26,39,9
1537915515412607,6,1,-3,-3,-14,12,-26,11
1537915515421583,-2,4,4,5,21,-4,4,-16
1537915515421583,4,-1,-1,-5,-27,15,11,19
1537915515436543,-6,-3,-4,-2,-10,-12,7,3
1537915515436543,-7,-3,0,0,3,-22,-14,-3
1537915515437540,2,0,1,1,1,-5,8,0
1537915515437540,1,0,1,1,16,45,4,-18
1537915515458483,-3,-2,0,1,-2,-42,-31,-4
1537915515458483,7,0,-4,-4,-3,-2,20,-1
1537915515460479,4,-1,3,9,53,40,21,22
1537915515460479,-6,-3,-5,-21,-83,-44,5,-18
1537915515472446,2,0,2,0,-3,-18,-29,2
1537915515472446,-8,-5,-3,-3,-12,24,-49,-22
1537915515481422,0,-1,0,-3,1,6,19,39
1537915515481422,1,0,4,7,34,15,16,-5
1537915515496382,-5,-3,-1,1,-3,-20,-4,-3
1537915515496382,1,-1,-2,-5,-12,-25,2,-1
1537915515497380,2,-1,-3,-4,-12,7,11,12
1537915515497380,-6,2,0,2,16,-7,-17,-33
1537915515519321,1,4,1,3,12,5,-19,33
1537915515519321,-7,-1,1,2,-16,3,29,8
1537915515520319,-2,2,0,0,-11,-10,-17,-24
1537915515520319,1,0,-1,-3,-6,21,-13,-20
1537915515532286,5,-2,-1,-1,5,-4,7,-10
1537915515532286,0,1,-1,-1,3,-18,-4,-1
1537915515541262,-3,-2,-2,0,-2,18,24,-7
1537915515541262,2,0,0,-1,-2,-2,5,25
1537915515556223,0,2,2,2,9,37,8,-6
1537915515556223,0,-1,-1,1,-2,-18,-14,-3
1537915515558217,-5,-2,-4,-4,-11,-7,18,-6
1537915515558217,-1,0,-1,2,22,-14,-46,-23
1537915515579161,-1,-3,-2,-3,-3,39,18,-6
1537915515579161,-1,1,3,2,-1,-27,10,3
1537915515580158,-1,-1,1,-2,0,23,-10,-4
1537915515580158,-2,0,0,6,18,22,6,31
1537915515601103,-1,-4,-5,-9,-30,-16,-27,-20
1537915515601103,-4,-1,-1,1,9,3,24,-2
1537915515603097,-1,-1,-2,-4,1,-23,-9,-10
1537915515603097,3,1,0,1,11,19,-7,35
1537915515616062,3,2,0,-4,-17,-14,17,19
1537915515616062,-10,-3,-3,0,5,-40,27,-3
1537915515618057,17,0,-3,-6,-14,21,6,33
1537915515618057,3,-2,0,-1,7,8,13,-10
1537915515639001,-4,-1,0,1,4,-29,-17,-20
1537915515639001,-1,0,-2,-2,-3,18,-22,-3
1537915515639999,-7,-3,-1,3,7,-21,-19,-14
1537915515639999,-8,0,1,1,-3,-1,0,-10
1537915515652964,6,-2,-3,-4,1,24,9,20
1537915515652964,6,0,-2,-3,-6,3,32,-3
1537915515660943,-2,0,0,1,-2,-6,-14,-5
1537915515660943,-5,-1,-1,0,-3,-10,-39,-20
1537915515675902,-5,0,0,0,-2,-14,64,6
1537915515675902,1,-2,-1,-1,6,6,-8,14
1537915515677897,-6,-2,-1,0,-7,8,-9,-24
1537915515677897,5,-3,-3,-3,-3,-9,-3,8
1537915515698841,-5,0,-1,1,5,-8,9,-45
1537915515698841,2,-1,-1,-1,1,-3,-15,-3
1537915515699838,0,0,1,2,6,-94,11,-7
1537915515699838,0,-3,-5,-10,-25,103,-17,-7
1537915515712804,-7,-2,-2,-3,-7,22,5,-12
1537915515712804,2,2,1,-2,-8,-2,-12,-10
1537915515721780,-4,-1,0,2,0,3,1,4
1537915515721780,0,0,2,4,13,-40,37,9
1537915515736740,-4,0,-2,0,9,14,-30,5
1537915515736740,-6,-1,-2,2,11,-16,4,-27
1537915515737737,5,-2,-3,-10,-20,37,11,48
1537915515737737,1,-1,2,3,16,-31,13,-2
1537915515758681,2,0,2,0,-15,0,-17,-2
1537915515758681,-7,-4,-1,-1,5,44,-38,-12
1537915515760676,5,3,3,3,-3,-15,-19,-19
1537915515760676,0,-1,-1,-1,-4,31,42,1
1537915515772644,3,-2,-1,-1,-7,-44,11,23
1537915515772644,1,-2,-2,-3,-2,-21,-5,-6
1537915515781620,-6,-1,-1,4,13,1,-7,-1
1537915515781620,1,-4,-4,-10,-31,-9,8,17
1537915515796580,-1,2,3,4,19,-4,24,3
1537915515796580,-2,-2,-1,-3,-18,7,-35,-27
1537915515797577,-5,0,-1,-1,-1,2,15,-27
1537915515797577,0,2,-1,3,10,-38,-7,10
1537915515818522,1,-2,-3,-4,-17,0,4,11
1537915515818522,-1,2,3,2,8,33,-18,1
1537915515820516,4,-1,-2,-1,-1,-8,-1,5
1537915515820516,-2,3,1,5,38,47,-17,-12
1537915515832484,1,-2,-1,-6,-40,-45,-1,-9
1537915515832484,-6,-2,-3,-1,-4,-24,-14,4
1537915515841460,-3,-3,-1,-3,-5,16,2,7
1537915515841460,-4,0,1,0,0,0,21,-8
1537915515856420,-1,2,2,6,34,10,-20,-2
1537915515856420,4,-1,1,-2,-4,-17,33,10
1537915515857417,-3,-2,0,-1,-12,18,13,-8
1537915515857417,7,-2,-3,-5,-13,-19,-35,14
1537915515878362,-3,-2,-1,3,17,-29,-23,-4
1537915515878362,4,0,1,-3,-19,20,36,18
1537915515880356,-3,-2,-2,-2,2,17,-15,5
1537915515880356,-1,-2,0,-1,-7,-13,-30,8
1537915515892324,1,0,0,1,2,21,52,7
1537915515892324,3,1,-1,1,15,-13,-7,20
1537915515901300,-1,-2,-4,-6,-19,-38,-6,-4
1537915515901300,-5,0,1,5,8,51,15,-13
1537915515924238,-6,-3,-3,-5,-12,-27,-33,-10
1537915515924238,-3,-1,-1,0,6,-30,8,-8
1537915515925236,1,2,1,-1,-4,58,-6,3
1537915515925236,0,-3,-2,-1,0,-18,-32,-3
1537915515939199,-2,0,-1,-1,3,27,28,-21
1537915515939199,-12,0,0,0,4,-23,-16,-34
1537915515940196,6,0,1,1,13,-29,-28,-13
1537915515940196,2,-1,-1,-2,-14,12,90,33
1537915515952164,3,-2,-3,0,5,30,-7,12
1537915515952164,4,-1,-2,-2,-8,2,-9,10
1537915515961140,-3,0,0,3,16,-7,-9,-1
1537915515961140,1,-1,0,-2,-8,-2,-27,-18
1537915515976100,-2,-1,1,-1,0,1,-15,-7
1537915515976100,2,-1,-1,-2,-5,4,47,22
1537915515978095,-4,0,-1,0,1,-29,-13,-3
1537915515978095,1,1,0,5,14,42,7,1
1537915515999039,0,-1,-2,-6,-25,-27,-26,15
1537915515999039,-5,-4,0,1,6,7,10,2
1537915516000036,3,-1,-2,-6,-15,11,-18,-7
1537915516000036,-6,-2,-1,-1,-5,-28,-13,-17
1537915516020980,2,1,2,7,29,19,-3,-2
1537915516020980,4,-1,-2,-3,-23,-8,7,11
1537915516022975,-9,-2,0,1,5,20,21,-8
1537915516022975,0,0,0,-2,-2,-42,-12,-13
1537915516035940,3,-1,-1,0,8,46,0,21
1537915516035940,-3,-3,-1,-2,-1,-3,-6,-6
1537915516037935,2,0,2,0,-2,6,-2,3
1537915516037935,-1,0,-1,-1,-1,-25,-12,-2
1537915516058879,-5,-2,-1,-1,0,4,14,-4
1537915516058879,-2,0,-1,-2,0,-3,-31,-27
1537915516059876,-5,0,-1,1,0,2,1,12
1537915516059876,2,-2,-3,-7,-15,-3,32,7
1537915516081817,1,0,1,1,3,-6,4,-19
1537915516081817,-1,2,0,3,3,-16,-29,4
1537915516082815,-6,-1,1,2,14,34,-17,-13
1537915516082815,-1,-1,-1,-4,-25,-52,47,-11
1537915516096777,0,0,-3,-2,1,26,-4,12
1537915516096777,0,-3,-3,-6,-12,-18,3,13
1537915516097775,-3,-4,-2,-1,7,-14,-17,-13
1537915516097775,-1,-1,-1,1,-5,13,-36,-1
1537915516118719,-5,-3,-3,-5,-16,-26,27,-1
1537915516118719,1,3,1,3,4,21,20,25
1537915516120713,7,-1,-3,-3,-11,-25,20,3
1537915516120713,1,0,-1,-2,2,22,3,9
1537915516141657,-7,1,0,0,0,-18,-60,-3
1537915516141657,-3,-1,1,1,14,40,25,8
1537915516142655,-2,-2,-2,0,-6,-6,15,10
1537915516142655,-1,-1,-1,-1,7,-17,-15,-14
1537915516155620,2,1,1,2,2,23,12,-2
1537915516155620,1,1,0,-1,1,-15,-26,-4
1537915516162602,-3,-3,-2,-3,-8,-23,7,5
1537915516162602,-4,-1,0,1,8,42,-10,-7
1537915516178559,-3,-1,-3,-3,0,-46,10,-4
1537915516178559,-5,-1,-1,1,2,38,-18,-22
1537915516180553,3,0,-2,-1,-2,34,7,5
1537915516180553,5,-2,-3,0,4,-12,-9,15
1537915516201497,-3,-3,-1,0,4,-26,-21,-9
1537915516201497,6,2,0,1,-1,33,58,12
1537915516202495,2,0,-2,-2,-2,-47,-39,1
1537915516202495,-6,-1,-1,1,12,6,43,-21
1537915516215460,-1,0,-2,-3,-25,8,-21,-9
1537915516215460,-2,-5,-4,-3,-3,-27,-26,26
1537915516222441,-4,0,1,2,8,8,24,-9
1537915516222441,-1,-1,2,0,-9,3,-6,6
1537915516238399,2,1,1,2,14,9,-25,-15
1537915516238399,0,0,-2,-2,17,-11,2,22
1537915516240394,2,0,0,-3,-29,-32,-28,-14
1537915516240394,-4,0,0,1,5,14,18,10
1537915516261338,-3,-5,-1,-2,-2,2,-9,-2
1537915516261338,7,-3,-3,-4,-3,7,-13,22
1537915516262335,-7,-1,-2,-2,9,10,35,-6
1537915516262335,2,0,-3,-2,-4,-16,-14,21
1537915516275300,-1,0,0,1,-3,11,34,3
1537915516275300,0,-1,1,3,4,3,-17,-13
1537915516282281,0,-3,0,0,-5,-3,31,19
1537915516282281,-4,-2,0,-2,2,32,-33,-7
1537915516299236,1,-1,-1,-2,-1,-38,-11,-15
1537915516299236,-4,0,-1,-2,3,-10,-18,-3
1537915516300233,-3,0,-2,-2,-15,26,4,-19
1537915516300233,3,-2,1,4,10,5,8,1
1537915516321178,1,-3,-5,-6,6,-4,30,3
1537915516321178,3,3,2,-5,-29,-48,-41,-15
1537915516323173,-2,-2,-1,-2,1,20,-32,3
1537915516323173,-2,-2,0,-3,2,-22,51,-14
1537915516336138,-4,1,2,4,14,35,9,-1
1537915516336138,1,-2,-2,1,-1,-9,-6,0
1537915516342121,5,0,0,0,4,-2,26,41
1537915516342121,-1,-1,-2,-2,0,-19,-44,-17
1537915516359076,4,-1,0,0,-2,8,20,31
1537915516359076,-3,-2,-3,-1,-4,-3,12,-20
1537915516360074,-1,-2,-2,-2,4,-8,-10,4
1537915516360074,-4,-1,-1,-2,-7,-1,-23,-3
1537915516381018,-4,-1,-1,-1,-1,-15,-8,-10
1537915516381018,4,0,0,1,2,46,9,-2
1537915516383012,-1,-1,-3,-2,-11,-6,-1,-11
1537915516383012,-2,1,0,-1,-6,-14,-11,-9
1537915516395978,0,-1,-1,0,3,20,11,-2
1537915516395978,0,-2,-2,-4,-4,-24,14,12
1537915516402959,-4,-1,2,1,2,0,-46,-20
1537915516402959,-2,-3,-3,-5,-18,-2,25,2
1537915516418916,2,0,0,5,5,-19,-7,10
1537915516418916,-2,-2,0,-3,-4,4,-24,-2
1537915516419914,1,-1,-1,-1,4,15,3,1
1537915516419914,-4,-2,-3,-3,3,0,-5,0
1537915516440858,5,0,1,3,1,-11,-9,5
1537915516440858,-3,-2,0,-2,-3,-3,-4,-17
1537915516442852,2,0,-1,-1,2,4,31,5
1537915516442852,0,1,0,1,2,1,-5,1
1537915516455817,-3,-2,-3,-5,-4,-9,6,-10
1537915516455817,-5,-1,-2,0,5,23,1,-8
1537915516462799,1,1,0,0,-2,11,8,0
1537915516462799,4,-2,-2,-2,3,-18,-23,16
1537915516478757,1,1,2,1,0,5,19,1
1537915516478757,-1,-1,0,3,0,2,14,-5
1537915516480751,10,-2,-4,-2,13,-12,8,9
1537915516480751,2,-2,0,-1,2,3,-17,-15
1537915516501696,-5,-2,-1,-5,-9,4,4,-5
1537915516501696,-2,1,2,1,1,-13,-9,-3
1537915516502693,-3,-1,2,1,3,14,-1,-2
1537915516502693,0,-1,-1,2,12,-34,10,10
1537915516514661,1,-1,-3,-4,-6,68,4,7
1537915516514661,0,0,1,2,2,-51,-18,-10
1537915516523637,-3,0,0,1,2,-4,-23,-20
1537915516523637,0,-1,0,-1,-1,4,6,7
1537915516539594,-5,-1,-1,-2,-5,-23,2,-8
1537915516539594,1,-3,-3,-3,-2,6,8,4
1537915516544580,-1,1,-2,-3,-2,3,-4,-1
1537915516544580,-1,2,-1,-1,-6,0,13,4
1537915516561535,-4,-2,-4,-3,-5,-5,-8,3
1537915516561535,1,-1,0,-1,1,4,3,-2
1537915516562532,-2,-1,0,1,-3,3,34,12
1537915516562532,-5,-1,0,2,4,11,1,-10
1537915516574500,8,0,0,2,6,-18,-5,14
1537915516574500,-3,-2,-3,-3,-4,24,-4,3
1537915516583476,1,-3,-2,0,5,-5,-33,-21
1537915516583476,0,-2,-1,-2,-13,11,2,8
1537915516598436,-2,0,0,-1,1,-26,-2,9
1537915516598436,-5,0,-1,1,6,19,-14,13
1537915516600431,4,-3,-1,-2,-9,-8,0,1
1537915516600431,-3,-2,-2,1,7,9,11,2
1537915516621375,0,-3,-4,-5,-16,4,-10,-1
1537915516621375,-4,0,-1,2,0,-40,-54,-16
1537915516622372,-9,0,0,-2,-3,4,55,-8
1537915516622372,3,3,1,0,-2,-9,30,1
1537915516635338,-1,-2,-1,-1,0,8,-7,10
1537915516635338,-1,-3,-2,-2,-1,24,15,-4
1537915516644314,-3,0,1,0,-3,-18,-12,-5
1537915516644314,-2,-3,-1,-1,-3,7,-15,-7
1537915516659273,0,0,3,3,0,-35,3,-2
1537915516659273,1,0,-2,-4,-4,14,7,2
1537915516660271,3,1,1,2,2,-3,-25,3
1537915516660271,-3,-1,-3,-1,0,9,18,3
1537915516681215,-5,-2,0,-2,-2,5,-4,-21
1537915516681215,3,0,1,2,6,16,0,2
1537915516683210,-1,0,0,-1,-6,-17,0,0
1537915516683210,1,-1,-2,0,-3,-12,-20,0
1537915516695178,-2,-1,-1,0,3,-3,-5,-2
1537915516695178,-4,0,-2,-3,-9,-7,43,0
1537915516704154,-6,-2,-2,-4,-15,-4,-33,-10
1537915516704154,-7,0,0,0,4,0,19,-12
1537915516719114,6,0,-1,-4,-7,-10,1,-14
1537915516719114,2,0,1,-1,5,30,7,-9
1537915516720111,2,2,0,3,8,-3,6,9
1537915516720111,-5,-3,1,0,3,0,-9,-12
1537915516741055,-9,-4,-5,-3,-10,-24,-44,-11
1537915516741055,1,1,0,1,1,8,43,-14
1537915516743050,5,-1,-3,-1,-3,6,1,34
1537915516743050,0,-1,0,-1,0,12,-2,-16
1537915516755018,-1,2,2,1,0,-26,-32,-21
1537915516755018,1,-3,-3,-4,0,26,3,5
1537915516763994,-3,-1,-1,1,-4,3,-3,-17
1537915516763994,7,-1,-4,-5,7,8,-3,28
1537915516778954,-6,-4,-5,-4,-7,16,16,4
1537915516778954,-1,2,2,1,-1,-49,-42,-7
1537915516779951,-5,-4,-3,-2,-2,13,41,-1
1537915516779951,0,1,0,-2,-3,-5,-17,3
1537915516800895,6,3,0,2,-1,26,3,1
1537915516800895,-2,-2,-1,-2,1,-31,-12,-1
1537915516802890,-2,-3,-1,0,7,7,-12,-8
1537915516802890,2,2,2,-1,-2,-1,13,8
1537915516814858,-3,-1,1,0,7,15,5,5
1537915516814858,2,-2,-1,2,0,-23,4,-6
1537915516823834,-9,-1,-2,-5,-4,15,-24,-17
1537915516823834,3,-1,1,-1,0,9,-3,-2
1537915516838794,2,1,-1,0,2,-6,6,10
1537915516838794,-3,-1,-1,0,-3,-41,-11,10
1537915516839792,-1,-2,-2,-3,1,34,0,3
1537915516839792,-2,-1,0,-1,-14,-19,12,-9
1537915516861733,1,-1,0,-1,19,36,6,3
1537915516861733,-3,-4,-3,-1,-2,-2,-5,-4
1537915516862730,0,0,0,-1,-12,-51,-7,11
1537915516862730,-2,2,-1,2,-1,41,-11,-7
1537915516874698,1,-3,-1,0,4,-24,-3,-1
1537915516874698,-1,1,-2,-2,2,37,2,-1
1537915516883674,0,-2,0,1,5,3,-9,-2
1537915516883674,2,-4,-1,-2,-1,-30,-30,5
1537915516898634,-4,0,1,2,3,7,13,-10
1537915516898634,0,1,-1,0,1,1,14,11
1537915516900629,0,0,-2,-2,-4,-10,3,3
1537915516900629,2,0,-1,0,-3,-2,-3,-4
1537915516921573,-2,2,-1,1,1,11,7,-5
1537915516921573,-2,-3,0,-2,-9,-16,-6,8
1537915516922570,-4,0,2,3,5,-10,2,-26
1537915516922570,-1,-2,-2,-3,-4,21,27,0
1537915516943514,-4,0,-1,0,-6,-5,11,1
1537915516943514,1,-4,-3,-2,-4,8,15,6
1537915516945509,3,1,2,2,13,-6,3,6
1537915516945509,-5,-1,0,-2,-10,-12,-9,-3
1537915516958474,2,-2,-2,-4,-13,4,-13,-3
1537915516958474,-2,1,0,-2,-3,-20,7,1
1537915516960469,0,-2,-2,-5,-3,17,5,0
1537915516960469,-1,0,0,3,8,-15,-19,-6
1537915516988394,3,-4,-2,-2,4,10,17,8
1537915516988394,2,0,1,2,-6,-26,-16,0
1537915516990389,1,-2,-4,-4,-16,-23,12,5
1537915516990389,2,-1,-3,-2,-1,17,10,3
1537915517003354,-6,-2,1,-2,-4,3,-21,-17
1537915517003354,3,-1,2,4,15,20,23,4
1537915517005349,-4,-2,-2,1,1,-9,-16,6
1537915517005349,2,-2,-1,0,-5,-13,9,3
1537915517019311,-1,-2,-3,-3,-1,7,-18,-19
1537915517019311,1,3,2,2,0,-2,11,7
1537915517020309,1,-2,0,1,2,5,-6,13
1537915517020309,-10,-4,-3,-3,3,-4,-13,-7
1537915517041252,3,0,1,2,1,-13,-11,11
1537915517041252,1,-2,-2,-1,-5,-13,12,-4
1537915517043247,-2,1,-3,-2,-2,53,6,-13
1537915517043247,-1,0,-1,1,0,-29,-17,-1
1537915517064192,-6,0,-2,-1,7,24,47,1
1537915517064192,-1,-2,-3,-4,-10,-25,-18,-3
1537915517065189,6,1,2,1,4,0,0,3
1537915517065189,-1,-1,2,1,2,10,22,2
1537915517078154,-1,0,-3,-3,-2,-16,-12,16
1537915517078154,1,-3,-2,-2,3,18,-12,34
1537915517085136,-4,-2,-1,-2,-1,-9,19,-18
1537915517085136,4,1,1,-1,0,3,-13,-14
1537915517101093,-1,1,-1,1,-2,-13,5,8
1537915517101093,-5,-2,-1,0,0,6,-32,18
1537915517103087,-1,-1,-2,-2,-1,-6,1,-23
1537915517103087,2,1,-1,-2,-5,-20,17,23
1537915517124031,1,0,1,0,3,30,-8,-6
1537915517124031,-5,-1,-2,-6,-4,-9,-17,-14
1537915517125029,7,-1,0,2,9,20,8,14
1537915517125029,-4,0,-1,0,9,12,-25,-15
1537915517137994,-4,0,0,0,-15,-47,12,9
1537915517137994,3,-1,1,-1,-1,19,19,-7
1537915517144975,-3,-2,0,2,11,1,-3,6
1537915517144975,-2,-3,-1,-2,-8,6,4,-8
1537915517160933,1,-2,0,1,13,23,-14,13
1537915517160933,-4,1,-2,-1,-8,-3,7,-27
1537915517162927,1,3,0,1,3,-13,5,4
1537915517162927,6,0,-2,-1,8,-9,-20,24
1537915517182874,0,-2,-3,0,-1,27,4,-10
1537915517182874,-2,-1,-1,-1,1,11,15,-15
1537915517183871,-3,-1,-3,-3,-1,-13,-13,-2
1537915517183871,-10,-4,-2,-2,-14,-5,15,-1
1537915517197834,-5,-1,-1,-5,-13,-15,-9,6
1537915517197834,7,1,0,2,5,9,0,-6
1537915517205813,4,0,0,2,0,-23,30,9
1537915517205813,-3,1,2,4,14,51,-55,-14
1537915517220773,1,-2,0,0,1,-16,3,-9
1537915517220773,-3,-1,-2,-4,-11,13,41,-3
1537915517221770,-2,-2,-2,-2,0,-28,14,4
1537915517221770,3,1,0,1,-6,-7,-15,-7
1537915517242714,2,-2,-1,-3,3,6,8,-6
1537915517242714,-4,-3,-2,-2,1,-10,-23,1
1537915517243712,-7,-2,-1,-2,-1,9,11,-6
1537915517243712,3,-2,1,1,1,-23,-6,-5
1537915517266650,-2,-2,-3,-2,-1,16,27,-26
1537915517266650,3,0,1,4,20,6,-19,11
1537915517266650,3,-1,-4,-7,-35,-16,22,33
1537915517266650,-1,-1,1,-2,-4,-7,-14,-6
1537915517280613,3,-2,-2,-2,-10,-13,-15,-8
1537915517280613,-6,-5,-2,-1,7,0,-2,-4
1537915517281610,-5,-1,-1,1,0,4,-22,-13
1537915517281610,-3,1,0,0,8,2,-18,-18
1537915517302555,0,1,1,0,-4,-42,50,16
1537915517302555,2,0,-2,-2,1,59,21,-5
1537915517310533,3,1,1,2,0,10,-32,-2
1537915517310533,5,1,0,-1,-2,-35,34,26
1537915517317514,0,-1,-2,3,7,25,-36,9
1537915517317514,-7,-2,-1,-1,1,-16,7,-34
1537915517325493,-3,-1,0,1,3,-1,-24,7
1537915517325493,1,0,-3,-4,-6,25,29,23
1537915517340453,0,-1,-2,-3,-5,-17,-18,7
1537915517340453,0,-1,-1,1,-6,-22,3,-3
1537915517341450,-4,-4,-3,-4,-6,3,6,-5
1537915517341450,-2,-1,0,2,14,-8,-2,-15
1537915517363391,0,0,-1,1,-9,1,-6,2
1537915517363391,1,-1,-3,-4,-12,-1,-11,8
1537915517363391,5,1,1,0,4,4,-16,-8
1537915517363391,-4,-2,-2,-2,0,8,3,-3
1537915517377354,-1,-1,1,0,5,1,3,-11
1537915517377354,-3,-1,-1,-1,-7,-11,11,-7
1537915517385333,3,0,0,3,8,7,10,17
1537915517385333,-2,-1,-2,-1,-11,-17,-14,7
1537915517400293,3,-1,-3,-3,-6,18,-2,13
1537915517400293,1,-2,-2,-4,-4,-32,-43,-13
1537915517401290,-5,-2,-3,-5,-2,28,11,-15
1537915517401290,0,-1,-2,-2,-8,-4,16,3
1537915517423232,-1,3,2,1,4,-12,-7,-4
1537915517423232,-2,0,-2,1,1,-10,2,9
1537915517424229,-4,-1,-1,-2,-8,-8,-2,-10
1537915517424229,-1,0,1,1,-1,2,19,4
1537915517437194,-1,-1,-2,0,5,-16,-2,-15
1537915517437194,-2,-1,0,2,-2,31,-2,5
1537915517445173,-2,-1,2,1,4,-13,-23,-10
1537915517445173,-1,-1,0,0,-2,2,-24,-6
1537915517460133,0,-1,-1,-4,-11,-3,26,1
1537915517460133,0,-1,1,2,6,-29,-12,17
1537915517461130,1,0,0,0,1,13,0,10
1537915517461130,-3,-4,0,-2,7,-7,-37,-10
1537915517483071,-1,-1,-1,-2,-12,24,23,18
1537915517483071,-5,-1,-3,-2,-5,-2,3,-14
1537915517484070,-2,-2,-2,-3,-12,-23,-15,-19
1537915517484070,3,0,-1,0,2,5,16,9
1537915517497034,1,2,2,6,15,-30,-24,7
1537915517497034,-5,1,-1,-2,5,77,10,-15
1537915517506010,-2,-1,-2,-2,-22,-30,-10,-10
1537915517506010,-1,-2,-2,-3,-4,-1,15,-1
1537915517520970,-5,-2,-2,-1,4,0,-23,-12
1537915517520970,4,1,1,1,-7,-20,-38,6
1537915517520970,1,0,0,3,14,20,24,3
1537915517520970,3,3,0,-1,0,2,4,2
1537915517542911,2,-3,-2,-2,-3,-2,-6,11
1537915517542911,-3,-2,-1,-1,4,-9,-4,-9
1537915517543909,-2,-1,0,2,13,-19,-23,-9
1537915517543909,-1,-3,-3,-7,-21,30,30,0
1537915517557871,-4,-3,-1,-5,-6,-4,-25,8
1537915517557871,6,1,-1,-1,-4,-20,6,-16
1537915517565850,0,1,1,2,6,9,0,4
1537915517565850,0,-1,1,7,24,2,7,8
1537915517588789,-3,0,-4,-9,-35,-12,-7,-28
1537915517588789,1,1,1,1,-1,-38,7,-2
1537915517589786,0,-3,-1,-1,5,36,8,7
1537915517589786,-1,-3,-3,-4,-15,-22,-9,-8
1537915517602752,1,-1,1,3,10,37,3,-2
1537915517602752,-3,-1,-2,-2,6,-16,3,22
1537915517603749,-2,1,-1,1,7,-1,-21,-32
1537915517603749,3,1,0,1,-7,-10,9,1
1537915517617712,2,-3,-2,-1,-3,-27,-10,-9
1537915517617712,8,0,-1,0,-3,27,17,32
1537915517625690,-3,0,0,0,2,-4,16,0
1537915517625690,-5,-1,-3,-4,1,20,-29,-11
1537915517640650,-1,1,2,2,11,-6,14,-5
1537915517640650,-4,-1,-1,1,8,-4,0,3
1537915517641648,1,-4,-2,-4,-19,5,-22,27
1537915517641648,2,1,-1,-2,-3,-19,20,15
1537915517662591,-3,0,-1,-1,-2,-9,5,-3
1537915517662591,-3,0,1,-4,-4,9,-8,-5
1537915517663589,2,0,-2,-2,-2,-11,-27,-4
1537915517663589,-3,-2,-1,-2,-11,-35,9,-3
1537915517677552,3,1,1,3,4,41,25,0
1537915517677552,0,-1,0,2,11,37,8,5
1537915517685530,2,1,1,-1,-6,-11,-24,-4
1537915517685530,-1,0,-2,2,17,17,19,-2
1537915517700491,-2,-2,-1,-1,-8,-11,-7,3
1537915517700491,-5,-4,-2,-3,-14,-11,6,-13
1537915517701488,1,0,-2,0,3,-13,18,17
1537915517701488,-8,-1,0,2,13,41,9,-10
1537915517723429,1,-2,-3,-3,-6,-21,7,-12
1537915517723429,4,2,1,2,1,7,7,22
1537915517723429,-5,0,-1,0,9,12,-17,6
1537915517723429,2,-2,0,0,-4,-27,-5,-5
1537915517737392,2,-1,-1,-3,-8,17,0,-2
1537915517737392,-4,-2,-2,-4,-13,-1,-17,-13
1537915517745371,0,-1,-1,-3,-7,-24,20,5
1537915517745371,-2,-2,1,-2,-2,19,-10,-2
1537915517760330,-3,1,2,6,17,-13,-33,6
1537915517760330,3,-1,-3,0,-3,-30,38,-3
1537915517761328,0,-1,1,1,9,29,36,7
1537915517761328,-4,0,-1,-1,5,0,-12,-21
1537915517791248,-1,0,-1,-1,-2,2,3,3
1537915517791248,-8,-2,0,0,7,-15,-63,-21
1537915517792245,0,-2,-2,-4,-3,4,36,5
1537915517792245,0,-2,0,-1,-2,-13,10,2
1537915517797232,-1,0,1,2,17,23,0,2
1537915517797232,1,-2,-2,-1,-3,-18,-50,0
1537915517805211,-2,-1,-1,2,5,27,0,2
1537915517805211,2,-2,-4,-6,-27,-25,-11,-7
1537915517820170,-3,1,1,2,4,-20,-5,4
1537915517820170,-1,0,1,3,3,16,32,1
1537915517821168,0,-1,-1,-1,6,24,-25,0
1537915517821168,-2,0,-2,-3,-9,-13,37,2
1537915517843109,0,-1,-1,-1,-1,9,-25,5
1537915517843109,-1,-1,-2,-3,-10,-11,33,-6
1537915517844107,1,0,0,1,-10,-7,5,-2
1537915517844107,2,-1,0,3,12,9,7,39
1537915517866048,-7,-2,-2,-3,-3,-6,13,-5
1537915517866048,-1,-2,-1,-6,-3,-1,-50,-11
1537915517867045,6,0,1,4,11,4,11,-33
1537915517867045,-10,-3,-2,-5,-16,4,-30,-11
1537915517881008,1,-2,-3,-1,-12,-45,7,13
1537915517881008,-1,2,1,1,2,40,-16,-12
1537915517881008,1,-1,-1,-1,-2,-25,9,15
1537915517881008,0,2,2,3,13,1,-15,-10
1537915517902949,-4,-1,-4,-6,-11,1,21,-13
1537915517902949,-1,2,0,-1,-2,2,40,0
1537915517903947,3,-2,-3,-3,-1,2,-21,-2
1537915517903947,0,1,1,4,10,-10,20,-5
1537915517925888,6,1,-1,1,9,25,18,29
1537915517925888,-4,-3,-2,-3,-20,-33,-3,-13
1537915517926885,-8,-3,-1,-3,-1,6,-18,-15
1537915517926885,-4,-1,-2,-2,-5,3,-5,-5
1537915517940848,0,-3,0,-1,3,7,5,-4
1537915517940848,5,1,1,1,12,12,-20,-1
1537915517940848,-4,0,0,-4,-8,-3,23,-6
1537915517940848,1,1,1,3,2,-24,-2,0
1537915517962789,3,-1,-2,-3,-3,3,-58,-8
1537915517962789,-1,-2,-3,-2,-1,10,35,-8
1537915517963787,2,0,1,0,-1,-53,0,28
1537915517963787,-1,-3,-1,-6,-27,54,13,-2
1537915517986725,-1,0,-2,2,9,-10,3,-9
1537915517986725,-1,-1,-2,1,-7,-34,9,4
1537915517986725,-3,-1,-4,-2,-2,17,-38,-18
1537915517986725,5,0,3,2,13,4,17,10
1537915518000688,-1,-1,-1,-3,1,0,3,0
1537915518000688,-2,-2,1,1,2,1,-2,6
1537915518001685,1,-1,-3,-5,-8,-3,-10,0
1537915518001685,-5,0,-3,3,15,-4,-42,-15
1537915518022629,-2,-3,0,-2,-16,-1,-3,-18
1537915518022629,-2,2,0,0,0,5,-22,-9
1537915518023627,-3,-1,-1,2,5,-15,28,11
1537915518023627,4,0,1,-3,-13,-7,-8,-6
1537915518046565,-3,-1,-1,2,7,21,-15,-10
1537915518046565,2,0,1,1,8,-3,17,15
1537915518046565,-2,-2,-2,-3,-13,-1,5,1
1537915518046565,1,-2,-4,-7,-21,-26,29,21
1537915518060528,-8,-1,1,3,10,31,-37,-6
1537915518060528,4,-1,0,0,-3,-1,43,29
1537915518061525,0,-1,-2,0,5,17,20,0
1537915518061525,1,-1,-2,0,3,-24,-25,-22
1537915518083467,-3,0,-2,-1,-6,-17,18,6
1537915518083467,0,0,1,0,6,28,-23,2
1537915518083467,-1,-2,0,-1,0,1,13,-13
1537915518083467,-2,-2,-3,0,9,8,1,23
1537915518106406,2,1,0,-1,-8,-13,29,7
1537915518106406,-6,-3,-1,-2,5,5,-23,-11
1537915518107403,-3,-1,1,0,-6,-1,-11,-3
1537915518107403,2,-1,1,0,4,12,-16,-5
1537915518120368,0,-2,-1,-1,3,-8,20,3
1537915518120368,-1,-1,-2,-3,2,-6,-14,5
1537915518121365,0,0,1,-1,-5,-6,-7,2
1537915518121365,-5,0,-1,-3,-2,7,7,1
1537915518143307,6,-1,0,-1,-1,-3,0,-4
1537915518143307,-6,1,0,-1,0,3,0,1
1537915518143307,-3,-1,0,2,14,15,-27,-10
1537915518143307,-1,0,-2,-3,-19,-31,14,10
1537915518166245,6,1,-1,-3,-13,-6,8,15
1537915518166245,1,-1,-3,-1,4,8,-9,-21
1537915518167243,-2,-2,-1,-4,-15,-23,-18,-5
1537915518167243,1,-1,0,2,7,3,11,9
1537915518180208,-2,0,0,2,3,2,-17,-17
1537915518180208,1,-1,-3,-1,-4,-23,-5,6
1537915518181205,-4,-1,-2,-1,1,13,2,-4
1537915518181205,0,-2,0,1,9,13,-13,-14
1537915518203147,-4,-3,-2,-3,-5,-13,-9,4
1537915518203147,1,-2,0,0,2,23,17,3
1537915518204144,-5,-4,-1,0,-5,-3,-8,-10
1537915518204144,2,-2,0,-1,-5,5,-8,6
1537915518226085,1,1,0,1,6,-20,19,5
1537915518226085,-1,-1,0,0,0,41,-19,2
1537915518227083,-1,0,-1,-1,-1,-7,23,0
1537915518227083,1,1,-1,1,-7,1,-2,-17
1537915518241045,1,-3,-4,-2,7,-12,-16,6
1537915518241045,-3,-1,-1,-2,-5,11,0,-14
1537915518241045,5,2,1,0,-3,3,-13,-15
1537915518241045,-7,-2,-2,-4,-2,-19,-1,6
1537915518262987,-3,-1,0,0,0,14,6,-19
1537915518262987,-3,-1,-1,-2,-5,-26,-20,5
1537915518263984,2,0,0,2,5,-4,39,-7
1537915518263984,-2,-1,0,-1,12,41,-7,4
1537915518285925,-2,1,-2,-3,-22,0,-2,1
1537915518285925,-1,1,-3,-1,0,-15,-6,9
1537915518286923,0,-1,-1,-2,-4,-17,7,5
1537915518286923,-7,-1,-3,-1,5,30,1,-20
1537915518300885,3,-1,2,3,7,5,8,19
