timestamp,emg1,emg2,emg3,emg4,emg5,emg6,emg7,emg8
1537920154414782,-1,1,0,1,1,17,-11,-4
1537920154414782,1,-1,1,1,5,22,11,0
1537920154418771,-1,-3,-1,0,-5,-13,19,1
1537920154418771,-1,0,1,3,7,7,-2,-1
1537920154419768,-2,-1,-1,1,6,23,3,-1
1537920154419768,0,1,-1,-2,-3,-30,-6,1
1537920154420766,-2,-2,-5,-9,-34,-40,-4,-3
1537920154420766,-1,-1,0,1,4,25,-9,-6
1537920154426750,1,-3,0,-1,9,-13,-3,-3
1537920154426750,-2,-1,1,4,12,47,4,-2
1537920154442707,1,1,1,0,8,8,-3,-2
1537920154442707,-2,-2,-2,-4,-11,-37,2,-2
1537920154446696,-1,-2,-2,-2,0,0,1,-1
1537920154446696,0,-2,-1,0,0,-4,-2,4
1537920154457667,-1,-1,-1,0,1,-9,-4,-1
1537920154457667,-1,0,-2,-1,-6,5,5,-2
1537920154471630,-2,0,-1,-1,2,0,13,-3
1537920154471630,-1,0,1,-2,-10,-5,-8,-1
1537920154485592,2,1,-1,5,6,31,3,7
1537920154485592,1,0,3,16,25,2,-14,4
1537920154525487,0,-1,0,1,-21,-9,-3,0
1537920154525487,-1,-1,-3,-8,18,-4,-4,-1
1537920154526483,-2,-3,-3,-13,-17,-7,-4,-2
1537920154526483,1,0,0,-2,-16,-3,-2,-2
1537920154529475,0,0,2,5,4,5,0,-2
1537920154529475,0,1,1,8,1,11,1,3
1537920154530473,0,3,2,6,19,-10,-2,-1
1537920154530473,0,-1,-2,-1,4,9,-1,0
1537920154538451,-1,1,0,-1,0,1,-2,-3
1537920154538451,-4,-4,-2,0,8,6,1,-6
1537920154544435,4,3,0,-1,-10,-10,1,5
1537920154544435,-1,0,-4,-1,-6,-10,3,-1
1537920154560393,1,0,-1,0,3,-5,-9,0
1537920154560393,-2,-2,0,-1,-4,6,-1,-3
1537920154566377,-1,-2,-1,2,9,-20,-8,-3
1537920154566377,-1,-1,1,-3,-3,24,8,-1
1537920154575353,0,-2,-3,-3,4,9,1,0
1537920154575353,0,0,0,0,-7,-7,0,-1
1537920154599288,-2,-1,2,2,-6,7,0,-2
1537920154599288,-1,-1,-1,-1,0,-18,-3,-1
1537920154601283,-3,-1,-3,-4,0,-1,2,-3
1537920154601283,1,1,1,1,-7,1,-2,1
1537920154611256,1,-2,-5,-5,-9,-7,0,-2
1537920154611256,-2,-2,0,1,7,1,-4,-2
1537920154620232,-1,-1,-2,0,7,2,3,-1
1537920154620232,0,0,-3,-4,-15,-7,-2,-2
1537920154635193,-3,-1,1,1,0,11,1,-2
1537920154635193,-3,-2,2,2,4,-2,-2,-3
1537920154637187,-2,-1,-1,-1,-1,-2,-1,-2
1537920154637187,0,-1,-1,-1,-2,-9,0,-3
1537920154658131,0,-1,1,0,2,8,0,0
1537920154658131,2,1,0,-3,-1,2,-1,1
1537920154659129,1,0,-1,-1,-3,-8,-2,0
1537920154659129,-3,-1,0,-1,1,-2,-3,-1
1537920154672094,-1,0,-1,-1,2,7,-1,0
1537920154672094,-2,-4,-1,-2,0,-5,-3,-1
1537920154688051,-1,-3,0,0,-1,0,0,-1
1537920154688051,-1,1,-4,-5,-5,-3,-1,1
1537920154695033,-1,-1,-1,0,0,2,1,-1
1537920154695033,3,2,0,1,0,0,-1,-1
1537920154697028,0,-2,-1,-1,6,9,3,0
1537920154697028,0,-2,3,9,41,33,0,-4
1537920154717971,-3,-1,1,1,-16,-21,2,3
1537920154717971,-7,-5,-4,-11,-21,-53,-4,5
1537920154718969,2,-1,-1,-4,-30,2,-9,8
1537920154718969,6,2,1,3,16,80,28,-4
1537920154731934,-2,1,-1,-5,-28,-77,-3,1
1537920154731934,-12,-3,2,14,37,24,-16,-65
1537920154740910,3,10,6,-3,-16,-41,69,6
1537920154740910,4,-4,2,21,11,38,-26,36
1537920154754872,7,-5,-5,9,41,21,10,23
1537920154754872,-11,-10,-22,-62,-117,-89,-63,-56
1537920154761854,-10,-9,-11,-17,-7,73,-19,-31
1537920154761854,3,12,18,28,60,-128,57,-16
1537920154777812,-19,-13,-22,-32,-5,54,-17,-94
1537920154777812,25,14,16,54,127,16,48,125
1537920154779806,-2,-18,-33,-69,-85,-121,-70,31
1537920154779806,-13,-9,-3,-19,-27,116,11,-83
1537920154791775,6,20,37,90,77,83,-15,24
1537920154791775,1,10,0,2,-90,-66,35,-19
1537920154800752,-20,-15,-21,-59,127,58,1,-27
1537920154800752,9,-16,-2,-8,-122,-91,-14,42
1537920154815711,2,7,-8,-40,-29,97,-6,-24
1537920154815711,-9,0,15,18,9,-22,24,6
1537920154816709,35,17,29,44,49,68,38,63
1537920154816709,-23,-16,-6,46,73,-21,-32,-42
1537920154837653,0,-12,-16,-24,-82,-70,5,83
1537920154837653,2,10,14,11,67,81,-13,-33
1537920154839648,10,19,9,8,-29,-74,37,9
1537920154839648,-15,-19,-34,-108,-83,30,-49,-6
1537920154851616,0,-3,2,24,36,54,58,47
1537920154851616,20,5,7,48,86,-13,-4,1
1537920154860593,-12,-10,-11,-25,-73,-50,-88,-15
1537920154860593,1,6,-3,4,125,29,49,7
1537920154875553,-9,4,17,38,69,-12,-46,-47
1537920154875553,-20,-15,-11,-22,12,-10,-24,-17
1537920154876550,10,-4,1,5,-58,108,-4,-4
1537920154876550,7,-5,-29,-74,-128,-120,-56,35
1537920154897493,-15,-2,2,-18,17,-2,22,-99
1537920154897493,14,1,6,5,9,37,15,44
1537920154899487,0,14,30,106,127,-85,33,-39
1537920154899487,-19,2,-15,-49,-100,-81,-44,-18
1537920154920430,8,-16,-14,-37,3,-16,33,25
1537920154920430,-16,12,1,-9,-33,109,-4,-5
1537920154921428,44,-12,-13,-17,-69,-72,-53,92
1537920154921428,4,6,16,39,71,127,31,26
1537920154935390,-4,-4,3,21,22,40,-11,-26
1537920154935390,-8,-9,-20,-38,-49,-40,9,-21
1537920154937385,-19,0,16,40,127,-36,23,-7
1537920154937385,13,4,0,9,-61,82,-4,7
1537920154958329,3,-6,-13,-44,-90,-95,-35,16
1537920154958329,10,13,-1,-6,-3,68,-19,10
1537920154959327,-19,-1,3,8,-76,7,-29,-71
1537920154959327,4,-4,1,-4,43,13,27,6
1537920154971294,-12,-6,-6,-20,-60,-63,-15,-23
1537920154971294,-5,-11,0,3,15,17,-8,-3
1537920154980270,-5,1,4,22,56,53,20,8
1537920154980270,1,10,16,40,62,-13,-26,-11
1537920154995230,1,3,0,-3,-29,-49,-51,-4
1537920154995230,-3,-3,1,-8,8,37,52,-16
1537920155001214,-3,-2,-9,-16,-16,80,-8,2
1537920155001214,7,5,3,16,17,-76,58,17
1537920155018169,-3,3,2,-5,10,17,-23,-24
1537920155018169,5,-5,4,20,-12,-1,27,4
1537920155019167,-11,0,6,29,31,72,11,-23
1537920155019167,9,3,-1,-3,39,-45,-11,26
1537920155031134,-1,-6,-6,-19,9,-41,5,10
1537920155031134,17,0,-4,-3,23,23,-34,31
1537920155040110,-26,-10,-11,-43,-99,-50,-55,-57
1537920155040110,-1,-1,1,-9,-48,-60,29,6
1537920155055071,14,3,2,31,74,-17,2,35
1537920155055071,-3,-5,-3,-14,-12,24,16,48
1537920155062052,8,6,10,40,54,-5,18,-3
1537920155062052,-10,1,4,8,10,68,-29,-29
1537920155078010,1,-2,-3,-11,-4,-66,3,13
1537920155078010,18,-4,-11,-12,-18,-13,-23,-3
1537920155079008,-8,-1,-3,-12,-25,-77,15,8
1537920155079008,-2,1,0,4,-8,-54,25,-3
1537920155091972,-6,2,3,8,23,82,37,-19
1537920155091972,-12,-5,0,3,26,-122,1,21
1537920155100949,-11,3,3,-6,-15,5,-25,-86
1537920155100949,-5,-5,-5,-15,-20,10,-7,5
1537920155114910,32,8,8,29,55,24,-3,50
1537920155114910,-15,-4,1,11,27,-13,-32,-49
1537920155121892,11,-10,-15,-35,-72,38,5,33
1537920155121892,1,6,4,3,9,21,-14,-3
1537920155137849,-11,2,9,47,52,27,4,-8
1537920155137849,-11,-3,-6,-40,-36,6,-13,-12
1537920155139844,5,0,-3,-1,30,19,19,9
1537920155139844,-4,-1,2,4,-2,34,-4,-23
1537920155151811,1,1,-1,1,-17,19,12,18
1537920155151811,4,0,-1,7,6,1,-3,-11
1537920155160788,-4,-3,-5,-4,3,-16,9,15
1537920155160788,6,-2,0,1,-10,-4,0,11
1537920155175748,-2,0,-3,-16,-15,-3,11,-12
1537920155175748,-4,-3,-4,2,-10,-7,6,-8
1537920155176745,-1,1,2,-7,3,15,9,11
1537920155176745,-1,1,6,23,31,11,-2,-6
1537920155197690,-1,-2,-3,-14,-14,12,-6,-6
1537920155197690,-2,-1,-6,-12,-29,1,-7,-8
1537920155199685,4,2,0,5,10,10,13,19
1537920155199685,2,-1,3,5,18,5,-8,-5
1537920155220629,-3,-3,-5,-14,-30,-8,-1,-2
1537920155220629,2,-1,0,5,-4,-6,5,3
1537920155221628,-1,1,-1,1,15,-1,7,1
1537920155221628,-2,-1,1,3,6,2,-2,-2
1537920155234592,-1,0,0,-4,-10,6,0,-3
1537920155234592,-1,0,0,7,3,-1,2,-2
1537920155241574,2,-1,-3,-6,1,4,-3,-2
1537920155241574,-3,-1,-1,-6,-7,7,-6,-5
1537920155258528,1,0,-1,3,-7,5,2,3
1537920155258528,1,-2,-3,-7,-3,-4,-1,-4
1537920155259526,-4,-2,-1,-3,-2,-3,2,3
1537920155259526,0,-1,0,2,-1,-1,-1,3
1537920155280468,-3,1,1,-1,3,0,1,-3
1537920155280468,-2,0,0,3,-2,0,3,-1
1537920155281466,-1,0,2,3,5,5,2,2
1537920155281466,0,1,-6,-7,-4,-6,-1,-1
1537920155294430,-1,-2,-2,-2,-2,16,-2,-1
1537920155294430,-2,-3,-1,-4,-12,-9,-1,-3
1537920155301412,1,-2,-2,-1,1,-2,2,6
1537920155301412,-2,-1,3,7,28,19,0,-2
1537920155318366,2,-1,-1,-5,-10,-23,-2,-1
1537920155318366,-1,0,1,5,4,1,1,-2
1537920155319364,1,0,-1,-5,-16,7,-1,0
1537920155319364,-2,-2,-1,-1,-12,-12,5,-2
1537920155340308,-1,0,-1,0,6,11,0,0
1537920155340308,1,-1,0,5,0,1,1,-1
1537920155342303,0,0,-3,-2,10,-2,-2,0
1537920155342303,-2,-1,0,3,3,9,-3,-3
1537920155354270,-4,-1,-2,-4,-9,-5,0,-2
1537920155354270,-2,0,-2,-2,0,0,0,0
1537920155363247,-2,-1,0,-2,-2,-3,3,-1
1537920155363247,2,-1,-2,0,-2,-4,-1,0
1537920155378207,2,-1,-1,-3,-6,-2,0,-1
1537920155378207,1,-3,1,1,1,-3,0,1
1537920155379204,-2,3,2,7,6,3,0,-2
1537920155379204,0,-2,0,-4,1,-4,0,0
1537920155400148,1,2,8,12,9,4,-1,-1
1537920155400148,-1,-4,-6,-8,-19,-4,-4,3
1537920155402143,-3,-2,-4,-16,3,0,3,-3
1537920155402143,-1,-2,-3,-8,-16,-11,-7,3
1537920155414111,-2,-1,-1,-9,7,-1,-3,-3
1537920155414111,-1,3,7,18,-10,1,2,-8
1537920155423088,-7,0,4,18,88,16,6,-14
1537920155423088,1,-4,-7,-24,-48,-33,-6,2
1537920155438047,-1,-4,-8,-23,-68,24,3,-2
1537920155438047,2,1,0,2,11,7,-9,1
1537920155439046,-1,0,3,5,-44,-31,7,7
1537920155439046,-4,2,4,19,47,11,4,-11
1537920155460986,4,-1,-1,6,37,1,-1,3
1537920155460986,1,-1,-2,-10,-18,-16,-1,-4
1537920155461984,2,-1,-1,-1,1,15,-4,6
1537920155461984,0,-1,0,2,9,5,0,3
1537920155473952,-1,-1,-1,-2,-11,-14,-1,1
1537920155473952,-1,-2,-1,1,19,13,4,1
1537920155482928,1,-2,-4,-4,-4,-7,-5,1
1537920155482928,0,-2,-2,-4,-19,-1,1,0
1537920155496892,-4,0,0,3,8,1,-1,-4
1537920155496892,0,0,-3,-3,15,0,1,-3
1537920155505866,0,0,-3,-8,-9,2,-2,0
1537920155505866,-1,0,1,3,-20,-6,-1,-3
1537920155519828,-3,-2,1,4,4,-23,-2,0
1537920155519828,-1,1,1,-2,9,27,3,1
1537920155526810,3,-1,-2,-3,-16,-15,-4,3
1537920155526810,-1,-1,-1,-1,1,17,-1,-2
1537920155542767,1,0,-3,-2,13,-7,-1,-1
1537920155542767,-2,-2,-2,-1,-5,-7,0,0
1537920155544761,0,0,0,-1,-16,-31,-2,-1
1537920155544761,0,1,2,5,15,21,0,0
1537920155556729,-3,-1,-3,-4,-12,-5,-1,-1
1537920155556729,-4,-1,0,1,9,7,1,-3
1537920155565705,-1,1,-1,0,-1,13,0,1
1537920155565705,2,2,2,3,9,-3,-2,1
1537920155579668,-2,-2,-3,-4,-11,-5,0,-2
1537920155579668,-2,-1,1,2,1,0,-1,-1
1537920155586649,-1,0,-2,-1,-1,-2,-1,-1
1537920155586649,-2,-1,-3,-6,-15,-9,-3,0
1537920155602607,-2,-1,-1,2,10,14,-1,-3
1537920155602607,1,1,1,0,1,-10,-3,0
1537920155604604,0,-2,-1,-3,-4,5,-1,1
1537920155604604,0,-2,-1,-2,0,6,0,-2
1537920155616571,-1,-1,-1,-1,-2,-1,0,-2
1537920155616571,-2,-2,-2,-2,-5,1,1,2
1537920155625548,1,0,0,-2,4,-1,-1,2
1537920155625548,-3,-1,-1,3,12,-3,-2,-9
1537920155639509,-1,-2,-2,-6,-7,1,-3,10
1537920155639509,-3,-2,-1,-4,-8,-7,2,-5
1537920155646490,1,0,1,0,4,11,1,7
1537920155646490,1,-1,1,2,9,-2,-2,-5
1537920155663444,-4,2,0,3,-1,-1,-4,-10
1537920155663444,1,-1,-3,0,3,0,-1,-1
1537920155664443,-3,-2,-3,-2,-6,0,-2,-3
1537920155664443,-2,0,-1,-1,-8,-8,0,3
1537920155676410,2,0,-1,-2,-9,-6,2,3
1537920155676410,-2,1,-1,-2,-4,-7,-3,-2
1537920155685386,-2,-1,1,-2,-4,-14,-2,-2
1537920155685386,0,-2,0,1,7,0,1,6
1537920155699348,-4,-1,-2,-2,9,18,0,-2
1537920155699348,-1,-2,-1,-3,-9,-13,-4,-2
1537920155706330,-1,-1,0,-2,-6,-5,-2,-3
1537920155706330,-1,0,1,2,6,0,-1,1
1537920155723284,-1,-1,0,0,1,4,-2,0
1537920155723284,0,0,-2,-3,1,-2,-3,1
1537920155724282,-2,-1,1,3,-2,13,-1,-2
1537920155724282,0,0,-2,-2,1,-1,-1,1
1537920155753204,-1,-1,-1,0,-8,-13,1,-2
1537920155753204,-2,-1,-2,-2,8,3,-2,-1
1537920155754201,0,-1,-2,-2,-12,0,0,0
1537920155754201,-2,0,0,3,21,15,1,-1
1537920155760185,1,-1,0,-8,-31,-23,0,-1
1537920155760185,-1,-1,-1,-4,-16,-43,-5,1
1537920155766169,-1,-1,-2,-2,-7,57,3,-1
1537920155766169,0,1,0,2,3,-6,2,1
1537920155783124,2,0,-1,2,11,12,-2,-2
1537920155783124,-1,-2,1,3,9,-2,3,1
1537920155784121,0,-1,-2,-6,-8,-16,-2,-3
1537920155784121,-3,-2,-1,-3,-6,9,1,0
1537920155805065,0,0,-1,3,11,10,2,0
1537920155805065,-1,0,-1,1,1,12,-1,-2
1537920155807060,-1,-1,0,2,8,-8,1,-1
1537920155807060,0,-1,0,1,-8,-20,-4,-1
1537920155819028,1,0,-1,1,14,10,-1,1
1537920155819028,2,-1,-1,0,-8,3,1,4
1537920155828004,-3,1,-1,0,0,-16,-1,-2
1537920155828004,-1,-2,-2,-5,-9,6,1,-2
1537920155842964,-3,-1,-1,-1,0,2,-2,-3
1537920155842964,-2,-1,-1,0,-8,9,1,0
1537920155843961,1,-1,-2,-1,3,-5,0,-1
1537920155843961,0,-3,0,0,5,-12,-2,0
1537920155865902,0,0,0,0,-5,13,3,-3
1537920155865902,1,-1,-3,0,4,2,-4,-3
1537920155866900,-1,0,0,-1,-7,-12,-3,0
1537920155866900,-1,0,-1,-2,4,8,2,-1
1537920155879865,-2,0,0,-2,-5,-8,5,0
1537920155879865,-1,0,1,-2,-1,-21,-22,-1
1537920155886846,-1,0,-2,0,5,5,-4,0
1537920155886846,-1,-2,-2,1,-5,-10,7,0
1537920155902804,-3,-3,-3,-5,-6,10,-6,-6
1537920155902804,-2,0,-1,2,2,8,-22,3
1537920155904799,3,0,-1,0,2,1,19,4
1537920155904799,-1,1,0,-1,3,5,20,7
1537920155925743,1,0,0,0,1,-8,-5,-3
1537920155925743,-6,-3,-1,-3,0,2,8,-8
1537920155926740,4,1,-1,-3,-3,-8,-21,-2
1537920155926740,0,-4,-2,-1,-7,-5,-19,-5
1537920155939705,-2,-1,-1,1,3,-2,3,3
1537920155939705,2,-2,-1,-3,-2,1,5,3
1537920155946687,-4,-3,0,2,4,8,1,-2
1537920155946687,-1,-1,-2,-4,-10,-11,-10,-4
1537920155962644,2,0,2,1,-1,-4,0,3
1537920155962644,-3,0,0,0,4,10,4,-3
1537920155964639,-5,-2,-3,-2,-2,-21,-21,-3
1537920155964639,0,0,0,-1,0,38,35,1
1537920155984585,-2,-1,-2,-4,-2,-17,-37,-4
1537920155984585,4,-2,-1,-1,-1,15,16,-1
1537920155992564,-17,-3,-1,1,4,-16,47,-2
1537920155992564,7,-1,0,0,5,13,-67,-5
1537920155999545,7,3,3,3,-19,-42,-21,6
1537920155999545,3,0,-2,-1,-6,1,-2,1
1537920156006527,-3,-3,0,-3,-8,-1,-18,4
1537920156006527,-3,-2,-4,-3,13,9,56,8
1537920156022484,-6,1,2,1,-3,-12,-3,-14
1537920156022484,0,-1,1,0,-2,10,-23,-8
1537920156024479,7,-1,-1,-1,-8,35,39,7
1537920156024479,-8,-1,-1,-4,20,-9,-18,-17
1537920156045423,-23,-4,-2,7,5,52,67,8
1537920156045423,12,3,4,9,14,-30,-7,11
1537920156046420,3,10,12,16,7,-24,-35,12
1537920156046420,5,0,-2,12,-39,-64,-34,4
1537920156059385,-17,9,6,10,55,89,-36,-69
1537920156059385,-20,-6,-3,9,73,38,92,45
1537920156068361,-7,12,-37,-41,-91,-24,6,36
1537920156068361,47,-22,-4,-8,105,91,79,15
1537920156083321,-47,-30,-21,-41,-87,-66,-88,-35
1537920156083321,28,-1,-18,-38,9,-9,-34,-25
1537920156084319,-34,-6,4,-27,-15,62,-29,-50
1537920156084319,11,7,21,54,39,-63,-27,4
1537920156104265,4,6,-22,-16,-92,31,-1,-19
1537920156104265,24,9,32,38,-3,-7,25,2
1537920156113242,-7,26,8,-2,87,27,-64,-60
1537920156113242,-28,-3,8,21,-64,-41,18,-4
1537920156119225,-26,-38,-20,-35,-39,3,-34,54
1537920156119225,31,6,-24,-27,-107,-7,53,65
1537920156128202,34,46,-3,53,94,50,-28,-38
1537920156128202,32,-72,-16,-9,-69,-84,10,42
1537920156143162,15,19,35,55,106,91,20,45
1537920156143162,-22,-17,-14,-17,-40,-19,11,-12
1537920156144159,14,-18,22,-30,40,51,-12,-4
1537920156144159,1,27,1,-8,-50,-40,45,23
1537920156165103,-7,-10,-7,-6,8,-41,-9,-11
1537920156165103,13,15,-3,11,-22,37,4,-20
1537920156167098,22,0,0,11,51,-30,0,36
1537920156167098,-31,43,-26,-45,-45,69,-71,-74
1537920156179065,-13,-25,2,12,30,-21,19,16
1537920156179065,24,2,-2,16,74,-12,-30,-4
1537920156188042,0,-94,-23,-12,-116,-21,26,-21
1537920156188042,-23,42,51,51,86,31,-36,-4
1537920156203001,10,11,-32,-81,-69,-75,18,-19
1537920156203001,-40,12,8,-1,33,53,13,-39
1537920156203999,16,-10,-18,0,21,-33,-1,24
1537920156203999,-15,-10,-18,-1,68,74,-52,-3
1537920156225941,16,-17,7,-9,-57,-73,6,7
1537920156225941,-75,11,3,-8,42,-43,-3,-29
1537920156226938,58,7,-3,-12,-84,56,14,-9
1537920156226938,-13,3,8,14,4,27,55,-19
1537920156238906,57,49,26,77,83,18,31,48
1537920156238906,-9,-15,-8,-8,-3,-6,-40,-10
1537920156247883,-70,-35,-16,-36,2,-46,21,-20
1537920156247883,32,-9,-15,-44,-68,-9,16,69
1537920156262843,7,-1,0,5,-10,-10,-25,-32
1537920156262843,2,-4,6,21,41,-21,-21,17
1537920156264839,-8,23,12,29,12,-5,-3,-12
1537920156264839,-2,-5,2,-7,-9,8,14,-11
1537920156285781,-6,0,-6,-7,29,-12,7,11
1537920156285781,-2,-8,0,4,-15,36,11,-2
1537920156286779,-4,18,16,14,6,-26,3,20
1537920156286779,-14,-16,-17,-24,-16,-22,-31,-19
1537920156307722,1,3,4,12,27,30,25,-4
1537920156307722,10,6,5,8,-9,1,-21,-7
1537920156309717,-9,-9,-4,-13,-18,-7,11,12
1537920156309717,0,2,-3,4,11,-18,-1,-1
1537920156322683,5,6,4,5,20,16,6,-7
1537920156322683,6,-9,2,-12,-29,-4,-7,4
1537920156324677,-7,3,2,8,-3,-19,-4,16
1537920156324677,-6,-1,-1,1,9,9,-5,-11
1537920156345620,3,4,5,1,10,7,3,-2
1537920156345620,-2,-10,-4,-10,-21,-6,-10,-4
1537920156346618,-5,3,3,17,19,-1,7,17
1537920156346618,-2,3,0,-6,4,-3,-9,8
1537920156358586,-15,-8,-6,-14,-17,4,6,10
1537920156358586,19,1,-1,1,-2,-6,-3,16
1537920156367562,0,4,1,1,5,0,2,0
1537920156367562,-1,-1,2,0,-7,3,1,-8
1537920156382522,-1,-2,-1,2,7,-1,0,-7
1537920156382522,-7,-4,-1,-5,-10,-4,-13,-13
1537920156384516,2,4,1,3,4,-9,4,-3
1537920156384516,-1,-3,-3,1,-1,-2,-6,-13
1537920156405460,4,1,2,4,15,9,3,-5
1537920156405460,-1,0,1,-2,-6,-1,0,-1
1537920156406458,1,0,-2,2,-3,-1,1,0
1537920156406458,-4,0,-1,-3,1,-3,0,-1
1537920156419423,3,1,1,2,3,1,-2,-2
1537920156419423,0,-2,2,2,-3,0,-4,-3
1537920156428399,-3,-1,-1,-3,-9,-5,-2,3
1537920156428399,-1,1,-3,-3,2,-1,1,0
1537920156442362,3,1,1,0,-6,-19,-1,1
1537920156442362,-2,-2,-3,-2,-6,5,6,1
1537920156449343,-3,0,2,6,16,19,2,0
1537920156449343,-1,0,-1,-3,-9,14,-9,-5
1537920156465300,4,0,-1,-1,-2,-1,-3,3
1537920156465300,-4,-2,-3,-5,0,-16,-6,-4
1537920156467295,0,-1,0,-2,-2,-8,2,3
1537920156467295,1,-1,1,3,7,-15,0,1
1537920156479263,0,-1,-2,-6,-12,17,3,2
1537920156479263,-1,0,-3,-2,-3,0,-5,0
1537920156488239,1,1,1,-1,-2,1,6,3
1537920156488239,-3,-1,0,1,11,2,-2,-1
1537920156502202,-2,-1,-1,-1,-3,-8,2,-1
1537920156502202,-1,-2,0,0,1,3,-10,-1
1537920156509183,1,-1,-1,0,-6,-26,7,3
1537920156509183,-3,-1,-2,-6,-7,-7,-5,-4
1537920156525141,0,0,1,4,18,34,4,-2
1537920156525141,0,0,0,0,3,7,-2,1
1537920156527135,-1,0,-3,-2,-1,-5,-2,5
1537920156527135,-2,-1,-3,-6,-14,-21,13,1
1537920156539103,1,0,2,3,2,-10,-6,-2
1537920156539103,0,-1,-2,-1,-2,4,-3,-1
1537920156548079,-2,0,-2,1,2,-1,-1,0
1537920156548079,-2,-1,-2,-4,-4,-2,1,-1
1537920156563039,-3,-1,-2,-2,-2,-10,-3,-2
1537920156563039,0,-1,0,2,4,20,2,1
1537920156564037,-1,1,0,-1,0,0,-3,-2
1537920156564037,0,-2,0,1,3,7,-2,-1
1537920156584980,0,0,0,3,8,-7,0,2
1537920156584980,-1,-1,-1,-4,-14,-38,0,-1
1537920156586975,0,-2,-2,-2,-6,24,-2,-2
1537920156586975,1,-1,-1,1,-1,3,-3,0
1537920156598943,-1,-1,-1,2,13,20,3,1
1537920156598943,0,0,-1,0,8,-16,0,0
1537920156607919,-1,-1,-1,-4,-11,-8,-6,-1
1537920156607919,0,-2,-1,-4,-15,-6,-2,-3
1537920156622879,0,-1,0,3,9,-1,4,-4
1537920156622879,0,-1,-1,-2,4,21,-4,1
1537920156624874,1,-1,0,2,-2,-4,-3,0
1537920156624874,0,2,1,-1,3,10,2,1
1537920156645818,-2,-1,0,0,5,-21,1,2
1537920156645818,-2,-1,0,2,-1,0,2,0
1537920156646815,-1,-1,-1,0,2,-3,0,0
1537920156646815,0,0,-4,-4,-6,-5,-2,1
1537920156667759,1,-2,0,1,3,5,1,-4
1537920156667759,0,-1,-2,-2,-7,-6,-3,1
1537920156669754,-1,-1,0,0,-2,3,0,-2
1537920156669754,1,1,1,3,2,-2,-2,-2
1537920156682719,1,-1,-1,-4,-5,-8,-2,-1
1537920156682719,0,-2,0,1,3,39,2,0
1537920156688703,-2,-2,-1,-1,7,-10,3,-1
1537920156688703,1,-1,-2,0,8,4,-2,0
1537920156705658,-3,-3,-3,-7,-27,-15,-1,-1
1537920156705658,-2,0,-1,-4,-30,-19,-3,-4
1537920156706655,-1,-1,2,4,21,26,4,-2
1537920156706655,-2,-3,-2,-4,-5,-13,-5,-2
1537920156727599,-2,0,-3,-6,-7,-14,-11,-3
1537920156727599,0,0,-1,0,5,-4,-1,-2
1537920156729594,-1,-1,-2,0,-2,3,1,-1
1537920156729594,-2,-2,-1,2,4,6,7,0
1537920156742560,2,0,0,1,0,-21,-3,1
1537920156742560,-3,-3,-3,-3,-2,28,3,-3
1537920156749540,-1,-1,1,2,0,-1,-4,-1
1537920156749540,0,-1,0,3,-2,0,0,0
1537920156764500,1,-2,-2,-2,-1,7,2,3
1537920156764500,-1,-1,-2,0,7,-15,-1,-1
1537920156765498,-1,-1,-1,-3,-7,-4,-1,-1
1537920156765498,0,0,0,-1,-3,-13,0,0
1537920156787439,-2,0,-3,-4,-15,2,-3,-4
1537920156787439,0,0,0,2,13,20,2,-1
1537920156787439,2,0,-2,-4,1,-12,-1,5
1537920156787439,-3,-1,2,1,-10,2,-7,-2
1537920156801402,0,-1,-4,-3,-7,11,2,0
1537920156801402,-3,-2,-2,-3,-9,-21,-3,-5
1537920156809380,-4,0,3,4,10,13,0,-4
1537920156809380,-1,-2,-2,-4,6,1,3,-1
1537920156824340,-1,2,2,4,8,-4,-3,-1
1537920156824340,1,0,0,3,13,6,0,0
1537920156825338,0,-1,-5,-4,-16,-12,-2,1
1537920156825338,-1,0,2,2,10,-4,-4,-2
1537920156847279,-2,-2,-1,2,3,15,8,1
1537920156847279,-1,0,0,0,-5,-13,-5,-1
1537920156848277,-1,0,-1,0,0,-2,-5,-4
1537920156848277,2,-1,-2,-2,-6,2,-1,0
1537920156862239,0,-1,0,1,1,7,3,1
1537920156862239,-2,-1,1,0,1,-10,-1,0
1537920156863237,-1,-1,0,1,4,-3,1,0
1537920156863237,-2,-1,-1,-1,2,14,1,0
1537920156885178,-1,-2,-1,1,12,0,-2,0
1537920156885178,0,-2,0,-3,-24,-2,1,-1
1537920156885178,-2,-1,-2,-1,-10,-5,-3,-2
1537920156885178,0,0,1,1,13,3,-2,-2
1537920156907120,-1,0,0,-3,0,28,1,0
1537920156907120,0,0,-1,-3,-15,-33,-1,-2
1537920156908118,1,0,0,0,2,3,-1,0
1537920156908118,1,0,-4,-2,-1,8,0,0
1537920156922081,2,1,-2,0,-2,-12,0,-2
1537920156922081,0,1,-1,1,12,13,1,1
1537920156923078,-2,-2,0,-2,-6,-6,-5,0
1537920156923078,-2,-1,-1,0,3,-10,0,-1
1537920156945019,1,0,1,-2,-10,-1,-1,-1
1537920156945019,-2,-1,-2,0,1,-1,0,-1
1537920156945019,-4,-2,-1,0,2,2,0,-3
1537920156945019,2,0,0,1,2,2,0,1
1537920156966960,0,-1,0,-3,-4,14,1,0
1537920156966960,1,0,1,1,4,-15,3,1
1537920156967958,1,0,-4,-2,-14,-2,-2,-2
1537920156967958,-1,0,-2,-2,5,1,0,0
1537920156981920,-1,0,3,7,38,1,0,-3
1537920156981920,2,0,-1,-5,-49,-17,1,5
1537920156982918,-1,0,-1,-3,-3,-11,-2,-4
1537920156982918,-2,-1,-1,1,-6,-1,0,-2
1537920157004858,0,-1,0,-1,1,-4,0,1
1537920157004858,-1,0,1,5,23,18,0,-3
1537920157005856,0,-1,-1,1,5,0,0,1
1537920157005856,0,-2,-2,-4,-14,-2,0,-1
1537920157026800,-1,-3,-1,0,3,2,-2,-1
1537920157026800,0,-1,-2,-1,5,2,-3,-2
1537920157027797,1,0,-2,-1,-9,-2,0,0
1537920157027797,-2,-1,1,1,7,3,-1,-1
1537920157042757,0,-2,-1,-4,-14,-10,-1,-1
1537920157042757,-4,-1,1,-4,5,1,-2,-2
1537920157049738,0,-1,-1,-1,3,0,-1,-2
1537920157049738,0,-1,-2,0,-4,-2,-1,-1
1537920157064698,-1,0,-1,-1,-6,-9,0,-2
1537920157064698,0,1,-2,-1,-2,-17,-2,-1
1537920157065696,0,5,0,0,3,45,1,1
1537920157065696,-6,0,-2,-1,-5,2,-5,-4
1537920157087637,-3,0,0,0,-6,-9,-1,0
1537920157087637,-1,1,-2,1,12,19,0,-2
1537920157087637,-1,-1,-1,-1,2,-36,0,0
1537920157087637,3,0,-1,-4,-15,-15,-2,-2
1537920157101600,0,-3,0,-3,-10,16,-1,-1
1537920157101600,-3,-7,-2,-3,-6,-11,-2,2
1537920157109578,-1,-4,1,3,12,8,1,0
1537920157109578,-1,-4,0,-1,3,7,0,1
1537920157124540,0,-2,-1,-1,-1,-16,-2,0
1537920157124540,0,-2,-1,0,8,10,2,-3
1537920157125537,-1,-3,-2,-1,-6,-1,-1,-1
1537920157125537,-1,0,-1,0,1,-9,2,2
1537920157147477,0,0,-1,0,-4,0,1,0
1537920157147477,-2,1,-1,0,1,2,-2,0
1537920157148475,0,1,-1,-2,-4,-4,-2,-1
1537920157148475,0,-1,-2,-1,-1,-4,-2,-1
1537920157161440,1,1,0,0,2,-2,-1,-1
1537920157161440,-1,-2,-3,-1,1,-10,0,-2
1537920157177397,1,-1,1,-1,10,43,4,-1
1537920157177397,1,0,-2,-1,-4,-20,-3,-2
1537920157184378,-1,-1,-3,-5,-19,-19,0,-1
1537920157184378,1,-1,-1,0,1,-13,-2,-2
1537920157185375,0,-1,-1,0,-2,8,0,-1
1537920157185375,-2,-1,-1,-1,7,5,-2,0
1537920157207317,-1,-2,0,-1,7,22,1,0
1537920157207317,-1,0,0,-1,-5,-13,-1,-1
1537920157208314,1,0,-1,1,4,-10,-1,-1
1537920157208314,0,1,1,1,0,11,1,-3
1537920157221279,-1,0,0,1,-3,-16,-2,0
1537920157221279,-1,0,0,-1,4,18,-2,-1
1537920157229258,-1,-1,-1,-3,-4,-11,0,-1
1537920157229258,-1,-1,-1,0,-2,-5,1,0
1537920157244218,-1,-2,-1,-1,1,0,-2,0
1537920157244218,0,-3,0,0,1,7,1,-1
1537920157245216,0,1,-1,-3,-5,-6,-2,1
1537920157245216,0,0,-1,-2,-6,-8,-1,-1
1537920157267157,-1,-1,0,1,5,8,-1,-1
1537920157267157,0,0,-1,2,16,38,-2,-1
1537920157268154,0,-2,-2,-5,-25,-44,1,1
1537920157268154,0,-2,0,0,-3,0,-1,1
1537920157281119,-3,-1,-1,0,4,-17,-2,-1
1537920157281119,0,-2,-2,-3,-15,15,0,1
1537920157297077,-1,-1,2,3,8,10,-1,0
1537920157297077,-1,-1,0,0,0,-1,-1,-1
1537920157305055,0,1,-1,-2,-6,-7,0,-1
1537920157305055,0,1,-1,-1,5,-6,-1,-1
1537920157305055,-2,-1,0,1,3,-1,-2,0
1537920157305055,-2,0,-3,0,-2,6,0,-2
1537920157326997,-1,0,0,1,4,13,0,-1
1537920157326997,-1,-1,-1,0,-5,-26,-1,0
1537920157327994,1,-2,-3,-4,-7,3,-3,-1
1537920157327994,-1,0,0,-1,3,-3,-1,0
1537920157341957,-1,0,-2,0,1,15,1,-2
1537920157341957,0,-1,-2,0,-3,-19,0,0
1537920157349936,-1,1,-1,-1,-2,1,-3,-3
1537920157349936,0,-1,0,2,6,4,0,0
1537920157364896,0,-2,-2,-4,-3,-9,-1,0
1537920157364896,-1,0,-2,-3,-7,-5,0,0
1537920157365893,0,0,1,0,6,-1,-2,-3
1537920157365893,0,-1,1,0,5,10,0,0
1537920157386837,0,-2,0,1,-1,9,0,0
1537920157386837,0,0,-2,-4,-4,-5,-3,-2
1537920157387835,-1,-1,0,0,0,-11,-1,-1
1537920157387835,0,-1,-1,-1,-2,22,-1,-1
1537920157401797,0,2,0,0,8,-3,1,-2
1537920157401797,-1,-1,-2,-2,-8,-7,-1,0
1537920157409776,-1,-1,-1,-1,-1,-4,-1,-2
1537920157409776,-1,0,-1,-1,-1,-6,-2,-1
1537920157424736,0,-2,-2,0,-2,-4,-1,-1
1537920157424736,-1,0,0,2,4,11,1,1
1537920157425733,-1,0,0,-1,-1,-12,-1,0
1537920157425733,-1,-2,-1,-3,-7,-2,0,-2
1537920157455653,-1,1,-1,-1,-4,3,-2,1
1537920157455653,-1,-2,0,-1,0,0,-1,-2
1537920157455653,1,-1,-1,1,2,1,0,1
1537920157455653,-1,-1,-2,-1,2,2,-1,-2
1537920157461637,-1,-1,-1,-1,5,9,0,-2
1537920157461637,0,0,-1,-3,-15,-38,-2,0
1537920157469615,-3,-1,-3,-2,-7,3,-1,0
1537920157469615,1,0,0,0,-7,-23,-2,-1
1537920157484576,-1,0,1,0,2,20,1,0
1537920157484576,0,0,2,3,17,22,-1,-2
1537920157485573,-1,-1,-2,-3,-13,-4,-2,-1
1537920157485573,-1,0,-1,-2,-2,-12,-2,-2
1537920157507514,0,-3,-1,-1,-2,0,-1,-1
1537920157507514,-2,-1,0,0,2,2,1,0
1537920157507514,-1,0,-1,2,3,-5,-2,1
1537920157507514,0,-1,-1,0,-1,12,1,0
1537920157521477,0,-2,-3,-2,-4,-10,0,-1
1537920157521477,-1,-1,-1,-1,-1,2,-1,-2
1537920157529456,-1,-2,1,-1,0,5,-1,-1
1537920157529456,-2,-1,-1,-1,5,4,1,-1
1537920157544415,-2,-1,-2,-1,-11,-13,-1,0
1537920157544415,0,-1,-1,-1,-5,-5,0,-1
1537920157545413,0,2,0,2,7,-15,-1,-1
1537920157545413,0,-1,-1,-1,6,42,4,0
1537920157567354,-2,0,1,-2,-11,-60,-2,0
1537920157567354,-1,0,-1,-3,1,33,1,1
1537920157568352,0,-2,0,-2,-4,-20,-3,-2
1537920157568352,-1,-1,-2,-2,-9,1,1,1
1537920157590293,0,0,0,1,4,14,-1,-1
1537920157590293,-1,0,-1,1,3,-3,-3,-1
1537920157591290,-1,-1,1,1,3,7,-2,0
1537920157591290,-2,0,-1,-1,-1,-4,-1,-2
1537920157604256,0,-1,-1,-1,-2,5,-2,-1
1537920157604256,-1,-1,0,-1,-3,-10,-2,-2
1537920157605253,-1,-2,-2,0,2,14,0,0
1537920157605253,0,0,0,0,0,-1,-2,-1
1537920157628192,-2,0,-2,-2,-10,-8,1,-3
1537920157628192,0,-1,0,1,-3,-3,-4,-2
1537920157628192,0,-1,2,0,-1,4,1,-1
1537920157628192,0,-1,-1,-1,-2,-12,-3,0
1537920157650133,0,-2,-1,0,6,4,-1,0
1537920157650133,1,0,-1,-2,2,1,1,-1
1537920157651130,0,0,0,0,3,5,0,0
1537920157651130,0,0,-1,-1,-5,-18,-1,0
1537920157665093,0,-1,1,1,0,22,1,-2
1537920157665093,-2,-1,-1,-1,-1,1,-2,-1
1537920157665093,-1,0,-2,-2,-4,-12,-1,0
1537920157665093,0,-2,0,0,1,-3,0,0
1537920157688033,0,-1,-1,0,4,1,0,-2
1537920157688033,-1,1,0,-1,-7,0,1,0
1537920157688033,-3,-2,-2,-1,1,11,-1,-2
1537920157688033,-2,-1,-1,0,-2,-11,-1,1
1537920157709973,-1,0,1,-1,0,6,-2,-1
1537920157709973,1,-1,0,0,1,-4,0,0
1537920157710970,1,-1,-1,-2,-4,3,0,-2
1537920157710970,-2,-2,-1,0,-3,-7,-3,-1
1537920157724933,-1,-1,-2,-1,0,-2,-3,1
1537920157724933,-3,-1,-2,-1,1,-2,1,-2
1537920157724933,0,0,-1,-1,-1,1,0,-1
1537920157724933,1,0,-1,-2,-1,8,0,0
1537920157747872,0,-1,-1,-1,0,0,0,-1
1537920157747872,-1,0,0,-1,-1,0,-1,-1
1537920157748870,-1,-1,-2,0,-2,-1,-1,0
1537920157748870,-1,-1,-1,2,5,5,-2,-1
1537920157770811,-1,0,0,0,4,-7,1,1
1537920157770811,-3,-4,-3,-6,-17,-33,-7,-2
1537920157770811,-1,-1,-2,-3,-14,0,3,0
1537920157770811,-1,0,1,-1,5,10,1,0
1537920157784773,0,-1,0,1,8,-3,1,0
1537920157784773,-1,-1,-1,-1,-5,7,0,1
1537920157785771,-1,-3,-1,0,3,-3,0,-1
1537920157785771,-2,-1,-1,-2,-3,-1,-2,-1
1537920157807712,1,2,2,-1,1,5,0,-2
1537920157807712,-1,-2,0,1,10,-4,0,0
1537920157808709,0,-2,-2,-1,-3,5,-2,-1
1537920157808709,-1,-1,-1,-1,0,-1,0,1
1537920157830650,-2,-1,-1,1,-2,-5,-2,0
1537920157830650,0,-1,0,1,1,7,-1,-1
1537920157830650,-1,0,0,-1,4,-3,0,0
1537920157830650,1,-2,-2,-1,0,1,0,-1
1537920157852592,-2,-2,-2,-3,-7,-10,-2,-1
1537920157852592,-1,-1,0,1,5,22,2,-1
1537920157853589,0,-1,0,0,-2,-18,-2,-1
1537920157853589,0,-2,-1,-1,-4,-17,-2,1
1537920157867552,-3,-1,-1,-1,-5,21,0,-2
1537920157867552,0,-1,1,0,11,-4,-3,-1
1537920157868550,-2,0,-2,-1,-4,16,2,-1
1537920157868550,-2,0,-1,-2,-5,-3,-1,-1
1537920157890491,0,-2,-3,-3,-7,-3,0,2
1537920157890491,-1,-1,1,1,1,-7,-1,-2
1537920157891489,-3,0,0,0,4,13,-2,-1
1537920157891489,-1,0,-1,1,1,-18,-2,-1
1537920157904455,-1,-1,-1,0,0,4,0,0
1537920157904455,-1,-1,0,0,0,2,0,0
1537920157905453,1,-1,-2,-1,4,1,0,0
1537920157905453,-1,0,-1,0,-1,-1,0,-1
1537920157928391,-1,-2,-1,-2,2,-4,-2,-1
1537920157928391,1,0,-2,-1,-2,-3,2,0
1537920157928391,-2,-2,-1,0,-5,-5,0,-2
1537920157928391,-2,1,-2,-1,0,7,0,-1
1537920157950333,-1,-1,-1,1,-2,-8,0,1
1537920157950333,0,-1,-2,1,1,6,-1,0
1537920157951330,0,0,-1,0,-2,-8,-2,1
1537920157951330,0,0,-2,0,1,-5,1,-1
1537920157964294,0,-1,-1,-1,5,17,-1,-2
1537920157964294,-1,-3,-2,-3,-13,-14,-3,-2
1537920157965291,0,0,0,-1,-2,18,2,-1
1537920157965291,-2,-3,-1,-1,-2,-1,-2,-2
1537920157988229,-2,1,-1,1,10,13,-1,-1
1537920157988229,-2,0,-1,-3,-6,-20,0,-1
1537920157988229,-1,0,-1,-1,0,-11,-4,-1
1537920157988229,-1,-1,1,-1,0,0,-1,-1
1537920158010171,-1,0,-1,-1,-2,7,0,-1
1537920158010171,-1,-1,0,1,6,12,0,0
1537920158011169,-2,-2,-1,-1,-1,-10,-2,-3
1537920158011169,-1,-1,1,-2,-2,2,-1,0
1537920158025131,1,-2,-2,-1,-1,-6,-3,-1
1537920158025131,-1,-1,-1,0,-3,-3,2,2
1537920158025131,1,0,1,1,-2,-3,-2,0
1537920158025131,0,-1,-2,-1,0,6,0,-2
1537920158048069,-1,-2,1,-2,-5,-9,-1,-2
1537920158048069,1,-2,0,0,1,2,0,0
1537920158049067,-2,0,-1,-1,2,3,-1,-1
1537920158049067,0,-1,-2,1,0,-3,-1,0
1537920158070011,-3,0,0,-1,-6,-11,0,-1
1537920158070011,-2,-1,-2,-1,-2,5,-1,-1
1537920158071008,-1,-1,0,1,4,-3,-1,-2
1537920158071008,0,1,0,-1,-2,-1,0,1
1537920158084972,-1,0,0,-1,-3,-6,0,-1
1537920158084972,-1,-1,-1,-1,1,5,0,-1
1537920158084972,1,1,0,0,5,-14,-1,-1
1537920158084972,-2,0,-2,-4,-8,12,1,-1
1537920158107912,-1,-2,-1,0,0,-5,-1,0
1537920158107912,0,0,0,-1,-1,2,0,1
1537920158108909,0,-2,-2,-2,-1,0,-1,-2
1537920158108909,-1,0,-1,0,2,2,-1,-1
1537920158130850,-1,-2,-1,-1,-3,-11,-2,-1
1537920158130850,-1,-1,0,1,-1,-4,-2,-2
1537920158131848,-3,0,0,0,2,5,-1,1
1537920158131848,0,-1,0,1,8,1,0,0
1537920158144812,-3,-2,-2,-6,-27,-23,-1,1
1537920158144812,-2,-1,-2,-1,0,-1,-1,0
1537920158145810,-1,0,0,-3,0,3,-1,-1
1537920158145810,0,0,0,0,2,0,-3,-2
1537920158166754,1,0,0,1,7,7,0,-1
1537920158166754,-1,0,-2,-2,-2,-3,1,-2
1537920158167758,-1,-2,-1,-1,-2,4,0,0
1537920158167758,-1,-1,0,-2,0,-4,0,0
1537920158190688,0,0,1,1,2,-3,1,-1
1537920158190688,-1,-1,2,-1,0,3,1,1
1537920158190688,-1,-1,-2,-1,-1,4,0,0
1537920158190688,-1,-1,1,-2,-5,-10,-1,-2
1537920158203653,-2,0,-1,-1,0,5,-15,-2
1537920158203653,0,0,-1,-2,2,7,33,2
1537920158212629,-2,0,-1,0,0,-6,-5,-1
1537920158212629,0,-2,0,0,-4,2,11,2
1537920158227589,-1,-1,-2,-2,-2,-11,-25,-4
1537920158227589,-1,-1,-3,1,3,11,16,2
1537920158228587,1,1,0,-1,-7,-4,11,6
1537920158228587,-1,0,-1,3,0,-8,-5,0
1537920158250529,0,-1,-3,0,7,15,4,0
1537920158250529,0,-1,-2,-3,-8,-17,-23,-5
1537920158251527,-4,-2,-1,0,0,10,-3,-4
1537920158251527,0,0,-2,-2,-1,6,-9,-2
1537920158264491,-1,-2,-1,-1,0,4,-1,-3
1537920158264491,1,0,0,0,3,-2,-19,0
1537920158272471,-2,-3,-1,-1,0,-6,0,0
1537920158272471,-2,-3,0,0,-6,-6,2,-2
1537920158287431,0,0,-1,0,2,2,6,0
1537920158287431,-1,-1,-1,-3,-8,-2,1,-1
1537920158288428,0,0,-3,-1,0,-4,-1,-1
1537920158288428,-1,-1,-3,-1,1,16,5,0
1537920158310368,0,0,1,0,-1,-6,6,1
1537920158310368,-1,0,2,2,4,-5,-6,0
1537920158311366,-1,-2,-2,-4,-14,10,-7,-3
1537920158311366,-1,-1,0,-3,-12,-44,-30,-3
1537920158324331,0,0,-1,-1,2,10,36,2
1537920158324331,-2,-3,-1,-1,-1,20,1,-4
1537920158333307,-11,1,2,1,8,-12,14,3
1537920158333307,11,2,1,3,6,8,27,8
1537920158348267,4,2,0,0,-1,9,25,0
1537920158348267,0,-1,1,2,-1,-15,-30,-2
1537920158349264,-7,-4,-2,-1,3,30,24,-3
1537920158349264,-6,-4,-4,-4,-8,-18,-10,1
1537920158370208,-7,-1,1,1,1,-4,-36,-4
1537920158370208,1,-2,-2,-3,1,16,31,0
1537920158372203,8,4,1,2,1,-22,-26,1
1537920158372203,-6,1,-1,0,2,5,16,0
1537920158384171,7,-3,-4,0,-6,-10,-11,-4
1537920158384171,1,0,-5,-4,-3,3,-14,-7
1537920158393147,4,-3,1,-2,-3,-8,-32,-2
1537920158393147,-9,-4,0,0,4,14,16,-2
1537920158408107,-7,-3,-1,-3,-2,6,29,4
1537920158408107,-3,1,0,-1,-5,-34,-99,-9
1537920158409104,-1,-2,-4,0,-1,29,68,-5
1537920158409104,6,2,1,1,5,-13,-77,7
1537920158430048,-20,-2,-2,0,0,-8,11,3
1537920158430048,18,3,2,4,4,5,-13,5
1537920158432043,0,-3,-3,-3,-5,0,-45,-9
1537920158432043,-4,4,3,2,-2,-3,-50,-1
1537920158444011,27,6,3,-3,-5,-4,-20,6
1537920158444011,-2,-2,-1,-4,-4,7,75,0
1537920158452988,-5,-1,1,0,1,-16,-34,0
1537920158452988,0,14,1,-8,-11,-27,-83,-26
1537920158467948,5,13,6,5,15,57,82,35
1537920158467948,-61,-19,-1,17,33,7,24,-16
1537920158468946,-32,-28,-28,-9,13,46,-20,1
1537920158468946,71,26,7,-8,-12,-33,-4,-3
1537920158490887,-88,-13,7,21,34,26,1,-3
1537920158490887,-38,-7,-27,-38,-52,108,-98,-39
1537920158491884,-37,4,23,37,89,22,-36,-42
1537920158491884,-19,-38,-39,-31,-56,57,65,-2
1537920158503853,39,-6,-10,-10,-29,12,-103,54
1537920158503853,-12,7,-6,-22,-26,-1,74,-2
1537920158512829,43,47,26,-9,17,58,-26,34
1537920158512829,-86,-98,-41,6,6,31,31,46
1537920158526792,40,92,44,33,15,-58,-12,-5
1537920158526792,5,-88,-7,-9,-68,-92,4,26
1537920158533773,24,8,-17,-6,21,-6,-8,-23
1537920158533773,-49,41,39,22,92,34,41,4
1537920158550728,112,49,23,22,100,109,-13,-30
1537920158550728,-46,18,17,-12,-47,-88,-11,-31
1537920158551726,26,-15,-18,9,47,46,20,24
1537920158551726,-50,-53,-40,-41,-90,-110,-29,-68
1537920158572668,-46,-22,-15,-29,-58,37,0,3
1537920158572668,3,25,-3,41,127,65,-28,-20
1537920158574663,13,-96,-23,-29,-123,-102,13,-39
1537920158574663,102,127,47,29,79,-7,-1,23
1537920158587627,-74,-128,-83,-40,-97,-67,65,-24
1537920158587627,26,69,34,1,-8,-1,-30,14
1537920158593611,-17,106,54,15,30,16,5,-25
1537920158593611,20,-43,-2,-7,-17,64,-15,65
1537920158610566,24,-93,-16,-8,-46,-32,-1,-32
1537920158610566,-59,-10,12,11,16,83,14,-2
1537920158611563,-35,-56,17,12,14,-6,7,14
1537920158611563,-13,68,12,-5,-22,-2,1,-14
1537920158632507,-15,39,-13,1,49,-11,-31,-33
1537920158632507,41,-16,-8,5,24,6,-1,64
1537920158634502,10,-14,-37,-23,-62,-35,9,20
1537920158634502,3,-10,22,13,4,22,48,8
1537920158646470,-47,-33,1,3,-40,-120,-41,-20
1537920158646470,-22,5,-9,2,28,105,31,-17
1537920158655446,72,32,3,-12,-18,6,17,37
1537920158655446,-23,-35,-39,-4,2,-94,-85,-29
1537920158670406,-8,25,31,2,10,33,75,11
1537920158670406,38,0,-4,2,22,-45,15,0
1537920158671403,-36,-21,-3,4,-5,-17,27,20
1537920158671403,31,3,-3,-1,-28,35,13,-23
1537920158693344,20,32,4,6,61,13,-30,8
1537920158693344,17,2,0,-2,-20,-45,-10,11
1537920158694342,-36,-19,-16,-5,-20,-1,2,-6
1537920158694342,1,6,3,7,36,10,5,-1
1537920158706310,-5,9,4,-5,-6,-4,-11,0
1537920158706310,26,-6,-6,-1,-7,-30,11,14
1537920158723264,1,14,10,-4,-11,-19,-12,-10
1537920158723264,-2,-4,9,5,17,16,11,-10
1537920158730246,12,7,5,-3,0,2,-12,9
1537920158730246,0,-6,-7,-6,-21,-21,-15,-14
1537920158732241,16,14,-4,3,25,-1,-3,-10
1537920158732241,-31,-8,4,3,0,6,6,-8
1537920158753184,-6,-6,-6,-6,0,10,0,-9
1537920158753184,9,6,-3,2,12,-20,-16,10
1537920158754182,0,-2,-3,1,-3,0,10,18
1537920158754182,6,-7,0,-5,-4,-2,3,21
1537920158766150,-3,9,2,-3,-3,-10,-10,3
1537920158766150,11,3,2,0,3,-11,3,-3
1537920158775126,-5,1,2,2,-4,-13,-28,0
1537920158775126,-3,-10,-3,1,-3,-8,29,-8
1537920158790086,4,6,-3,-4,-8,-20,6,1
1537920158790086,3,2,3,3,26,43,-3,-1
1537920158792081,-11,-2,-3,-6,-37,-9,2,-8
1537920158792081,6,0,-1,0,-3,-17,0,2
1537920158813024,-2,3,1,-1,2,-5,-14,0
1537920158813024,3,-3,-2,-2,0,-19,13,2
1537920158814022,-3,3,-2,0,7,8,-3,-5
1537920158814022,5,-2,0,1,2,10,-9,-4
1537920158825990,4,3,0,0,3,0,-11,0
1537920158825990,-4,-4,-1,-3,-14,-14,-20,-5
1537920158834966,0,1,-2,0,12,0,17,1
1537920158834966,-4,-3,1,-1,-4,1,11,-1
1537920158850923,-3,-3,-3,0,4,28,17,4
1537920158850923,4,-1,-3,-1,-2,-7,-7,-2
1537920158851920,-1,1,2,2,0,-24,-27,-6
1537920158851920,1,-3,-1,1,4,0,-12,-2
1537920158872864,-2,0,-1,0,0,-7,0,-3
1537920158872864,6,3,0,-2,-2,7,15,1
1537920158873862,-3,0,-1,0,0,-2,14,2
1537920158873862,-1,-1,-1,1,1,6,-1,-1
1537920158886827,-2,-2,0,1,5,-19,-27,-1
1537920158886827,3,-1,-1,-1,-8,-5,-12,-1
1537920158895803,-3,0,-1,1,6,29,19,3
1537920158895803,1,1,-1,0,2,3,5,-1
1537920158910763,-2,0,-2,-2,3,3,-3,0
1537920158910763,-3,-2,0,-2,1,-17,-31,-4
1537920158911761,2,1,-1,-2,-12,-29,4,2
1537920158911761,1,-1,-2,-3,-7,14,6,0
1537920158932705,0,-1,-1,0,0,-8,-31,-2
1537920158932705,0,-1,0,1,-1,4,16,-1
1537920158934699,-5,-2,-2,-2,8,12,-7,-5
1537920158934699,1,-2,-1,-1,2,4,14,3
1537920158946667,0,0,1,0,1,5,12,3
1537920158946667,-1,-2,-2,-1,-1,4,-9,-1
1537920158962624,-1,0,0,1,0,-7,-13,-1
1537920158962624,3,1,2,3,3,-13,-19,-1
1537920158970603,-2,-1,-2,-1,-1,15,-5,-3
1537920158970603,2,3,1,0,-3,-22,14,2
1537920158971600,-2,-1,-1,-2,0,18,10,-1
1537920158971600,-1,-2,1,0,1,-3,1,-2
1537920159000523,-2,-1,0,-1,1,8,4,1
1537920159000523,-2,-1,-2,-4,-12,-20,8,1
1537920159001521,-1,-1,-1,2,6,-5,-16,-3
1537920159001521,-1,-1,-2,-3,0,11,-8,0
1537920159006507,0,0,0,0,4,9,9,-2
1537920159006507,3,-2,-1,-3,-5,-10,4,1
1537920159015483,-2,-2,0,0,-7,-8,-2,-2
1537920159015483,-4,0,0,1,3,0,0,-3
1537920159030443,0,0,-1,-2,-6,-4,7,2
1537920159030443,-3,-3,-2,-1,2,5,-7,-3
1537920159031441,1,-1,0,-1,1,-4,16,1
1537920159031441,0,0,-1,0,-1,5,-7,1
1537920159052385,-1,-2,0,-1,-4,-9,2,0
1537920159052385,-3,1,-1,-1,3,12,11,2
1537920159054379,-4,-2,-2,-4,1,8,-19,-5
1537920159054379,0,-1,-1,-1,2,-8,5,-2
1537920159066347,0,2,0,2,-2,-5,1,3
1537920159066347,-1,-1,-2,0,-2,3,4,0
1537920159075323,-2,0,0,1,1,-4,-22,-4
1537920159075323,-2,-2,-3,-3,-9,-2,0,-3
1537920159090283,-1,-1,0,-1,2,-3,-6,-3
1537920159090283,1,-2,1,0,-2,2,14,1
1537920159092278,-1,-1,0,-1,1,0,-14,-1
1537920159092278,1,-1,-1,-1,-1,2,1,-2
1537920159113222,0,0,-1,1,-2,-4,3,0
1537920159113222,-1,0,-2,-1,-2,-8,-25,-1
1537920159114219,2,-1,-1,0,0,-5,25,0
1537920159114219,-11,-1,0,0,2,9,-10,-5
1537920159126187,1,0,-1,-2,0,13,-13,-3
1537920159126187,7,-2,0,-1,-3,-15,15,1
1537920159135163,-4,-3,-2,-2,-2,-7,-49,2
1537920159135163,-11,-4,-2,-2,0,1,-9,-2
1537920159150124,15,2,-1,2,2,1,25,13
1537920159150124,-1,1,-2,-1,1,9,-24,-8
1537920159152118,4,2,-2,-1,-2,4,68,10
1537920159152118,9,8,0,-3,6,11,0,6
1537920159173063,-10,-8,-1,-3,-4,-32,-98,-19
1537920159173063,-25,0,-4,-6,-14,-17,83,-3
1537920159174060,37,24,7,3,30,8,-72,1
1537920159174060,28,-17,-7,2,-24,-10,70,13
1537920159187026,-24,2,-20,-4,-3,67,-12,-4
1537920159187026,35,-45,11,22,28,92,24,30
1537920159195003,-57,-18,-30,-24,-9,-70,-6,-27
1537920159195003,13,48,16,30,44,30,41,75
1537920159209963,-9,-33,-7,-14,-41,36,-65,-100
1537920159209963,-40,18,-20,-28,22,-60,-16,75
1537920159216945,28,-6,4,28,-23,35,-9,43
1537920159216945,-4,18,-27,-42,-49,-33,25,-71
1537920159232902,26,-23,-8,15,119,-84,11,64
1537920159232902,-75,17,17,24,-121,91,29,11
1537920159233899,-65,-6,-19,-22,114,-46,-61,-38
1537920159233899,74,-31,60,21,-106,-118,-33,23
1537920159246865,38,-51,-50,-60,-75,-41,-45,-18
1537920159246865,80,57,-28,-14,101,73,1,12
1537920159255841,93,25,47,30,19,-7,8,7
1537920159255841,-79,1,-37,-41,-35,35,-24,5
1537920159269803,-36,2,42,39,47,4,83,-14
1537920159269803,92,6,-2,-7,-65,-48,-50,4
1537920159276785,-85,14,17,4,9,-18,10,-14
1537920159276785,-92,-24,-7,-3,116,119,-15,-15
1537920159292743,35,-70,-83,-25,-88,-27,-2,3
1537920159292743,-32,28,-38,-21,-61,-95,9,-22
1537920159294737,13,-18,-26,-18,-45,12,38,-14
1537920159294737,-70,-60,19,28,74,45,-44,-37
1537920159306705,-18,-77,-39,16,22,2,18,4
1537920159306705,81,68,90,-12,-39,-40,-37,-33
1537920159315681,-58,-58,2,11,10,77,18,-24
1537920159315681,-20,-97,-76,-38,-100,-64,-27,24
1537920159329644,2,58,57,16,41,103,69,34
1537920159329644,-1,70,10,-4,-13,-1,-28,-36
1537920159336625,14,-21,-39,25,107,34,29,-8
1537920159336625,49,123,91,19,-13,-3,12,15
1537920159360561,-17,35,75,-14,-123,-89,-22,-23
1537920159360561,-108,-90,-24,2,62,-30,24,-23
1537920159361558,30,27,0,4,-6,0,2,80
1537920159361558,49,-30,-17,22,72,41,6,-9
1537920159366545,-21,39,14,16,28,-2,29,35
1537920159366545,-29,-27,20,6,14,3,-16,-30
1537920159375521,33,-1,-28,-23,-71,19,10,-1
1537920159375521,22,11,-17,1,-14,-22,4,6
1537920159389484,-1,35,-3,-8,15,20,15,-2
1537920159389484,-37,-44,-14,12,22,10,-16,-17
1537920159396465,0,-14,9,-5,-30,-13,-3,-1
1537920159396465,3,12,-6,-7,3,-14,8,-9
1537920159412423,4,17,15,8,20,1,-9,3
1537920159412423,6,-33,-18,9,29,17,6,7
1537920159414417,-5,8,2,-23,-43,-17,6,-4
1537920159414417,9,8,5,1,11,11,-8,-7
1537920159435361,-24,0,-17,-3,5,14,-4,-9
1537920159435361,4,-20,-11,-1,2,-3,0,9
1537920159441345,-2,8,11,-1,-18,-4,-1,-10
1537920159441345,-18,-7,-6,0,2,2,-11,-17
1537920159449323,4,0,-3,-1,11,7,3,10
1537920159449323,6,-6,-4,-1,10,-7,5,1
1537920159456305,-6,1,12,1,-4,17,-2,-6
1537920159456305,14,0,-6,4,19,7,5,-5
1537920159473259,-6,10,1,-4,-12,-4,-6,-1
1537920159473259,22,-3,1,-3,-20,-27,-6,6
1537920159474257,-37,-12,-6,-5,-13,-10,-4,-9
1537920159474257,4,0,-5,-3,0,-4,0,6
1537920159495201,0,4,0,2,13,14,6,6
1537920159495201,-12,-13,-3,1,15,11,5,-3
1537920159497196,7,-2,0,-2,-6,9,-3,8
1537920159497196,-1,0,-1,-4,-22,-21,-11,-5
1537920159509165,-2,2,2,0,5,6,2,-9
1537920159509165,-5,-12,-4,-1,4,-4,-12,5
1537920159518142,6,3,4,-1,-7,-20,-20,-5
1537920159518142,-4,0,0,-1,6,13,38,0
1537920159533101,-1,1,-4,0,-2,-17,-26,-1
1537920159533101,-1,-5,-3,2,5,-5,17,0
1537920159534099,6,0,1,0,-9,32,13,-1
1537920159534099,-4,-4,-1,-2,2,-10,-23,-8
1537920159556040,-1,-2,-3,0,2,3,7,2
1537920159556040,-2,-2,-2,0,4,4,2,-1
1537920159557036,1,2,3,-1,0,-6,-1,2
1537920159557036,-4,2,-3,-1,-1,-6,-5,-2
1537920159570003,-1,3,1,-2,-2,-16,-3,-1
1537920159570003,0,0,2,0,1,0,-16,-1
1537920159576984,1,0,-3,-2,-8,-9,5,-3
1537920159576984,-5,-2,-4,-1,4,9,2,-2
1537920159591943,2,1,1,1,0,11,6,4
1537920159591943,-2,-3,0,5,28,-34,-6,-4
1537920159600920,-2,-3,-4,-11,-46,19,4,-1
1537920159600920,0,2,0,-2,-5,-26,-11,-1
1537920159615882,-3,0,-1,1,1,-1,-5,1
1537920159615882,-1,-1,0,1,11,19,6,-1
1537920159616879,2,0,1,1,9,-2,3,-2
1537920159616879,0,0,-2,-1,-2,-7,-7,0
1537920159629844,-2,-1,-1,-1,-4,-4,0,-5
1537920159629844,1,-2,-1,0,-3,19,0,1
1537920159636823,0,0,-1,2,8,-16,3,-1
1537920159636823,-2,-1,-2,-2,-6,9,3,-1
1537920159652794,2,-1,-1,1,6,-2,-5,0
1537920159652794,-3,-3,-4,-4,-10,8,1,-1
1537920159654776,-7,1,-1,0,3,-7,-7,-3
1537920159654776,7,-1,0,0,3,2,-1,1
1537920159675719,-1,-2,0,2,4,8,5,-2
1537920159675719,-2,-2,-1,2,-1,3,-3,0
1537920159676716,0,1,-4,-6,-4,-40,2,-2
1537920159676716,-3,-2,-1,-1,-2,28,2,0
1537920159689681,1,-1,0,-2,6,5,5,-1
1537920159689681,2,0,-1,-1,-10,22,-2,-1
1537920159696662,1,-1,1,3,-1,-34,6,3
1537920159696662,-2,1,-2,-3,-1,-8,-5,-1
1537920159712619,2,0,-2,-3,-3,-2,-5,1
1537920159712619,-2,-2,-1,-1,4,7,0,-3
1537920159714614,3,-1,1,-1,1,13,-1,0
1537920159714614,-4,-1,-2,-1,0,-2,3,-1
1537920159735558,-4,-1,-1,0,-3,5,6,0
1537920159735558,0,0,-4,-4,-3,-9,1,-1
1537920159736555,0,1,-2,1,2,3,-8,0
1537920159736555,-1,0,0,0,-1,-4,0,0
1537920159749521,-2,-1,-1,0,2,-9,-9,-2
1537920159749521,-2,-2,0,-1,-3,-4,2,-1
1537920159756502,-1,0,0,1,1,9,1,-2
1537920159756502,0,-3,-1,-2,2,-1,-1,0
1537920159772460,-1,-1,0,3,2,-6,3,2
1537920159772460,-2,-2,-2,-2,-8,9,2,-1
1537920159774455,-1,-3,-1,-2,-4,10,-9,0
1537920159774455,-1,1,2,2,7,-19,0,-1
1537920159795399,-1,0,-2,-4,-6,4,5,0
1537920159795399,-1,-2,1,1,4,-12,-1,-3
1537920159797394,0,-1,1,0,-3,2,3,0
1537920159797394,-1,-1,0,-3,-2,1,2,1
1537920159809363,0,-1,-2,-4,-5,-3,-3,0
1537920159809363,-2,-1,-2,-1,-3,6,1,0
1537920159816344,0,-1,0,2,10,5,-1,-2
1537920159816344,-2,1,0,-1,-3,-6,-5,-1
1537920159833299,-2,0,-1,1,0,6,-1,-1
1537920159833299,-1,-2,0,0,1,-10,0,1
1537920159835294,0,-1,-1,0,6,14,-1,-1
1537920159835294,-1,0,-2,-1,-5,3,-7,-4
1537920159855240,0,-2,-2,-2,-2,-12,-1,-2
1537920159855240,-2,0,0,-1,0,-7,-7,-2
1537920159857236,2,1,0,-1,1,-14,4,1
1537920159857236,-2,-3,-3,-4,-3,18,-1,0
1537920159869201,-2,0,0,1,9,16,0,-1
1537920159869201,0,-1,-2,-4,-9,-9,4,-1
1537920159876183,-6,-2,1,1,-2,-8,-16,-2
1537920159876183,-1,0,-2,0,-3,-7,3,2
1537920159893138,0,0,-2,0,-2,-6,-5,0
1537920159893138,-1,2,0,0,-2,2,-1,1
1537920159894135,0,-1,0,0,1,0,6,-1
1537920159894135,-1,-3,-1,2,3,1,1,-2
1537920159915079,-1,-3,-2,-3,-3,1,-2,0
1537920159915079,0,-1,-3,0,-5,-4,1,-2
1537920159917073,-1,-1,-1,0,2,14,-2,-1
1537920159917073,-1,0,0,0,4,7,-2,-1
1537920159930039,0,0,-1,-1,-7,-21,3,0
1537920159930039,-1,1,-1,-2,-3,1,-2,-2
1537920159936023,-1,1,-1,-1,-1,-7,-7,-3
1537920159936023,2,-2,-1,2,9,8,2,2
1537920159952977,-1,0,-1,-1,3,15,3,-1
1537920159952977,-3,-2,-1,-2,-7,-5,10,2
1537920159953975,1,-1,-2,0,-4,-17,-24,-6
1537920159953975,-1,-1,-1,-1,0,5,2,1
1537920159974919,-2,-1,-1,1,5,-13,-6,-1
1537920159974919,-1,0,1,2,2,20,17,0
1537920159976914,-2,-2,-4,-6,-8,-10,0,-1
1537920159976914,1,2,1,0,0,-29,-15,-2
1537920159988882,-1,-1,-2,-3,0,12,4,-2
1537920159988882,-1,-1,0,0,3,4,-10,-2
1537920159997858,-2,-2,0,1,0,8,15,1
1537920159997858,-2,-1,0,-1,-3,-9,3,-2
1537920160012819,-2,0,0,-2,-1,-3,-2,-1
1537920160012819,-2,-3,1,2,3,5,-2,-1
1537920160014813,2,-1,-1,1,-5,-2,4,0
1537920160014813,-2,-2,-1,-3,-2,-2,3,0
1537920160035756,-1,1,-1,0,3,-11,-12,-3
1537920160035756,1,1,-2,-3,-11,0,-3,-2
1537920160036754,0,0,1,0,5,10,6,0
1537920160036754,-2,-1,-3,-1,0,9,-5,-2
1537920160048722,-1,-1,0,1,-2,-13,3,0
1537920160048722,0,-2,-1,-1,-2,3,-5,-2
1537920160057697,-2,-3,-2,-4,-14,-7,-2,-2
1537920160057697,0,-3,0,-1,-3,2,3,-3
1537920160072657,-1,-1,0,-1,-4,0,0,0
1537920160072657,0,0,1,3,10,3,-7,0
1537920160074652,-1,0,0,-2,0,-22,5,1
1537920160074652,-3,-2,-2,-2,-11,6,0,-3
1537920160095596,0,-1,-1,-1,1,2,0,-2
1537920160095596,0,-1,-2,-1,-2,6,15,1
1537920160096593,-1,-1,0,0,7,-5,-16,-1
1537920160096593,-1,-1,-2,-3,-8,-13,2,0
1537920160109559,-2,-1,-1,0,5,11,7,1
1537920160109559,0,-1,-3,-4,-7,-15,-8,-1
1537920160117537,-2,1,-1,-1,2,-5,-6,-1
1537920160117537,1,0,0,1,2,6,-4,-1
1537920160132497,-1,-2,-1,-3,-1,9,3,-1
1537920160132497,-1,-1,-1,-2,0,-2,2,0
1537920160134492,1,1,0,-1,2,6,6,1
1537920160134492,-1,-1,1,3,1,-2,1,0
1537920160155436,-2,-2,-1,0,-6,-6,-7,-2
1537920160155436,0,-1,-1,-1,1,-10,-6,-1
1537920160156433,0,-1,-1,-1,3,26,-1,-1
1537920160156433,-1,-1,-1,0,-3,-25,1,2
1537920160169398,-1,-1,-2,-1,-3,14,5,-1
1537920160169398,0,-1,-1,-2,0,-14,-4,0
1537920160178375,0,0,-2,0,2,25,0,-1
1537920160178375,-2,0,-1,0,2,0,2,0
1537920160193335,-1,0,1,-2,-5,-9,1,0
1537920160193335,1,1,-1,1,-2,-12,-15,-3
1537920160194332,0,-1,-1,0,2,1,6,0
1537920160194332,-1,0,-1,-1,3,4,-1,-1
1537920160215276,0,-1,-1,-2,-4,3,1,0
1537920160215276,-1,2,-1,1,-2,5,4,-1
1537920160216273,0,-3,-2,0,-3,-2,0,-1
1537920160216273,1,0,-2,0,0,-3,-4,0
1537920160229239,-2,-1,0,-2,0,-1,1,-2
1537920160229239,0,-1,-2,-2,0,2,0,-2
1537920160238215,0,0,0,0,-2,-8,-1,0
1537920160238215,1,-1,-1,-1,-1,-3,-2,-1
1537920160253175,-1,-1,0,-1,-2,1,-1,-1
1537920160253175,-3,-2,1,-1,2,6,-1,-1
1537920160254172,1,0,1,-1,2,-9,2,0
1537920160254172,-2,-1,-2,-4,-6,10,4,-1
1537920160275116,-2,0,-1,-3,0,0,0,-1
1537920160275116,0,-2,0,0,-5,-16,-7,1
1537920160277111,1,-1,-1,0,4,22,5,1
1537920160277111,-1,-1,0,4,14,5,-11,-3
1537920160289078,-2,-3,-4,-4,-23,-34,1,-1
1537920160289078,-2,-1,-1,-1,1,5,-1,0
1537920160298055,0,-1,0,-1,-3,-10,0,-1
1537920160298055,1,-1,-1,0,2,6,1,-1
1537920160313014,1,-1,-1,0,6,12,-1,0
1537920160313014,-3,-3,-2,0,-2,-8,2,0
1537920160314012,-2,-1,-3,1,-3,0,-1,-1
1537920160314012,-1,-1,0,-2,-4,-3,-1,-1
1537920160334956,-1,-2,-1,1,2,0,-4,-2
1537920160334956,0,1,0,-2,-1,4,1,-1
1537920160336951,0,0,1,-1,-1,-2,-1,0
1537920160336951,0,0,0,-2,-3,-1,1,1
1537920160348919,-1,0,-1,2,3,0,0,0
1537920160348919,1,0,-2,0,2,6,-1,-1
1537920160357895,-2,-3,0,-1,-4,-11,-1,-1
1537920160357895,-4,-2,-1,-2,2,10,-2,-2
1537920160372855,0,0,-2,-3,-9,-12,-2,0
1537920160372855,-1,-3,-1,-4,-6,2,-1,-1
1537920160373852,-2,-1,-1,-1,0,-1,0,-1
1537920160373852,0,0,1,0,3,-6,6,1
1537920160395793,0,0,2,5,17,28,-5,0
1537920160395793,-1,-2,-4,-4,-15,-25,1,-2
1537920160396791,-2,0,-3,-2,-9,-19,-10,-2
1537920160396791,-1,0,0,-1,-2,7,-2,1
1537920160417735,0,-1,-1,0,-1,-7,1,-1
1537920160417735,1,0,1,2,7,6,2,2
1537920160419729,-3,-2,-1,-2,1,13,4,-1
1537920160419729,1,0,-1,-1,-2,-12,-2,-1
1537920160432695,1,-1,-1,1,1,6,-3,-1
1537920160432695,-2,-1,0,0,3,5,0,-1
1537920160434689,-1,-1,-1,-1,0,-4,-2,-2
1537920160434689,-1,-1,-2,-2,-1,1,0,0
1537920160455633,-1,-2,-1,-2,-1,-4,0,1
1537920160455633,1,0,-1,0,-3,3,1,-1
1537920160456631,-1,-1,-1,0,3,-2,0,-2
1537920160456631,0,-1,-2,-1,-5,-2,-2,-1
1537920160477575,-2,1,-3,-2,-7,-21,-5,-1
1537920160477575,-1,-1,1,0,1,11,-2,1
1537920160479569,-1,0,-1,-1,1,4,0,0
1537920160479569,0,-1,-1,-1,-2,-1,-2,-1
1537920160492535,-1,0,-1,-2,3,6,7,0
1537920160492535,-1,0,1,-1,1,-22,-3,-3
1537920160506497,-2,0,-1,-1,-5,12,-2,-2
1537920160506497,-1,0,0,-1,-4,-1,-7,-3
1537920160515473,0,1,0,0,1,2,-2,0
1537920160515473,0,-1,-1,1,5,13,4,0
1537920160516471,0,-2,0,0,-3,-14,3,1
1537920160516471,-1,0,-1,0,-1,-7,3,0
1537920160537415,0,-1,-2,0,1,5,0,-1
1537920160537415,-1,-1,-1,-1,-1,2,0,-1
1537920160539410,0,0,1,0,2,-1,-1,1
1537920160539410,0,0,0,0,-1,5,1,-1
1537920160552375,0,-2,0,-1,-2,-4,-2,-2
1537920160552375,-1,-1,-1,-1,-1,2,-1,0
1537920160559356,0,-1,-2,-1,-1,-3,-2,-2
1537920160559356,-1,0,0,1,0,-4,-1,0
1537920160575314,1,-1,-1,-1,3,3,-1,-2
1537920160575314,-1,-1,-1,-1,0,-4,-2,0
1537920160576311,0,-2,-2,-3,-3,0,1,-1
1537920160576311,0,-1,-2,0,4,-6,-3,-1
1537920160598254,-2,1,0,0,1,8,5,1
1537920160598254,-1,0,-3,-3,-5,1,-2,-3
1537920160599252,-1,1,0,-1,0,0,-4,-1
1537920160599252,-1,-2,-1,-1,-3,1,1,-1
1537920160612216,-2,-2,1,0,3,3,-3,-1
1537920160612216,-1,-1,-1,-2,-1,-8,0,1
1537920160626179,-2,-1,-2,-1,-2,0,2,-2
1537920160626179,0,-1,-1,-1,-1,-3,0,-2
1537920160635155,0,-1,0,0,-4,-4,-1,-2
1537920160635155,-2,-2,-1,0,4,1,-2,-1
1537920160637151,-1,0,-1,0,5,4,3,0
1537920160637151,0,-2,-1,0,3,7,-3,0
1537920160665075,0,0,-3,-2,-12,-12,-3,-2
1537920160665075,1,0,1,1,2,-8,0,0
1537920160667072,-1,1,-1,-2,-4,-8,-5,0
1537920160667072,-1,-1,0,0,3,-17,9,0
1537920160672056,-1,-1,-1,-3,-10,9,3,2
1537920160672056,-1,0,0,1,1,4,-11,-3
1537920160679038,0,-2,-1,1,-1,-3,-10,-1
1537920160679038,0,0,-1,-1,0,-2,-1,1
1537920160694995,-1,0,-1,1,6,1,-2,-2
1537920160694995,-2,0,-2,-1,-1,4,6,0
1537920160696989,0,-1,-1,0,0,-3,0,-1
1537920160696989,-1,0,-2,-2,-3,-3,-2,-2
1537920160717932,-3,-2,0,-1,2,6,1,2
1537920160717932,-2,-1,-2,0,-3,3,-2,0
1537920160718930,0,-2,0,-1,-2,-5,0,-1
1537920160718930,-1,-2,-2,0,3,19,1,-2
1537920160731895,0,-3,0,-2,-1,-17,-3,0
1537920160731895,0,-2,-1,-2,-4,-11,0,-2
1537920160738876,-1,1,-1,-2,-4,2,-2,-2
1537920160738876,0,-2,0,-1,2,11,4,0
1537920160754833,-2,-1,-1,1,5,-7,-2,-2
1537920160754833,0,-1,-1,-2,-9,-7,-4,-1
1537920160756828,0,-1,-1,0,1,7,3,0
1537920160756828,-2,-1,-1,0,-3,-6,-3,-2
1537920160785751,1,0,1,0,2,10,0,0
1537920160785751,-2,0,-1,1,3,8,2,-1
1537920160786749,-1,-1,0,-1,-4,-5,1,0
1537920160786749,-1,-1,-2,-1,-2,3,1,1
1537920160791735,0,-1,0,-1,-4,-9,-1,-1
1537920160791735,1,-1,0,-2,1,-1,-4,-2
1537920160798717,-2,-1,1,0,1,1,1,-1
1537920160798717,0,1,-2,-1,-1,-2,-4,-1
1537920160815672,-1,-1,-1,-1,0,1,1,0
1537920160815672,-2,-1,0,-1,0,2,-3,-2
1537920160816669,-2,-3,-1,0,-1,-2,-2,0
1537920160816669,-1,-1,0,-2,-1,-9,8,-1
1537920160837614,-1,-2,-1,-2,-2,12,-6,-2
1537920160837614,-1,1,-1,-1,-4,-13,-4,-2
1537920160839609,0,0,-1,-3,-1,6,1,1
1537920160839609,-1,-2,-1,-1,-4,-10,-4,-2
1537920160852574,-1,-1,-1,-1,4,-2,2,-1
1537920160852574,-2,-2,-3,-1,-4,5,3,-1
1537920160858558,-1,-1,-1,1,1,0,-1,-2
1537920160858558,-1,0,0,0,-4,-2,-2,0
1537920160875512,0,-1,0,1,1,4,-2,-2
1537920160875512,-1,-2,0,0,-1,0,-1,0
1537920160876510,0,-3,-1,0,0,0,1,0
1537920160876510,-1,-1,-1,-2,0,11,-2,-1
1537920160897452,-1,1,0,0,-4,-8,-2,-2
1537920160897452,-1,-1,-1,-1,2,-2,1,-1
1537920160904434,-2,0,-1,-1,1,4,0,1
1537920160904434,-1,0,0,0,-1,-6,-2,0
1537920160911415,-2,-1,-2,-1,-3,-6,-5,-2
1537920160911415,0,-1,-1,-2,-3,11,10,1
1537920160920391,-2,-1,-2,-1,-1,-9,-8,-1
1537920160920391,0,-2,-1,1,3,14,0,-2
1537920160942333,0,0,-1,-2,-6,-20,0,2
1537920160942333,-1,-2,-1,0,-1,2,-2,-2
1537920160944328,2,-2,-1,0,1,7,-2,-1
1537920160944328,-1,0,1,1,0,-3,-1,0
1537920160958290,-1,-3,-2,-1,-1,9,3,0
1537920160958290,-2,-1,-1,-1,0,-2,0,-1
1537920160959288,0,-1,-1,0,-1,-5,2,-1
1537920160959288,0,-1,0,-1,-3,-4,-4,-1
1537920160971255,-1,0,0,0,2,7,0,-1
1537920160971255,0,-2,-2,0,1,-3,-1,0
1537920160980232,-1,-1,-1,0,0,3,-1,-2
1537920160980232,-1,-2,-2,-1,-1,-2,-1,-1
1537920160995191,-1,-2,1,-1,-2,-2,-1,-1
1537920160995191,0,1,-2,-2,0,-5,-4,-1
1537920160997186,-2,-1,-1,-1,0,7,2,0
1537920160997186,0,0,-1,-2,-3,-6,0,-1
1537920161018130,0,-3,-2,-1,0,1,0,1
1537920161018130,1,-1,-1,0,0,-16,-2,0
1537920161019128,-1,-1,-1,0,2,17,2,0
1537920161019128,1,1,0,-1,-2,-4,-2,2
1537920161031095,-1,2,-2,-3,0,5,-1,-1
1537920161031095,-1,0,1,0,0,1,1,0
1537920161040071,-2,0,-2,-1,-7,-19,-4,-1
1537920161040071,-1,-1,-1,-2,1,4,7,0
1537920161055031,0,1,1,0,3,1,-8,0
1537920161055031,0,0,1,0,-4,6,-8,-2
1537920161057026,-1,-3,0,0,0,-12,-3,0
1537920161057026,-2,-2,0,-1,-2,-4,-1,-3
1537920161077970,-1,0,-2,-2,4,8,6,1
1537920161077970,-1,0,-1,-1,1,5,4,-1
1537920161078968,1,0,-1,0,1,-3,-7,-1
1537920161078968,-1,0,-2,1,-2,-19,-3,0
1537920161090935,-2,-2,0,-3,-2,11,2,-1
1537920161090935,0,-2,-2,-1,0,0,-2,0
1537920161099911,0,1,0,-1,-3,1,4,-1
1537920161099911,-3,0,-1,-2,-1,-6,-4,0
1537920161114871,-2,0,-1,-1,-2,-9,-3,-1
1537920161114871,-1,-1,0,-1,1,8,-1,0
1537920161116866,-1,-1,-1,-3,-8,-10,2,-1
1537920161116866,0,-1,0,0,0,-5,-2,-1
1537920161137810,0,-2,0,-1,-4,0,-2,-1
1537920161137810,-1,0,-2,-2,1,2,3,-1
1537920161138807,1,-1,-1,0,3,-7,-3,-1
1537920161138807,0,0,-1,0,2,24,-3,-1
1537920161151773,0,-2,-1,0,-5,-17,2,-2
1537920161151773,-1,-1,-2,-1,-2,-7,1,0
1537920161160749,-3,-1,0,-1,0,5,-3,0
1537920161160749,0,0,-1,1,1,-6,-5,1
1537920161175708,-1,-1,-3,-2,0,-3,-2,-1
1537920161175708,-1,1,0,-3,-3,0,-2,-1
1537920161176706,-1,-1,-2,-1,0,2,5,-1
1537920161176706,-2,-1,0,1,0,-1,0,-1
1537920161197650,0,0,0,1,-3,0,-2,1
1537920161197650,-1,-2,1,0,-1,-3,-1,0
1537920161199645,0,-1,-1,-1,1,2,-5,-3
1537920161199645,-1,-1,-1,-2,-3,-2,1,-3
1537920161220589,-1,-2,-1,-2,-2,-1,1,0
1537920161220589,-1,-2,-1,-1,1,5,-2,0
1537920161221587,-1,-1,-1,0,1,-2,2,1
1537920161221587,-1,-2,0,-1,-3,-7,0,1
1537920161235549,-1,-2,0,-3,-2,-12,-6,-3
1537920161235549,0,-1,0,0,1,14,0,-2
1537920161236547,-1,-1,0,-1,2,7,0,-1
1537920161236547,-1,-1,-2,-4,-8,-13,-1,-3
1537920161257491,0,0,1,3,1,17,2,0
1537920161257491,1,-2,0,0,-2,-8,-2,0
1537920161259487,0,0,-2,-1,-1,-3,-1,-2
1537920161259487,-1,-1,-3,-1,-5,1,0,-2
1537920161271454,-1,0,-1,0,0,-10,-1,0
1537920161271454,-1,-1,-3,-1,3,1,-3,-1
1537920161280431,-2,0,0,1,2,4,0,0
1537920161280431,0,-1,1,-2,1,-1,0,0
1537920161295390,-2,0,-2,0,0,-2,-4,-3
1537920161295390,0,0,3,2,11,23,2,2
1537920161296389,0,-1,-1,-2,-8,-17,1,-1
1537920161296389,-1,0,0,2,4,-28,-4,-3
1537920161317330,-1,-1,-4,-7,-21,9,6,-2
1537920161317330,-1,0,-1,0,4,-5,-2,0
1537920161319325,1,-1,1,3,9,4,-3,1
1537920161319325,-1,1,-2,-3,-9,-7,-3,1
1537920161340269,-1,0,1,2,8,14,-3,0
1537920161340269,1,-1,-2,-2,-5,-18,4,0
1537920161341266,-1,-1,-1,-3,-2,-5,-2,-2
1537920161341266,-1,-1,0,0,3,11,5,0
1537920161355229,-2,-1,0,0,7,11,14,0
1537920161355229,-3,-2,0,0,-5,-2,-17,-4
1537920161357223,0,-1,1,4,3,6,2,-1
1537920161357223,1,-3,-1,1,1,5,4,-2
1537920161378167,1,2,0,0,4,-11,9,1
1537920161378167,0,1,1,2,5,-22,15,-3
1537920161379165,-1,-1,-5,-5,-15,13,-36,-3
1537920161379165,-13,-6,-4,-3,-2,-18,-48,-10
1537920161400109,16,3,-1,0,9,7,76,13
1537920161400109,-3,5,-2,-1,4,22,-39,-6
1537920161402104,-8,2,5,6,12,-33,-16,2
1537920161402104,50,11,6,4,10,70,-3,8
1537920161423047,-39,9,-7,0,40,43,56,-7
1537920161423047,-31,-14,-1,-3,-58,14,98,31
1537920161424045,62,-2,-26,-4,53,-69,-74,-30
1537920161424045,-24,0,29,11,12,112,13,29
1537920161438008,-68,-39,-34,-35,-94,-81,-67,-51
1537920161438008,83,36,56,52,101,113,5,27
1537920161439006,-39,24,8,-39,-127,-92,69,17
1537920161439006,8,-85,-91,-24,107,-16,-39,-75
1537920161459950,19,82,104,52,3,-22,43,64
1537920161459950,-27,-6,-62,-39,-16,63,-69,-39
1537920161461947,-36,-111,-31,16,6,-64,37,-28
1537920161461947,119,118,76,-1,-66,41,-33,51
1537920161473914,4,-46,58,71,127,25,-21,-1
1537920161473914,-44,-94,-32,-40,-118,-117,-18,-77
1537920161482888,85,84,28,20,66,35,-3,15
1537920161482888,-104,-60,-22,2,14,24,44,-29
1537920161497848,-21,-36,-109,-64,-72,-84,-41,-24
1537920161497848,107,127,63,35,31,9,10,48
1537920161498845,-128,-78,-11,-16,-51,11,-5,-38
1537920161498845,-15,10,-15,-4,-15,-27,5,16
1537920161520786,11,19,14,8,19,60,-16,11
1537920161520786,-42,-71,-50,-18,-3,-51,2,-12
1537920161521784,25,31,-11,-4,-1,39,7,13
1537920161521784,-10,13,30,10,-2,-15,10,15
1537920161533751,-4,-59,-41,-26,-27,-15,-23,-19
1537920161533751,-17,-64,-2,-3,-3,-39,5,8
1537920161542727,21,18,15,3,19,50,-5,19
1537920161542727,-1,24,-1,4,-12,-39,8,-7
1537920161557687,27,35,-2,-1,-15,-12,-7,5
1537920161557687,9,53,2,1,6,-1,-8,2
1537920161559682,7,21,9,12,13,46,6,11
1537920161559682,-5,-30,-27,-15,-20,-38,-2,-6
1537920161580626,23,12,-3,-4,-7,9,20,0
1537920161580626,-28,-4,15,10,22,5,-22,8
1537920161581623,-14,-45,-25,-9,-9,15,8,-5
1537920161581623,13,-5,-8,-12,-17,-33,26,1
1537920161593591,-1,-4,3,-1,8,25,-11,5
1537920161593591,-25,-31,-11,-12,5,-16,28,-6
1537920161602567,-16,-2,7,2,-1,6,-5,6
1537920161602567,-11,-9,-5,4,-7,-24,6,-6
1537920161617527,7,2,14,0,3,3,-74,-3
1537920161617527,-3,2,-6,-5,-3,-7,-6,-3
1537920161619522,7,5,-1,1,1,9,-9,2
1537920161619522,-7,-1,8,6,2,5,3,5
1537920161639469,-6,-16,-13,-2,-5,-4,40,-1
1537920161639469,-12,-1,-5,-1,-1,0,-6,0
1537920161640466,7,11,8,-3,3,-3,-39,-1
1537920161640466,-9,-9,10,16,1,12,83,-1
1537920161662407,-9,-12,4,6,-4,-27,-40,0
1537920161662407,10,13,-14,-16,1,-11,-63,-3
1537920161662407,7,-1,-4,-7,6,0,40,13
1537920161662407,12,-8,-6,-8,-7,7,-38,-6
1537920161677368,2,0,7,6,-2,9,8,-5
1537920161677368,-8,-4,6,11,0,9,-1,-2
1537920161677368,-4,-4,-10,1,1,-5,48,1
1537920161677368,-8,-4,-1,-9,-5,-21,-50,1
1537920161699309,0,2,-1,-4,1,14,67,-3
1537920161699309,1,1,11,5,0,-9,-39,-4
1537920161700306,-16,1,-2,-2,-1,5,-21,-4
1537920161700306,4,7,1,2,-4,-20,-11,-1
1537920161722248,-27,16,-2,3,31,17,-53,-18
1537920161722248,62,-6,-15,-3,28,0,102,31
1537920161723245,-28,-49,-33,-10,-17,24,10,-6
1537920161723245,-4,18,29,19,28,43,49,34
1537920161738205,91,20,21,-18,-97,-18,-96,24
1537920161738205,-112,-21,-14,73,116,75,-31,-57
1537920161739202,24,17,-9,-87,-118,-104,12,20
1537920161739202,-29,-79,-43,-21,108,70,-69,-20
1537920161759149,-50,-68,-11,-31,-100,-29,23,-26
1537920161759149,53,104,89,-12,17,-128,22,-40
1537920161760146,45,-3,21,30,-9,127,-24,37
1537920161760146,-70,-94,-67,-25,-4,-81,23,-45
1537920161782087,-59,101,54,59,127,13,-6,-47
1537920161782087,-47,-104,-50,-23,-17,11,31,27
1537920161783085,-72,-18,-64,88,127,108,-32,-101
1537920161783085,127,127,119,-85,-120,-112,8,5
1537920161797047,20,-128,-64,-16,81,71,-7,96
1537920161797047,-64,-59,-27,23,91,-9,-5,21
1537920161798045,64,61,55,-20,-66,67,-13,20
1537920161798045,-107,-46,-33,28,7,77,9,-29
1537920161819986,27,69,-16,-30,-114,-126,24,-12
1537920161819986,-35,10,27,-20,-47,69,15,-2
1537920161819986,30,-31,7,20,47,-49,-1,3
1537920161819986,31,-5,5,21,1,10,-22,21
1537920161842925,-6,15,-5,-12,-24,-4,0,-19
1537920161842925,12,-14,-25,3,-9,-2,-17,16
1537920161843922,-25,-11,-1,-13,-30,-39,13,-35
1537920161843922,-28,40,28,26,-14,-2,-16,-2
1537920161856888,3,-32,-34,-3,27,6,1,9
1537920161856888,18,9,-8,-9,-47,6,-27,8
1537920161857885,-22,14,40,19,11,-21,31,5
1537920161857885,30,-16,-30,-28,-12,-14,2,22
1537920161879826,-1,-12,-10,15,27,27,12,13
1537920161879826,21,12,23,-18,-27,-12,-23,-23
1537920161879826,-5,12,5,-11,-8,-29,-26,7
1537920161879826,6,-16,-17,36,26,22,25,8
1537920161902765,-6,2,9,-14,-8,-5,6,-24
1537920161902765,15,27,1,-16,-30,-5,-12,2
1537920161903762,-12,-21,-16,-2,17,-16,24,18
1537920161903762,-16,-10,-2,7,6,29,-7,2
1537920161916727,-2,11,15,12,11,23,14,-7
1537920161916727,24,-2,-2,-5,-22,-7,7,10
1537920161917725,-3,-5,-4,-7,11,-23,-8,15
1537920161917725,0,3,-4,8,-1,1,4,-11
1537920161939666,-2,5,9,3,1,6,-4,-3
1537920161939666,3,-5,-13,-4,-3,-8,2,8
1537920161940664,1,1,0,-1,2,17,-8,-7
1537920161940664,-9,11,6,1,2,-15,-39,-4
1537920161962605,0,-11,-2,3,10,12,9,-1
1537920161962605,4,2,2,-2,-10,2,-14,1
1537920161963602,-3,1,1,-3,2,0,30,2
1537920161963602,5,-2,-5,0,-8,-23,7,4
1537920161976568,-1,-3,-3,-2,7,3,-9,1
1537920161976568,3,3,-1,3,-6,-1,1,-7
1537920161977565,-3,1,0,-2,4,-15,-11,-2
1537920161977565,0,-5,-4,-1,-10,-7,-12,1
1537920161999506,-2,-2,-1,-3,0,6,20,-6
1537920161999506,-2,6,3,-1,-7,0,1,1
1537920162000504,0,-5,-3,-1,3,4,-15,4
1537920162000504,-3,0,1,3,4,0,1,1
1537920162022445,-3,1,3,1,1,0,14,-1
1537920162022445,3,0,-3,0,-6,4,1,2
1537920162023443,0,-1,-1,0,2,-13,-6,2
1537920162023443,-1,0,-4,0,3,3,6,-6
1537920162037406,-2,0,2,1,-2,4,-12,2
1537920162037406,1,0,0,-2,5,0,-12,3
1537920162037406,1,-2,0,-3,-5,-21,-1,0
1537920162037406,-3,1,0,-1,5,-1,10,-1
1537920162059348,0,-3,-1,1,5,42,-16,-1
1537920162059348,0,-1,-1,0,1,-2,18,2
1537920162060345,-4,-2,-2,-3,-10,-8,-11,-1
1537920162060345,0,-3,-2,-2,-2,-6,-1,1
1537920162074307,-1,-1,0,0,4,-7,4,-2
1537920162074307,0,-2,-1,-1,-1,12,2,0
1537920162082286,0,2,1,-3,5,5,1,-1
1537920162082286,-1,-1,-2,0,-5,-11,-9,-1
1537920162097245,1,-2,0,0,1,-2,-2,-1
1537920162097245,-1,0,0,-1,-6,-6,-3,-3
1537920162098243,-1,-3,-2,0,0,7,1,0
1537920162098243,0,-1,-2,-2,-3,3,11,2
1537920162119187,-2,0,-1,-2,-1,-15,-14,-4
1537920162119187,3,0,-1,2,0,-7,-15,4
1537920162120184,-1,-3,0,0,6,11,-10,-1
1537920162120184,0,1,1,2,-1,9,25,1
1537920162134146,-2,-1,-2,-4,-10,-16,-1,0
1537920162134146,-2,-4,-1,-2,0,5,23,-4
1537920162142125,-1,-1,-2,-2,-3,-5,-38,-1
1537920162142125,0,1,1,1,6,5,-15,-4
1537920162157085,0,0,-2,-2,-5,1,-1,0
1537920162157085,2,0,-1,-2,-5,-18,-11,-2
1537920162158082,-1,-2,1,0,0,9,12,0
1537920162158082,-1,-2,-1,4,9,13,3,-2
1537920162180024,0,-1,-3,-4,-5,-1,6,2
1537920162180024,-3,-1,-3,-3,-3,-11,-6,-5
1537920162180024,-3,-2,-2,0,-4,-3,8,0
1537920162180024,-2,-1,-1,-1,3,-14,-29,-5
1537920162193987,-1,-2,1,5,8,19,47,2
1537920162193987,2,1,2,2,3,0,-6,5
1537920162201965,-1,1,-1,-2,1,0,22,-1
1537920162201965,0,1,1,-2,-1,-9,-15,0
1537920162216925,0,0,-2,0,-2,-2,-21,-3
1537920162216925,-2,-1,-2,1,-1,7,7,-4
1537920162217923,0,-1,-2,-1,-1,-7,-4,-2
1537920162217923,-2,-2,-3,-4,-3,6,-20,-1
1537920162239865,-2,-1,0,0,-4,-6,17,-4
1537920162239865,0,1,0,0,3,1,5,3
1537920162239865,1,0,-1,-2,-1,-3,10,1
1537920162239865,-1,-1,-1,-2,-2,-2,-2,-2
1537920162263801,2,-1,0,-1,-1,-10,-10,-1
1537920162263801,-1,-1,-2,3,5,7,-5,-4
1537920162266794,-3,-5,-3,-3,-6,-2,-4,-1
1537920162266794,0,-1,-1,1,4,6,19,2
1537920162269786,1,1,3,2,11,2,-9,-5
1537920162269786,-10,-10,-6,-10,-15,14,-7,-7
1537920162277764,4,0,-4,-9,-41,-44,13,-1
1537920162277764,-10,2,2,5,20,7,-3,5
1537920162291726,2,0,-1,-1,4,-8,-74,-9
1537920162291726,4,8,-1,-4,-32,-22,63,-6
1537920162292724,-16,-23,-12,3,35,3,31,-2
1537920162292724,23,14,-5,19,74,40,9,14
1537920162307684,-69,-9,26,-2,-48,5,-7,-1
1537920162307684,49,-35,-37,-7,78,57,-37,-12
1537920162313667,0,57,59,13,-46,6,7,12
1537920162313667,-55,-94,-15,-36,-85,-89,-47,-40
1537920162328627,87,107,1,54,127,87,60,82
1537920162328627,-61,-97,13,-50,-128,-128,24,2
1537920162336605,46,85,-36,-9,99,63,-71,-64
1537920162336605,18,-68,-5,16,4,120,39,-55
1537920162351565,-62,34,-1,-33,-82,-90,20,-32
1537920162351565,79,-55,28,55,127,27,-8,-19
1537920162358546,-66,87,105,-20,-121,11,-13,-27
1537920162358546,57,29,-47,-17,16,12,-24,-2
1537920162367522,8,-75,-33,34,74,-128,-30,8
1537920162367522,-83,-6,-55,-15,-85,17,47,40
1537920162373507,70,-11,14,-15,-57,-101,-30,19
1537920162373507,-11,11,60,20,19,-5,50,46
1537920162388466,-42,-4,-50,-28,-33,-82,-7,-12
1537920162388466,20,83,7,9,58,19,-3,58
1537920162396445,30,-31,-77,3,47,3,1,20
1537920162396445,-84,39,46,-15,-48,-33,-29,-35
1537920162411406,110,-30,-7,-18,-20,51,12,-1
1537920162411406,-40,-2,28,24,11,1,-12,-31
1537920162419384,-35,-43,-21,0,-1,-6,-2,-8
1537920162419384,9,-11,-26,-4,9,0,19,30
1537920162428361,-33,-23,14,5,7,34,-13,-23
1537920162428361,10,34,5,-7,-37,-3,-27,-17
1537920162434344,14,-21,-15,3,28,9,4,19
1537920162434344,-3,1,-7,4,4,-21,20,15
1537920162449305,-8,2,21,-6,-29,24,11,-7
1537920162449305,13,30,-2,-6,-6,-8,-15,-9
1537920162456287,-33,-45,-6,10,17,16,3,7
1537920162456287,-2,15,-3,3,0,-23,-9,-11
1537920162471246,-5,-5,-6,-14,-25,8,-16,-17
1537920162471246,-3,-2,-4,13,15,26,23,1
1537920162479225,-20,-21,-10,-4,17,-4,-28,-1
1537920162479225,7,12,-16,-15,-22,-19,29,3
1537920162488201,4,1,8,-5,0,49,-10,-2
1537920162488201,-9,-5,-12,-5,7,1,1,-2
1537920162494186,-9,-10,11,6,-19,-22,15,1
1537920162494186,9,12,-2,-4,-8,-23,-38,-4
1537920162509145,-17,-18,-7,-3,0,7,7,-10
1537920162509145,0,14,9,4,0,-11,25,-3
1537920162516128,-2,-8,-6,5,14,32,25,2
1537920162516128,3,0,2,5,10,8,23,14
1537920162531086,-7,-5,5,3,2,-16,-29,-7
1537920162531086,-13,4,5,-4,-7,8,-26,-17
1537920162539065,27,-2,-2,-2,5,-9,2,4
1537920162539065,-3,-3,-7,-3,-6,-6,4,2
1537920162555022,-7,0,10,5,-2,19,-13,-17
1537920162555022,3,6,-8,-12,-8,-12,-19,17
1537920162555022,-15,-14,-10,-4,2,0,16,2
1537920162555022,-2,2,3,0,-3,-12,-4,-5
1537920162568985,3,0,0,0,3,26,2,0
1537920162568985,3,2,1,1,2,2,2,-1
1537920162575967,-8,-4,0,3,4,-4,-4,-3
1537920162575967,5,7,4,0,1,-4,25,7
1537920162591924,-1,-1,0,-1,-2,-9,-15,5
1537920162591924,1,1,2,2,-1,7,36,-5
1537920162598905,-3,-4,4,-1,-1,-26,1,6
1537920162598905,-1,2,-3,2,5,52,-27,-7
1537920162614863,-1,-2,0,0,0,-8,-11,2
1537920162614863,-3,-2,1,-2,-1,-2,-18,-9
1537920162614863,-3,-2,1,3,0,4,7,-5
1537920162614863,-4,-2,-2,-4,-6,-11,-3,0
1537920162628825,-2,-4,-3,-5,-5,-14,-8,-1
1537920162628825,3,4,1,3,-1,5,22,3
1537920162636804,-4,-6,-3,1,0,-21,-8,-4
1537920162636804,1,0,-3,3,1,26,5,1
1537920162652762,1,2,0,0,0,-4,1,5
1537920162652762,-6,-3,-1,-3,-7,-10,-70,-14
1537920162658746,-5,-2,-2,-1,5,27,69,3
1537920162658746,4,3,2,4,1,-20,13,12
1537920162674703,1,1,2,-3,-5,-3,9,-1
1537920162674703,-3,-4,-4,-5,-4,-8,-29,-4
1537920162675701,-4,-5,-7,-1,5,23,-47,-6
1537920162675701,2,0,6,-1,1,-11,-9,-6
1537920162688665,-4,1,0,0,-2,-12,-1,-8
1537920162688665,7,-1,0,3,2,12,10,7
1537920162696644,-11,-5,-6,-4,-6,3,-87,-13
1537920162696644,7,5,0,-2,1,-11,-8,-6
1537920162711604,-26,-24,-52,2,57,32,61,5
1537920162711604,55,3,36,7,5,-1,-66,10
1537920162718587,-93,-19,-33,15,120,54,65,-33
1537920162718587,106,56,65,-15,-86,-103,-35,62
1537920162734543,-71,-79,-58,2,40,-8,-54,-85
1537920162734543,28,66,-26,4,106,50,33,26
1537920162735541,9,-70,10,-27,-95,108,-46,0
1537920162735541,-71,-16,-40,42,118,8,-5,-57
1537920162748504,42,43,103,-36,-122,-13,27,-7
1537920162748504,-22,58,25,-8,48,29,-33,-27
1537920162756483,-14,-65,-30,13,89,-52,-20,4
1537920162756483,74,73,37,8,51,11,23,32
1537920162771443,22,-51,-57,34,121,-2,-2,-16
1537920162771443,-11,96,10,-49,-115,-97,23,35
1537920162779421,-77,-38,-3,-20,-46,-128,-16,43
1537920162779421,22,59,-13,28,-12,-45,-17,-95
1537920162794382,-29,-37,50,18,15,65,7,-1
1537920162794382,48,-48,-18,-23,-83,-7,-9,4
1537920162795379,-50,-71,-34,33,125,44,46,-14
1537920162795379,46,40,46,-17,-55,-82,34,-9
1537920162809343,-41,-15,-14,-23,40,110,-29,74
1537920162809343,-34,-19,8,17,84,107,24,-55
1537920162816324,52,14,22,-1,4,62,-5,6
1537920162816324,-57,-36,-12,26,95,123,-7,12
1537920162831284,-7,32,-15,-14,-60,-68,11,12
1537920162831284,-21,-76,-11,8,-16,-33,17,2
1537920162839263,39,70,28,10,-30,-40,17,-5
1537920162839263,-41,0,-26,-29,-45,-1,-11,0
1537920162854223,48,11,13,2,-27,-39,8,-5
1537920162854223,-31,-62,-39,-1,-12,-30,2,5
1537920162855221,37,106,29,5,-27,-6,-15,-7
1537920162855221,-9,-43,-23,-19,-25,16,28,16
1537920162869183,-7,8,4,-6,-14,-10,-6,1
1537920162869183,-12,5,6,24,44,19,3,-14
1537920162876166,49,18,-7,-15,-49,-24,-10,8
1537920162876166,-37,-62,-13,-13,-16,6,1,4
1537920162891124,15,35,14,11,21,-8,9,6
1537920162891124,9,-5,-11,1,7,6,-1,-3
1537920162899103,10,0,10,-8,-18,-18,4,-5
1537920162899103,-21,-24,-8,-1,5,12,-12,1
1537920162915061,1,16,-6,-2,-2,-9,-18,-10
1537920162915061,19,-14,-1,-3,-15,-10,-17,-5
1537920162915061,-11,-4,5,4,-1,16,44,-5
1537920162915061,-24,-8,-4,0,11,36,-14,6
1537920162929023,29,12,-1,-3,-15,-57,0,27
1537920162929023,-22,-20,4,-1,-1,31,7,6
1537920162936004,15,25,4,4,5,-2,2,5
1537920162936004,4,-19,-21,-13,0,-2,-10,-12
1537920162950963,-4,2,-1,-2,-1,10,12,-12
1537920162950963,-7,-19,-9,1,1,-10,12,-3
1537920162966921,7,14,-2,-6,-5,7,-7,-10
1537920162966921,-5,-10,-3,-4,-3,3,6,-7
1537920162974899,6,4,5,3,0,-4,-33,4
1537920162974899,-3,12,7,10,11,-14,-19,-2
1537920162974899,4,-1,-5,-5,-6,9,9,-6
1537920162974899,-8,-11,-3,-4,-5,-28,-12,5
1537920162988861,-4,0,-5,-2,6,65,31,-2
1537920162988861,0,1,1,0,2,-11,17,3
1537920162996840,4,4,-3,-2,0,-13,-36,0
1537920162996840,-3,-10,-4,-2,2,0,-2,1
1537920163011800,5,3,0,1,0,-36,5,-2
1537920163011800,-2,1,1,-2,-6,12,14,-1
1537920163018782,6,1,0,-1,4,3,-10,7
1537920163018782,-4,-6,-2,-3,-5,-7,-1,0
1537920163034739,0,2,1,3,3,9,2,-3
1537920163034739,-4,-1,-1,0,-1,-4,-31,-1
1537920163035736,0,-1,-2,0,-1,-6,5,-1
1537920163035736,-10,-5,-3,-2,5,22,41,2
1537920163048702,14,5,4,0,1,-13,-12,1
1537920163048702,0,-1,5,2,0,-2,6,0
1537920163056680,-1,-2,-5,0,-6,0,-9,-5
1537920163056680,1,-2,-4,-3,0,4,-7,7
1537920163071640,-3,-1,-4,0,-2,6,7,-2
1537920163071640,-2,0,-1,1,-1,-5,-2,-3
1537920163078622,1,0,0,1,0,-3,-3,-3
1537920163078622,0,-2,1,-2,1,-9,-12,0
1537920163094579,-4,0,0,0,2,3,-2,-4
1537920163094579,1,1,-3,-3,-1,-6,22,0
1537920163095576,-1,-2,-1,-2,1,19,-26,-1
1537920163095576,4,-2,2,3,3,-7,19,4
1537920163108542,1,1,-2,-2,-3,8,8,-2
1537920163108542,0,0,1,2,2,-1,6,4
1537920163124499,-2,-3,0,3,0,-14,2,-1
1537920163124499,2,-1,-3,-5,2,11,-14,-5
1537920163131481,0,-1,-1,-2,0,-1,2,2
1537920163131481,-17,-2,0,-1,-2,-4,-9,-3
1537920163139459,3,-1,-1,-1,-2,-8,8,0
1537920163139459,0,-4,0,2,-2,3,-14,-2
1537920163162398,-2,1,-1,0,0,8,5,-1
1537920163162398,-6,-1,-3,0,-2,-2,-5,-2
1537920163163395,-4,-2,-4,-6,-7,-9,5,-1
1537920163163395,-1,0,1,0,-2,-10,-7,-2
1537920163176361,-2,-3,-6,-3,-3,3,8,1
1537920163176361,4,1,1,-2,-3,7,1,-2
1537920163184339,1,2,3,3,5,-2,-16,-2
1537920163184339,2,0,-1,0,-1,2,1,1
1537920163199299,-1,-1,-1,-2,-2,-10,-11,0
1537920163199299,3,-1,-1,1,0,-1,1,-2
1537920163206280,0,-1,-1,-1,-2,2,15,1
1537920163206280,-4,-3,-4,-2,-5,10,-14,-6
1537920163222238,-1,-2,-1,1,-7,-15,4,4
1537920163222238,4,1,0,-2,1,-18,-25,-1
1537920163224232,-3,-3,-1,-3,0,10,8,2
1537920163224232,-2,-2,0,1,3,12,-1,0
1537920163245176,0,-1,0,-2,-3,-5,-2,-2
1537920163245176,-1,-4,0,-3,0,-5,12,1
1537920163247171,-1,-1,-3,3,1,12,5,0
1537920163247171,1,-1,-2,-2,0,-12,-3,2
1537920163259140,-1,0,5,-1,-1,-2,-6,-2
1537920163259140,-1,0,0,-1,-5,-14,-4,-2
1537920163266120,-1,0,-2,-4,-4,21,14,1
1537920163266120,-1,0,-1,0,-1,-10,-12,-3
1537920163283075,-2,-1,-2,-2,0,-9,-2,-1
1537920163283075,-1,-1,-1,-2,-1,9,6,-2
1537920163284073,0,-1,-1,-2,-3,-10,-6,-2
1537920163284073,1,0,0,-1,-2,8,-6,0
1537920163305016,-2,-1,0,-1,0,1,-2,0
1537920163305016,0,-2,-5,-5,-7,-27,-13,-2
1537920163307011,1,0,-1,-2,-2,23,27,2
1537920163307011,-1,1,1,3,0,-3,-6,0
1537920163319976,-3,1,-3,0,-2,-7,-31,-7
1537920163319976,-1,-3,-2,-1,-4,2,59,1
1537920163325961,0,-1,0,-2,-1,5,0,0
1537920163325961,0,1,0,0,2,0,6,1
1537920163342916,0,0,3,3,1,-1,-7,1
1537920163342916,2,-1,0,1,2,10,-21,-2
1537920163343913,-3,-4,-10,-4,-3,-9,-4,-4
1537920163343913,1,-1,10,2,3,12,15,2
1537920163364856,-1,-1,-3,-2,-2,-1,-6,0
1537920163364856,-2,-2,-1,1,0,-14,-40,-4
1537920163366851,-3,-2,-1,-3,-1,-12,23,-3
1537920163366851,1,-1,-4,-2,-2,16,-15,1
1537920163379816,1,1,4,3,2,-6,38,3
1537920163379816,2,3,1,0,2,-5,-32,-3
1537920163386798,-4,-4,-3,-1,-2,1,-30,-4
1537920163386798,1,0,2,0,0,-6,58,4
1537920163402755,0,-1,-2,1,4,32,25,2
1537920163402755,3,2,-1,1,1,-8,7,3
1537920163403753,5,2,-3,-2,-4,-13,11,4
1537920163403753,-6,-5,-3,-2,-2,23,-5,-14
1537920163425694,15,6,-1,-2,1,-9,18,10
1537920163425694,-21,3,-2,-4,-2,12,11,-2
1537920163426691,-4,-8,-9,-4,-1,-33,-90,-17
1537920163426691,-7,-3,-4,-4,21,15,-11,-25
1537920163438659,9,-45,-5,20,31,-38,-30,19
1537920163438659,-34,29,-25,-25,-29,72,53,11
1537920163447636,-10,88,78,4,-13,-1,3,-4
1537920163447636,16,-97,-63,14,22,-59,-13,1
1537920163462596,-93,118,35,14,69,9,-39,-18
1537920163462596,46,-29,81,14,-99,-18,-39,31
1537920163464591,32,-101,-88,34,125,-9,-101,-59
1537920163464591,-44,127,127,34,-97,-128,66,67
1537920163485535,24,-125,-52,-86,-91,10,6,-48
1537920163485535,13,-57,-61,30,127,-37,-48,-34
1537920163486533,4,7,23,-22,5,94,0,-50
1537920163486533,-58,-49,-44,-3,76,82,-18,-50
1537920163498501,76,46,-47,20,55,-118,-2,38
1537920163498501,-80,2,38,-17,-64,-41,31,6
1537920163507477,98,-114,-117,-35,0,-47,19,12
1537920163507477,-87,-46,19,14,71,91,-24,-26
1537920163522437,55,72,97,12,-73,93,20,23
1537920163522437,-99,-2,-25,27,127,121,-10,-42
1537920163524432,15,-4,-39,12,7,-120,51,84
1537920163524432,-16,31,-52,-82,-80,-77,-25,-65
1537920163545376,51,-35,-44,-16,37,39,-22,52
1537920163545376,127,-22,24,30,39,21,24,58
1537920163546374,-128,-40,32,12,24,57,-32,-49
1537920163546374,45,110,55,26,21,16,30,1
1537920163559340,-56,10,11,4,-22,-13,0,-2
1537920163559340,22,-3,-42,-28,-44,-40,-3,-42
1537920163567316,14,12,7,0,-18,20,31,42
1537920163567316,30,-56,-24,-10,-29,-14,-14,11
1537920163583273,-32,-12,-6,-1,-20,-22,13,-46
1537920163583273,13,-7,-16,-1,7,4,3,26
1537920163584271,-9,15,20,-7,-49,-19,4,-9
1537920163584271,18,-3,16,3,-11,-10,1,16
1537920163605214,-4,-30,-15,10,21,11,-30,-14
1537920163605214,3,9,-5,-15,-19,-20,-4,-6
1537920163606211,-11,32,31,5,-14,3,33,17
1537920163606211,30,-18,-27,-3,0,-2,-21,-2
1537920163619176,-5,-12,13,2,20,9,-27,-1
1537920163619176,-4,1,-2,-10,-21,-21,-6,-12
1537920163628153,-3,26,4,-4,-6,-22,34,-3
1537920163628153,20,-22,-19,-5,8,39,8,22
1537920163643114,-14,-18,-1,2,-12,-19,-14,-25
1537920163643114,-5,14,3,-8,-5,-8,-25,-3
1537920163644110,4,4,7,0,-15,6,15,7
1537920163644110,11,-8,-6,4,5,-10,-18,9
1537920163665054,-15,-6,-3,0,1,6,40,4
1537920163665054,8,6,-1,-3,-2,-26,-49,-9
1537920163667049,4,8,6,6,5,1,-18,12
1537920163667049,6,-8,-5,1,5,-6,18,1
1537920163679017,-7,-2,-3,0,3,32,27,-12
1537920163679017,-5,-13,-5,-4,2,14,62,10
1537920163687993,25,14,9,-4,-9,-4,-4,3
1537920163687993,-4,-9,-1,1,-1,-15,-20,-1
1537920163702954,5,-2,-5,1,1,-16,-5,-2
1537920163702954,2,1,-1,-4,-5,16,16,-6
1537920163703952,-15,2,7,2,-5,-1,-6,0
1537920163703952,8,-4,-6,-3,2,-8,-8,0
1537920163724896,2,-6,-3,0,6,5,-2,1
1537920163724896,-4,2,2,-1,-7,-10,-24,-6
1537920163726892,-7,1,-3,-7,-13,3,21,-3
1537920163726892,6,-3,-3,3,13,14,-44,3
1537920163738858,-9,-5,-4,0,0,-15,5,-7
1537920163738858,4,9,14,4,-2,-17,-5,3
1537920163747835,-5,-3,1,-2,0,31,18,-5
1537920163747835,5,-3,-4,-2,-2,4,17,5
1537920163762794,-5,-1,-1,1,-5,-8,-21,-2
1537920163762794,0,1,-6,-3,-4,-10,13,-1
1537920163763792,1,1,-2,1,0,-23,-20,1
1537920163763792,-1,-3,3,0,-2,2,1,-2
1537920163785732,-2,-2,-1,-1,-1,-2,-1,-2
1537920163785732,-1,-3,-4,-5,-2,0,-2,1
1537920163786730,-4,-3,1,-5,-7,11,6,0
1537920163786730,3,1,-2,1,-2,-14,6,0
1537920163798697,1,-3,-3,1,3,13,7,4
1537920163798697,2,2,1,4,3,-22,-10,0
1537920163807673,-4,1,0,1,0,23,11,-1
1537920163807673,2,-1,-3,-3,-5,0,4,1
1537920163822633,-2,-2,-1,-1,2,1,-1,-2
1537920163822633,-2,-1,-1,-2,-3,-6,2,-2
1537920163824627,-3,-2,0,-4,-3,-13,27,0
1537920163824627,0,-5,-3,-1,4,40,-42,-3
1537920163845572,2,2,4,3,2,-20,-2,-4
1537920163845572,0,0,-3,1,-1,1,5,0
1537920163846569,1,-1,0,1,0,0,-5,-1
1537920163846569,-1,-1,-2,-1,-3,0,20,3
1537920163858537,-6,-4,-4,-3,-5,9,5,-1
1537920163858537,-2,-2,-3,-3,-2,-4,-10,-4
1537920163867514,-1,0,-1,0,2,3,-3,-2
1537920163867514,1,-1,-3,-6,-6,-18,-14,-3
1537920163882474,1,0,-1,1,1,7,10,-2
1537920163882474,0,0,0,1,2,19,10,-2
1537920163884470,-2,-1,-1,-1,-2,-33,-28,-1
1537920163884470,1,0,-2,0,-1,-2,9,2
1537920163905413,-1,-3,-1,-1,1,0,-1,-1
1537920163905413,-2,0,-2,-5,-4,-2,-19,-2
1537920163906411,0,1,2,2,1,4,20,-1
1537920163906411,1,1,0,1,-6,-16,-8,1
1537920163919375,-2,-1,-3,-2,6,19,5,-1
1537920163919375,-1,-1,-1,-2,-2,27,21,2
1537920163928354,1,0,1,-1,-9,-21,-47,-4
1537920163928354,-2,-1,-1,0,1,2,18,-2
1537920163942314,1,-1,-1,0,0,-4,23,-1
1537920163942314,0,0,0,4,4,-3,-20,-3
1537920163944310,-1,0,-4,1,1,-3,1,2
1537920163944310,-1,-1,-1,-5,-1,-5,-4,-1
1537920163965255,-4,-2,-2,-4,-3,16,-10,0
1537920163965255,-1,-2,0,0,-1,-12,9,-3
1537920163966252,1,0,1,0,1,3,-24,-1
1537920163966252,0,-1,0,0,3,4,9,-2
1537920163979217,0,1,0,-1,-5,-10,29,1
1537920163979217,-1,-1,-1,-1,-1,-8,-34,1
1537920163988191,4,3,1,-1,1,0,-8,-1
1537920163988191,-7,-2,-4,-4,-2,-1,5,-5
1537920164003150,7,7,0,0,2,-9,-4,12
1537920164003150,19,2,-11,5,27,35,23,-4
1537920164004148,-38,-32,-23,-2,53,-30,14,-13
1537920164004148,38,20,23,-3,-68,69,16,16
1537920164025092,-42,-44,-58,-8,85,25,-5,-23
1537920164025092,20,100,76,40,86,7,113,40
1537920164027087,-68,-48,-12,-35,-93,-55,-109,-29
1537920164027087,-9,-93,-96,34,108,60,62,16
1537920164039055,-5,17,16,-54,-127,-117,0,-4
1537920164039055,-86,-71,-70,2,94,30,-61,17
1537920164048031,-7,127,127,0,-106,-85,-50,-66
1537920164048031,81,103,66,-6,83,84,46,-12
1537920164061994,-35,-84,-75,2,-33,-75,42,13
1537920164061994,93,-29,18,8,-4,77,93,57
1537920164068975,-81,-27,-37,52,127,66,-12,-92
1537920164068975,-86,0,80,-14,-128,0,-78,22
1537920164084934,127,-39,-3,18,127,18,-97,40
1537920164084934,-18,-92,-76,-61,-128,-84,-29,-43
1537920164086928,27,-51,-27,3,11,9,25,27
1537920164086928,-16,93,22,-7,10,-65,-28,-13
1537920164098895,-25,51,68,35,-14,109,88,-17
1537920164098895,-35,16,-39,-16,-3,-94,-58,24
1537920164107872,-64,50,-14,-9,-7,71,47,4
1537920164107872,66,-55,-91,-13,17,-14,-18,26
1537920164121834,-128,-74,52,1,-56,-81,7,-25
1537920164121834,27,1,19,14,10,-6,-26,7
1537920164128815,25,16,5,10,37,44,62,38
1537920164128815,-15,14,10,3,-6,-38,1,-14
1537920164145770,7,6,-31,-9,-3,16,-37,-8
1537920164145770,7,-34,-9,-1,-6,42,8,-44
1537920164146767,39,77,26,5,-11,-21,5,29
1537920164146767,-33,-55,-15,-10,-13,-19,-16,-15
1537920164167712,10,38,-1,0,-8,25,-12,12
1537920164167712,-24,7,14,-3,-14,-18,-19,-20
1537920164169706,39,-42,-6,0,-12,5,4,35
1537920164169706,2,-14,-7,5,14,-36,11,-4
1537920164181674,-15,33,-5,-11,5,18,-14,-21
1537920164181674,-13,19,17,4,-18,3,-1,-11
1537920164188655,28,-41,-29,-13,-3,-11,-21,9
1537920164188655,-20,-1,12,8,8,-13,-26,-16
1537920164205610,15,5,4,9,3,13,4,-2
1537920164205610,-6,3,-5,-11,-12,16,12,-11
1537920164206607,23,-15,-14,-11,-13,-6,10,10
1537920164206607,-19,-11,1,2,10,-19,-33,-12
1537920164226584,14,19,8,4,-8,11,-26,3
1537920164226584,5,14,3,2,0,-8,-34,-6
1537920164235530,-9,-6,9,9,21,-9,66,6
1537920164235530,3,-8,-5,-7,-16,6,7,-14
1537920164241514,6,3,-9,-7,1,9,7,14
1537920164241514,-7,8,17,6,-2,-17,-50,-10
1537920164250490,13,-8,-6,-2,-4,10,0,19
1537920164250490,-8,-20,-8,4,7,-20,-23,-18
1537920164265450,10,24,1,-1,-1,16,51,3
1537920164265450,-6,3,1,-6,-6,-9,-2,-9
1537920164266448,-22,-17,-5,-3,-11,-2,-15,0
1537920164266448,53,6,1,2,7,-3,20,21
1537920164287391,-3,0,4,-1,-1,-3,-19,-6
1537920164287391,-8,3,15,5,-4,44,20,0
1537920164289386,9,-9,-12,-6,-1,-10,-25,-8
1537920164289386,-19,-1,-1,-1,1,-10,28,-2
1537920164301354,2,-4,-1,2,1,-3,-12,-6
1537920164301354,3,4,-1,-3,-5,-18,13,-3
1537920164310330,8,-7,-3,-4,-4,18,-2,0
1537920164310330,-13,3,-1,0,4,-20,-3,2
1537920164325290,5,0,4,2,-1,-4,-17,0
1537920164325290,-8,2,-1,5,4,5,-30,-4
1537920164327285,4,-4,1,-2,-1,11,3,4
1537920164327285,-10,-4,-4,-3,-6,-19,24,2
1537920164348228,2,6,-2,-2,-2,4,-24,-7
1537920164348228,-1,1,1,-2,-2,9,90,-1
1537920164349226,6,-8,-3,-5,-4,3,-25,-2
1537920164349226,-5,0,-2,2,4,-7,-23,-4
1537920164361194,3,-1,0,0,-2,-8,-1,-2
1537920164361194,-4,0,1,1,2,-6,-13,-3
1537920164370170,5,-2,-1,-3,-4,-7,9,2
1537920164370170,-10,-4,-2,-3,-3,-22,-6,-3
1537920164385131,-1,-1,3,2,2,17,3,-3
1537920164385131,2,1,1,1,1,20,-5,-2
1537920164387125,2,-2,-5,-2,-1,-23,11,1
1537920164387125,-5,-2,-3,0,4,47,-6,2
1537920164408068,-2,-2,1,-1,-6,-28,-23,-3
1537920164408068,1,2,-2,-4,-3,5,41,1
1537920164409065,1,-2,-3,0,0,-1,-13,1
1537920164409065,-3,-3,0,-1,1,8,23,1
1537920164421033,1,1,-2,2,0,-18,-14,-3
1537920164421033,-3,2,2,-3,-2,-3,-1,-3
1537920164430009,0,-2,4,0,1,7,10,4
1537920164430009,-3,-2,-6,-4,-5,-4,2,-4
1537920164444969,0,1,0,5,3,-5,-4,-2
1537920164444969,0,-1,-4,-4,-7,-2,-19,-1
1537920164446964,0,-3,-3,0,0,1,-4,-4
1537920164446964,-4,-2,0,-1,-3,-4,2,0
1537920164467908,0,0,-1,-3,0,14,1,-2
1537920164467908,-2,-1,3,2,-3,-4,0,-1
1537920164468905,0,-3,-3,-1,0,2,10,0
1537920164468905,-1,0,1,-1,-2,-12,-23,-2
1537920164481870,1,2,1,1,0,-14,6,-1
1537920164481870,0,-1,0,-1,0,-1,-10,0
1537920164489849,-2,-4,-3,-2,-4,23,28,0
1537920164489849,-1,-1,0,4,9,17,-9,-3
1537920164504809,-2,0,-1,-2,-4,-12,-2,-2
1537920164504809,-2,1,-1,-2,-4,-11,-9,0
1537920164506804,2,-1,-1,0,0,-17,-5,-1
1537920164506804,-2,-3,-3,-4,-5,-23,-8,-3
1537920164527748,0,-1,10,-2,0,29,19,5
1537920164527748,-1,0,1,3,4,-6,-8,3
1537920164528745,-1,1,0,-1,-1,3,-10,0
1537920164528745,-2,-1,-1,-1,1,0,16,4
1537920164541711,0,2,-4,-1,0,-2,-2,-2
1537920164541711,3,1,4,4,7,12,3,0
1537920164548692,1,1,2,-2,-3,-14,-8,-2
1537920164548692,0,-1,-1,0,-2,5,-18,-4
1537920164565647,1,-2,-3,-3,1,16,44,0
1537920164565647,2,1,0,-1,0,-16,-2,4
1537920164566644,1,2,-1,2,3,12,30,1
1537920164566644,-2,0,0,-4,-2,-1,17,4
1537920164587588,-1,-1,-1,2,1,-2,-39,-4
1537920164587588,0,0,-2,-3,-2,-14,6,-3
1537920164589583,0,-1,0,-2,1,-5,-9,-2
1537920164589583,-1,-1,1,0,-1,10,13,-2
1537920164602548,0,0,0,1,0,-9,-20,-4
1537920164602548,0,-2,-5,-6,-8,2,16,1
1537920164608532,0,-2,-1,-1,-4,-15,-19,-3
1537920164608532,-2,-2,-1,0,-1,3,11,0
1537920164624489,-3,-2,-2,-1,-1,-2,-11,1
1537920164624489,-4,-4,-1,0,-2,-2,-3,-4
1537920164631470,1,0,-2,-1,1,12,0,1
1537920164631470,0,0,-1,1,-1,14,-8,1
1537920164647428,-1,-1,1,0,1,-13,6,0
1537920164647428,-1,0,-2,-3,-7,-43,-18,-2
1537920164649423,-1,-2,-3,-3,-2,18,1,-3
1537920164649423,0,-1,-1,2,5,18,-16,-2
1537920164661391,0,-2,-2,1,-3,-5,-2,-2
1537920164661391,0,-3,-3,-1,-3,8,7,0
1537920164670367,-2,-1,-1,2,-5,-48,-32,-2
1537920164670367,-3,-2,-1,-5,-4,3,0,-2
1537920164685327,-1,1,-1,-2,1,34,24,1
1537920164685327,-2,0,0,3,5,-10,-1,-1
1537920164686324,0,0,-1,-1,-3,1,5,1
1537920164686324,-1,-1,-1,-3,-5,-19,-7,0
1537920164707268,-3,-3,-1,-2,-3,10,-12,-5
1537920164707268,1,-1,-1,-2,2,16,-3,1
1537920164709263,-1,1,0,1,1,1,-2,-1
1537920164709263,1,0,-1,0,-1,-6,-7,-1
1537920164721231,-1,0,0,-3,-3,-5,17,1
1537920164721231,-2,0,0,0,1,3,-6,-3
1537920164730207,0,-1,-2,-3,-1,1,7,0
1537920164730207,-4,-1,-1,-1,0,-7,-5,-4
1537920164745167,0,0,-1,0,-1,-7,-2,-3
1537920164745167,2,0,0,0,1,-21,-5,0
1537920164746164,-2,-1,-1,1,2,44,-23,-4
1537920164746164,0,-1,-2,1,0,-18,11,-1
1537920164768105,0,-1,-2,-2,-1,9,0,3
1537920164768105,-2,-1,-1,-2,-3,-4,-11,-2
1537920164769103,-1,-1,0,-3,-3,-9,5,-1
1537920164769103,0,0,1,-1,-1,6,28,3
1537920164790047,1,-2,1,2,0,-17,-9,2
1537920164790047,-1,-1,-1,-3,-3,15,4,-4
1537920164792041,0,0,0,3,1,-8,-11,0
1537920164792041,1,-1,-3,1,0,5,-5,-1
1537920164805007,-1,0,-1,-3,-3,-6,5,-2
1537920164805007,-1,-2,-2,-2,-1,9,-3,-3
1537920164807001,-5,-4,0,-3,-2,-1,10,-6
1537920164807001,0,0,-2,3,1,0,1,0
1537920164827945,3,-1,-4,-5,-6,-4,-1,1
1537920164827945,1,0,1,-1,2,-3,-8,2
1537920164828943,-3,0,0,-3,-1,-9,3,-6
1537920164828943,0,-1,1,-1,1,-4,-8,-3
1537920164840911,-2,-1,-1,2,5,26,-16,0
1537920164840911,-2,-2,-3,-3,-4,-2,-10,-2
1537920164849887,2,0,0,2,0,7,26,3
1537920164849887,-1,0,1,0,-1,-9,-10,0
1537920164864847,-2,-2,0,0,0,-13,0,-2
1537920164864847,-1,-1,-2,-2,0,2,-18,-1
1537920164871828,-2,0,1,1,0,-2,-5,1
1537920164871828,-1,-2,-1,-2,-2,-1,-1,-1
1537920164887786,2,-2,0,-1,-2,-13,-14,1
1537920164887786,-3,-1,-1,0,-3,12,23,-1
1537920164888783,1,2,3,2,5,3,-3,2
1537920164888783,-1,-2,-3,-5,-4,-1,3,-3
1537920164901748,0,0,-1,-3,-2,-6,2,0
1537920164901748,-2,0,-2,0,-1,-4,3,0
1537920164910725,1,1,-2,-1,-2,1,3,1
1537920164910725,-1,-1,0,0,-1,2,-5,1
1537920164924688,-1,-2,-2,-1,-3,-17,0,-1
1537920164924688,-1,-2,0,-1,3,17,3,-5
1537920164931670,0,-1,-1,-1,-1,-4,1,1
1537920164931670,-2,1,1,3,4,11,-2,1
1537920164947627,-1,1,-1,-1,-2,-4,6,1
1537920164947627,-1,4,-1,-1,-4,-12,-6,0
1537920164949623,-1,-7,-4,-4,-5,0,2,1
1537920164949623,2,-2,1,0,-1,-6,-3,2
1537920164961590,-2,-1,1,3,1,0,0,-4
1537920164961590,-1,0,-1,1,0,1,-6,-1
1537920164970566,-2,0,-2,-2,-2,-4,-1,-3
1537920164970566,-2,-1,1,0,1,2,2,-2
1537920164984528,0,0,-3,-3,-2,10,-7,0
1537920164984528,-2,-4,-1,-1,-2,-1,19,1
1537920164991512,2,4,-1,0,-1,-13,-37,-3
1537920164991512,-3,-7,1,0,-1,-11,12,4
1537920165007467,-5,-2,0,0,2,7,-1,-1
1537920165007467,0,-3,-1,-1,3,25,6,0
1537920165009464,-2,-3,-1,-1,-2,8,21,-3
1537920165009464,3,5,1,-1,0,-9,-31,-3
1537920165021430,3,0,0,0,-1,-12,-7,-1
1537920165021430,-3,-3,-2,-3,-5,-11,-9,-2
1537920165030405,-4,-2,0,-2,-2,-1,-10,-5
1537920165030405,3,1,1,2,1,-7,-31,-1
1537920165044367,0,-1,-1,0,2,-9,44,2
1537920165044367,1,0,1,1,1,-1,-6,-1
1537920165051348,0,0,0,1,1,-5,11,1
1537920165051348,-4,-4,-4,-4,-4,15,5,-2
1537920165067306,0,-2,1,0,-2,2,-10,-2
1537920165067306,-2,-1,-1,-1,-2,-8,-11,-7
1537920165069300,1,-1,-1,-1,-1,-11,2,7
1537920165069300,-1,-1,-2,0,2,23,7,-1
1537920165090244,-1,-1,-3,-3,-4,1,-5,-2
1537920165090244,0,0,0,0,2,2,0,-1
1537920165091242,0,-1,-1,-2,-3,0,-2,-3
1537920165091242,-1,0,-1,1,-3,-10,-4,-1
1537920165104207,-1,1,-1,0,0,6,4,-4
1537920165104207,1,4,0,0,-1,-7,3,4
1537920165111188,-2,-8,0,3,2,-7,-5,-1
1537920165111188,-2,1,-3,-4,-2,1,7,-5
1537920165128143,-1,-2,-2,-4,-2,3,-7,-2
1537920165128143,0,0,0,0,0,-7,-1,2
1537920165129140,0,1,-1,1,2,7,2,1
1537920165129140,-3,0,-2,-4,-4,0,12,-5
1537920165150085,0,-3,0,0,0,-2,-7,0
1537920165150085,1,1,-1,1,0,-1,-4,3
1537920165152079,-2,0,-1,-1,1,3,6,0
1537920165152079,-1,-2,-1,-1,0,-2,2,-3
1537920165165045,-1,-1,-2,-1,-2,-2,-3,-4
1537920165165045,-1,-2,0,0,-1,3,0,-1
1537920165171029,0,-1,-1,-2,-3,-1,-3,0
1537920165171029,1,-1,0,1,-1,-4,3,2
1537920165188981,0,0,1,-2,0,2,-2,1
1537920165188981,-2,0,0,0,-2,-2,-5,-6
1537920165193968,-1,0,-2,-3,-1,0,0,-2
1537920165193968,-1,0,-1,-1,0,-4,-1,1
1537920165209926,-1,0,0,2,-1,-2,1,2
1537920165209926,1,-1,0,-2,-2,-3,-4,-2
1537920165211922,1,-2,0,-1,-1,-1,0,1
1537920165211922,2,0,1,0,0,-1,3,1
1537920165223888,-1,1,-1,-2,0,1,-2,0
1537920165223888,0,-1,-2,-2,0,-1,0,0
1537920165232864,0,1,0,2,2,0,0,-1
1537920165232864,-2,-1,-2,-2,-2,-3,1,-2
1537920165247823,-1,0,-1,1,0,-2,0,0
1537920165247823,-1,0,0,0,-1,-3,-2,0
1537920165248821,-1,1,-1,-1,-1,-1,0,-1
1537920165248821,-3,-1,-2,0,-1,0,-1,-2
1537920165269764,0,0,-3,0,0,0,-1,-2
1537920165269764,0,-3,0,-1,-3,0,-1,-2
1537920165271759,-1,2,0,-1,-1,1,0,0
1537920165271759,-2,-2,-1,0,0,-1,1,0
1537920165283727,-1,-2,1,1,0,0,0,0
1537920165283727,-1,-1,-1,0,0,-1,-1,-1
1537920165292704,-1,0,-2,-2,-2,0,1,-2
1537920165292704,-2,-1,-1,-1,-1,-3,-4,-3
1537920165307663,1,-1,0,0,-2,1,1,4
1537920165307663,0,-2,-1,-1,-1,-2,0,1
1537920165309658,-2,-1,0,0,-3,-1,-2,-6
1537920165309658,0,-1,0,-1,0,-1,-1,1
1537920165330603,-2,-1,0,-1,2,2,1,0
1537920165330603,0,-1,-1,-1,1,0,1,0
1537920165331601,-2,-1,-2,-2,-2,0,-2,-2
1537920165331601,1,0,-2,-1,-1,-2,0,0
1537920165352545,0,1,1,0,-1,-1,0,-1
1537920165352545,0,-2,-2,0,1,-1,-2,1
1537920165354540,0,-1,-1,0,-1,1,-1,-1
1537920165354540,1,-1,-1,-1,-2,-2,0,-2
1537920165367504,-2,-3,-2,-2,0,-1,-1,-1
1537920165367504,-1,0,-1,0,0,-1,-1,-1
1537920165369499,-1,-1,-2,-1,0,0,-1,0
1537920165369499,0,0,-2,0,0,1,0,1
1537920165390442,-1,-1,-1,-2,2,2,-1,-3
1537920165390442,-2,-3,0,-4,-14,-8,-2,-1
1537920165391440,0,-2,0,0,0,0,0,-1
1537920165391440,0,-1,-1,-1,1,-1,-1,1
1537920165403408,0,-1,-1,0,2,1,1,-3
1537920165403408,-1,1,0,4,18,21,-1,2
1537920165412384,0,-2,0,2,6,0,1,-1
1537920165412384,-1,-2,1,-1,10,-5,-4,-1
1537920165427344,-1,-2,-6,-9,-41,-36,-4,-2
1537920165427344,-1,-2,-4,-6,-20,0,0,0
1537920165429338,1,-1,0,2,20,-9,-3,0
1537920165429338,-4,2,2,3,-2,26,-3,-1
1537920165450282,0,2,-1,-3,-12,-7,4,3
1537920165450282,-3,-3,-4,-5,-6,-12,-3,-6
1537920165451279,0,1,1,-3,-4,13,0,3
1537920165451279,1,-2,0,1,8,-4,3,7
1537920165464245,0,-1,2,6,16,13,-3,1
1537920165464245,1,1,2,1,1,2,1,0
1537920165473221,-1,-1,-2,-1,-3,-3,0,-1
1537920165473221,-1,0,0,-1,-1,-2,0,-3
1537920165488181,-2,-4,-3,-2,-2,4,-2,-5
1537920165488181,0,-2,-1,0,3,-2,2,4
1537920165489179,-1,-1,-2,-2,-4,-2,-2,-2
1537920165489179,0,0,-2,-2,-10,-7,-2,-4
1537920165510124,-2,-1,0,-2,3,3,-2,0
1537920165510124,-1,-1,0,-1,4,-3,-1,-3
1537920165512119,-1,-2,0,1,-7,-1,0,-3
1537920165512119,0,-2,-1,-1,5,18,2,1
1537920165524086,1,1,1,5,25,10,1,3
1537920165524086,-3,-2,-2,-5,-21,-17,1,-6
1537920165533063,0,0,-3,-6,-11,15,-1,2
1537920165533063,-3,-5,-5,-5,-18,-18,2,-1
1537920165548022,0,-1,1,2,11,-9,-3,0
1537920165548022,1,-1,0,1,0,15,1,1
1537920165549020,-1,0,-2,0,-3,-3,-2,-4
1537920165549020,0,-1,0,1,10,0,-1,-5
1537920165569963,-1,-1,0,2,10,14,1,1
1537920165569963,-1,1,0,3,5,-4,-2,-1
1537920165571959,0,-1,-1,-1,-1,-4,-2,-1
1537920165571959,-1,-1,0,1,4,-20,-5,-1
1537920165583926,-1,-3,-2,-6,-12,11,3,-2
1537920165583926,2,0,-1,1,-1,-7,-2,0
1537920165592904,-3,-1,0,3,17,12,-1,-2
1537920165592904,0,1,-1,-4,-16,-41,-5,0
1537920165607862,-2,-2,-4,-7,-20,7,2,-3
1537920165607862,2,0,1,1,6,4,4,7
1537920165608860,-1,-1,-3,-3,-11,-8,2,2
1537920165608860,0,1,0,-1,8,13,0,1
1537920165629802,-3,0,1,1,3,-5,-5,-4
1537920165629802,-2,-2,-3,-2,-2,-4,-6,-2
1537920165631797,-2,0,1,3,3,0,0,-2
1537920165631797,-2,-1,0,-4,-5,4,1,-2
1537920165643766,1,-2,-3,-4,-2,-8,-3,1
1537920165643766,-3,0,1,2,6,5,-1,-4
1537920165652741,1,1,-3,-3,-5,-7,0,1
1537920165652741,-3,-2,0,0,-2,7,0,-1
1537920165667701,-1,-2,0,-1,-1,-5,2,1
1537920165667701,-1,0,0,0,5,1,1,0
1537920165668698,1,-2,2,1,-3,-1,-3,0
1537920165668698,0,-1,-3,0,-2,2,1,0
1537920165690640,-1,0,-1,0,3,-2,-1,-3
1537920165690640,-4,-2,-2,-2,-2,-3,-2,-1
1537920165691638,-1,-1,0,-3,-4,-5,1,-1
1537920165691638,-1,-1,-2,0,0,5,2,1
1537920165703605,-1,0,2,1,1,-2,-2,-2
1537920165703605,1,-1,1,-2,-1,-1,0,-1
1537920165712581,-2,-2,0,-2,-4,-3,0,2
1537920165712581,1,-1,0,-2,-1,3,1,-1
1537920165727541,-1,-1,0,1,-2,0,2,1
1537920165727541,-1,-1,-1,-1,0,-4,-2,-3
1537920165729537,0,0,-1,-2,-1,-3,-2,-3
1537920165729537,-1,-1,-2,-1,-3,-1,-2,-2
1537920165750480,-1,0,0,0,0,0,1,1
1537920165750480,-1,0,-2,-1,-2,2,0,0
1537920165751478,1,0,0,-3,-2,-2,-1,-2
1537920165751478,-1,-1,0,-2,-2,-1,-4,-4
1537920165763446,-1,-2,1,0,-1,-1,-1,-2
1537920165763446,0,-3,0,2,1,0,1,2
1537920165773419,-1,-1,-1,-1,-3,-2,-1,2
1537920165773419,-1,0,-1,1,-2,-1,-1,0
1537920165787382,-1,-1,-1,-2,-1,-4,-3,0
1537920165787382,-1,0,-1,0,-1,0,-1,1
1537920165789377,-2,0,1,0,0,-5,-4,-9
1537920165789377,-1,1,-1,-1,-2,1,0,2
1537920165810321,-1,-1,0,0,1,-1,0,-1
1537920165810321,3,-1,0,-1,-1,3,2,0
1537920165811318,-2,-1,0,-2,0,-2,0,0
1537920165811318,0,-1,-1,-1,0,-1,-2,-3
1537920165824283,-1,0,-1,0,0,1,-1,2
1537920165824283,-1,-1,-1,0,1,1,-1,-2
1537920165833260,-2,0,-1,-1,-1,0,0,2
1537920165833260,1,-1,0,0,-1,-1,-1,2
1537920165847221,0,-1,-2,0,-3,-2,-4,-3
1537920165847221,-2,0,1,-1,-1,-1,-1,-6
1537920165854202,0,-2,-2,0,-1,1,0,3
1537920165854202,0,-1,0,-1,2,2,1,-1
1537920165870159,0,-1,-1,-2,-9,-7,1,-1
1537920165870159,0,0,-2,-1,1,0,-1,0
1537920165871157,-2,0,0,-1,2,2,-1,-2
1537920165871157,-1,-1,0,1,3,19,1,1
1537920165884122,2,-2,-4,-4,-13,-41,4,8
1537920165884122,-3,0,-1,-1,-5,1,-4,-6
1537920165893098,0,-4,-2,-2,-5,-3,-2,0
1537920165893098,0,0,-2,0,9,10,-2,-1
1537920165907061,0,1,-1,0,0,-6,-2,-3
1537920165907061,-1,0,-1,1,3,10,1,1
1537920165914042,0,1,0,0,1,-2,1,1
1537920165914042,-2,-1,0,-1,1,6,0,-1
1537920165929999,-3,1,1,-1,2,-5,-9,-7
1537920165929999,-2,-2,-1,-1,-3,11,5,0
1537920165931994,-1,-2,-2,-1,1,6,-2,-3
1537920165931994,0,-1,-3,-1,-4,-10,1,-1
1537920165943962,1,-1,-1,0,4,7,-1,-2
1537920165943962,-1,-1,-1,-1,-3,-7,-3,0
1537920165952938,0,0,-2,0,1,2,1,1
1537920165952938,-2,0,0,0,-5,-6,0,1
1537920165966901,-3,-1,0,-4,1,7,0,-2
1537920165966901,-1,-1,1,1,2,-2,-2,0
1537920165973882,1,0,0,0,0,-4,-1,-2
1537920165973882,-3,-2,-2,-2,-5,-13,-4,-4
1537920165989839,-2,0,0,0,2,13,0,-1
1537920165989839,0,1,0,1,2,2,-2,-3
1537920165991834,0,0,-1,0,-3,-15,-1,1
1537920165991834,1,-1,-2,-2,-5,-5,-1,0
1537920166003802,-1,-2,-1,1,1,5,1,0
1537920166003802,0,-1,-1,-2,-2,-3,-3,0
1537920166012778,0,-2,-2,2,0,3,-2,1
1537920166012778,1,2,0,0,1,-3,-2,0
1537920166026741,-1,0,-2,0,-3,6,-1,-1
1537920166026741,0,-1,0,0,-1,-8,-1,1
1537920166033722,-2,0,-3,-2,-3,0,0,-3
1537920166033722,-1,-1,-1,0,-2,-2,-1,0
1537920166050677,0,-3,-2,-2,0,3,0,0
1537920166050677,1,-2,-3,-1,1,-1,1,0
1537920166051674,-1,-1,-1,1,-2,-2,-1,0
1537920166051674,1,0,0,-1,-1,0,0,-2
1537920166072618,-2,1,-2,-2,-1,-1,-2,-2
1537920166072618,0,-1,-1,-1,-1,-3,-1,0
1537920166074613,-1,-1,1,-2,0,3,-2,-1
1537920166074613,0,-1,-1,0,-1,-3,-1,-2
1537920166095557,-1,0,1,1,1,2,-2,-3
1537920166095557,1,-2,-1,0,0,-4,0,1
1537920166096554,0,-3,-7,-10,-7,-3,-2,0
1537920166096554,-2,-3,1,-1,-3,-1,0,0
1537920166110517,0,0,0,0,2,1,1,0
1537920166110517,-1,-1,-2,5,1,-2,-2,0
1537920166111514,0,1,9,-1,-1,-6,-3,-1
1537920166111514,1,-4,-4,-3,-6,2,2,0
1537920166132458,0,-2,-2,-2,0,0,-2,-1
1537920166132458,-1,0,-2,-1,-4,-7,-6,-2
1537920166134453,-2,-1,0,5,3,9,9,0
1537920166134453,-1,0,-1,-1,-2,-3,-2,0
1537920166146421,-1,0,3,2,1,1,-1,0
1537920166146421,-3,-1,0,1,0,1,-3,-2
1537920166155397,0,-1,-2,-3,-2,-3,0,-2
1537920166155397,-2,-1,-1,0,2,1,1,-1
1537920166169359,2,-2,-4,-2,-5,-3,-3,3
1537920166169359,-1,0,0,-1,0,-1,2,-1
1537920166177338,0,-3,-3,-3,-2,0,-2,0
1537920166177338,-1,-1,-1,-5,-5,0,0,-1
1537920166192298,-2,-2,1,1,1,-2,0,-3
1537920166192298,-2,-2,-1,-3,-3,-2,0,0
1537920166194293,0,0,-1,0,2,3,2,-1
1537920166194293,0,-1,-2,2,1,-1,-3,1
1537920166207258,-3,-2,0,-3,-3,-6,-4,-3
1537920166207258,1,0,-1,-5,-1,5,4,1
1537920166214239,-2,-1,-3,-1,-1,-2,-2,-2
1537920166214239,-2,-1,1,-1,0,-1,0,-1
1537920166230197,-1,0,-2,-1,-3,-1,0,-2
1537920166230197,-1,-2,-1,-2,-2,-2,0,-2
1537920166231194,-2,-2,-1,0,-1,-4,-5,-1
1537920166231194,0,0,0,1,1,-5,0,-1
1537920166253136,-2,-1,0,0,0,8,2,-2
1537920166253136,0,-2,-4,-5,-5,0,0,-2
1537920166254133,0,1,-1,-1,0,1,-1,-2
1537920166254133,0,0,-1,1,1,-2,-3,1
1537920166266101,1,0,1,3,0,3,1,-1
1537920166266101,-2,-1,-2,-4,-5,-4,-2,-2
1537920166275077,-2,-1,-1,-3,-3,-9,-6,-1
1537920166275077,-1,-2,-1,-3,-1,-4,-5,-1
1537920166290037,-1,-2,0,-1,-1,0,8,2
1537920166290037,-1,1,1,2,3,4,-9,-2
1537920166292032,-2,0,-6,1,0,-8,2,-3
1537920166292032,0,-1,3,-1,-1,12,6,-3
1537920166312975,0,1,-1,1,-1,-5,-2,2
1537920166312975,-1,-1,0,0,-1,-3,3,-2
1537920166313973,0,-1,-3,-1,-2,9,0,0
1537920166313973,-2,-3,-2,-1,-2,-9,-6,-2
1537920166325941,0,-1,-1,-2,0,0,0,1
1537920166325941,0,0,1,-1,-1,-5,0,2
1537920166334917,-1,-1,2,2,0,-8,-3,-2
1537920166334917,-2,0,-2,-1,0,8,3,-3
1537920166349877,-1,0,0,1,0,3,-1,0
1537920166349877,-1,-1,-3,-3,-2,-3,-1,-1
1537920166351872,0,-2,1,1,0,2,1,-1
1537920166351872,1,1,-4,-5,-4,-3,-5,2
1537920166372816,0,-1,-1,-1,0,-12,-7,-3
1537920166372816,1,-2,-1,-1,-1,1,-1,-1
1537920166373813,2,-1,1,1,3,10,27,2
1537920166373813,-2,0,-2,1,0,-3,-4,-2
1537920166386778,0,-2,-3,-3,-3,2,-1,-2
1537920166386778,-1,0,0,1,0,-7,-10,0
1537920166394757,-2,-2,1,-1,-1,5,-2,-3
1537920166394757,-1,-2,-2,2,0,-15,-7,0
1537920166409718,-1,-2,-3,-3,-2,2,5,-3
1537920166409718,0,0,1,2,4,14,13,0
1537920166417696,-4,-1,0,-1,-2,-3,-11,-3
1537920166417696,0,0,0,-1,0,0,3,3
1537920166432656,-2,-1,-2,-2,-3,-12,-9,0
1537920166432656,0,-1,-2,-1,-1,-5,-2,-1
1537920166433653,1,-1,-1,-1,-1,4,1,1
1537920166433653,0,-2,1,0,-1,-1,-1,-1
1537920166446618,0,-1,-1,-1,0,2,-2,-2
1537920166446618,-1,-1,0,1,-1,-3,6,2
1537920166455595,0,-1,-1,-3,-2,-2,-9,0
1537920166455595,0,-1,-1,-2,-1,0,6,-1
1537920166470555,1,-1,-1,0,2,12,6,0
1537920166470555,-2,-1,0,-3,-3,-8,-6,-1
1537920166471552,-2,0,-3,-1,-2,-14,-12,-4
1537920166471552,0,0,0,1,2,18,6,0
1537920166492496,-2,-1,-2,-2,-2,-4,4,1
1537920166492496,-3,-4,3,-2,2,21,24,-1
1537920166494491,-2,-1,0,-1,-1,-22,-48,-2
1537920166494491,2,6,0,1,2,0,0,-1
1537920166514437,-1,-7,0,3,1,-4,-11,1
1537920166514437,-1,-1,-3,-2,-3,-4,3,-4
1537920166515435,-4,-3,-1,-1,1,5,-9,-6
1537920166515435,-2,-3,-2,-4,-2,-4,17,-1
1537920166529397,1,3,-2,0,-1,14,23,2
1537920166529397,-1,-2,-1,0,-2,-14,-45,-12
1537920166530395,15,7,0,-1,2,4,72,13
1537920166530395,-19,-2,-4,-4,-3,-9,-9,-3
1537920166552336,-4,6,7,3,2,-11,-52,-3
1537920166552336,41,12,-5,-11,-1,16,75,11
1537920166552336,-36,-2,-15,6,60,32,-25,-12
1537920166552336,-1,-29,23,23,-37,-6,-6,16
1537920166574278,-1,-33,-7,13,60,-25,-41,-3
1537920166574278,-60,24,-22,-25,-78,-79,-5,-21
1537920166575277,-58,-2,-19,-13,28,78,-31,-19
1537920166575277,96,47,44,57,113,-80,-14,29
1537920166589239,-85,-7,7,-66,-94,-7,51,-30
1537920166589239,-43,-109,-76,-19,28,58,-63,-16
1537920166590237,22,60,-17,-11,-30,-1,63,16
1537920166590237,-102,-38,23,-41,-60,72,15,0
1537920166612177,107,30,-12,35,89,-47,-29,-28
1537920166612177,42,98,103,95,89,104,4,68
1537920166613174,82,-103,-15,-40,-98,-128,19,19
1537920166613174,-32,-5,-21,37,127,127,2,69
1537920166634119,29,27,-63,-38,-128,-107,38,39
1537920166634119,-107,-13,-25,9,107,40,-10,-46
1537920166635116,-12,58,64,105,127,97,-7,-32
1537920166635116,-78,-83,-57,-106,-128,-128,6,0
1537920166649079,28,9,17,-21,82,127,-2,5
1537920166649079,38,32,-5,-29,70,-35,-25,-9
1537920166650076,34,-82,-45,-34,-82,-27,68,69
1537920166650076,-14,7,20,25,-31,-35,20,-97
1537920166672017,-128,47,39,36,12,11,-4,21
1537920166672017,86,21,3,-4,-52,-48,-2,52
1537920166673016,18,-76,-6,2,41,40,-31,18
1537920166673016,-11,77,21,17,11,-10,2,-43
1537920166694954,10,-27,-8,2,-20,-40,-6,-16
1537920166694954,-30,-13,-2,-4,-18,18,14,-3
1537920166694954,-51,6,2,-12,-35,-42,-12,-52
1537920166694954,45,-18,-49,-24,1,-12,-13,15
1537920166709915,-9,6,12,19,9,19,6,-5
1537920166709915,5,-35,20,27,-22,-13,3,-15
1537920166709915,-12,15,-25,-52,-14,-16,-19,-7
1537920166709915,26,22,1,2,0,-6,-15,-7
1537920166731856,19,-12,1,10,18,26,0,9
1537920166731856,-26,-26,-34,-35,-33,-28,5,-18
1537920166732854,-7,18,6,5,-14,-27,-19,-1
1537920166732854,23,14,18,3,22,27,-15,12
1537920166754795,-11,-28,-16,-1,-3,-6,5,-11
1537920166754795,9,-12,13,20,-19,-14,17,14
1537920166754795,-10,45,12,0,2,7,-24,-1
1537920166754795,1,-20,-19,-10,12,11,-8,-7
1537920166769756,-7,-29,-7,31,5,-1,54,9
1537920166769756,10,5,29,0,-19,-23,-2,7
1537920166770755,-11,-6,0,-42,0,-2,-37,30
1537920166770755,-6,-7,-2,10,7,17,4,15
1537920166791698,17,22,-7,-15,-11,-14,9,8
1537920166791698,-9,-23,18,0,1,0,13,-23
1537920166792696,-13,7,9,26,-9,-10,-7,-52
1537920166792696,12,4,2,11,2,7,14,-14
1537920166814636,-6,-6,-2,-15,-2,9,0,-7
1537920166814636,-7,-21,-27,-9,-6,-12,-32,0
1537920166815635,0,4,11,9,3,-10,-55,-2
1537920166815635,-9,6,-7,0,4,0,25,0
1537920166829596,7,-5,10,6,6,9,-11,6
1537920166829596,0,7,-12,-9,-13,-9,6,0
1537920166830594,-6,1,7,4,2,9,12,2
1537920166830594,-8,4,12,9,1,-1,-21,-8
1537920166851538,9,-1,-10,-4,0,6,2,-8
1537920166851538,-1,-8,-27,-37,-14,-10,-20,0
1537920166852535,-5,7,2,12,3,7,28,0
1537920166852535,-4,1,-13,-9,1,-4,10,-7
1537920166874476,-1,-2,14,5,0,-3,-6,-7
1537920166874476,-8,5,7,9,1,-8,-13,-5
1537920166875475,10,10,-4,5,3,7,25,0
1537920166875475,2,-4,-6,-7,-5,-8,-25,-5
1537920166889437,-3,-11,2,0,-2,-21,-44,-7
1537920166889437,0,3,-1,1,-2,7,13,0
1537920166890435,-7,2,-3,0,2,-4,-3,0
1537920166890435,4,-5,4,1,-1,2,-51,-4
1537920166912374,-6,-6,-8,-6,0,11,88,8
1537920166912374,4,6,-2,-2,-4,2,-8,1
1537920166912374,1,5,6,8,0,-2,28,4
1537920166912374,1,-1,-3,-3,0,5,27,1
1537920166934315,-1,-3,-4,-4,0,-2,-36,-4
1537920166934315,1,6,2,3,-3,0,3,-2
1537920166935313,-1,-3,1,0,-3,-5,-7,-1
1537920166935313,2,-3,-6,-3,2,-3,-4,-1
1537920166949275,-4,-1,-6,-9,-4,-2,-19,-2
1537920166949275,-1,1,1,1,-2,3,16,1
1537920166950272,-3,-1,0,1,2,2,-7,-3
1537920166950272,5,-1,-1,3,2,-10,-11,1
1537920166972214,3,5,6,5,-2,-2,-19,-2
1537920166972214,-6,-1,1,-2,-1,-6,-62,-11
1537920166972214,-1,-4,-11,-6,-1,11,91,13
1537920166972214,8,3,-1,0,1,4,58,11
1537920166994157,-1,-2,-3,-1,-1,-2,-8,2
1537920166994157,-1,0,0,-1,-1,-1,-16,-2
1537920166995154,-6,0,1,0,-3,-9,-62,-12
1537920166995154,-1,-2,-4,-2,0,1,12,1
1537920167011112,0,-1,1,1,-1,4,-7,-1
1537920167011112,7,1,-2,-5,-3,0,12,0
1537920167012108,-22,-2,1,0,0,9,-2,-5
1537920167012108,6,-2,-4,-2,1,-7,-28,3
1537920167032055,2,1,3,4,2,-17,-37,1
1537920167032055,1,2,1,2,-1,2,3,1
1537920167033053,1,0,-1,1,1,-3,5,2
1537920167033053,-5,-1,-1,-4,-2,4,-9,-3
1537920167054994,-5,-5,-1,-5,-2,6,11,0
1537920167054994,-3,-1,0,1,0,4,21,2
1537920167055991,3,-1,0,-1,-2,-7,-37,-3
1537920167055991,-3,-1,-3,-4,-3,8,22,-5
1537920167069953,3,0,1,0,2,2,34,12
1537920167069953,1,2,-1,1,2,1,32,2
1537920167069953,4,3,3,2,1,-3,-5,-1
1537920167069953,0,-2,-1,0,0,-11,-40,-4
1537920167091894,-5,-2,-5,-6,-3,0,-3,-5
1537920167091894,0,0,-2,0,-2,6,10,0
1537920167092892,0,-1,-2,-4,-1,-3,-17,-4
1537920167092892,-4,-5,-5,-5,-5,-8,-27,0
1537920167114832,15,9,6,2,1,-3,59,2
1537920167114832,-17,16,-5,6,66,58,-12,-2
1537920167115830,16,-12,-2,11,8,-38,-15,-1
1537920167115830,0,-30,-10,-5,-16,2,-17,5
1537920167129792,35,15,10,2,40,98,-50,-13
1537920167129792,23,-7,-17,-11,-19,-72,56,22
1537920167129792,21,1,-36,7,125,-28,12,-2
1537920167129792,40,16,75,-18,-100,50,4,-2
1537920167151733,-28,-117,-100,-29,25,-43,-20,-28
1537920167151733,44,100,76,68,23,8,-43,8
1537920167152731,5,-42,-41,-105,-112,-100,-11,-39
1537920167152731,-59,-85,-103,-7,127,-27,-101,-60
1537920167174672,-66,114,123,25,-128,-46,97,92
1537920167174672,86,-5,-31,-7,75,-4,-54,-47
1537920167175670,-21,-58,-23,91,97,89,-6,27
1537920167175670,-53,71,-1,-31,-116,-72,77,28
1537920167189633,74,86,68,3,66,-13,-47,-17
1537920167189633,-93,-43,16,16,9,69,20,-27
1537920167190631,-22,-53,-14,-18,7,48,-12,-27
1537920167190631,30,11,-85,19,84,56,57,98
1537920167211576,8,-128,-14,9,-48,-92,-18,11
1537920167211576,62,10,-18,-32,-64,-14,13,4
1537920167212573,-14,127,80,1,-38,43,8,-17
1537920167212573,4,-11,29,5,1,30,-12,-49
1537920167235511,-18,13,-34,-13,-7,8,0,-26
1537920167235511,-39,-93,-13,-19,-41,-46,-20,-17
1537920167235511,-17,-9,-34,7,8,30,-1,-3
1537920167235511,11,35,28,12,-2,-44,13,-3
1537920167249473,4,-1,14,3,1,-13,-24,-5
1537920167249473,-38,-39,-36,-4,3,5,5,1
1537920167250473,24,20,-16,-23,-16,-21,14,27
1537920167250473,12,9,13,-1,-12,-13,5,5
1537920167272413,-11,-13,-15,-6,18,19,-17,-23
1537920167272413,-4,1,-6,3,-2,16,-2,11
1537920167272413,2,17,29,14,-26,-21,10,7
1537920167272413,0,-15,19,-3,3,-16,-12,-10
1537920167295351,-18,-25,-54,-28,25,34,-8,-4
1537920167295351,-10,29,15,5,-13,-29,-4,14
1537920167296349,11,6,21,-5,-18,-19,-1,15
1537920167296349,-8,-21,-1,11,13,8,6,2
1537920167309312,0,12,-5,4,10,6,-4,15
1537920167309312,-2,9,2,-11,-15,-8,4,-2
1537920167317291,-6,-12,2,1,-6,-6,-12,-17
1537920167317291,5,-2,1,8,14,13,-7,-17
1537920167332251,-2,10,-6,-3,-2,-3,-5,-17
1537920167332251,-9,-5,2,-10,-8,-14,-25,-10
1537920167332251,-5,-13,-3,5,4,8,15,-7
1537920167332251,4,10,6,3,-2,-6,28,6
1537920167355190,0,3,4,3,2,3,13,5
1537920167355190,-9,-5,-7,-9,-3,-6,-5,5
1537920167356187,5,4,1,1,-2,-8,-20,6
1537920167356187,4,3,7,-1,-2,-3,-9,1
1537920167369152,-4,-3,-9,0,5,3,-7,-7
1537920167369152,-2,1,-3,-1,1,9,10,5
1537920167370150,-2,3,10,0,-7,-4,10,4
1537920167370150,-3,-7,4,2,-1,-7,-11,-8
1537920167392091,-4,-6,-11,4,6,9,-2,-4
1537920167392091,-4,5,0,-3,-2,-4,3,5
1537920167393088,2,0,5,-2,-10,-1,17,5
1537920167393088,-3,-5,-6,-4,-2,-3,-1,-5
1537920167415030,1,5,6,7,5,-24,-27,-5
1537920167415030,1,3,3,1,7,29,-2,-1
1537920167416027,0,-4,-5,-3,-1,-5,-1,-3
1537920167416027,1,-1,2,-1,-2,4,-3,-7
1537920167437968,-3,0,-5,-4,-5,-3,5,-3
1537920167437968,-2,0,4,-1,-4,-16,6,3
1537920167437968,-2,-5,-5,-2,-1,4,-4,-3
1537920167437968,1,0,-2,0,1,1,7,1
1537920167451931,-2,-1,11,0,-1,0,3,-1
1537920167451931,-3,-1,-1,1,0,-2,2,0
1537920167452928,1,0,1,2,-1,1,-4,0
1537920167452928,-4,-6,0,-2,-3,-5,-16,-2
1537920167474869,-2,-1,-6,-4,0,4,23,0
1537920167474869,-2,-5,-4,-3,-1,26,33,1
1537920167475867,-3,1,1,1,-3,-27,-51,-3
1537920167475867,4,6,4,6,6,-29,27,2
1537920167489830,1,1,1,5,4,13,-8,0
1537920167489830,-1,1,0,0,-2,7,4,0
1537920167489830,-2,-2,-3,-2,-4,0,-2,2
1537920167489830,-2,-4,-8,-6,-2,27,36,0
1537920167511771,-1,1,-3,4,-1,0,-4,-2
1537920167511771,-1,0,0,-6,-7,-33,6,0
1537920167512768,-2,0,2,0,1,22,-3,-1
1537920167512768,-1,-2,1,0,2,-1,-22,-3
1537920167534710,0,0,-4,3,1,1,4,-3
1537920167534710,0,-1,2,-1,0,-2,-12,2
1537920167535707,-1,-4,-3,-6,-4,-11,7,-1
1537920167535707,0,2,1,-1,-2,-1,-9,-2
1537920167548672,-2,-1,-4,-4,0,4,0,1
1537920167548672,0,-2,0,0,-3,-12,-17,-2
1537920167556651,-1,0,-1,2,0,-13,12,2
1537920167556651,0,-2,-3,-2,1,29,6,0
1537920167571611,-2,-1,1,-3,-4,-9,-16,-4
1537920167571611,-1,1,-1,-1,0,2,-6,-3
1537920167572609,1,1,-1,-2,-3,2,12,3
1537920167572609,0,-3,-1,-3,-4,-18,-16,0
1537920167595547,-1,-4,-1,0,-2,-8,-1,-3
1537920167595547,2,1,-1,-1,2,5,1,-1
1537920167595547,1,-1,-2,1,3,8,2,0
1537920167595547,-1,0,-1,3,2,-10,-27,-6
1537920167608513,0,-1,-2,-3,-2,0,10,3
1537920167608513,-2,-2,-3,-3,-4,-10,8,0
1537920167617489,0,0,2,0,-1,-3,-13,-3
1537920167617489,-1,1,0,0,-1,-2,6,0
1537920167632449,0,0,-1,-4,-2,-1,3,-2
1537920167632449,-1,-1,1,3,-1,1,-4,0
1537920167632449,1,2,7,0,3,3,10,1
1537920167632449,0,-3,-3,-4,-4,-3,-1,-1
1537920167655387,0,-2,-2,0,-1,4,-11,-1
1537920167655387,0,-1,5,4,1,5,14,-2
1537920167655387,1,-1,-2,0,0,-9,-5,-1
1537920167655387,0,1,3,1,0,-3,-1,0
1537920167677329,-2,-2,-1,-2,-1,-4,-5,-1
1537920167677329,-1,0,-4,-1,0,10,-4,-1
1537920167678326,-2,-2,-1,1,0,5,11,0
1537920167678326,0,-1,-1,-1,-1,-8,-9,1
1537920167692289,-2,0,0,1,3,-1,-4,-2
1537920167692289,1,-1,-2,-3,-3,0,-2,0
1537920167692289,-1,-2,-4,-2,0,-10,1,-3
1537920167692289,0,0,-3,-2,0,14,2,0
1537920167715227,-1,-2,2,1,1,-7,3,0
1537920167715227,-2,-2,-3,-1,0,-5,-8,-2
1537920167716224,0,0,-3,-1,1,-5,-5,-2
1537920167716224,-2,1,1,2,-1,0,2,-2
1537920167729190,-1,0,1,1,3,0,-7,-1
1537920167729190,-1,-3,-4,-6,-5,-6,3,0
1537920167737168,-1,-2,-2,-1,-3,4,4,-1
1537920167737168,-2,-1,1,-3,-1,-4,-3,-2
1537920167752128,1,0,1,1,0,9,4,1
1537920167752128,-1,0,0,-1,3,-4,-4,-2
1537920167753126,0,-1,-1,-1,-3,1,-10,-1
1537920167753126,-2,-3,-3,-5,-5,-9,-3,-1
1537920167775067,-2,0,0,-1,-2,7,-19,-2
1537920167775067,-4,-2,0,-1,-2,-11,1,-7
1537920167776065,2,0,0,2,1,1,16,8
1537920167776065,3,3,0,0,-2,-4,28,1
1537920167789030,5,1,-2,-4,-6,-10,-78,-20
1537920167789030,-5,-3,-2,-1,7,29,26,6
1537920167797009,11,17,4,9,48,35,-2,10
1537920167797009,-20,8,-9,5,54,-85,-41,-16
1537920167811969,14,-33,-22,-19,-72,47,-57,20
1537920167811969,3,8,10,-25,-51,-74,-49,-26
1537920167812966,3,3,-27,5,59,82,42,-15
1537920167812966,-1,11,45,-8,-87,49,103,52
1537920167842888,11,-9,24,29,105,-123,-63,-47
1537920167842888,47,29,-8,2,-59,127,7,93
1537920167843885,-81,-47,-40,-60,-103,-128,2,-64
1537920167843885,-35,35,-55,8,119,42,-91,-106
1537920167848872,-61,-50,42,0,-1,84,82,-8
1537920167848872,27,-64,-12,23,84,-16,-39,-4
1537920167856851,-57,10,5,44,62,72,-36,-64
1537920167856851,0,47,71,8,5,15,-17,22
1537920167871810,82,69,58,-31,-85,-62,18,40
1537920167871810,-120,22,23,18,68,-70,-20,8
1537920167872808,36,-39,-77,-33,-19,-3,-31,44
1537920167872808,-46,-45,-33,5,27,99,-13,-24
1537920167894751,-26,-26,-25,16,54,22,27,-29
1537920167894751,1,-39,-1,1,-24,-32,39,-8
1537920167895747,-10,-6,-28,-7,-9,-20,-29,-14
1537920167895747,80,28,10,1,-22,-10,13,22
1537920167917686,-65,-10,4,9,6,-26,35,27
1537920167917686,7,11,-14,-18,-33,7,-29,-36
1537920167918684,4,12,29,13,7,5,6,19
1537920167918684,32,-5,1,-4,-13,-37,-1,23
1537920167931649,-6,-13,-27,-11,-29,28,6,-3
1537920167931649,10,14,-5,2,21,2,-12,-20
1537920167932646,27,10,46,9,-5,2,3,15
1537920167932646,-23,-30,-12,-12,-27,-23,28,7
1537920167955584,15,14,-25,3,13,3,-14,-2
1537920167955584,-8,-4,3,2,7,19,13,-12
1537920167955584,15,19,22,2,-12,-30,-2,17
1537920167955584,-7,-30,-18,-10,-21,-11,-21,-6
1537920167977526,-9,16,1,7,21,20,10,-2
1537920167977526,18,13,12,1,0,-9,-5,-2
1537920167978523,2,-10,14,1,-17,8,40,5
1537920167978523,-1,-5,-6,2,4,-11,-18,-7
1537920167991489,7,4,-16,-4,5,10,-15,-9
1537920167991489,-6,-3,7,-1,-9,-4,-8,-7
1537920167992486,10,3,9,5,3,-14,-3,8
1537920167992486,-8,-12,-9,-5,-10,9,7,12
1537920168015425,3,11,-1,-3,-2,-21,7,11
1537920168015425,0,-6,-5,1,-2,1,-52,-7
1537920168015425,-3,1,-2,-8,-3,-7,38,12
1537920168015425,8,-1,2,1,4,-5,-34,10
1537920168037367,1,0,-1,2,1,30,-5,5
1537920168037367,2,2,-14,-6,0,-7,23,-3
1537920168038367,4,-3,1,6,2,14,-16,1
1537920168038367,-5,-6,5,-3,-10,-18,13,0
1537920168051330,2,-1,-9,-6,-3,-1,7,-3
1537920168051330,-1,-3,-4,-1,4,4,8,-4
1537920168060307,3,3,7,3,-4,-9,-13,-1
1537920168060307,-4,-8,8,2,-4,-6,-10,-5
1537920168075267,-3,1,-17,-5,4,8,-1,-3
1537920168075267,4,1,-4,-3,0,5,46,5
1537920168076265,1,-2,5,-1,-3,-1,-20,-2
1537920168076265,1,0,1,3,4,-2,-5,-3
1537920168097208,1,6,-2,6,1,6,21,-4
1537920168097208,-4,-7,-3,-11,-2,-11,-3,-2
1537920168099202,1,2,5,-5,-2,5,-7,0
1537920168099202,-4,-3,-6,-2,-1,-21,0,-2
1537920168111169,0,-1,-2,-1,0,11,-11,-2
1537920168111169,0,-1,0,0,-3,-17,-16,-3
1537920168120145,-2,0,3,0,1,11,-10,-1
1537920168120145,6,2,-3,1,1,-8,43,7
1537920168135105,-4,-3,-3,-2,-4,9,4,-1
1537920168135105,0,4,3,6,6,4,9,-2
1537920168136102,0,-2,-9,-2,-3,-2,0,-1
1537920168136102,-3,-3,0,-2,-5,5,3,-1
1537920168158043,-2,-2,2,-1,-1,-15,-16,-6
1537920168158043,2,2,-5,-5,-4,0,25,3
1537920168159041,0,-3,2,-4,-4,1,-9,1
1537920168159041,-2,-2,-1,3,3,1,-17,-2
1537920168171009,0,0,-1,0,1,-15,-9,-2
1537920168171009,-1,-1,-6,-1,-1,-9,-18,-1
1537920168179985,-1,0,4,3,-2,28,30,-1
1537920168179985,-5,-4,-3,-5,-6,2,-70,-7
1537920168194945,5,1,6,5,6,3,72,10
1537920168194945,2,3,2,0,-3,-13,-4,2
1537920168196940,1,-2,-3,-1,-2,-23,-8,-1
1537920168196940,-3,-2,0,1,1,25,-8,-5
1537920168217885,-4,-3,-4,-2,-1,21,-1,-2
1537920168217885,2,-1,-3,-4,-4,-3,-13,1
1537920168218882,-1,0,4,1,-1,-3,-2,0
1537920168218882,-4,-2,-4,-4,-5,-21,-18,-8
1537920168231848,-4,-5,-6,-8,-7,23,-16,-2
1537920168231848,5,4,5,6,8,-24,70,11
1537920168238829,2,3,1,-1,-4,-13,-34,-2
1537920168238829,6,-2,-2,-1,-1,10,58,4
1537920168254786,-23,7,-10,-8,-5,-23,-99,-15
1537920168254786,-2,-1,-10,4,69,57,-16,-7
1537920168256783,40,-28,16,13,-13,-33,5,21
1537920168256783,-55,-27,-54,-18,38,100,78,-19
1537920168277726,31,64,89,39,14,-80,39,59
1537920168277726,42,-14,-54,-23,6,71,-95,-47
1537920168278724,-101,32,68,70,81,-79,-36,-8
1537920168278724,47,-81,-67,-82,-122,82,42,45
1537920168291690,-34,-28,-42,-8,115,91,-43,-55
1537920168291690,-92,-30,5,-29,-113,-91,-46,-90
1537920168300665,65,85,57,21,-36,31,50,-76
1537920168300665,42,-65,57,37,34,-54,7,28
1537920168315623,106,78,88,44,50,-1,-60,56
1537920168315623,-20,4,-67,-63,-65,-22,-6,-23
1537920168316622,-107,29,-81,-23,118,42,10,-5
1537920168316622,-116,59,49,33,4,13,-2,-28
1537920168337564,51,-118,-61,-24,-42,13,-18,-9
1537920168337564,44,-107,-68,29,101,89,52,91
1537920168339558,38,66,67,-5,-105,-71,44,80
1537920168339558,-11,81,76,16,4,-73,-63,-51
1537920168351526,-128,-23,-19,-9,-8,-6,29,-26
1537920168351526,79,20,44,23,-12,19,22,39
1537920168360503,-17,-57,-69,-23,26,78,-8,-26
1537920168360503,47,-7,-24,13,24,-32,-15,13
1537920168375463,-32,5,8,-8,-63,-47,21,-22
1537920168375463,-37,26,2,-1,-15,-7,6,-10
1537920168376461,27,-45,-4,-13,4,10,-17,4
1537920168376461,0,22,13,9,-5,-34,-18,-1
1537920168397404,-5,-12,-21,-10,-37,-2,18,-9
1537920168397404,-13,24,19,7,31,8,-5,3
1537920168403388,21,-19,-10,-6,-18,-5,-15,4
1537920168403388,4,-4,-12,-2,-8,-1,-1,0
1537920168411367,10,20,3,1,0,19,60,-6
1537920168411367,6,7,-18,-7,0,-23,-55,-2
1537920168420343,-3,-12,12,-24,-19,-15,-40,-7
1537920168420343,-6,-10,-63,-6,7,7,30,-4
1537920168435303,5,-4,17,1,11,-4,-28,3
1537920168435303,-20,9,37,21,-1,5,47,3
1537920168436300,18,-10,-18,-7,-15,-6,-12,-11
1537920168436300,6,6,-11,-1,24,36,9,-7
1537920168457245,9,5,-6,-5,-11,-20,-39,-9
1537920168457245,-10,-6,24,7,-9,11,62,-6
1537920168459240,-4,-3,-11,-6,3,13,-1,-6
1537920168459240,12,5,6,4,10,-21,-66,10
1537920168471208,0,5,-11,1,-8,0,-3,0
1537920168471208,-6,7,15,1,-4,-10,-23,4
1537920168480185,6,-20,-18,0,2,14,20,7
1537920168480185,1,4,6,-5,-7,-8,20,1
1537920168495143,-6,-6,-14,-12,-6,14,3,3
1537920168495143,-2,7,8,6,10,-5,-27,0
1537920168496141,5,-3,1,9,-1,-6,44,7
1537920168496141,-1,0,11,-1,-4,-1,-10,-6
1537920168518081,1,0,-20,-9,7,8,9,1
1537920168518081,3,4,10,2,1,-11,0,-1
1537920168520076,-4,-6,-4,-1,-6,2,-20,-8
1537920168520076,-1,1,0,-5,-4,-8,5,-1
1537920168531046,2,-3,-5,-2,-2,-9,-5,-1
1537920168531046,-1,10,15,8,5,13,43,0
1537920168540022,-4,-8,-6,-5,-4,-2,-19,-6
1537920168540022,2,2,-3,-2,7,-2,-7,-2
1537920168554982,-2,0,-3,1,-4,1,21,0
1537920168554982,-3,2,2,1,-5,-12,-16,-1
1537920168556977,-1,-4,-4,-4,-1,6,2,-2
1537920168556977,4,-1,1,0,4,2,-1,-3
1537920168577921,-2,0,-5,-1,-3,-3,7,-2
1537920168577921,-2,1,1,-5,-4,-8,-18,-3
1537920168578919,0,-6,-4,1,3,8,17,0
1537920168578919,-1,-1,0,-1,2,-1,-16,-7
1537920168590887,3,-1,-5,-5,1,-2,5,5
1537920168590887,-1,0,3,3,2,-2,0,0
1537920168599864,0,-2,-2,-6,-9,2,-7,0
1537920168599864,-1,-1,-2,1,0,-2,-1,-4
1537920168614824,0,0,0,-1,3,1,5,0
1537920168614824,-1,1,2,2,0,-18,-2,0
1537920168621805,-3,-3,-4,-1,-2,19,-5,-2
1537920168621805,1,0,0,2,2,-22,-9,1
1537920168637762,0,-2,-4,-2,-2,11,18,-2
1537920168637762,0,0,1,-2,-4,1,-9,2
1537920168638760,-2,-2,-1,1,-4,-12,-12,-4
1537920168638760,1,0,-2,-3,-2,-7,4,3
1537920168651726,-4,-3,-1,-2,1,18,13,0
1537920168651726,-3,0,0,0,-2,6,6,-6
1537920168660701,-1,-1,-1,0,1,-10,-30,-3
1537920168660701,1,0,-1,-2,0,3,3,0
1537920168675664,-1,0,-1,0,-3,-19,-5,-1
1537920168675664,-1,0,-2,-2,0,-1,3,-2
1537920168676659,-1,-3,-1,-2,-3,10,12,1
1537920168676659,-1,1,-2,-3,-3,-10,-17,-2
1537920168697602,-2,0,0,1,0,10,25,0
1537920168697602,-2,-2,0,2,1,1,5,0
1537920168699597,1,-1,3,-2,0,-7,2,0
1537920168699597,-1,-1,-1,-1,-3,6,1,-1
1537920168711566,-1,-4,-1,0,0,-1,-11,-2
1537920168711566,0,2,5,1,2,0,-3,0
1537920168720541,-2,-3,-4,-1,-6,-5,-14,-3
1537920168720541,-1,-2,-2,-3,0,8,-16,-1
1537920168735500,2,-1,-1,-2,2,-5,9,0
1537920168735500,-1,-1,-1,-1,-2,-9,-6,-2
1537920168736498,-2,0,-1,1,-4,6,6,0
1537920168736498,-3,-2,0,-1,0,2,-6,1
1537920168757441,-3,-2,-2,-2,-2,-18,-17,-1
1537920168757441,-1,-1,-4,-1,0,22,4,-1
1537920168759437,-1,-3,0,-2,1,11,20,3
1537920168759437,-1,0,2,2,3,4,-3,-4
1537920168771404,2,2,0,2,-3,-17,-23,-2
1537920168771404,-1,0,-2,-2,-2,1,5,-1
1537920168780380,0,0,-1,1,7,-2,1,0
1537920168780380,-1,-3,-4,-6,-10,3,23,3
1537920168796337,-2,-1,-1,-4,-2,-3,-2,-1
1537920168796337,0,1,2,-1,-3,-7,-14,-2
1537920168803318,-1,-1,-3,-1,0,-3,2,0
1537920168803318,-2,0,0,1,4,1,6,0
1537920168810300,-1,0,2,1,0,4,-6,1
1537920168810300,-2,-1,-1,0,-3,-4,1,-1
1537920168817281,0,-1,-2,-1,1,-2,-2,-2
1537920168817281,1,1,1,-1,1,-1,-1,0
1537920168823265,-1,-2,-1,-3,-3,4,2,0
1537920168823265,-1,-3,-6,-4,-2,-2,2,0
1537920168832241,-2,-1,0,0,-1,-7,-7,-3
1537920168832241,-1,-2,-2,-3,-5,6,11,1
1537920168846204,-2,-2,-2,-1,2,2,-1,-3
1537920168846204,0,0,1,1,3,-13,-19,-1
1537920168854182,-1,-2,-1,-3,-6,-11,-8,0
1537920168854182,-2,-2,0,2,1,7,8,1
1537920168869142,-2,-1,-1,2,-1,20,5,-2
1537920168869142,0,-2,-2,-1,0,5,13,3
1537920168877121,-2,-3,-4,-3,0,0,-19,-2
1537920168877121,0,1,0,1,1,-7,15,1
1537920168884103,1,3,2,-1,0,-12,-2,1
1537920168884103,1,1,0,-1,1,-3,-7,-1
1537920168892081,0,0,0,0,2,-2,0,1
1537920168892081,1,-1,-1,-1,-1,2,-6,-1
1537920168906044,-1,-1,-8,0,2,-2,-24,-1
1537920168906044,-2,-1,8,1,-1,1,37,0
1537920168914023,1,1,-2,-3,-1,1,0,-1
1537920168914023,1,-3,-1,-3,1,-7,-8,-3
1537920168928983,0,0,1,0,0,7,-4,-2
1537920168928983,0,0,-3,-2,2,1,-5,4
1537920168936961,-1,-2,-1,1,-1,-6,-5,-2
1537920168936961,-3,-2,-2,-2,-2,-4,-6,-4
1537920168943943,2,0,1,0,1,1,34,4
1537920168943943,1,2,0,2,2,8,-8,-1
1537920168952919,0,0,-1,-1,-2,2,12,0
1537920168952919,-2,1,-1,-1,-3,-11,-55,-5
1537920168965884,-2,-2,-2,-2,-2,9,41,3
1537920168965884,1,-1,-1,-1,-2,-18,-13,-1
1537920168974860,1,0,-2,0,3,14,13,-1
1537920168974860,4,2,3,0,1,3,0,2
1537920168988822,7,3,0,-5,-6,-6,-4,-10
1537920168988822,-39,-8,-2,-1,1,-2,4,-3
1537920168997799,38,0,-2,2,1,10,-32,2
1537920168997799,-18,8,-10,-3,32,2,-79,-20
1537920169003783,-4,-16,-8,13,60,-17,52,10
1537920169003783,-21,-13,7,-9,-64,7,-52,-16
1537920169019740,-48,15,0,-12,8,-30,30,-13
1537920169019740,89,-21,-10,-9,-73,4,-40,28
1537920169026722,-58,-44,16,26,99,55,39,13
1537920169026722,73,48,3,1,-7,-87,-14,-13
1537920169034700,-91,-103,-57,-37,-100,127,50,14
1537920169034700,83,79,20,14,55,-128,-16,-15
1537920169048663,28,76,90,-8,-128,-22,8,-30
1537920169048663,-26,-108,-86,-15,75,92,-36,-88
1537920169057639,116,127,29,15,80,-11,-15,102
1537920169057639,-111,-16,91,29,35,113,29,-89
1537920169063623,-15,-67,-71,42,127,25,-45,11
1537920169063623,66,127,119,-46,-112,-70,28,-16
1537920169080577,59,-109,-34,-7,0,-16,-47,-57
1537920169080577,-11,34,-43,-10,65,45,45,66
1537920169086561,60,-48,-38,-1,46,49,-21,4
1537920169086561,-39,-30,-53,12,40,23,2,19
1537920169095537,-60,-2,4,9,7,21,0,-43
1537920169095537,3,-28,-6,-11,-46,-24,19,55
1537920169108503,-22,27,-11,-25,-69,-56,-19,-20
1537920169108503,-27,-41,-14,6,2,8,4,13
1537920169117479,-17,8,18,4,-16,-70,-15,-19
1537920169117479,-10,-12,-4,3,-13,20,47,-7
1537920169131441,-2,27,-4,-16,-35,-13,-34,6
1537920169131441,0,-6,1,6,6,-15,1,15
1537920169140417,-5,21,13,6,10,-9,-12,1
1537920169140417,3,-20,-20,-13,-18,-7,3,-4
1537920169146401,-5,6,-7,-15,-27,-15,-15,-2
1537920169146401,-1,3,28,21,14,13,16,16
1537920169155377,8,2,8,34,9,4,5,-2
1537920169155377,-10,-4,-34,-33,-8,3,30,-3
1537920169168343,6,4,3,-14,-18,-16,-11,-1
1537920169168343,-2,3,2,14,17,28,-14,14
1537920169177319,3,15,9,-17,-7,-16,41,6
1537920169177319,-14,-17,3,15,-5,-11,-47,-20
1537920169193276,-1,9,6,2,-1,-21,-39,-5
1537920169193276,5,0,-11,0,2,8,-9,4
1537920169199260,-2,6,10,12,7,12,23,-4
1537920169199260,-10,-7,3,5,-9,-2,-11,-8
1537920169206241,5,3,4,-3,-9,-3,20,8
1537920169206241,-7,-4,3,6,1,-13,-31,8
1537920169215218,2,2,-14,-13,3,-7,-2,10
1537920169215218,1,-2,9,2,2,8,14,8
1537920169229180,-8,-1,-5,-2,-10,-1,-2,0
1537920169229180,-4,5,-1,1,-1,-31,-8,1
1537920169238156,9,3,-5,-2,7,12,-6,8
1537920169238156,-2,-6,-8,-4,-6,-3,9,-4
1537920169252119,0,-1,-2,2,-3,9,10,-3
1537920169252119,-3,-3,3,-3,0,13,29,5
1537920169254113,-6,-4,4,-1,1,-11,-56,-9
1537920169254113,0,3,2,6,0,-12,-3,0
1537920169266082,-2,-1,0,-6,-4,5,26,0
1537920169266082,-1,-2,-4,-3,7,18,-13,0
1537920169275058,-3,2,-1,0,-5,-3,7,-1
1537920169275058,5,-1,-1,0,-1,-13,-15,-4
1537920169289021,-4,-3,3,-3,-1,-17,43,-1
1537920169289021,3,1,-8,-5,4,16,12,3
1537920169297999,-2,-1,6,5,1,6,-6,-5
1537920169297999,-6,-5,-7,-3,-6,-6,-17,-4
1537920169312958,2,0,3,-4,-1,12,-25,-4
1537920169312958,1,0,-2,1,0,-11,5,3
1537920169313957,-3,-3,-2,-2,-2,-9,-1,-4
1537920169313957,-2,-3,-3,-1,1,8,17,0
1537920169325922,-1,-1,-7,-1,-3,12,18,-1
1537920169325922,-1,-1,-1,-3,0,-15,-37,-3
1537920169334900,0,1,-1,-4,-1,-2,-42,1
1537920169334900,2,-4,-1,-3,0,0,2,2
1537920169348861,0,1,1,1,-3,-7,-25,-2
1537920169348861,1,-1,-5,-3,-1,-3,-16,-1
1537920169357837,-4,-3,-3,-5,-5,-6,25,-2
1537920169357837,1,2,-2,0,3,-1,-27,0
1537920169372796,-1,-1,3,0,1,2,-25,-4
1537920169372796,-2,0,-3,-3,-3,-5,-54,-6
1537920169373794,4,7,0,-1,1,1,85,4
1537920169373794,15,29,-2,-2,0,6,15,0
1537920169386759,-18,-17,-3,13,94,37,15,-8
1537920169386759,-51,-82,-45,-29,-91,-46,-8,-14
1537920169394738,60,71,52,13,5,25,-23,11
1537920169394738,-32,-33,-22,11,53,38,60,25
1537920169408700,-30,34,-22,-38,-109,81,0,-38
1537920169408700,68,49,80,39,127,93,-25,-3
1537920169417676,-122,-113,-104,-39,-94,-25,-76,-96
1537920169417676,50,17,61,-23,-108,-74,105,70
1537920169432636,-46,4,10,33,52,-34,-94,19
1537920169432636,65,-5,91,33,35,-52,49,35
1537920169433633,9,93,-79,-21,34,-12,3,-49
1537920169433633,8,-66,48,25,-40,-28,-51,-2
1537920169446599,-81,86,-21,-7,54,-12,32,10
1537920169446599,20,-89,-31,4,-53,-44,34,-35
1537920169455575,60,61,39,22,65,65,-12,16
1537920169455575,-40,67,-51,-37,-126,-113,-23,-46
1537920169468540,-5,-106,-62,-2,85,41,23,14
1537920169468540,-33,113,54,-1,-33,75,13,13
1537920169477517,-32,-41,43,4,-18,-20,0,15
1537920169477517,-26,-65,-69,6,59,41,-4,-43
1537920169492477,55,-47,28,9,-25,-46,-34,-6
1537920169492477,-65,-10,-91,-28,0,-21,19,-21
1537920169494473,-1,-38,-2,-1,-37,-49,19,21
1537920169494473,26,41,46,15,34,27,-14,4
1537920169506440,20,-29,-11,-7,-9,-33,-6,-10
1537920169506440,18,14,-10,-11,-13,-6,27,33
1537920169515416,-8,-5,38,14,4,-3,3,18
1537920169515416,-3,-11,4,13,54,42,-25,-7
1537920169528382,24,20,-14,-22,-45,-3,3,8
1537920169528382,-16,-8,-19,-6,-11,8,30,-7
1537920169537357,12,10,39,39,9,1,-28,8
1537920169537357,-14,-12,-52,-51,18,20,-21,-7
1537920169552319,15,7,22,-4,-49,-26,14,-4
1537920169552319,0,19,-20,-5,9,-3,34,16
1537920169554314,-6,-45,-35,-23,16,-16,2,3
1537920169554314,5,14,20,20,16,-1,-75,9
1537920169566280,9,14,20,3,-15,8,-4,1
1537920169566280,-8,-9,-16,1,12,3,37,-9
1537920169575256,10,-2,3,2,-4,17,22,1
1537920169575256,-8,-7,-3,2,2,-26,-26,-19
1537920169589217,17,16,4,2,-13,-8,-59,-13
1537920169589217,-15,-8,-2,4,6,-9,-17,1
1537920169597196,1,2,-7,-7,-6,-11,21,11
1537920169597196,2,10,7,5,12,34,18,11
1537920169612156,1,-9,3,-2,-9,-20,-2,7
1537920169612156,6,3,0,0,-1,3,-9,12
1537920169614151,-8,-3,2,-10,-2,-9,-1,7
1537920169614151,-3,-8,-10,-1,8,13,11,0
1537920169626119,5,6,11,8,1,4,32,4
1537920169626119,-4,-3,-2,-5,-2,0,-16,-8
1537920169635095,-1,-2,-5,-6,-2,-3,-8,1
1537920169635095,-4,0,1,6,6,0,22,-3
1537920169649058,2,1,1,0,-8,12,22,1
1537920169649058,-1,3,1,-2,2,-4,-29,-5
1537920169658035,-3,-6,-1,2,7,-10,-5,0
