timestamp,emg1,emg2,emg3,emg4,emg5,emg6,emg7,emg8
1537917139225111,1,0,1,0,-2,-15,0,4
1537917139225111,-4,-3,-2,-2,0,-1,-15,-11
1537917139226108,1,-2,1,-1,-3,4,28,13
1537917139226108,-1,-1,-2,-3,-5,-33,-2,-16
1537917139231094,0,0,1,2,6,56,-10,5
1537917139231094,0,-1,1,2,3,-15,-4,1
1537917139231094,0,-1,-4,-3,1,9,-16,-1
1537917139231094,0,-1,-1,3,16,-2,0,1
1537917139233089,-1,0,-1,0,-10,-31,8,-3
1537917139233089,-2,-3,-3,-4,-8,16,-7,-3
1537917139238076,-1,-2,-2,-2,0,-6,-14,-3
1537917139238076,-1,-2,-2,-2,-4,24,9,4
1537917139252039,0,-1,-3,0,7,-17,-14,-4
1537917139252039,0,0,2,3,10,0,16,2
1537917139259020,0,0,1,0,-10,-17,9,0
1537917139259020,-2,-1,-1,3,3,-16,-37,-3
1537917139269991,-1,0,0,0,5,40,51,1
1537917139269991,2,0,-1,0,-4,-6,27,4
1537917139289937,-2,-1,1,5,40,48,6,-2
1537917139289937,1,1,2,-2,-30,-14,-18,3
1537917139291932,-5,-4,-6,-14,-20,-32,-38,-6
1537917139291932,0,1,1,0,-8,-5,18,5
1537917139337809,-1,-1,-1,3,11,21,-21,-3
1537917139337809,-2,-2,0,1,12,3,-8,-1
1537917139338807,-1,-1,-1,3,9,-2,-10,-2
1537917139338807,0,0,-2,0,3,4,19,0
1537917139341799,0,-1,-1,-3,-6,-15,-10,-1
1537917139341799,-1,-1,0,0,0,9,13,0
1537917139342796,-2,-1,-1,-2,-4,-9,-6,-1
1537917139342796,1,-1,1,2,3,-2,-9,0
1537917139349778,-2,0,1,0,-1,11,4,1
1537917139349778,-1,-2,-3,-7,-10,-3,-3,-5
1537917139355762,0,-2,-1,0,3,-3,30,1
1537917139355762,1,-1,-2,1,1,-2,-12,-1
1537917139364738,1,0,-2,-2,1,-21,3,0
1537917139364738,-1,0,0,0,-5,17,-3,-1
1537917139378700,0,0,0,-1,-2,-3,-6,-2
1537917139378700,-2,-2,-1,-2,-2,-2,-46,-7
1537917139387678,4,-1,1,2,4,11,60,7
1537917139387678,-2,0,0,0,1,-11,-3,1
1537917139409618,0,-2,-3,-2,0,8,14,-1
1537917139409618,-1,1,0,-1,-1,-6,-16,-3
1537917139411613,-1,-3,-3,-2,-2,-8,-22,-5
1537917139411613,2,-1,-1,1,-2,-3,2,2
1537917139423581,-1,-1,-1,-1,-1,3,-11,0
1537917139423581,-1,-2,1,-1,0,-5,14,1
1537917139432558,-3,-2,-1,-1,0,11,-4,-3
1537917139432558,0,-2,1,-1,0,-7,-2,-1
1537917139447516,-1,0,0,-1,2,7,-8,-1
1537917139447516,-3,-2,-1,0,-4,4,-27,-6
1537917139448514,2,3,0,0,2,-10,36,7
1537917139448514,-1,-1,0,-2,-1,1,-10,0
1537917139469458,0,0,1,-1,-3,-6,9,-1
1537917139469458,0,-1,-1,-1,8,12,5,4
1537917139471453,-2,-1,1,3,16,5,-16,-2
1537917139471453,-2,-2,-4,-7,-28,-19,-4,-4
1537917139483421,0,0,2,0,-1,3,-6,3
1537917139483421,0,1,0,1,3,0,2,-4
1537917139492397,-1,-2,-2,-4,-19,-37,-14,-2
1537917139492397,-2,0,1,4,17,54,0,3
1537917139507356,0,-1,0,1,-3,-7,-13,-8
1537917139507356,-1,-2,0,2,2,-8,14,2
1537917139508354,-2,0,-2,-2,-1,-4,-9,-1
1537917139508354,0,0,-3,-5,-4,7,-8,-2
1537917139530295,-2,-2,0,-2,-2,-10,-13,-2
1537917139530295,0,0,0,-2,3,18,5,1
1537917139531293,-2,-1,2,2,0,-26,2,-2
1537917139531293,-2,-1,-2,-4,-9,0,6,-2
1537917139543261,-1,1,-1,0,2,13,11,6
1537917139543261,-1,0,-1,-2,-4,-14,-6,-8
1537917139552236,-1,-1,-3,-1,-8,-6,-13,1
1537917139552236,0,0,1,5,19,-5,6,-6
1537917139567196,-1,-1,1,4,6,12,-11,-1
1537917139567196,0,-3,-4,-7,-15,-15,15,-4
1537917139569192,2,1,-1,1,3,9,-5,5
1537917139569192,0,-1,-2,0,-14,-21,3,1
1537917139590137,1,0,-1,4,24,10,15,4
1537917139590137,-3,-1,1,-3,-28,23,7,-7
1537917139591134,-2,-1,-4,-7,-2,19,19,-9
1537917139591134,-1,0,0,1,6,-23,-27,1
1537917139604100,1,-2,-1,-4,-7,-15,6,4
1537917139604100,1,-2,0,3,16,7,-1,2
1537917139611081,-3,-2,0,1,2,8,-9,0
1537917139611081,0,0,1,0,-1,-6,-3,4
1537917139627038,-1,-1,-3,-3,0,6,1,-9
1537917139627038,1,1,0,1,3,-4,-5,4
1537917139629033,0,-1,-2,1,-4,6,6,-3
1537917139629033,0,0,-3,2,5,-4,2,-1
1537917139649978,0,0,-1,-2,-8,-2,-6,-3
1537917139649978,-1,0,-3,-3,-3,-7,8,0
1537917139650975,0,0,-3,-2,-5,-4,-11,0
1537917139650975,1,0,-1,0,0,5,6,0
1537917139663941,0,0,0,1,2,0,-1,-1
1537917139663941,0,0,-2,-4,-7,-8,1,4
1537917139679896,-1,-2,-1,-2,0,4,-6,-5
1537917139679896,0,-1,-1,-1,2,1,5,2
1537917139687875,-1,-2,-3,-5,-10,-6,-9,-2
1537917139687875,0,1,2,10,41,7,2,0
1537917139688871,-1,1,-1,-2,-20,-1,2,1
1537917139688871,-1,-3,-1,0,8,-1,-2,-4
1537917139709815,-3,0,1,-4,-24,-12,-1,1
1537917139709815,-2,0,0,1,-5,-36,-2,-1
1537917139711809,-2,-2,-2,-6,-2,37,1,-2
1537917139711809,0,0,2,12,32,9,-2,0
1537917139723778,0,1,2,10,26,49,6,-1
1537917139723778,-5,-5,-5,-17,-38,-70,-13,1
1537917139732754,-5,-1,2,11,55,-13,-8,-13
1537917139732754,-1,-2,-6,-28,-128,18,14,-2
1537917139747713,4,-4,-2,18,107,-13,-31,3
1537917139747713,-7,0,-4,-11,-56,-43,44,25
1537917139748711,10,2,3,21,94,102,-75,-59
1537917139748711,7,4,6,17,37,-115,23,58
1537917139769656,-2,-4,-10,-29,-112,-3,3,13
1537917139769656,-15,-6,-5,6,81,45,12,-45
1537917139771651,-3,-5,-23,-74,-128,-109,10,34
1537917139771651,8,5,12,24,127,92,-40,-7
1537917139783619,-7,-5,-9,-53,-96,32,-9,-11
1537917139783619,-3,2,13,42,120,-52,23,-6
1537917139792596,-1,2,6,2,-17,84,19,22
1537917139792596,-6,0,7,44,122,-19,6,-63
1537917139807555,16,0,-9,-39,-90,-89,-13,38
1537917139807555,-13,6,21,78,77,127,-2,-36
1537917139808553,-7,-7,-5,-24,-88,-128,-6,-17
1537917139808553,13,3,-6,-19,-25,69,14,21
1537917139837474,0,0,-1,10,-18,-16,20,-11
1537917139837474,-7,-6,-10,-31,44,-17,-5,1
1537917139838473,6,7,19,51,123,52,3,5
1537917139838473,-9,-4,-9,-38,-128,-43,-20,-7
1537917139843459,-16,-3,0,9,83,9,43,-60
1537917139843459,14,0,-10,-27,-83,48,-31,6
1537917139852436,-8,5,15,60,100,49,34,12
1537917139852436,-12,-12,-16,-58,-17,-86,-26,0
1537917139867395,-1,-3,-1,3,53,123,-46,-13
1537917139867395,13,3,6,8,-37,-128,18,-33
1537917139868393,-2,-8,-18,-51,-104,70,-39,8
1537917139868393,-6,1,9,31,103,101,-3,13
1537917139890332,5,7,16,49,44,-128,20,33
1537917139890332,-23,-9,-11,-41,-117,117,-22,-47
1537917139891330,-5,-3,0,18,95,-25,-24,-34
1537917139891330,9,5,2,9,4,-121,-6,3
1537917139903298,22,-8,-21,-51,-103,1,-7,30
1537917139903298,-1,3,14,19,73,79,-3,31
1537917139912274,4,3,8,21,56,-99,10,22
1537917139912274,6,5,13,40,46,6,-20,-25
1537917139927234,4,6,1,52,-12,29,7,10
1537917139927234,-9,-11,-28,-81,68,54,-11,-3
1537917139929229,-1,-10,-24,-75,-128,-18,9,37
1537917139929229,-5,-10,-25,-79,-77,-37,-5,6
1537917139959149,-13,4,18,26,121,63,33,-27
1537917139959149,21,8,9,42,8,44,-7,44
1537917139960147,-2,6,15,53,106,127,41,-25
1537917139960147,-1,5,22,58,35,-78,31,20
1537917139963138,0,-9,-23,-39,-112,46,-22,-17
1537917139963138,1,-5,-5,-21,-20,70,9,-1
1537917139972114,5,5,12,54,34,85,17,19
1537917139972114,-5,-7,-12,-45,-13,-55,9,-5
1537917139987074,-14,-1,-1,-5,59,-48,-11,-15
1537917139987074,-2,3,13,34,59,-18,-10,3
1537917139993058,-13,-10,-20,-72,-124,-114,-26,-27
1537917139993058,2,-1,1,19,95,127,16,7
1537917140010013,-5,4,7,18,61,-54,-39,-5
1537917140010013,15,1,-1,-20,-33,-59,-9,19
1537917140011011,1,4,8,44,13,-80,3,-20
1537917140011011,-3,-5,-10,-17,1,-11,13,34
1537917140031955,-5,1,13,6,80,30,5,-12
1537917140031955,8,-3,-10,-11,-128,-82,-19,17
1537917140033951,-2,2,4,1,-1,-98,-2,-18
1537917140033951,6,8,16,66,81,-60,-23,17
1537917140046914,-5,-7,-5,-25,-17,109,35,16
1537917140046914,-7,1,5,21,88,-13,-25,-10
1537917140053895,1,-12,-31,-95,-94,127,36,37
1537917140053895,-4,3,10,31,71,63,0,-23
1537917140069853,8,4,9,35,19,54,2,12
1537917140069853,16,1,-1,14,47,19,5,35
1537917140070850,1,2,5,13,84,58,-5,-7
1537917140070850,7,6,6,26,-10,62,32,10
1537917140083816,-10,-10,-22,-52,-14,-124,-7,-23
1537917140083816,6,0,-2,-18,-57,-20,12,64
1537917140092791,-2,0,4,-2,14,-66,-33,-24
1537917140092791,-5,-5,-8,-39,-90,113,8,-14
1537917140107751,-2,3,4,18,-45,-70,-7,5
1537917140107751,2,11,22,86,93,-15,72,-45
1537917140108749,4,-2,0,15,77,30,-5,11
1537917140108749,-8,-12,-23,-72,-113,-21,-26,-13
1537917140129693,0,4,16,40,112,62,9,-23
1537917140129693,-9,-6,-10,-24,2,-112,6,3
1537917140131687,-1,-2,2,12,-16,-12,-17,-22
1537917140131687,6,3,1,32,49,40,0,-20
1537917140152631,-6,-4,-3,-31,12,75,-2,16
1537917140152631,-5,2,2,0,-84,4,-25,-22
1537917140153628,10,9,11,47,111,27,71,32
1537917140153628,-17,-17,-27,-93,-128,-50,-51,-42
1537917140167591,-3,4,10,26,-78,-54,-14,-15
1537917140167591,1,-1,-7,-14,-14,72,65,15
1537917140168588,4,3,4,17,-11,-100,-28,-7
1537917140168588,-11,2,7,58,44,44,6,-14
1537917140189532,11,-6,-17,-72,-63,-12,25,59
1537917140189532,4,2,-4,-19,-77,102,-35,-28
1537917140191527,-1,-2,-7,-25,-24,1,-18,3
1537917140191527,-1,5,15,40,123,-24,45,6
1537917140212471,-10,-7,-16,-18,-58,14,-32,-34
1537917140212471,0,-3,0,-22,29,108,3,12
1537917140213469,-5,-4,0,-3,-97,-23,-3,3
1537917140213469,3,2,4,17,-6,-17,-39,-8
1537917140226434,4,6,19,43,127,114,50,18
1537917140226434,-6,-11,-19,-3,-45,-66,-13,-8
1537917140233415,-11,-7,-16,-108,-63,11,0,1
1537917140233415,-4,-3,-3,-7,-50,-26,0,-2
1537917140250370,2,1,0,13,31,-24,-21,-34
1537917140250370,-11,4,15,42,54,3,4,-2
1537917140251369,27,0,0,25,-5,9,-7,33
1537917140251369,-4,-3,-9,-53,25,-20,-6,0
1537917140272312,-3,0,-1,18,1,57,-8,-9
1537917140272312,2,-4,-14,-32,-33,-43,-2,-7
1537917140274307,1,3,12,63,-14,32,20,-4
1537917140274307,0,-3,-3,-40,-52,4,3,-11
1537917140287273,10,-1,-5,-4,-48,-46,-24,51
1537917140287273,-6,-3,3,-2,1,-21,-14,-13
1537917140293257,-5,-1,-2,2,103,21,5,7
1537917140293257,-1,-4,-4,3,-58,111,7,-6
1537917140308216,10,1,-8,-31,-103,-4,-3,-3
1537917140308216,-1,0,3,-20,-53,-53,6,3
1537917140317192,-1,3,12,77,70,28,21,-1
1537917140317192,0,-8,-14,-46,2,46,-27,4
1537917140332151,-16,-5,-3,-14,-66,-6,-19,-17
1537917140332151,8,4,3,-13,-37,-15,-14,-4
1537917140334146,-2,-1,-1,15,49,24,-1,-27
1537917140334146,0,0,-3,-3,-34,-49,22,42
1537917140355090,-5,0,10,18,84,65,2,-25
1537917140355090,-8,-3,-4,-5,-39,25,-14,-12
1537917140356087,-3,-1,-3,24,8,-14,-36,8
1537917140356087,1,-2,-6,-70,-87,-40,6,-11
1537917140368055,3,-1,-6,16,-26,65,12,14
1537917140368055,-5,-1,4,-2,50,-16,-4,-29
1537917140385010,-1,-3,-5,-25,-84,-65,-41,33
1537917140385010,3,6,16,80,127,41,-6,-39
1537917140391991,4,0,0,-1,-38,-116,6,29
1537917140391991,-3,-5,-8,-19,-24,-7,-5,-19
1537917140393986,-1,2,4,6,25,50,-13,-15
1537917140393986,8,2,0,7,49,-63,30,19
1537917140414930,-10,-4,-5,-27,10,-49,-6,-22
1537917140414930,4,1,1,21,18,-3,-8,14
1537917140415928,-2,0,-2,-21,17,22,38,3
1537917140415928,-12,2,6,10,-37,11,-3,-1
1537917140428893,2,2,10,29,25,11,-19,-9
1537917140428893,5,0,-6,8,83,1,39,41
1537917140436872,-11,-2,1,-23,-50,-22,-11,-17
1537917140436872,3,1,1,16,-20,3,18,-15
1537917140452829,-11,-3,0,3,60,80,-12,-4
1537917140452829,4,-3,-2,2,-30,-43,-20,-6
1537917140453827,-4,0,-4,-32,-47,-30,7,-13
1537917140453827,-3,-2,-3,11,-43,3,-7,7
1537917140474790,5,2,1,8,17,-85,18,13
1537917140474790,-3,-2,-5,-15,40,-7,-10,-15
1537917140476766,-2,-4,-4,-17,-60,-22,20,4
1537917140476766,1,-3,-6,-3,1,25,-19,7
1537917140488733,0,-1,-2,-1,-15,-12,8,3
1537917140488733,-1,0,6,13,23,6,1,13
1537917140497709,0,-3,-8,-19,-20,-12,-14,-15
1537917140497709,3,0,3,13,15,0,-1,11
1537917140512669,-4,1,0,2,4,-8,4,-7
1537917140512669,-1,-2,-3,-7,-12,7,-2,3
1537917140513666,-1,0,-3,-1,11,15,-2,-1
1537917140513666,1,0,-1,3,-8,-7,0,4
1537917140534610,2,-2,-1,-3,5,-13,-1,-7
1537917140534610,2,-1,0,-5,-12,-6,-8,3
1537917140536605,2,-2,-1,-4,4,8,2,0
1537917140536605,-1,0,0,6,1,-13,-2,0
1537917140548573,-1,-2,-2,-5,-12,-18,-4,0
1537917140548573,-2,-1,-1,1,6,13,-2,-3
1537917140557549,-2,-1,-1,-4,3,3,1,2
1537917140557549,0,-1,-1,-1,-11,-8,-1,-2
1537917140572509,-1,0,-2,-3,6,1,-1,5
1537917140572509,-4,0,1,0,0,6,-1,-8
1537917140573507,1,-1,-1,1,4,-2,-1,-2
1537917140573507,0,-1,-3,-5,-9,-8,-1,4
1537917140594451,-2,1,0,0,3,-1,-1,-6
1537917140594451,-5,-7,1,3,4,-2,-2,0
1537917140596445,8,3,-1,-6,-7,1,-5,0
1537917140596445,-1,0,0,-2,-3,0,-2,1
1537917140618386,0,0,2,1,1,-1,-5,-5
1537917140618386,0,0,-2,0,-5,0,6,-4
1537917140620382,-6,-3,-3,-3,0,0,-1,1
1537917140620382,2,-1,-2,0,-3,-2,3,0
1537917140631352,10,12,0,0,2,-2,-1,2
1537917140631352,-4,-13,0,0,-3,-1,0,14
1537917140638334,-20,-10,-3,-2,-1,-2,-22,-26
1537917140638334,6,6,1,3,2,-2,8,4
1537917140655288,-4,-9,-2,-5,-6,-6,-13,2
1537917140655288,6,5,-1,2,0,3,12,1
1537917140656286,-1,-1,-2,-3,-1,-2,3,5
1537917140656286,-5,-1,-1,-2,-4,-2,-7,-2
1537917140677230,-1,2,-1,3,3,-1,-1,-2
1537917140677230,1,3,0,-1,0,2,-3,0
1537917140679225,4,-1,0,-2,0,0,3,6
1537917140679225,-2,-2,-1,0,-2,0,-2,-1
1537917140692190,-1,-2,0,-1,0,0,6,2
1537917140692190,-3,-2,-2,-2,-3,-2,-8,-4
1537917140698174,0,2,-1,1,-2,-1,4,0
1537917140698174,0,-3,-1,-1,-2,-2,-3,-1
1537917140715128,-4,-5,-1,-1,-1,-2,1,-4
1537917140715128,-1,2,0,-2,-2,-2,-4,-2
1537917140716125,2,0,1,0,1,0,4,5
1537917140716125,-2,-1,-1,1,1,0,-5,-1
1537917140737069,-2,-3,-3,-2,-1,0,13,2
1537917140737069,-3,0,-2,-2,0,-1,-5,-7
1537917140739064,4,3,1,-1,1,0,2,11
1537917140739064,-2,-2,0,-1,0,1,-1,-1
1537917140752029,-2,-1,-4,-5,-4,-3,-3,-8
1537917140752029,2,2,-2,0,-1,2,-2,2
1537917140765992,-1,-2,-1,0,-1,1,1,0
1537917140765992,0,1,2,0,-2,-3,-2,-4
1537917140774968,0,-1,-1,-2,2,0,-2,2
1537917140774968,0,0,-1,-4,-2,0,-1,1
1537917140775965,0,-2,-1,0,0,0,-1,-2
1537917140775965,-3,-2,0,-2,-3,0,0,2
1537917140796909,-1,-2,-2,-1,-1,0,1,-2
1537917140796909,-2,0,-1,1,0,-1,-4,-1
1537917140798915,0,-2,-4,-1,-3,-1,1,-4
1537917140798915,0,-2,0,-2,-1,-1,0,-1
1537917140810873,-2,-2,0,1,-1,1,-2,-2
1537917140810873,-1,1,0,0,-1,-1,-2,0
1537917140819849,1,0,0,-1,0,-1,-1,-1
1537917140819849,-2,-1,0,4,0,-2,0,0
1537917140834809,-2,-1,2,0,0,1,-1,-1
1537917140834809,-1,-1,-1,-1,-2,-1,-3,-1
1537917140836803,1,-2,-2,-5,-3,-3,3,0
1537917140836803,2,-2,-3,-3,-5,-3,-1,1
1537917140857747,1,0,-1,2,1,-2,1,0
1537917140857747,-1,1,-1,3,3,-1,-1,0
1537917140858746,-1,-1,-1,-1,0,0,-2,-1
1537917140858746,-2,0,0,3,2,0,-2,0
1537917140870714,0,-1,-2,-3,-4,-3,0,-1
1537917140870714,1,0,0,-1,-1,0,0,1
1537917140879688,-3,-1,2,0,0,0,-4,-4
1537917140879688,1,-1,-1,-2,0,-1,1,0
1537917140894649,-1,0,0,0,0,0,-4,0
1537917140894649,0,1,-1,0,0,1,-1,-6
1537917140896645,0,-1,-1,1,0,0,-7,1
1537917140896645,-2,-2,-3,-2,-3,0,-2,-17
1537917140917587,-1,-1,-3,-3,-2,-3,3,13
1537917140917587,0,0,-1,-1,-4,-2,-18,-13
1537917140918584,-1,-1,-1,-2,-3,0,-1,-2
1537917140918584,1,-1,0,1,0,-1,7,12
1537917140930552,-1,1,-1,-1,1,-6,-7,-15
1537917140930552,-2,-1,-1,-1,5,9,8,9
1537917140939528,1,0,2,8,44,40,7,-2
1537917140939528,0,-1,-1,0,-18,-18,-7,0
1537917140954488,-8,-4,-2,-1,13,-24,-27,-15
1537917140954488,4,2,6,13,37,70,24,44
1537917140956483,0,-1,-2,2,-29,-87,0,-1
1537917140956483,-4,2,4,19,110,53,-13,-35
1537917140977427,9,1,-4,-3,-93,-49,1,25
1537917140977427,-7,-2,5,11,44,-38,8,-32
1537917140978424,5,-2,-5,-8,29,102,5,0
1537917140978424,-1,-10,-26,-71,-111,1,-4,-6
1537917140991389,-12,-5,4,25,72,-90,-64,-44
1537917140991389,25,15,10,-3,-94,86,52,66
1537917141000366,1,-4,-12,-20,-18,-112,12,30
1537917141000366,-10,2,12,29,78,38,6,1
1537917141015325,35,9,-8,-28,-31,90,-3,42
1537917141015325,-15,-7,-1,10,34,-94,-36,-26
1537917141016324,3,7,10,13,78,-77,-22,-7
1537917141016324,2,0,3,20,18,27,2,15
1537917141037267,-16,-6,-5,-21,-77,94,43,-26
1537917141037267,3,0,8,27,127,-32,-4,4
1537917141039262,2,-3,1,-2,-76,23,19,9
1537917141039262,-11,-6,-4,2,-18,-59,-10,-12
1537917141051230,-2,-3,3,8,25,49,18,-2
1537917141051230,15,5,2,18,22,-44,19,13
1537917141060206,-23,-16,-19,-37,-45,-8,-25,-22
1537917141060206,1,4,2,12,-22,-21,-3,34
1537917141075165,-12,0,-5,-9,5,-42,5,-9
1537917141075165,2,2,-13,-20,-29,13,-24,-22
1537917141076164,7,7,14,59,105,-76,-3,9
1537917141076164,6,-5,-17,-51,-122,53,22,45
1537917141097107,-5,-3,2,16,126,-82,3,7
1537917141097107,5,-8,-9,-10,-19,53,-35,4
1537917141099102,1,9,17,51,76,-45,-6,-12
1537917141099102,0,-11,-17,-51,-75,-111,-38,-47
1537917141111070,9,8,19,51,127,14,-7,56
1537917141111070,-15,-9,-11,-41,-115,-62,9,-77
1537917141120046,5,1,0,-1,-18,58,4,46
1537917141120046,0,1,12,28,97,63,7,4
1537917141135005,-2,4,6,16,45,48,-22,-9
1537917141135005,-11,-7,-10,-23,-54,47,-36,-3
1537917141136003,-1,0,0,-1,18,76,17,-27
1537917141136003,-1,2,11,32,49,17,19,20
1537917141158941,6,-2,-15,-37,-77,-58,-12,-38
1537917141158941,-2,-2,-5,-13,48,116,16,15
1537917141159939,-19,-6,-11,-41,-95,44,-18,-20
1537917141159939,0,-2,-6,-15,-57,-20,-8,-26
1537917141170909,8,4,15,43,67,35,40,16
1537917141170909,3,-2,-6,2,-21,-97,-12,-5
1537917141179885,-10,-6,-11,-35,-36,119,5,-24
1537917141179885,2,2,-2,-9,-11,-5,-3,0
1537917141194845,-7,-9,-16,-43,-128,-48,0,7
1537917141194845,-17,7,17,41,27,85,34,-53
1537917141195843,8,0,5,13,19,87,-9,13
1537917141195843,5,5,7,27,-2,38,-15,53
1537917141216786,-11,-5,-7,-12,69,-4,29,-44
1537917141216786,-16,-4,4,9,47,-47,-25,-21
1537917141224765,20,-1,-15,-41,-128,-24,38,45
1537917141224765,0,0,-2,-16,31,-45,-4,-1
1537917141230749,-2,6,19,46,28,-70,-12,-23
1537917141230749,5,3,6,27,18,-50,28,28
1537917141239725,-8,-5,-16,-42,-6,11,-19,-2
1537917141239725,8,-5,-9,-30,-44,-24,0,4
1537917141254685,22,-4,-8,-17,-93,127,-1,32
1537917141254685,0,0,0,-11,25,3,-23,4
1537917141256680,-7,-1,4,20,122,-109,-7,27
1537917141256680,-12,-3,-9,-41,-60,4,18,-30
1537917141277624,-9,-6,-11,-24,-9,-78,8,6
1537917141277624,17,1,-1,-22,-104,57,42,44
1537917141278621,27,7,15,55,84,78,10,31
1537917141278621,-18,1,9,34,36,-20,-7,-34
1537917141290590,-1,2,5,15,3,-23,-35,-7
1537917141290590,-14,-7,-10,-14,-42,-27,-15,-9
1537917141299565,-10,0,3,9,41,5,0,-67
1537917141299565,1,6,17,59,125,46,15,-38
1537917141314525,4,-9,-26,-78,-123,54,-38,12
1537917141314525,0,-4,-8,-9,90,81,44,11
1537917141316520,-8,-5,-6,-27,-71,-25,11,-3
1537917141316520,8,-1,5,16,94,-32,-36,13
1537917141337464,-2,-2,-5,-11,-49,-47,10,-10
1537917141337464,5,0,-2,-11,21,-11,-16,2
1537917141338461,2,2,7,34,42,15,-7,-28
1537917141338461,6,0,-6,-18,-63,-74,6,10
1537917141351426,3,5,10,27,94,30,10,-6
1537917141351426,-3,-1,0,16,-13,37,-7,-2
1537917141360403,6,-1,-1,-12,0,-50,-13,8
1537917141360403,2,4,10,50,13,-49,21,-9
1537917141374365,-17,-1,-3,-12,64,71,15,-21
1537917141374365,6,-5,-15,-37,-27,54,-30,-14
1537917141376360,-8,-5,-9,-36,-90,-110,22,-23
1537917141376360,-8,0,-1,6,-49,127,-13,9
1537917141396306,-13,2,12,31,74,17,32,8
1537917141396306,15,5,8,56,41,-91,-18,21
1537917141397304,-12,-7,-14,-58,-45,21,-41,-22
1537917141397304,6,2,0,-22,16,-20,26,-41
1537917141419245,12,5,12,45,70,94,23,16
1537917141419245,-2,-8,-11,-24,-33,12,-31,20
1537917141420242,-14,5,7,28,-22,-10,8,-22
1537917141420242,18,0,-1,-5,7,-42,-7,63
1537917141442184,-3,3,8,28,4,26,-10,-6
1537917141442184,-2,4,7,21,103,57,17,-3
1537917141443181,6,0,0,20,-48,-22,15,45
1537917141443181,-21,-7,-17,-63,-8,-70,-44,-42
1537917141456146,-5,-6,-8,-6,-128,-56,0,1
1537917141456146,-33,-4,4,1,16,-12,27,-45
1537917141457144,-8,-4,-5,-34,-44,-38,-16,-34
1537917141457144,22,0,-3,-23,-4,4,-25,46
1537917141479085,12,-1,-8,-23,1,-3,-15,-4
1537917141479085,-6,-1,-1,-9,-84,-57,3,12
1537917141480083,3,4,7,39,60,80,-15,4
1537917141480083,-6,2,13,43,39,3,23,-11
1537917141502024,8,2,0,15,-51,-97,9,17
1537917141502024,3,-2,-6,-28,61,31,-8,5
1537917141503022,-5,0,-2,-13,-49,-8,19,-24
1537917141503022,-11,-5,-3,20,-21,55,32,-14
1537917141516984,-10,-7,-5,-50,95,-60,3,21
1537917141516984,-8,-7,-6,-11,-98,28,-18,-33
1537917141516984,4,2,-1,-17,17,15,-19,-38
1537917141516984,11,3,6,50,56,17,11,49
1537917141546904,-9,0,8,12,64,21,-9,3
1537917141546904,0,-3,-9,-21,-51,-10,8,-14
1537917141547901,10,-1,0,-5,8,43,-1,31
1537917141547901,-8,0,2,3,16,55,-9,-16
1537917141553886,-2,1,5,39,-20,-2,4,-5
1537917141553886,11,2,7,21,23,-30,-14,20
1537917141554883,-9,-2,0,0,114,65,-18,-27
1537917141554883,-23,-12,-22,-66,-61,-55,-2,4
1537917141584803,-2,-5,-12,-35,-34,-25,-10,-23
1537917141584803,-4,1,-2,-35,33,-42,10,-34
1537917141585801,3,1,9,41,-35,-12,10,34
1537917141585801,-5,1,6,32,41,28,-4,-29
1537917141598766,2,-1,-8,-32,-64,-21,7,15
1537917141598766,3,2,5,22,-16,3,-10,-1
1537917141599764,-6,-1,1,11,25,3,1,6
1537917141599764,7,-1,-4,-15,-27,2,-3,19
1537917141613726,0,2,3,14,-26,43,12,-8
1537917141613726,12,2,2,8,52,-11,-11,32
1537917141621705,0,-4,-10,-21,-15,-21,1,16
1537917141621705,-11,0,2,-1,-16,7,7,-18
1537917141636664,3,-2,-2,-7,-9,18,-6,-1
1537917141636664,-2,-2,-2,3,9,-23,2,6
1537917141637662,-4,-3,-1,1,-9,-10,5,-3
1537917141637662,4,1,0,-2,3,7,-1,-1
1537917141659604,-7,0,2,11,24,21,-8,-14
1537917141659604,-1,-1,-3,-6,-24,-15,-2,7
1537917141659604,0,-2,-1,2,4,2,1,3
1537917141659604,0,1,1,5,15,10,5,-5
1537917141674564,0,0,-3,-9,-11,4,-4,-1
1537917141674564,1,0,-2,-2,-20,-15,1,7
1537917141674564,2,0,3,10,14,0,2,11
1537917141674564,1,-1,-1,-4,7,0,0,-1
1537917141696504,-1,-3,-5,-8,-19,3,-4,0
1537917141696504,-1,-1,2,2,-3,-5,3,0
1537917141697502,-1,2,1,7,19,0,-5,6
1537917141697502,3,-1,-4,-9,-8,0,-1,-3
1537917141719443,-4,-1,0,-1,-8,7,0,-6
1537917141719443,-2,-2,3,8,8,0,2,0
1537917141719443,1,10,-4,-5,-1,-6,0,5
1537917141719443,6,-5,-2,-5,-8,-1,-3,1
1537917141742381,-7,3,-1,2,-2,4,-2,-2
1537917141742381,-2,-23,-5,-4,0,-8,-2,-2
1537917141743379,1,11,3,6,-2,0,2,4
1537917141743379,-24,1,-2,-8,-8,-3,-2,-12
1537917141756344,16,2,0,-1,4,4,1,11
1537917141756344,1,5,-1,-1,-7,-2,0,7
1537917141757341,3,4,-2,-2,0,-1,-3,-6
1537917141757341,-3,-13,2,2,7,3,8,3
1537917141779283,2,-1,-2,-2,-1,3,-9,-14
1537917141779283,-9,-3,0,-1,-6,-3,-6,3
1537917141780280,-11,2,-1,-2,2,-1,4,2
1537917141780280,15,18,-4,2,3,1,3,-3
1537917141795240,-2,11,4,0,-3,-2,-4,2
1537917141795240,-15,-50,-12,-7,-7,-6,9,-2
1537917141796237,-11,-4,2,2,4,-2,-8,-24
1537917141796237,1,9,-3,-3,-6,-3,4,4
1537917141816184,-6,21,2,0,-1,1,-11,-1
1537917141816184,19,-26,7,3,3,-2,-2,-4
1537917141817182,-25,17,-13,1,5,1,-5,5
1537917141817182,0,-15,-3,-6,-5,-2,10,1
1537917141839123,-8,-9,-6,-2,0,1,1,-3
1537917141839123,18,31,4,0,-1,-3,-16,-3
1537917141840120,5,7,5,1,0,0,29,43
1537917141840120,-12,-9,-1,-1,1,-1,-7,-35
1537917141854083,-26,-86,-6,-2,-2,-2,10,-1
1537917141854083,8,56,10,2,2,4,1,2
1537917141855081,20,18,-11,-7,-4,-1,-11,-19
1537917141855081,11,-4,-4,1,1,1,-16,-11
1537917141876025,18,9,-1,-3,0,-1,-9,7
1537917141876025,-10,-3,0,-4,-8,-1,14,-36
1537917141884003,20,-11,20,3,1,2,5,4
1537917141884003,-2,-9,-22,-2,2,2,1,9
1537917141898963,-26,0,-2,-4,-2,2,1,-24
1537917141898963,-11,15,-5,3,3,0,-4,-15
1537917141899961,2,-34,6,1,2,0,-6,-5
1537917141899961,2,-5,5,-2,-4,-1,-10,4
1537917141913923,-18,5,1,-4,-1,0,17,-2
1537917141913923,6,6,-2,0,1,-1,2,6
1537917141914921,10,-5,-2,1,0,-1,-3,6
1537917141914921,-6,2,7,1,1,2,2,-8
1537917141936862,11,18,-5,0,-2,-2,-18,2
1537917141936862,-4,-4,3,0,2,0,2,3
1537917141936862,-8,-17,-6,0,0,0,2,-8
1537917141936862,-4,-5,0,0,-1,-5,3,85
1537917141958804,6,20,3,0,1,4,-8,-24
1537917141958804,-1,-11,-7,-4,-3,-4,4,21
1537917141959801,-5,-5,-3,0,0,0,-6,-3
1537917141959801,-7,3,2,-2,-4,-2,6,-2
1537917141973763,16,1,1,2,3,1,7,43
1537917141973763,2,-1,-2,-1,-1,-3,-22,4
1537917141981742,-5,-8,-4,-5,-4,-6,14,5
1537917141981742,3,11,7,2,3,5,-6,-18
1537917141996702,2,-4,0,-1,0,-2,10,25
1537917141996702,6,-5,-3,-1,-1,-4,-10,-1
1537917141997699,1,8,0,1,1,5,-6,-9
1537917141997699,0,-2,1,-2,-1,-1,-3,-16
1537917142018643,0,-4,-1,-1,0,3,1,2
1537917142018643,-7,-1,-1,-2,-2,1,9,-7
1537917142019641,2,-1,-2,-1,-2,-5,-4,55
1537917142019641,4,2,0,-1,2,-5,0,-6
1537917142034600,-1,-3,0,3,3,5,-1,-1
1537917142034600,0,2,-1,0,-10,-20,-12,-4
1537917142034600,0,-1,0,0,-3,-6,6,-21
1537917142034600,-3,-3,0,3,3,27,8,-14
1537917142056542,1,3,-1,-4,-13,-28,-12,-15
1537917142056542,-5,-1,4,19,70,18,-2,26
1537917142057540,0,0,2,7,-24,27,-5,-61
1537917142057540,3,-1,-9,-14,-9,-6,-19,65
1537917142079480,-3,-4,-1,1,-3,-56,-4,-69
1537917142079480,1,3,-1,-13,-21,6,7,17
1537917142079480,-27,-11,-8,-8,-21,16,-2,-24
1537917142079480,27,9,3,-5,-16,-77,-5,-5
1537917142094440,2,-2,1,7,44,74,-5,8
1537917142094440,3,3,10,31,-32,21,8,20
1537917142094440,1,-1,-9,-32,-9,17,-1,-10
1537917142094440,-6,-2,-7,-22,-56,-4,-12,-16
1537917142116382,-8,0,5,15,53,0,-12,-23
1537917142116382,14,5,-2,-16,11,12,13,27
1537917142117380,0,0,2,12,42,18,-10,23
1537917142117380,-5,3,10,27,-12,-63,6,-6
1537917142139321,7,1,-1,-4,-46,1,-15,-1
1537917142139321,-10,-3,-2,1,-4,80,17,-3
1537917142140318,-1,-1,5,33,74,-103,2,2
1537917142140318,16,7,-8,-57,-77,-44,-1,46
1537917142153284,-12,-12,-13,-17,108,-22,-29,12
1537917142153284,-13,-5,-1,11,-90,-44,-27,-29
1537917142161262,-3,-2,-13,-57,-45,9,3,-27
1537917142161262,-9,2,18,76,127,101,-7,-7
1537917142176222,17,17,21,41,-14,-94,29,31
1537917142176222,-4,-16,-35,-89,-53,-59,-4,-13
1537917142177220,-11,2,19,55,118,63,0,-29
1537917142177220,20,2,2,-7,-89,-64,5,22
1537917142199160,-6,-6,10,45,83,37,5,-20
1537917142199160,-5,4,-3,-1,11,93,8,-5
1537917142200158,-2,-14,-27,-64,-81,-102,-13,18
1537917142200158,-23,-10,-12,-36,-46,127,6,-44
1537917142213123,8,6,9,24,35,57,18,35
1537917142213123,3,1,1,4,-46,-128,-63,-41
1537917142222099,21,12,17,64,107,7,-7,58
1537917142222099,-9,-2,-20,-48,-86,-80,33,5
1537917142237059,1,-5,-8,-9,56,57,-45,-5
1537917142237059,-22,2,12,36,90,51,28,-43
1537917142237059,-3,-1,0,0,72,50,-83,-66
1537917142237059,-14,-16,-16,-28,-35,-83,-13,-66
1537917142259000,3,-1,-5,-30,-88,-80,39,46
1537917142259000,-5,2,14,35,127,-64,-23,-30
1537917142259998,-2,-2,-1,-21,-128,61,8,10
1537917142259998,1,4,11,36,71,-12,1,-7
1537917142272963,-10,-2,-3,-8,17,119,-29,-87
1537917142272963,8,-3,-3,-2,-12,117,40,43
1537917142281939,9,7,7,4,-31,-85,-7,-16
1537917142281939,2,0,1,11,56,20,6,31
1537917142296899,0,1,-2,-5,-2,2,17,-12
1537917142296899,3,-3,-2,-6,-45,-105,9,23
1537917142296899,-2,-1,-2,-3,-5,54,32,25
1537917142296899,2,6,11,56,127,-38,-18,-50
1537917142320835,6,-10,-25,-68,-106,-37,-41,33
1537917142320835,12,0,-4,-4,15,46,-8,55
1537917142321833,-5,1,5,27,62,39,7,17
1537917142321833,-11,-10,-19,-55,-63,-48,-13,-9
1537917142333800,-9,3,8,18,76,14,72,1
1537917142333800,-3,-8,-19,-52,-128,-58,-34,-20
1537917142341779,1,-5,-12,-27,-10,2,-9,23
1537917142341779,0,2,12,16,-48,43,28,41
1537917142356740,3,0,-1,5,-7,-3,-4,41
1537917142356740,4,2,2,-4,-15,20,5,17
1537917142357737,-3,-1,-2,5,22,-6,-8,-7
1537917142357737,-3,2,8,21,22,-23,12,-2
1537917142379678,11,-3,-10,-27,-80,-80,-5,18
1537917142379678,-13,5,11,22,34,-85,23,-16
1537917142380676,9,-2,-2,-7,-48,-78,-6,-1
1537917142380676,-15,-7,-6,-16,-4,114,-59,-70
1537917142393641,0,6,4,1,-63,13,16,-4
1537917142393641,-2,-4,-3,6,5,1,-5,-9
1537917142401619,-14,3,15,40,108,73,9,-19
1537917142401619,44,-3,-15,-36,-76,-53,-39,89
1537917142416580,-10,-7,-6,-18,-77,-90,35,-15
1537917142416580,3,-1,2,3,34,30,4,6
1537917142417577,-7,-5,-2,-13,-42,-25,3,48
1537917142417577,-4,5,14,48,98,35,13,-41
1537917142439518,-10,0,1,19,56,-11,-4,18
1537917142439518,3,-3,-10,-20,35,8,-16,2
1537917142440515,2,-2,-10,-32,-77,-65,-1,-21
1537917142440515,-11,-3,0,7,35,-7,24,-17
1537917142453481,9,1,-1,-11,-59,36,5,-3
1537917142453481,-15,-2,3,9,3,32,30,-18
1537917142461459,7,-1,-3,7,24,4,23,11
1537917142461459,-1,3,4,13,44,71,14,27
1537917142476420,-2,-3,-11,-37,-93,86,4,-36
1537917142476420,-5,2,7,20,70,90,9,-23
1537917142477418,11,8,11,33,42,-6,4,4
1537917142477418,-8,-4,-13,-35,-93,-51,12,-19
1537917142500358,-10,-7,-9,-11,-27,-29,-40,19
1537917142500358,16,1,-2,-18,10,49,13,28
1537917142500358,-11,0,1,2,-33,-6,10,-29
1537917142500358,3,-1,0,-10,8,121,9,19
1537917142522298,0,6,11,34,44,-18,-1,9
1537917142522298,-7,-1,0,20,60,15,6,-53
1537917142523296,-7,-9,-16,-45,-88,-7,-5,40
1537917142523296,4,2,3,7,36,29,-16,5
1537917142536261,-2,-2,3,-1,-45,-1,-28,-32
1537917142536261,5,2,5,16,-13,-44,-16,10
1537917142537259,2,-2,-3,12,79,-58,-17,-2
1537917142537259,7,-5,-13,-50,-63,34,-2,24
1537917142560196,0,0,1,5,31,7,-11,-8
1537917142560196,15,6,10,39,43,38,-37,4
1537917142560196,-14,-4,-4,-8,-8,10,40,-32
1537917142560196,-2,0,2,20,76,-5,14,-31
1537917142582137,10,-1,-10,-42,-70,-69,-17,20
1537917142582137,3,2,6,24,26,40,-13,14
1537917142583135,2,-3,-5,-15,-69,-55,23,-15
1537917142583135,-14,4,14,35,17,24,2,-27
1537917142597097,-2,1,3,32,91,41,29,-27
1537917142597097,-15,-11,-24,-113,-64,-105,-15,-24
1537917142597097,9,1,-1,-3,-27,55,-15,-18
1537917142597097,0,3,12,51,40,-29,23,26
1537917142619038,0,1,5,20,127,-5,2,11
1537917142619038,-6,-4,-4,-9,-108,0,15,14
1537917142627016,-5,-5,-5,-24,-17,-10,1,-27
1537917142627016,-1,1,1,-20,-78,-28,-18,-20
1537917142641976,-3,3,10,62,79,16,4,-13
1537917142641976,1,-1,2,-10,27,4,5,13
1537917142642974,-2,-3,-10,-6,-19,-4,-13,6
1537917142642974,-4,-3,-11,-36,-22,-14,25,31
1537917142656937,-7,-2,-2,-4,5,125,-52,-57
1537917142656937,8,0,-5,-7,-54,-60,13,4
1537917142656937,5,3,6,9,-27,21,-12,43
1537917142656937,-1,0,6,30,59,9,0,11
1537917142679875,-1,0,-1,-5,15,10,-10,-1
1537917142679875,-1,1,4,23,-7,-8,21,15
1537917142680873,2,4,7,30,53,22,-11,-6
1537917142680873,-3,-4,-11,-16,2,-1,-2,-2
1537917142702814,-8,-6,-13,-72,-95,-54,23,3
1537917142702814,2,-1,-3,3,-35,-27,-10,-6
1537917142702814,1,1,5,1,23,5,1,9
1537917142702814,0,2,7,30,19,2,1,-2
1537917142716777,-6,-1,1,0,-20,-27,11,-34
1537917142716777,5,1,1,-1,21,6,-27,9
1537917142717774,1,0,1,0,13,44,14,-11
1537917142717774,1,1,5,15,12,-13,1,0
1537917142739715,-4,-1,-1,3,0,-2,5,7
1537917142739715,-9,-5,-9,-24,-10,0,-17,-17
1537917142740713,-2,12,12,-5,-17,-26,-15,9
1537917142740713,-1,-1,34,-5,-14,-16,-13,-23
1537917142762654,1,-18,-39,4,-2,-11,3,26
1537917142762654,2,19,34,19,27,3,28,-4
1537917142762654,-4,-21,-8,-3,-1,3,-36,3
1537917142762654,-4,-29,-69,-13,-3,-3,21,-4
1537917142776617,10,30,66,8,-1,-21,-4,2
1537917142776617,6,-11,-34,4,11,24,10,17
1537917142777614,-35,-5,-2,0,2,12,17,-33
1537917142777614,-9,-77,-74,-11,-5,-9,-31,-10
1537917142799556,22,40,-35,-15,-14,-6,-19,38
1537917142799556,1,-1,41,9,-10,-20,-16,-3
1537917142800553,15,18,39,1,2,4,21,37
1537917142800553,-4,58,31,1,2,1,14,-17
1537917142822494,-34,-32,12,-7,-10,-2,-26,4
1537917142822494,45,59,-7,16,11,-8,-43,-4
1537917142822494,23,-64,-31,-8,-2,8,47,-8
1537917142822494,-50,-14,7,1,1,15,44,18
1537917142836457,33,73,39,0,-2,-2,22,6
1537917142836457,-27,-40,-36,-2,1,-6,-36,-5
1537917142837454,-10,4,-13,-3,-3,-24,-28,-11
1537917142837454,43,39,2,1,-4,-30,-42,-9
1537917142859395,-9,-18,21,3,3,42,64,-1
1537917142859395,-5,11,0,3,7,9,-2,-6
1537917142860393,12,11,-8,0,-3,2,19,7
1537917142860393,-15,3,24,-3,-5,-23,-23,-7
1537917142889315,2,-26,-23,1,2,-14,-27,3
1537917142889315,-11,-19,-4,1,0,-1,30,9
1537917142890313,31,21,-15,-10,-8,8,-3,3
1537917142890313,-18,-1,47,-4,1,-1,-18,2
1537917142896297,9,-25,-55,3,-1,22,13,-2
1537917142896297,-11,-8,-3,5,1,-19,-12,-26
1537917142897294,-27,12,22,-1,-2,-7,69,27
1537917142897294,14,-10,-11,0,-2,-5,-9,1
1537917142920233,-5,1,1,-6,0,-10,-5,4
1537917142920233,-3,-19,9,-8,-7,6,38,11
1537917142920233,2,10,-7,7,0,-9,-62,-5
1537917142920233,5,6,6,-1,6,10,74,-16
1537917142942174,-4,-17,4,14,10,-2,-6,-7
1537917142942174,-14,1,-5,-3,2,11,2,18
1537917142944169,-3,-4,1,-5,12,35,-1,2
1537917142944169,6,3,-6,-4,-31,-13,-40,23
1537917142956137,-11,1,13,8,32,13,-4,-4
1537917142956137,3,-3,-3,-10,-46,-58,-14,17
1537917142965113,16,-1,-7,-11,-12,-12,-2,21
1537917142965113,-9,-1,3,1,3,16,-26,-16
1537917142980073,-19,-6,-3,2,5,-7,2,-23
1537917142980073,-4,0,3,0,11,12,7,-21
1537917142981070,3,-9,2,7,9,-2,1,20
1537917142981070,11,18,-3,-4,5,-3,-24,9
1537917143009993,0,-4,-2,-6,-14,-12,-44,-19
1537917143009993,-3,-2,0,6,10,15,28,-8
1537917143010990,-6,-3,-3,-4,5,8,9,-10
1537917143010990,3,31,-2,-4,-12,-6,2,-26
1537917143015977,-2,-9,-5,-7,-12,-28,3,4
1537917143015977,-10,1,5,2,3,13,6,-22
1537917143024953,-1,3,2,7,5,13,2,-8
1537917143024953,3,-27,-3,2,8,10,-2,10
1537917143039913,2,33,0,-6,-6,4,6,-1
1537917143039913,-7,1,0,-4,-3,-15,-5,-24
1537917143040910,-12,-10,-1,0,-4,2,-13,4
1537917143040910,21,-1,-3,0,4,-10,-20,-10
1537917143061854,15,-17,1,1,-9,-16,2,7
1537917143061854,-15,5,-4,-2,6,16,21,10
1537917143063849,-1,-6,-1,1,-2,-4,-35,-59
1537917143063849,0,-1,3,3,1,-15,-8,23
1537917143075817,-10,-9,2,1,-3,2,-20,-15
1537917143075817,9,22,-8,-7,-3,4,16,16
1537917143084793,10,-1,-2,0,-2,1,29,-4
1537917143084793,-38,5,11,-1,-2,5,4,-6
1537917143099753,-13,-60,-19,-1,1,7,18,2
1537917143099753,3,7,42,-1,0,-4,-29,5
1537917143100750,8,-2,-44,0,-9,-9,-3,25
1537917143100750,-31,-4,-2,-7,4,6,11,-30
1537917143122692,-14,-12,-33,-3,-2,0,7,35
1537917143122692,0,-17,10,-6,-2,1,-30,25
1537917143123689,23,16,18,0,-2,-9,-1,0
1537917143123689,-9,-3,-12,-6,-3,5,-12,-21
1537917143135657,2,-1,5,-2,-2,-2,-1,-5
1537917143135657,-3,-7,-12,2,-1,-13,-10,1
1537917143144633,-14,-9,1,-5,-7,-9,-12,-42
1537917143144633,11,1,15,2,-2,-65,-46,19
1537917143159593,7,24,10,-2,-5,36,65,-9
1537917143159593,0,-19,-5,-3,-1,-55,0,-29
1537917143161588,7,-10,-2,1,-6,14,-26,81
1537917143161588,15,14,-9,0,-2,51,43,-2
1537917143182533,1,6,8,9,18,-24,0,-4
1537917143182533,-5,0,-7,-6,-13,-9,-46,-34
1537917143183530,-14,2,7,3,8,-2,-26,-47
1537917143183530,11,-5,1,3,-6,-47,44,28
1537917143195497,10,8,7,-1,6,-13,-33,20
1537917143195497,-1,-3,-1,5,-4,19,17,-11
1537917143204473,-16,5,-9,-4,16,5,20,0
1537917143204473,1,-21,-5,2,-20,-6,-61,-7
1537917143219433,13,19,18,-7,-31,-38,0,-10
1537917143219433,15,3,-24,0,0,5,3,17
1537917143221428,-14,24,33,6,0,-28,17,-8
1537917143221428,0,-48,-18,5,21,65,16,4
1537917143242372,-7,-8,-30,2,5,19,11,-3
1537917143242372,8,15,-1,4,9,26,17,25
1537917143243369,1,-8,-8,-4,-11,-28,-49,1
1537917143243369,6,19,13,-9,2,25,35,-11
1537917143256334,-7,6,6,-6,-9,-23,-26,-26
1537917143256334,-2,0,-5,0,1,-30,-15,8
1537917143265310,-5,-2,6,0,4,-8,4,33
1537917143265310,25,17,8,1,0,11,12,1
1537917143287252,1,-8,-5,-5,-3,-12,-20,15
1537917143287252,1,3,-1,0,9,23,26,-1
1537917143288249,-9,-9,3,1,-8,14,11,-10
1537917143288249,-7,-3,-4,-2,-5,-39,-51,-20
1537917143302212,0,1,-1,2,7,38,54,2
1537917143302212,6,-5,4,-4,-2,-4,-6,11
1537917143304207,-3,0,-4,-5,-6,1,8,-8
1537917143304207,-5,-10,-7,-1,3,8,11,8
1537917143316174,6,7,-6,-4,1,-1,-18,-6
1537917143316174,-8,-4,10,-1,-3,13,8,-9
1537917143325150,13,2,-1,0,0,-6,20,25
1537917143325150,-6,6,0,0,1,-6,13,-9
1537917143339113,-11,-4,3,2,7,37,-2,0
1537917143339113,5,-3,-8,-2,-4,-15,-4,-16
1537917143346094,-2,-2,-3,3,10,42,13,-20
1537917143346094,1,3,0,-5,-11,-34,14,14
1537917143362052,-5,-2,4,-5,3,26,-21,-7
1537917143362052,2,-3,-4,-3,-17,-14,-10,16
1537917143364047,-2,-1,0,-3,-8,-4,-13,-18
1537917143364047,-11,-2,-3,-1,3,1,8,6
1537917143376015,6,2,0,0,-4,-14,-2,-3
1537917143376015,-3,0,0,5,18,32,23,7
1537917143384991,12,-2,-6,-1,-1,-8,-10,17
1537917143384991,-8,1,0,4,1,6,-1,-7
1537917143398953,5,7,2,-1,-5,-23,-15,23
1537917143398953,-10,-18,0,1,1,0,-2,-30
1537917143405934,-2,3,2,2,-2,7,24,2
1537917143405934,1,0,4,1,3,4,-15,24
1537917143421892,0,2,-9,-1,-2,-7,-4,20
1537917143421892,-6,-8,-8,-2,-6,-4,22,17
1537917143423886,-1,2,5,3,1,-3,-10,-3
1537917143423886,-13,-2,9,1,7,33,5,-25
1537917143444830,-4,-5,-13,-3,-8,-12,-32,-18
1537917143444830,-2,-3,6,3,-1,-4,12,-17
1537917143445828,1,5,-11,-3,-1,-16,19,-11
1537917143445828,1,1,-2,1,6,11,3,8
1537917143458793,2,0,3,-1,-5,-4,-3,-20
1537917143458793,2,5,-3,1,8,15,-11,-8
1537917143465774,-2,-4,1,-1,-6,-32,-17,-17
1537917143465774,1,-1,-7,-3,-6,16,35,-14
1537917143482729,0,-3,5,-1,-5,-11,21,7
1537917143482729,7,-2,-2,-2,3,4,-25,-4
1537917143483726,-3,1,2,1,2,10,-15,-3
1537917143483726,7,1,-7,-2,-1,-11,52,1
1537917143504671,4,3,9,4,1,0,0,-1
1537917143504671,-2,0,2,-3,0,8,6,3
1537917143506665,-14,-5,-7,-4,0,3,-19,3
1537917143506665,-5,-1,-6,-7,-7,-7,-37,2
1537917143518633,-1,-4,10,-1,1,-5,13,-3
1537917143518633,5,12,-10,-1,-2,16,-3,8
1537917143525615,4,-1,-2,0,1,-6,1,9
1537917143525615,0,-20,1,-1,-3,-43,-70,-10
1537917143542570,-2,6,3,1,8,57,66,9
1537917143542570,-15,0,-6,-2,-5,-16,-25,2
1537917143543567,0,-5,-7,-3,-3,5,-16,-2
1537917143543567,-4,3,2,2,2,-3,10,-14
1537917143565508,1,1,-2,-1,1,-18,-5,2
1537917143565508,6,-1,7,1,-2,9,-1,-2
1537917143566505,-5,-1,0,-1,0,1,2,-1
1537917143566505,-2,3,-4,-2,2,-4,-1,6
1537917143579471,-5,-8,5,2,-2,-38,-9,-9
1537917143579471,-2,1,0,-3,-7,22,12,-5
1537917143586452,2,-2,1,3,4,37,-3,-13
1537917143586452,-2,3,-4,1,-5,5,5,2
1537917143602409,-9,-4,-1,2,1,-12,-16,-4
1537917143602409,-2,-2,-5,2,1,-5,-2,12
1537917143603406,11,3,5,-1,-6,-12,7,0
1537917143603406,6,0,-6,-2,-1,10,0,14
1537917143624350,-16,-11,-1,1,2,17,-10,-9
1537917143624350,2,1,7,-1,0,-27,-15,4
1537917143626345,-9,-4,-7,0,-1,2,3,-7
1537917143626345,5,9,-4,1,6,15,14,9
1537917143639310,-3,-15,-1,-2,-4,-27,-5,5
1537917143639310,1,-1,-3,-1,5,31,0,-8
1537917143646292,-1,-4,3,-2,-8,-11,0,0
1537917143646292,-2,9,1,-4,0,-8,-22,-16
1537917143662249,2,-7,-7,-7,-20,20,-14,6
1537917143662249,0,2,1,-4,-3,-12,35,2
1537917143664244,0,0,0,0,-1,-17,-1,7
1537917143664244,-6,2,1,0,2,4,-8,-4
1537917143685188,3,7,2,3,7,7,2,-7
1537917143685188,1,-2,-1,-2,-2,-10,5,-9
1537917143686185,-2,-2,-1,2,0,2,3,-4
1537917143686185,0,-9,-1,0,0,-16,-2,8
1537917143699151,8,12,4,0,1,5,-7,-6
1537917143699151,-14,-24,-30,-6,-6,0,-2,4
1537917143706132,7,12,5,0,3,-22,8,21
1537917143706132,1,-14,-6,-3,-5,6,-1,-1
1537917143722089,-2,6,1,-5,-5,-26,4,18
1537917143722089,4,3,4,-2,0,30,15,-16
1537917143724084,-1,-1,-4,-1,4,20,-15,-20
1537917143724084,-1,1,3,2,-2,0,-26,-7
1537917143745028,2,-1,-3,-2,3,20,1,1
1537917143745028,7,1,4,1,3,-33,-37,-17
1537917143746026,-4,0,-1,-3,-7,2,58,39
1537917143746026,10,6,5,3,-4,-1,-1,-12
1537917143757993,-5,-2,-3,1,-2,-31,2,-10
1537917143757993,0,-8,-1,-2,-3,24,8,-13
1537917143766969,-2,3,1,-2,4,-6,6,-11
1537917143766969,-3,7,-1,-1,-3,-16,1,7
1537917143781929,0,-5,-3,-4,2,4,-13,2
1537917143781929,2,8,3,3,3,16,-2,10
1537917143783924,8,6,-1,0,-3,-10,-17,17
1537917143783924,-5,-26,-2,-2,-3,1,7,-3
1537917143804868,0,5,1,0,5,23,-21,-8
1537917143804868,3,-4,-2,-1,-5,-54,-5,29
1537917143805866,-3,-1,0,0,4,17,-25,-36
1537917143805866,-2,2,-3,-1,3,-9,0,-3
1537917143818831,3,-1,-2,-2,-5,9,4,-3
1537917143818831,-1,3,-6,-1,-2,-18,20,9
1537917143827807,-4,-4,3,1,7,19,-23,-13
1537917143827807,5,5,-3,-6,-17,-5,-10,12
1537917143841770,-8,-13,-6,1,-4,-4,-17,-6
1537917143841770,2,11,-1,2,0,2,16,0
1537917143843764,0,-11,-5,0,3,11,32,6
1537917143843764,-1,3,2,2,4,3,5,0
1537917143864708,8,7,1,1,-1,4,1,1
1537917143864708,-1,-2,3,1,-2,-21,-19,0
1537917143866703,-1,-3,-3,4,-4,-1,1,6
1537917143866703,-12,-6,3,6,5,8,-11,-8
1537917143878671,-2,-1,4,2,-5,-35,19,16
1537917143878671,0,1,4,-2,2,53,8,-4
1537917143887647,-5,-7,1,-3,-3,-13,-14,2
1537917143887647,2,5,-2,-3,0,9,7,-3
1537917143902607,-6,-14,-4,3,3,-9,-13,-19
1537917143902607,-10,-3,0,-1,-1,-1,10,-9
1537917143903604,-6,-1,-4,-3,-2,-8,-8,5
1537917143903604,9,2,3,-1,-1,-4,3,13
1537917143924548,-2,5,6,-4,-3,-2,-4,20
1537917143924548,-6,-4,-5,0,2,4,18,8
1537917143926542,4,0,0,-1,-3,-13,-25,-11
1537917143926542,-6,-4,-2,-1,3,2,-3,-6
1537917143947487,4,7,2,-2,2,26,6,17
1537917143947487,1,1,2,5,-3,-51,-40,-11
1537917143948484,5,2,-1,-6,-9,6,11,2
1537917143948484,4,-1,-4,-1,-1,15,21,4
1537917143962447,-5,-3,-4,-1,-3,3,1,-14
1537917143962447,0,-1,3,0,5,-6,-2,9
1537917143963444,-7,-2,-2,3,2,-6,1,-9
1537917143963444,-1,-1,0,-3,-2,-18,-1,6
1537917143984388,-2,0,-1,-1,4,20,-3,-7
1537917143984388,-3,2,1,0,2,-5,10,2
1537917143986383,-3,-7,-1,-2,-1,-11,4,-7
1537917143986383,-3,-7,-4,-4,-4,2,10,2
1537917143999348,5,17,0,1,6,18,-11,-27
1537917143999348,1,-7,-10,-2,-2,7,-19,-4
1537917144007327,-3,6,2,1,-2,1,-1,1
1537917144007327,-2,-2,-2,1,0,-10,0,-10
1537917144022287,-5,-8,-3,-1,-1,-1,10,-11
1537917144022287,-1,3,2,-2,-1,3,-10,0
1537917144023284,4,-6,1,-2,0,-9,3,-3
1537917144023284,-2,7,-2,3,1,10,-10,0
1537917144045226,-10,-9,-8,-4,-5,-9,7,3
1537917144045226,7,1,1,-4,-7,-49,17,-3
1537917144046223,-4,-2,0,1,4,80,-13,10
1537917144046223,3,6,5,3,3,19,-14,-19
1537917144058191,2,-2,-2,-3,-6,-13,6,25
1537917144058191,-7,0,-1,-2,1,-18,10,-3
1537917144067167,-2,0,-1,0,-7,-10,17,3
1537917144067167,6,0,-3,-2,0,-1,11,14
1537917144082127,7,-2,1,0,2,8,0,22
1537917144082127,1,2,2,-3,-3,18,4,4
1537917144084122,-9,-6,-1,-1,1,-18,-10,-15
1537917144084122,3,-5,-1,-1,-1,7,-6,11
1537917144105065,2,6,1,2,-2,-21,0,1
1537917144105065,-4,-1,3,1,1,16,-5,1
1537917144106063,4,1,-4,-2,-1,1,0,-2
1537917144106063,-2,-7,8,-2,0,-17,-1,0
1537917144118031,4,-4,-3,-4,-5,-4,2,3
1537917144118031,6,1,5,0,-1,9,-9,-1
1537917144127007,-12,-3,-1,0,0,-2,1,0
1537917144127007,-3,13,19,-3,-4,-11,4,10
1537917144141967,18,-12,-29,-2,0,-2,3,-7
1537917144141967,-21,-11,8,4,-4,7,2,-7
1537917144143962,14,-13,-29,-12,-6,-18,-22,-2
1537917144143962,-9,5,2,1,1,12,29,-3
1537917144164905,3,11,13,2,1,2,5,-4
1537917144164905,-4,-6,-11,-3,-5,-1,-3,-4
1537917144165903,-3,-1,10,4,1,-8,3,2
1537917144165903,1,6,-5,2,4,5,7,2
1537917144178868,-1,0,1,1,2,-4,-13,-9
1537917144178868,10,-3,-4,-3,-4,-26,-3,7
1537917144187844,-10,6,-4,1,1,17,2,-3
1537917144187844,6,-9,-8,0,3,-14,-16,1
1537917144201807,-7,1,-4,-4,-8,28,-7,-7
1537917144201807,3,3,8,2,1,7,34,5
1537917144203802,4,2,-1,-2,-3,-23,-9,-3
1537917144203802,-11,-4,-2,2,-1,-14,15,-4
1537917144224745,-7,-5,-5,1,6,17,-3,-4
1537917144224745,1,-6,-10,-6,-7,-4,-14,-3
1537917144225743,2,5,9,1,-1,3,-9,-3
1537917144225743,3,2,-3,-1,1,4,-15,-4
1537917144238708,-10,-3,10,6,7,-5,18,3
1537917144238708,7,7,-3,-1,-7,-11,-11,-1
1537917144247684,-4,-6,-1,0,6,23,16,5
1537917144247684,-5,-5,4,1,-6,5,-10,-3
1537917144262644,0,-1,-1,1,0,18,-2,-8
1537917144262644,-1,-5,3,3,2,-4,-20,0
1537917144263642,5,2,-10,-8,-20,-38,-5,0
1537917144263642,1,7,-8,-3,-5,1,3,-3
1537917144283588,-10,-4,-3,0,2,-8,12,-1
1537917144283588,-2,-3,-3,1,8,20,4,7
1537917144292564,-4,8,12,-4,0,4,-6,-14
1537917144292564,9,-6,-17,-8,2,3,12,9
1537917144298548,1,1,30,9,-2,-19,-9,-11
1537917144298548,-5,4,-6,-3,5,9,-13,-12
1537917144307525,1,-2,-9,-7,-1,-7,13,16
1537917144307525,-12,-13,-17,-3,-4,4,-7,-9
1537917144321487,3,-4,11,-4,-2,-12,-1,3
1537917144321487,3,6,-3,8,0,6,-1,-1
1537917144328468,7,2,21,4,-3,-1,0,2
1537917144328468,1,1,-14,-6,0,2,-8,2
1537917144344426,3,-3,-7,-1,-2,-11,-5,-4
1537917144344426,-7,0,-7,-1,-1,1,6,3
1537917144346421,10,1,-5,-2,0,-4,-2,7
1537917144346421,0,-9,15,5,-2,-1,2,-6
1537917144367365,-1,3,0,-2,-1,0,-4,8
1537917144367365,-4,0,-5,-4,-4,-1,-4,-12
1537917144368362,-6,-2,2,3,2,-1,0,13
1537917144368362,-3,-3,4,-2,0,-6,6,8
1537917144381327,-1,0,-11,-6,-5,-4,-10,-20
1537917144381327,4,1,15,-1,1,12,5,1
1537917144388308,-17,-5,-5,2,3,-1,-20,-24
1537917144388308,5,4,5,2,4,-5,22,14
1537917144405263,-4,-2,-5,-3,-2,11,17,-5
1537917144405263,0,-7,-5,-3,0,-26,-2,4
1537917144406260,-6,9,8,5,9,45,-5,-12
1537917144406260,-4,0,0,3,8,2,-12,-17
1537917144427204,-6,0,-4,-2,-7,-3,8,11
1537917144427204,2,-3,-1,-6,-7,1,-2,-4
1537917144429199,-5,-3,-3,-1,-5,-35,-2,-5
1537917144429199,3,1,2,-1,-4,0,-10,0
1537917144441167,6,1,-2,-5,0,-9,-8,14
1537917144441167,-1,-3,1,-1,4,10,-28,-24
1537917144448149,5,-4,-5,1,5,14,43,17
1537917144448149,-1,1,4,-1,1,4,-9,4
1537917144465103,10,0,-4,-2,-3,-10,-3,-23
1537917144465103,-1,0,1,-1,-1,-1,11,46
1537917144466101,0,-3,0,0,2,-6,6,-18
1537917144466101,-3,-2,0,-2,-6,-5,-7,-5
1537917144487045,-2,-3,-3,-2,-3,3,-7,0
1537917144487045,-2,0,-3,-1,-1,-1,-4,11
1537917144489039,2,-2,-4,-1,-5,-9,-23,-12
1537917144489039,-3,-3,-5,-3,0,2,24,7
1537917144502004,-6,1,-4,-1,-2,-7,-17,-17
1537917144502004,3,2,1,-1,1,5,7,-4
1537917144507988,-2,-3,0,1,3,1,2,10
1537917144507988,-2,-5,-4,-3,-5,-1,-9,-10
1537917144524943,-7,0,5,3,2,-6,4,7
1537917144524943,8,5,3,1,-1,4,-1,0
1537917144525940,5,-5,-9,-5,-5,-19,6,4
1537917144525940,1,4,-4,0,-2,9,-14,4
1537917144554863,0,-5,-9,-3,-2,0,4,1
1537917144554863,-5,-3,-3,-5,-3,9,3,4
1537917144555861,-6,-2,-2,-1,-4,-15,-2,-3
1537917144555861,6,-3,-1,-3,-4,-8,-20,-8
1537917144560847,-7,0,1,0,-1,-30,15,0
1537917144560847,-4,-1,2,2,2,39,5,-7
1537917144569823,0,-1,1,2,1,2,-1,4
1537917144569823,-9,-1,7,2,-1,-9,7,4
1537917144584783,-3,2,-2,3,4,13,-10,-22
1537917144584783,-5,-5,-9,-3,-7,-33,3,10
1537917144585780,1,5,4,1,6,36,0,0
1537917144585780,3,5,0,-3,-5,-7,0,-6
1537917144607722,-1,-2,-3,0,-2,-20,0,12
1537917144607722,0,-2,1,0,-5,-31,-6,-9
1537917144608719,-1,1,-4,-2,1,33,0,-2
1537917144608719,2,-2,4,1,0,-6,-5,-1
1537917144621684,-1,-8,0,1,4,3,2,14
1537917144621684,-3,-3,-4,-3,3,3,-2,-8
1537917144628666,2,3,7,1,-2,-13,-5,3
1537917144628666,-2,1,-2,-1,-3,6,4,-5
1537917144644623,9,3,1,-3,-8,-14,-15,4
1537917144644623,-5,-4,-1,-1,-3,2,-5,-8
1537917144646618,6,-4,-5,-1,-2,-7,-3,2
1537917144646618,-8,-1,-4,-1,2,10,8,-6
1537917144674543,-3,-2,0,-2,1,14,-4,4
1537917144674543,2,6,9,3,2,4,23,1
1537917144676538,-6,-4,-8,-5,-2,1,-7,-4
1537917144676538,1,-1,-4,2,-1,2,-1,2
1537917144681525,-4,4,16,8,3,-6,-10,0
1537917144681525,5,2,-1,-7,1,-1,-11,-5
1537917144688506,-3,-10,-10,-1,-4,-4,12,1
1537917144688506,-1,2,-3,-1,3,-3,-1,-3
1537917144704464,-3,-5,0,-2,0,11,12,2
1537917144704464,1,0,-3,2,0,-8,-13,-3
1537917144706458,-4,2,4,-1,-3,-6,2,-1
1537917144706458,4,9,15,0,-2,6,-3,11
1537917144727402,6,-12,-33,-4,0,4,-10,-2
1537917144727402,-2,-2,0,2,3,8,15,-8
1537917144728400,-9,-2,-7,-2,-2,-4,7,0
1537917144728400,-3,1,18,1,0,4,2,-3
1537917144741365,3,1,-2,-3,-2,3,2,-1
1537917144741365,-2,-2,-2,-2,-2,-6,-4,-2
1537917144748347,4,-1,0,2,-1,-9,-16,-5
1537917144748347,-5,-2,-5,2,1,-1,1,-4
1537917144764303,-2,4,10,-1,-2,5,4,2
1537917144764303,-3,-8,-10,-2,0,6,5,-4
1537917144766298,4,5,4,-2,-2,-6,3,2
1537917144766298,5,-6,-10,-4,-3,-7,-7,-1
1537917144787242,-5,-4,-4,-2,-2,2,8,2
1537917144787242,1,1,1,3,1,1,-4,6
1537917144789236,1,2,4,1,0,-6,-1,3
1537917144789236,-2,-5,-4,1,0,-2,1,-5
1537917144801205,-3,5,0,1,-1,3,2,0
1537917144801205,-9,-1,29,4,-1,3,2,-1
1537917144808186,2,-3,-9,-1,0,-1,-5,0
1537917144808186,4,-2,-10,-3,-2,-3,-6,-4
1537917144825141,-2,-1,5,0,-1,4,1,-2
1537917144825141,-3,-1,-8,-1,-2,0,-6,-1
1537917144826138,0,-2,2,0,4,-1,-4,2
1537917144826138,3,3,-1,-2,-1,1,-3,0
1537917144847082,0,0,-1,-2,-3,-7,-3,4
1537917144847082,-1,-3,-6,-1,-2,0,0,-2
1537917144849077,-7,-2,1,0,-5,-1,-1,-1
1537917144849077,5,0,-1,-2,-3,-3,-5,-3
1537917144861044,5,-5,-4,-3,-4,-5,2,4
1537917144861044,-3,-1,-4,0,-2,-54,-12,-19
1537917144870021,-1,-1,1,0,3,65,2,-8
1537917144870021,-1,-2,1,-1,4,-1,-6,5
1537917144884980,-2,6,0,-1,1,16,10,-1
1537917144884980,1,-6,1,-1,-4,-44,-16,2
1537917144885978,-5,5,0,-3,-9,-10,-13,13
1537917144885978,-12,-2,1,1,3,-8,3,-6
1537917144906922,-8,-3,-3,-5,-5,0,-8,-11
1537917144906922,12,3,-7,-4,-11,8,-10,46
1537917144908917,4,-3,-2,-2,-4,-26,8,-21
1537917144908917,0,-6,-2,1,12,-9,-21,15
1537917144920885,-4,4,2,2,-10,4,9,1
1537917144920885,-5,-2,-4,-3,10,14,8,-25
1537917144929861,3,-20,-2,-4,-30,-30,2,-5
1537917144929861,7,8,-3,-5,-9,9,1,26
1537917144951802,-14,11,5,2,12,-2,-1,8
1537917144951802,8,8,1,-5,-9,22,-9,-22
1537917144953797,2,1,1,4,14,5,-10,-1
1537917144953797,-13,-11,-3,2,20,25,3,-26
1537917144967759,-5,-15,-8,-3,-13,-9,2,32
1537917144967759,0,-20,-8,-2,-3,1,3,-9
1537917144968757,28,40,18,5,6,-23,8,16
1537917144968757,-2,-1,1,1,2,36,1,-20
1537917144980725,-2,-3,2,4,13,-8,-2,-3
1537917144980725,7,4,-3,-1,-3,1,9,10
1537917144989701,-27,-17,-9,-9,-12,23,-2,-26
1537917144989701,-16,-4,-1,-1,2,-2,-26,-4
1537917145004662,8,2,0,-3,-23,-33,-29,4
1537917145004662,-4,-7,-1,3,19,51,87,26
1537917145006655,-6,-3,-1,7,22,-53,-21,2
1537917145006655,-1,7,1,-3,-25,42,-17,-21
1537917145027599,-7,-8,-6,-9,-21,-34,21,-12
1537917145027599,5,1,0,1,-9,37,27,24
1537917145028597,-15,-1,-3,-2,13,12,29,6
1537917145028597,-3,0,-1,7,19,-82,-2,-3
1537917145040565,9,-2,-1,-6,-3,38,-77,5
1537917145040565,-12,5,1,-3,-6,3,-6,-20
1537917145049541,-6,1,0,2,6,43,33,-4
1537917145049541,26,-5,-6,-6,-16,-42,-64,-4
1537917145064501,2,2,1,3,8,13,40,-8
1537917145064501,-9,2,0,1,3,-39,-60,-6
1537917145066497,3,-7,-2,-1,1,5,-18,18
1537917145066497,-13,-1,1,-1,-9,0,25,-11
1537917145087440,4,3,4,3,9,-7,-36,-11
1537917145087440,-6,4,2,2,3,22,58,-8
1537917145088437,10,-1,1,-2,-7,-15,-12,2
1537917145088437,14,2,-11,-3,-3,10,-13,5
1537917145100405,-9,-5,8,-2,2,-24,5,1
1537917145100405,4,-10,-2,1,6,28,28,13
1537917145109381,1,10,11,-2,-6,-13,-56,4
1537917145109381,5,3,-7,3,-2,-2,111,14
1537917145124341,-2,0,9,1,3,-14,-31,1
1537917145124341,-2,0,-3,2,-1,-5,-64,-20
1537917145126335,27,-6,-3,-5,-6,18,66,-8
1537917145126335,1,9,9,0,5,8,-49,16
1537917145147279,-1,-5,-13,-1,1,11,47,5
1537917145147279,-3,1,0,-3,-4,-20,-46,-34
1537917145148277,-19,-4,-4,3,6,5,-6,4
1537917145148277,-3,-11,3,-4,-14,-28,-33,3
1537917145161242,10,16,6,1,8,22,72,-5
1537917145161242,-5,-7,-14,-6,-16,-31,-53,-10
1537917145170218,-11,-5,-6,-2,-1,-3,-1,-13
1537917145170218,-3,-9,-1,1,10,38,26,-8
1537917145184181,2,8,2,-1,-4,-17,-17,13
1537917145184181,4,5,4,-4,-3,-4,-17,3
1537917145191162,-11,-3,-6,1,2,24,52,-12
1537917145191162,14,1,-3,-2,2,4,15,30
1537917145207120,-9,-8,-2,0,4,5,-37,-38
1537917145207120,9,3,1,-2,2,-7,62,13
1537917145209114,20,2,1,1,-3,-12,-24,17
1537917145209114,-17,-1,1,-2,-4,-15,21,-2
1537917145221082,6,-5,-7,-3,3,20,-12,-7
1537917145221082,-2,-4,0,-2,0,-15,-33,-9
1537917145230058,-10,-3,1,-2,0,-1,-20,3
1537917145230058,2,-1,-1,-2,-5,-6,11,-8
1537917145244021,3,-1,-1,2,1,-20,21,-1
1537917145244021,-5,0,2,2,7,-6,-18,2
1537917145251002,0,0,-3,-5,-12,-6,-3,5
1537917145251002,-1,-3,-4,-2,-4,8,-15,-13
1537917145266960,-1,-4,-5,-1,-1,-12,22,3
1537917145266960,2,3,1,1,5,13,23,13
1537917145268954,-1,-2,-2,1,0,-9,-15,-6
1537917145268954,-20,-5,-2,-2,-3,-5,-4,-17
1537917145280922,6,0,0,2,3,17,5,19
1537917145280922,4,2,0,0,-1,7,48,18
1537917145289898,1,-1,-3,-3,0,-10,-26,-4
1537917145289898,-1,0,2,1,-2,-2,-2,-13
1537917145303861,-2,-3,2,1,1,5,-28,-10
1537917145303861,-4,-2,-2,-2,-3,-2,-1,-4
1537917145310842,3,-2,-4,-3,-3,4,9,4
1537917145310842,0,1,-2,0,0,-3,3,9
1537917145326799,-7,-1,0,0,0,8,-2,-17
1537917145326799,-1,-3,0,-3,-3,1,-15,-10
1537917145328794,-5,-3,1,1,-2,-5,7,-7
1537917145328794,3,1,-2,-2,-3,-12,-5,16
1537917145349738,5,0,-3,-1,0,4,-16,1
1537917145349738,-5,-1,-2,-1,-3,-2,1,3
1537917145350736,1,-2,-1,0,-1,3,6,4
1537917145350736,0,0,2,0,4,-10,-54,-12
1537917145363701,-2,-5,-3,-1,-2,0,47,5
1537917145363701,-1,-1,0,0,2,-3,-19,-4
1537917145370682,-5,1,-2,-4,-12,6,6,-1
1537917145370682,0,-4,-2,-2,-8,0,10,-4
1537917145387637,-8,-3,-1,-1,0,3,-20,6
1537917145387637,-4,-2,2,0,1,1,-7,-1
1537917145388635,-2,0,2,0,4,-4,1,-4
1537917145388635,2,-1,-3,-2,0,-3,4,0
1537917145409578,5,0,0,-2,-3,2,-6,-4
1537917145409578,14,-3,-1,1,0,5,-1,4
1537917145411573,8,0,3,3,2,-11,5,6
1537917145411573,6,2,-3,-3,0,4,28,2
1537917145424538,-7,0,3,0,-1,-5,-31,-12
1537917145424538,-4,-4,-3,-2,-5,-10,3,4
1537917145430522,-4,-4,2,3,2,3,-21,-31
1537917145430522,6,2,-4,-2,-1,3,32,35
1537917145447477,-2,0,-2,-2,-2,-15,9,4
1537917145447477,6,4,0,0,1,13,-22,-16
1537917145448474,-9,-6,-6,-2,0,-9,-17,-25
1537917145448474,-5,-3,1,-1,-2,-13,33,2
1537917145469418,1,2,-1,-1,6,35,-24,-1
1537917145469418,11,0,-3,-3,-4,-9,3,16
1537917145471413,-8,-3,-2,-1,-2,-6,-17,4
1537917145471413,7,4,2,1,1,-2,-18,-22
1537917145484378,1,-3,-4,-3,-6,-25,30,22
1537917145484378,-13,-3,1,0,-2,-26,-15,-29
1537917145491360,-2,2,-1,-2,3,50,3,-1
1537917145491360,2,-1,3,0,-2,-9,-20,1
1537917145507317,-3,-4,-2,1,1,2,5,-12
1537917145507317,-2,-4,3,-2,-2,-9,-7,9
1537917145508315,4,5,-5,-2,-5,-20,17,17
1537917145508315,-7,-5,3,0,2,9,5,-13
1537917145530256,-1,0,-3,-3,-1,9,-38,3
1537917145530256,-4,1,-1,3,6,-2,38,3
1537917145531253,6,-3,2,0,1,-11,-8,12
1537917145531253,-3,0,-2,-1,0,14,-7,-12
1537917145544218,1,0,-1,-1,-2,-3,26,3
1537917145544218,-7,1,0,-1,-3,-4,-28,3
1537917145551200,7,-1,-3,-1,-3,9,2,6
1537917145551200,1,0,-2,1,0,-30,10,-7
1537917145567157,6,-2,-1,1,-2,-30,7,5
1537917145567157,-5,-6,-2,0,-1,67,24,7
1537917145569153,-1,4,1,2,6,6,-18,-6
1537917145569153,-4,-2,-1,0,-1,3,-11,-2
1537917145590096,2,2,-1,-1,-1,-13,-3,12
1537917145590096,-2,1,-2,-1,1,-14,11,1
1537917145591094,-3,-3,-1,-3,-4,-28,0,5
1537917145591094,-4,1,-1,0,1,36,-2,-7
1537917145604059,-7,0,5,-2,3,-5,1,4
1537917145604059,6,1,0,1,2,15,11,6
1537917145611041,-1,-3,-1,-2,-3,-15,1,-6
1537917145611041,-2,0,6,2,-1,-15,-2,4
1537917145627996,2,-4,-14,-7,-5,9,-37,-12
1537917145627996,-2,-1,6,-2,0,-18,62,-3
1537917145628994,0,-1,0,2,3,30,13,0
1537917145628994,2,-3,-4,-3,-1,-2,14,5
1537917145649937,-2,-2,0,4,-2,5,-7,-3
1537917145649937,-1,3,-7,-2,-6,-46,-31,-3
1537917145650935,3,2,1,2,6,30,27,0
1537917145650935,-5,-4,-2,-1,-1,19,-4,4
1537917145663899,1,-1,1,1,1,-4,-7,-2
1537917145663899,-2,-1,-5,-4,-5,-11,-39,-17
1537917145670880,-4,-2,2,-1,-1,-6,9,-3
1537917145670880,0,-1,-4,-2,1,-4,-39,-18
1537917145686837,7,2,-1,-1,1,-2,69,23
1537917145686837,-5,-1,1,0,-4,-1,-25,-4
1537917145688833,-3,1,0,-2,0,4,6,18
1537917145688833,-5,-2,0,-2,-3,-2,11,-9
1537917145709776,-2,0,1,-1,1,9,-11,-12
1537917145709776,-2,-2,1,1,2,8,-24,-2
1537917145710774,1,-2,-1,-2,-4,-16,-13,-3
1537917145710774,1,-1,-3,0,-2,-25,1,-3
1537917145723739,-4,-3,1,2,3,50,-1,-6
1537917145723739,2,0,-1,0,1,-4,12,7
1537917145730720,0,-3,-7,-2,-2,-11,-15,-7
1537917145730720,1,-1,1,-1,-1,-25,28,20
1537917145747674,-1,-3,-2,-4,-5,12,-41,-17
1537917145747674,-2,1,2,0,5,17,-16,-5
1537917145748673,-3,0,0,-1,-2,5,41,-1
1537917145748673,1,1,1,2,2,-4,23,14
1537917145769616,0,-2,-1,-1,-2,-14,11,6
1537917145769616,-2,0,-1,0,-1,2,-30,-19
1537917145771611,-1,-1,1,1,-1,-10,-23,0
1537917145771611,-4,0,-2,-1,0,2,-4,-1
1537917145783578,-10,-1,2,0,-2,-1,6,-1
1537917145783578,4,0,-3,-1,1,2,10,5
1537917145790562,2,0,-1,-1,-3,-3,-10,-4
1537917145790562,3,-1,-1,0,0,14,8,-1
1537917145807514,-3,0,1,0,-2,-21,-9,-6
1537917145807514,-2,-2,-3,-2,-1,-20,-1,7
1537917145808512,0,0,1,-1,0,8,-71,-6
1537917145808512,0,0,-8,-1,1,14,56,17
1537917145829456,0,-1,1,-1,0,0,-2,-11
1537917145829456,0,-1,-2,-1,-5,-13,14,2
1537917145831451,-2,-3,-2,-3,-1,0,12,1
1537917145831451,-3,-1,0,0,-1,10,-28,-5
1537917145843419,3,0,-4,-1,1,-2,-11,-2
1537917145843419,-5,-1,0,0,-3,13,-3,-2
1537917145852395,-5,-3,-4,-3,-3,-15,-39,-15
1537917145852395,-2,-2,1,1,-1,2,48,7
1537917145867355,1,-1,0,1,2,-4,12,11
1537917145867355,-3,0,3,1,3,11,-42,-7
1537917145868352,6,1,1,1,5,9,82,36
1537917145868352,-3,-2,0,0,-4,-15,-68,-20
1537917145889296,2,1,-4,-1,0,-3,57,20
1537917145889296,-10,-1,-1,3,0,-5,-12,-14
1537917145891291,-2,-2,-1,-3,-2,-7,4,5
1537917145891291,-7,-3,2,-2,-7,18,-38,-5
1537917145903258,0,-3,-1,-4,-17,-32,15,-13
1537917145903258,-2,-1,1,4,14,46,14,-16
1537917145912235,5,1,2,1,-1,-44,8,16
1537917145912235,1,0,-2,1,5,69,24,14
1537917145927195,0,-2,-3,-4,-11,-48,-29,17
1537917145927195,7,2,-4,-7,-28,-19,17,-2
1537917145928192,1,-2,-1,-2,-1,-12,4,-8
1537917145928192,7,-2,-1,1,1,-21,-36,-32
1537917145950134,-2,2,2,4,22,38,23,32
1537917145950134,-9,-4,0,0,8,1,-7,-2
1537917145952128,-6,0,0,1,-1,4,-6,-18
1537917145952128,-3,1,0,1,8,-6,9,5
1537917145963099,-2,-1,0,-1,-3,15,-15,-26
1537917145963099,3,-1,-3,-3,-4,-13,11,11
1537917145972075,-4,-3,-1,0,-2,9,-9,-9
1537917145972075,-1,0,-1,-3,-4,-8,19,4
1537917145987035,-5,-3,-1,-2,-4,-13,-45,-18
1537917145987035,2,0,3,4,4,20,43,20
1537917145989029,-1,1,-6,-3,2,-2,-28,-10
1537917145989029,1,-1,3,-2,-4,-8,43,-2
1537917146009973,2,-1,0,0,-1,5,-12,-4
1537917146009973,2,0,1,0,1,-9,-7,-3
1537917146010971,-5,0,-6,0,-1,11,15,12
1537917146010971,-6,7,9,-4,-2,-7,-5,8
1537917146023937,11,-5,-1,2,-1,-1,-15,-9
1537917146023937,-5,-16,-8,-3,-2,-2,12,3
1537917146031915,6,-1,2,-1,-3,-9,-6,-8
1537917146031915,-19,-9,-5,0,-2,0,-23,-6
1537917146046875,-1,9,3,-3,-2,-26,12,2
1537917146046875,7,6,3,2,5,51,-7,4
1537917146053856,3,-3,-3,0,0,-13,-21,1
1537917146053856,0,4,0,1,2,0,0,3
1537917146069814,1,0,-2,-1,-3,-7,6,-5
1537917146069814,-5,-2,-4,-2,-3,-10,-1,15
1537917146070811,-9,-3,0,0,5,9,16,-21
1537917146070811,9,2,-3,0,6,4,3,7
1537917146083777,-6,-6,-4,-6,-19,-2,6,-8
1537917146083777,-6,-3,-4,-2,-5,-40,-38,-4
1537917146092752,-1,2,2,0,-1,22,24,-4
1537917146092752,7,-5,-4,-2,-2,-32,-65,0
1537917146107712,1,-2,-2,1,3,41,7,-2
1537917146107712,10,4,3,-1,-2,-9,17,-2
1537917146108710,7,0,-1,-2,-2,-7,0,12
1537917146108710,15,-4,-7,-4,-6,-13,-6,-20
1537917146129654,-3,0,2,1,5,7,-8,6
1537917146129654,-4,2,3,0,-1,-2,7,7
1537917146131649,-14,-6,7,3,0,1,-7,7
1537917146131649,2,0,-10,-5,-2,2,-8,-25
1537917146143617,15,12,-4,9,1,2,-4,31
1537917146143617,6,-10,8,-16,6,4,26,23
1537917146152595,-28,-42,-5,5,-1,-8,-15,-37
1537917146152595,9,16,0,-3,-7,-30,37,37
