timestamp,emg1,emg2,emg3,emg4,emg5,emg6,emg7,emg8
1537920225909663,0,2,-1,-1,-4,-7,-12,-13
1537920225909663,2,-2,-1,0,2,13,-6,1
1537920225909663,0,-1,-1,1,3,-4,3,-1
1537920225909663,-1,-1,0,3,7,17,-1,-3
1537920225922628,-1,-3,-1,-4,-8,-7,-5,4
1537920225922628,-2,0,-1,0,-8,-23,-5,-4
1537920225923625,1,-2,-1,-3,-4,-11,3,4
1537920225923625,1,-4,-1,-1,-5,26,2,1
1537920225926617,0,11,2,3,11,-6,-8,-4
1537920225926617,-3,0,-1,2,8,-21,1,-13
1537920225927615,-1,-2,-2,-2,-3,15,-24,5
1537920225927615,-2,-4,-2,1,3,-16,0,-3
1537920225938585,0,-4,-3,-7,-14,3,22,8
1537920225938585,-1,-1,-3,-7,-14,-6,-5,0
1537920225952548,-1,0,1,1,15,-1,-3,-5
1537920225952548,-2,-1,-1,0,5,4,-7,-4
1537920225957535,-2,-4,-2,2,2,-15,-7,-2
1537920225957535,0,1,1,2,4,-17,1,1
1537920225983465,-2,-1,1,0,-6,35,7,-5
1537920225983465,-1,1,-1,-6,4,-24,-4,1
1537920225985460,1,-2,-1,-1,1,11,-10,0
1537920225985460,0,-1,0,-2,3,14,-5,2
1537920225996431,-3,-2,-2,0,-7,-2,18,0
1537920225996431,0,0,-2,2,3,-14,-10,3
1537920226045300,0,-1,-1,0,4,-3,-5,-4
1537920226045300,0,0,0,-1,5,13,-6,-1
1537920226049289,-2,-2,-1,0,-6,-14,9,-2
1537920226049289,-3,0,2,2,9,26,9,1
1537920226050287,-3,-1,0,-2,-2,-4,-9,-1
1537920226050287,-2,-2,-1,0,-1,-6,4,-2
1537920226051284,0,1,-2,-4,-7,-7,-12,-1
1537920226051284,1,0,-2,0,-1,-6,-2,-1
1537920226051284,0,0,0,0,-3,-1,-2,0
1537920226051284,-1,-1,1,2,5,-5,-5,0
1537920226056271,0,-1,0,1,1,5,1,2
1537920226056271,-2,-1,0,-1,-2,-5,-5,-4
1537920226070233,0,-2,-2,-4,-1,0,3,-3
1537920226070233,-1,-1,-1,-2,-5,-6,-1,0
1537920226077215,-1,-1,-1,1,4,3,2,-1
1537920226077215,0,0,-2,-2,-3,-1,-1,0
1537920226085193,-1,-1,0,0,-2,-9,-11,0
1537920226085193,1,-1,-2,-1,-2,15,31,-1
1537920226108132,0,-1,0,3,3,-1,-11,-1
1537920226108132,-2,-2,-1,1,-2,-5,-3,-2
1537920226109130,-4,0,-3,-5,-5,-9,-4,-1
1537920226109130,-2,-1,-1,-3,-3,-6,-1,0
1537920226131071,-3,-1,-2,-6,1,15,0,-2
1537920226131071,-1,-2,0,-1,-1,-4,-14,-3
1537920226132068,1,0,0,3,7,12,14,0
1537920226132068,0,0,0,0,-8,-18,-3,-1
1537920226145033,0,-1,-1,1,0,11,-2,-1
1537920226145033,1,0,-2,-3,-4,-1,14,1
1537920226146031,-2,-2,-1,1,2,2,-6,-1
1537920226146031,-2,-1,-1,-1,1,4,-12,-2
1537920226167972,-1,0,0,2,-3,-11,0,0
1537920226167972,-2,-1,-2,-1,-2,-5,-3,-1
1537920226168970,1,-1,-1,0,-3,2,-1,-1
1537920226168970,0,-1,-2,0,2,-2,2,0
1537920226190911,-2,-3,0,0,-1,-2,0,0
1537920226190911,-1,-1,-1,0,0,-2,-1,-2
1537920226191908,0,-2,0,1,-1,-1,8,0
1537920226191908,0,-1,-1,-3,-1,7,-8,-1
1537920226205871,-1,0,0,-1,-2,-7,1,-1
1537920226205871,-2,-2,-1,0,-1,2,-1,0
1537920226205871,-2,0,-1,-2,-1,-8,0,-1
1537920226205871,3,-1,-2,0,-1,6,-1,1
1537920226227812,1,-1,-1,-1,3,-2,-1,-1
1537920226227812,2,-1,0,-1,2,0,2,0
1537920226235791,-2,-1,-1,-1,-9,-4,-1,-2
1537920226235791,0,-1,0,0,0,-5,-4,-2
1537920226250751,-1,-1,0,-1,2,-5,4,-1
1537920226250751,0,-1,-1,1,0,5,-3,-1
1537920226251748,0,0,-2,-5,-11,-13,-4,-1
1537920226251748,-2,1,1,0,1,-1,-2,0
1537920226265711,-2,-2,-2,-1,-2,13,-9,-3
1537920226265711,0,-1,0,-2,-1,5,29,3
1537920226266708,-2,-1,0,-1,4,6,-2,-2
1537920226266708,-1,1,0,-2,-5,-12,7,-2
1537920226287652,-1,0,-1,-2,-1,-10,2,0
1537920226287652,-5,-3,-2,-2,-2,-5,-16,-4
1537920226288650,0,0,1,2,2,9,6,1
1537920226288650,2,-2,-2,-2,1,-3,-8,-4
1537920226311589,2,-2,0,1,4,6,2,1
1537920226311589,-2,-1,-1,-2,-7,-4,-3,0
1537920226311589,-1,-1,-2,0,0,-3,3,0
1537920226311589,-1,1,-1,0,3,2,-15,0
1537920226325553,-4,-1,-3,-4,-2,-1,1,-4
1537920226325553,-3,-2,-1,-1,0,-5,-8,-1
1537920226326551,2,0,1,2,2,0,3,1
1537920226326551,-1,-1,1,-1,-1,-3,-11,-1
1537920226348491,2,0,-1,-2,-4,-1,1,2
1537920226348491,-1,-2,-1,-2,-1,0,29,-2
1537920226348491,-2,-3,-1,-2,-1,2,-8,-3
1537920226348491,-3,-4,-2,0,0,2,5,1
1537920226371430,-2,-1,-1,0,1,-5,-2,-2
1537920226371430,1,0,0,0,0,-4,-12,0
1537920226372427,-1,0,-1,-1,-1,6,4,0
1537920226372427,-1,0,-1,-1,-4,-6,5,-2
1537920226385393,1,-4,-1,-1,-4,-1,-1,-3
1537920226385393,1,-2,1,-1,0,-3,-6,0
1537920226386391,0,1,1,0,2,2,0,1
1537920226386391,-1,0,-1,-2,-1,0,-3,-1
1537920226408330,-2,0,0,0,-1,0,0,0
1537920226408330,0,1,0,0,0,-1,-4,-1
1537920226408330,1,-2,-3,-1,0,-1,-2,-4
1537920226408330,-2,-2,-1,2,-1,-4,-31,-4
1537920226431268,-5,-1,1,0,-3,-4,-30,-3
1537920226431268,1,0,-2,1,3,12,85,11
1537920226432266,-1,0,-2,-2,1,1,7,-1
1537920226432266,4,1,0,0,0,5,31,6
1537920226445231,2,-1,-1,0,-1,-2,-18,-3
1537920226445231,-3,-1,-2,-4,-7,-13,-78,-14
1537920226446228,-5,-4,1,3,0,-5,-76,-2
1537920226446228,3,1,0,2,2,13,37,7
1537920226468170,1,1,1,-1,0,2,-13,-1
1537920226468170,0,0,-1,-1,-1,1,-9,-1
1537920226469167,0,-1,-1,-3,-2,-5,-12,-5
1537920226469167,-4,-2,-1,-4,-2,1,-20,-4
1537920226491109,0,-3,-1,-1,2,-9,17,4
1537920226491109,-1,-2,0,0,5,10,-27,-5
1537920226492107,0,-3,-3,-1,-3,18,39,3
1537920226492107,0,-1,-1,2,0,-4,-14,0
1537920226514048,-1,0,0,2,0,-26,3,-3
1537920226514048,-2,1,1,-2,6,6,-20,-2
1537920226514048,6,-2,-2,-5,-10,-11,23,-4
1537920226514048,-19,-8,-5,-10,-21,12,36,-15
1537920226529008,-10,-1,0,1,0,13,106,27
1537920226529008,-2,3,1,3,14,7,9,1
1537920226529008,12,6,3,6,4,15,-34,2
1537920226529008,-12,-2,0,2,6,-1,-30,-3
1537920226550949,5,-6,-3,0,0,-7,14,-6
1537920226550949,3,-4,-2,-3,-9,-25,-3,0
1537920226551947,-22,0,0,2,7,5,20,2
1537920226551947,44,6,-5,-9,-7,-25,-49,-4
1537920226565909,-34,-5,-3,-8,-4,13,-24,-24
1537920226565909,-28,-5,1,3,2,-4,-59,-2
1537920226565909,26,-5,0,1,-9,8,15,7
1537920226565909,10,10,1,6,4,1,67,17
1537920226588848,10,21,-15,-7,49,53,38,-5
1537920226588848,16,-7,-12,5,14,-76,1,-8
1537920226589845,-40,-11,29,-6,-63,23,-24,1
1537920226589845,74,-48,-26,-4,25,-88,-13,-2
1537920226610789,-85,-39,4,12,-2,82,-57,-3
1537920226610789,44,86,3,13,17,2,12,10
1537920226611787,16,0,14,-12,10,47,-19,-17
1537920226611787,-46,25,24,-24,-6,47,33,5
1537920226625749,8,-102,-25,37,66,-113,-61,4
1537920226625749,48,81,21,-52,-99,73,66,49
1537920226625749,-7,-14,0,7,75,-81,-21,-9
1537920226625749,-77,-85,-58,21,69,-14,-23,-46
1537920226648687,50,118,95,37,104,66,-7,26
1537920226648687,-76,-116,-51,-32,-50,-83,-20,-40
1537920226649685,47,-10,29,6,-30,-10,42,51
1537920226649685,29,52,46,6,26,-26,-15,-9
1537920226671626,-3,-3,-21,-14,-94,-75,4,14
1537920226671626,80,0,-2,27,92,81,23,33
1537920226671626,41,67,-35,-2,46,0,2,6
1537920226671626,-51,-39,-42,-5,-22,70,-12,-5
1537920226684591,-36,-4,7,-16,-60,-94,23,-2
1537920226684591,-42,18,3,-27,-91,-42,-22,-73
1537920226692570,-9,-25,-7,7,32,-23,-10,16
1537920226692570,-9,2,37,26,31,54,-2,9
1537920226708527,77,32,-15,-5,-7,24,3,9
1537920226708527,-21,-43,-8,11,26,2,6,-1
1537920226709525,-20,-9,-7,5,-3,-1,-3,-10
1537920226709525,2,15,2,-4,-33,-23,1,7
1537920226731466,-6,-15,-19,-25,-41,13,-7,-21
1537920226731466,-1,-17,4,13,33,-26,-19,-2
1537920226732464,-4,-2,-3,0,-10,4,-25,-9
1537920226732464,3,11,12,-5,-35,-4,32,13
1537920226753408,5,-11,-5,-8,9,-5,3,-7
1537920226753408,-5,2,15,12,18,31,42,11
1537920226755403,-22,-2,-10,-3,-17,-11,-5,-10
1537920226755403,2,6,-4,-9,-15,-21,-44,-2
1537920226767370,-2,2,2,-2,-3,14,-10,-9
1537920226767370,-3,-2,6,5,4,-7,9,7
1537920226776347,-13,-7,-10,-11,-18,10,40,-5
1537920226776347,-7,2,2,0,5,-11,-4,-1
1537920226791306,26,-1,-4,3,3,10,18,4
1537920226791306,7,-3,-10,-3,-7,-8,-100,0
1537920226792304,3,-2,-4,-3,0,-15,35,-5
1537920226792304,4,13,12,0,-4,22,11,-6
1537920226805269,-6,-3,12,2,2,5,56,20
1537920226805269,-20,-15,-4,2,2,-18,-48,-9
1537920226814245,-3,1,-3,-1,0,25,73,-4
1537920226814245,0,6,2,0,-8,-1,66,6
1537920226827211,2,-1,-7,-6,-7,-9,43,2
1537920226827211,-8,-5,3,0,8,23,-3,-6
1537920226836186,4,-1,1,2,1,-28,-115,-10
1537920226836186,1,1,-7,-2,-6,-8,-18,-6
1537920226851146,-13,-8,-11,-9,-9,18,-52,-24
1537920226851146,13,5,12,10,19,34,88,44
1537920226853140,-15,1,-2,2,-5,-28,-36,-2
1537920226853140,10,-2,-6,-4,-5,5,7,-1
1537920226865109,13,0,-2,-1,-2,9,-21,-5
1537920226865109,-17,-6,2,-2,-3,-29,22,-5
1537920226874085,-11,-3,-2,-5,-8,4,-36,-17
1537920226874085,4,-4,-3,-1,-3,-30,-53,16
1537920226888047,-10,0,1,-1,-1,9,-86,4
1537920226888047,-1,-4,-2,-2,-4,-12,49,-7
1537920226895029,12,1,2,8,21,88,127,41
1537920226895029,1,3,1,2,-3,-20,-128,-5
1537920226910986,-10,-7,-6,-3,-5,-20,-46,-7
1537920226910986,6,-2,-4,-5,-10,4,-4,-8
1537920226912981,-8,-2,0,1,-3,-54,-60,-20
1537920226912981,4,0,1,0,3,46,32,2
1537920226924950,1,1,-3,-1,0,-7,24,5
1537920226924950,-3,-1,2,2,4,3,-23,-9
1537920226933926,-7,-7,-2,-4,-8,-6,47,-3
1537920226933926,1,-1,-6,-2,-4,-13,-21,-1
1537920226947889,-4,2,-1,2,1,-8,-22,-5
1537920226947889,-2,-2,-1,0,3,10,16,10
1537920226954871,0,-1,-3,-2,-1,0,-48,-18
1537920226954871,3,1,-1,-2,0,4,70,15
1537920226970828,-5,0,-2,-2,-2,10,-8,-10
1537920226970828,7,3,3,2,3,-3,27,29
1537920226972823,0,0,-1,-1,-9,-36,-5,4
1537920226972823,-5,-2,-1,-1,1,17,-48,-18
1537920226984790,5,-2,-2,-2,3,26,25,7
1537920226984790,-4,-2,-1,0,-5,-44,-76,-16
1537920226993767,-3,-4,1,2,19,88,48,-22
1537920226993767,0,1,-1,-1,-16,-47,-19,17
1537920227016704,5,2,-3,-4,-7,-17,11,21
1537920227016704,-4,-1,-3,-1,0,1,-62,-16
1537920227017702,-4,-2,-3,-5,-12,-12,42,-9
1537920227017702,1,1,3,2,3,-17,-17,1
1537920227029669,-2,0,1,1,4,9,18,1
1537920227029669,-4,-4,-1,-2,-4,10,24,-5
1537920227038645,-3,-3,-2,-2,3,-17,-61,7
1537920227038645,0,-2,-1,-1,-1,37,13,-1
1537920227053605,-1,-1,1,2,-7,-47,-11,-17
1537920227053605,0,-1,-1,-2,2,37,-12,0
1537920227055600,2,-3,-5,-4,-9,-21,-6,16
1537920227055600,-1,-2,-1,0,5,38,14,-11
1537920227076544,-2,0,0,0,-2,-26,-32,-7
1537920227076544,-1,2,-1,1,2,25,20,-2
1537920227077541,-1,0,0,-1,-2,-15,-42,-9
1537920227077541,-2,2,2,3,-1,-33,1,3
1537920227089509,-5,-3,-3,-2,1,24,-9,-7
1537920227089509,1,-1,-1,1,0,-11,-19,15
1537920227098485,-4,-1,-1,-2,-6,0,-29,-15
1537920227098485,3,-2,-1,-2,3,-21,34,23
1537920227113446,-5,-2,-2,-2,1,14,0,-19
1537920227113446,5,0,2,-1,-1,-14,-6,17
1537920227115441,-1,0,-1,-1,-3,-22,-1,-4
1537920227115441,0,-3,-2,0,5,29,6,4
1537920227137382,-3,-3,-3,-3,1,41,-29,3
1537920227137382,3,3,1,1,1,-48,20,14
1537920227139377,-1,-1,-3,-1,-1,14,19,5
1537920227139377,0,0,-2,-5,-8,-14,-11,-2
1537920227150347,-6,-4,-1,-2,1,15,-4,-5
1537920227150347,-2,-1,-1,-1,0,-9,-4,-4
1537920227158326,-3,1,0,2,2,8,-35,-14
1537920227158326,-4,-1,-1,-1,-2,3,45,3
1537920227173286,3,0,-1,-1,0,-15,-16,2
1537920227173286,0,-2,-1,-2,-4,-4,-6,-2
1537920227175281,3,1,2,2,2,10,35,17
1537920227175281,-3,-2,-2,0,2,24,0,-18
1537920227196224,5,1,1,2,-1,-35,-9,-4
1537920227196224,-1,0,-1,-1,2,21,5,-9
1537920227197222,-1,-3,0,-1,-1,-10,0,16
1537920227197222,-3,-2,0,-3,-2,-5,-11,-13
1537920227210187,1,0,0,1,2,-5,45,17
1537920227210187,-7,-4,-4,-2,1,6,-25,-22
1537920227226146,8,1,0,0,-5,20,22,6
1537920227226146,-9,-3,-2,-2,-1,-28,-51,5
1537920227234123,16,6,2,2,-1,-20,39,-2
1537920227234123,-1,-1,-1,0,-1,-14,-12,-3
1537920227235121,-6,-2,-1,-2,0,20,16,-2
1537920227235121,-2,-3,-2,0,0,-9,-31,-13
1537920227256064,-4,-2,-3,-9,-14,5,-22,-6
1537920227256064,-12,-2,1,1,2,9,20,-9
1537920227258059,-5,-1,-1,-2,1,17,0,-15
1537920227258059,9,2,1,1,-1,-30,-25,40
1537920227270026,-8,-1,0,3,4,-15,-8,-16
1537920227270026,1,0,1,2,-3,17,41,0
1537920227279002,-1,0,-3,-4,-4,-35,-45,-5
1537920227279002,-1,-1,1,-1,2,24,31,0
1537920227293962,0,-2,-1,2,1,9,19,1
1537920227293962,1,-1,-2,-2,-2,-5,-44,-5
1537920227294960,-7,-2,-2,-1,2,-21,21,-6
1537920227294960,-1,0,0,-1,-6,-28,-20,-29
1537920227315904,-4,-1,1,0,5,45,-9,5
1537920227315904,-1,0,-1,0,-6,-2,-6,-7
1537920227317898,2,0,0,-1,3,5,-25,-3
1537920227317898,1,2,-2,-1,4,1,55,-7
1537920227329866,-2,-3,-1,-4,-4,-18,-33,-3
1537920227329866,6,1,0,-2,-4,5,7,11
1537920227338842,-2,-2,-2,-1,1,-14,33,-6
1537920227338842,-1,1,-1,1,-4,-12,-44,9
1537920227353802,-2,1,0,3,3,-9,42,4
1537920227353802,-2,-2,-2,-1,7,66,-13,-12
1537920227354800,2,-1,-1,-4,-6,-17,-42,2
1537920227354800,-1,-1,-2,-1,1,20,70,-10
1537920227375744,-1,-4,-2,-3,-4,-9,-5,11
1537920227375744,0,-1,-1,-1,-4,-4,7,-6
1537920227377738,-5,-1,0,3,3,-19,-20,0
1537920227377738,-4,0,0,2,3,11,-2,-3
1537920227389706,1,0,0,-1,-3,-4,-24,-5
1537920227389706,-1,0,-1,-1,0,6,35,5
1537920227398682,-2,-1,-1,-1,-1,-5,-16,5
1537920227398682,-7,-3,-1,-2,-3,-26,-38,-39
1537920227413642,3,0,-1,1,-1,38,57,48
1537920227413642,2,0,-1,0,0,-38,-2,7
1537920227415637,4,1,0,2,0,6,42,5
1537920227415637,2,-1,-2,-1,-1,9,6,9
1537920227436581,-4,-1,-3,-4,-3,9,-29,-12
1537920227436581,-1,-1,-2,-3,0,-9,-13,-4
1537920227437579,0,-1,-2,1,-2,-13,5,24
1537920227437579,0,0,1,-1,3,13,1,-7
1537920227449546,6,0,-2,-1,-1,-5,-19,11
1537920227449546,-4,-3,-2,-2,-5,-18,-11,-11
1537920227458523,0,0,0,-1,-3,-2,13,-10
1537920227458523,1,-1,-1,-2,1,28,6,2
1537920227475477,-2,1,1,3,2,-4,-11,8
1537920227475477,-1,0,-1,-1,-3,0,-22,-9
1537920227476474,13,1,-1,-1,-2,23,37,21
1537920227476474,2,1,-1,-1,-2,-25,-47,-8
