timestamp,emg1,emg2,emg3,emg4,emg5,emg6,emg7,emg8
1537907306053475,-3,-8,15,11,1,-2,-9,-35
1537907306053475,-8,-14,-39,-19,-4,-2,-1,-1
1537907306054472,7,34,0,-7,-4,0,-1,-2
1537907306054472,-1,3,26,0,-1,-1,0,0
1537907306059459,0,3,5,3,4,1,-1,-1
1537907306059459,-1,-12,7,-2,-7,-3,-1,-1
1537907306060456,-2,-5,-3,-5,-3,-2,-3,-4
1537907306060456,-4,-18,-14,-5,3,2,0,-9
1537907306065443,1,-1,-6,-7,-3,-1,1,14
1537907306065443,3,12,18,6,-5,-3,-2,3
1537907306074419,0,-12,-15,-2,1,0,0,2
1537907306074419,-1,3,10,1,0,0,-1,-3
1537907306089379,-4,4,-23,-6,3,1,1,2
1537907306089379,1,8,59,17,1,1,1,2
1537907306097357,-1,-18,-61,-14,-4,-3,-2,-2
1537907306097357,-2,-1,-15,1,1,0,0,2
1537907306104339,-1,-20,5,2,0,0,2,5
1537907306104339,0,15,7,-1,2,-2,-3,-3
1537907306126280,-2,13,39,12,2,0,-1,-2
1537907306126280,-1,12,-3,-4,-1,-2,-2,-2
1537907306128275,0,-3,-11,0,-1,0,2,5
1537907306128275,-1,-9,4,-2,2,1,-1,-3
1537907306141240,-1,-3,16,6,0,-2,0,1
1537907306141240,1,-1,-18,4,0,0,-1,3
1537907306143235,0,13,10,0,-4,-3,0,-2
1537907306143235,2,-1,-25,-11,0,0,-2,0
1537907306196093,0,-4,-32,0,2,-1,-3,-2
1537907306196093,-2,-9,13,1,-6,-4,-1,-2
1537907306196093,0,19,-9,-7,-4,-2,-1,-1
1537907306196093,0,-1,2,0,-1,0,-2,0
1537907306197091,-2,-7,15,-2,0,0,1,-2
1537907306197091,1,7,8,-2,1,-1,0,0
1537907306201080,-2,4,-34,2,-7,-3,-2,-1
1537907306201080,0,0,5,-1,1,1,0,-2
1537907306203075,0,11,19,3,-2,-2,-1,1
1537907306203075,0,1,-3,-1,2,1,-1,-1
1537907306207064,-1,-10,16,5,3,2,0,-3
1537907306207064,-2,-3,-19,-4,-3,-1,0,0
1537907306216040,0,0,0,-1,-2,-1,-1,0
1537907306216040,-1,-3,-6,2,2,0,-3,-1
1537907306230003,-1,-8,5,-2,2,-1,-2,0
1537907306230003,-1,1,1,2,-1,0,-2,-1
1537907306238979,0,0,-1,-2,-1,-1,1,2
1537907306238979,0,-5,-5,-6,-6,-3,-2,0
1537907306260920,1,5,8,5,4,3,0,-1
1537907306260920,0,1,1,3,-1,-3,-2,0
1537907306262915,-2,-4,-2,-10,-4,-1,0,-1
1537907306262915,-2,-3,-7,-2,3,1,0,-1
1537907306275880,0,-5,0,-7,-6,-5,-2,0
1537907306275880,-1,-3,40,17,12,4,1,-2
1537907306282861,-3,-6,-54,-11,-1,-3,-3,-5
1537907306282861,-4,-11,26,91,2,-3,0,-2
1537907306298819,0,-3,-53,-36,22,2,0,0
1537907306298819,-4,-17,52,15,-13,-3,-1,0
1537907306299816,1,83,19,-21,20,9,2,-3
1537907306299816,12,-18,-33,90,15,14,11,12
1537907306320761,-11,-74,-10,-74,-40,-20,-10,-3
1537907306320761,1,25,-14,-37,14,3,-3,2
1537907306322755,-8,-31,19,27,-12,-3,-3,-5
1537907306322755,-2,38,-51,-128,-36,-13,-8,-7
1537907306334723,0,6,28,125,1,2,4,0
1537907306334723,5,-6,41,44,27,4,2,4
1537907306343699,1,-19,30,-58,-29,-12,-4,0
1537907306343699,-1,2,-69,-20,12,6,1,-1
1537907306358659,0,-5,9,26,32,12,0,-2
1537907306358659,-4,7,77,-39,-45,-12,-4,-9
1537907306360653,3,2,38,127,89,31,13,6
1537907306360653,-6,-24,-3,-126,-102,-33,-10,-6
1537907306381597,0,5,-53,-6,-18,-6,-2,-3
1537907306381597,10,12,43,2,0,6,6,10
1537907306382595,3,51,12,75,5,0,-3,1
1537907306382595,8,9,45,7,33,10,4,9
1537907306394563,1,17,12,-7,24,10,1,1
1537907306394563,-5,8,-22,1,2,-6,-5,-5
1537907306403539,-3,-24,47,-53,-17,-4,-1,-2
1537907306403539,-8,-38,-50,28,23,4,0,-1
1537907306418499,-2,8,-13,3,-13,-8,-3,-2
1537907306418499,2,-25,-34,-5,4,1,1,1
1537907306420494,-1,-25,-24,-30,-25,-12,-5,-4
1537907306420494,-3,18,23,14,10,0,-1,-5
1537907306441438,-3,-4,100,18,1,1,-1,-3
1537907306441438,-5,-4,-62,-11,-8,-3,-2,-1
1537907306442436,-1,-8,4,-11,-3,1,-1,-1
1537907306442436,-3,25,35,8,2,-2,-2,-3
1537907306454404,4,11,-18,-12,-2,3,1,1
1537907306454404,-5,-5,-21,1,6,2,-1,-3
1537907306471361,4,-3,-23,-13,-13,-7,-1,-1
1537907306471361,-3,-11,-6,6,9,2,1,-1
1537907306478340,0,-4,7,-8,1,1,0,-1
1537907306478340,-1,-11,-27,8,-6,-3,-2,-2
1537907306480337,-2,-23,-23,-21,-9,-4,-2,0
1537907306480337,-1,-4,23,6,6,0,-1,-1
1537907306501279,1,12,-1,-7,-4,-3,0,0
1537907306501279,-3,5,-13,-1,-1,-3,-1,-3
1537907306502277,-1,3,-19,-8,-3,-1,-1,-1
1537907306502277,-2,8,19,7,7,2,-1,-18
1537907306515242,-1,10,1,0,-4,-1,2,26
1537907306515242,2,4,-28,-7,-5,-2,-2,4
1537907306524219,2,-2,-7,-12,-6,-1,0,-3
1537907306524219,0,3,9,12,7,7,-4,17
1537907306538181,-12,-2,-3,-6,-3,-4,-6,-32
1537907306538181,-2,-2,-9,-6,-5,-8,-6,-9
1537907306546158,1,1,-7,-5,-5,-2,-1,4
1537907306546158,-3,-1,8,5,2,10,-2,-6
1537907306561118,6,3,-2,0,-1,0,8,10
1537907306561118,-5,-3,-4,3,2,-3,23,1
1537907306563112,-1,-2,-3,-3,-5,-8,-33,-5
1537907306563112,-1,2,8,6,8,-1,-4,-7
1537907306575080,2,-7,-16,-15,-8,3,-5,0
1537907306575080,2,19,2,-3,-8,3,0,-3
1537907306584057,-6,-25,-8,11,1,-1,12,5
1537907306584057,0,0,3,-2,2,2,3,3
1537907306599016,-1,-15,10,-15,10,1,-2,0
1537907306599016,0,-5,31,6,-21,-11,-4,2
1537907306600014,1,4,-77,-23,2,4,3,-2
1537907306600014,0,0,45,13,-1,-5,-3,2
1537907306620958,0,6,-1,-1,5,0,5,-1
1537907306620958,-3,-14,8,0,6,2,-8,-5
1537907306622952,-1,2,22,-6,-7,-3,0,0
1537907306622952,1,4,-48,-3,-5,-7,2,0
1537907306643896,3,-9,13,-3,-5,-1,-1,-1
1537907306643896,-2,-1,-14,6,10,6,-4,-2
1537907306644894,-2,3,7,10,0,-1,1,-2
1537907306644894,-1,-3,-15,-18,-7,-3,1,3
1537907306658857,-3,7,5,2,-5,-2,-3,-5
1537907306658857,0,3,-17,-1,2,1,-5,0
1537907306659854,-1,0,2,1,1,0,5,-1
1537907306659854,1,-2,10,-18,-3,-2,0,-3
1537907306680798,-1,4,-7,3,3,1,-1,-1
1537907306680798,1,3,12,16,4,0,1,2
1537907306682793,-2,0,32,20,-2,-1,0,-1
1537907306682793,-1,0,-33,-13,-8,-3,-3,1
1537907306694761,-3,-2,-26,-12,-14,-2,-3,-1
1537907306694761,0,5,17,-21,3,-1,-1,2
1537907306703737,-3,-12,-15,-3,-2,-1,1,-3
1537907306703737,1,3,2,13,5,0,-2,-1
1537907306718697,2,16,37,6,4,-1,1,2
1537907306718697,-2,-13,-6,-3,-1,-1,-3,-1
1537907306719694,3,18,22,0,2,1,0,1
1537907306719694,-3,-7,2,0,2,-2,-1,-4
1537907306741635,1,-3,-22,-2,-2,-2,0,-1
1537907306741635,0,7,2,5,4,1,-1,0
1537907306742632,-2,-7,8,-1,-3,-2,-2,-1
1537907306742632,-1,-4,-8,0,-1,0,1,0
1537907306754600,0,3,9,3,-1,-2,-1,-1
1537907306754600,-2,-5,-26,-3,-3,0,-4,0
1537907306763576,0,1,-7,-14,0,1,1,-1
1537907306763576,-2,-1,8,4,-6,-4,-2,-4
1537907306777539,0,0,19,3,1,0,0,0
1537907306777539,1,2,-28,5,0,2,1,0
1537907306784520,-3,-3,5,-18,-3,1,-2,-2
1537907306784520,-2,-1,4,5,-7,-5,-3,0
1537907306801475,1,-4,-48,3,0,1,-1,2
1537907306801475,3,10,17,-2,-2,-1,0,3
1537907306802472,-3,-14,3,2,3,1,-1,-1
1537907306802472,-2,-2,15,-1,6,1,2,-2
1537907306814440,-2,-6,-4,-4,-1,-1,-2,-1
1537907306814440,-2,1,4,16,-5,-3,-3,-5
1537907306823416,1,8,-1,-28,-12,-5,-1,0
1537907306823416,-2,-1,-7,-7,-2,-2,-2,-3
1537907306838376,-3,-14,-6,-1,0,0,0,0
1537907306838376,3,9,15,-3,3,1,1,0
1537907306840371,-1,-5,5,12,1,-1,-2,-1
1537907306840371,0,-4,-4,-1,1,0,-1,0
1537907306861315,-1,9,11,-1,-1,0,-2,-1
1537907306861315,-2,-12,-14,-3,-2,1,-1,-2
1537907306862312,2,4,-10,2,-3,-1,0,0
1537907306862312,3,6,4,2,2,0,2,2
1537907306884254,-2,-6,2,0,0,0,0,-1
1537907306884254,-1,3,13,0,1,-1,-1,-1
1537907306885251,0,-5,-45,-5,1,-2,0,-1
1537907306885251,1,-5,10,6,1,1,0,1
1537907306899214,-1,-1,9,8,0,-1,-3,-2
1537907306899214,-4,-10,-16,-8,-1,-2,-1,-1
1537907306900211,1,14,14,18,3,0,-2,0
1537907306900211,-1,-9,-5,-2,1,0,-2,1
1537907306924147,0,2,27,7,2,-1,0,0
1537907306924147,-3,-4,-4,-20,-9,-4,-3,-4
1537907306925144,3,1,-39,-2,1,2,1,2
1537907306925144,1,1,5,1,-2,-1,0,0
1537907306928137,0,-1,2,-2,2,1,1,0
1537907306928137,-1,-2,2,10,2,0,-1,0
1537907306942099,-4,-7,17,-8,-5,-4,-3,-3
1537907306942099,-1,4,-10,-8,0,0,-1,-3
1537907306950078,0,-1,2,-5,-3,1,0,-1
1537907306950078,0,-7,-9,-3,-3,-3,1,-1
1537907306959054,0,6,0,0,0,1,-2,-2
1537907306959054,-2,-11,6,7,4,0,-2,-1
1537907306972019,-2,1,-10,-4,-3,-4,-2,-1
1537907306972019,-3,0,-11,-2,1,0,1,-1
1537907306980995,-3,-4,22,6,4,1,-1,-3
1537907306980995,-1,-1,1,-7,-6,-2,1,-1
1537907306986979,0,0,-14,-3,-4,-2,-1,0
1537907306986979,2,-1,-23,-6,0,-1,0,2
1537907307001939,0,7,10,-1,0,1,3,0
1537907307001939,-3,-6,8,2,-2,0,1,-1
1537907307009918,-3,2,9,6,0,1,0,-3
1537907307009918,2,0,-2,-3,0,-1,0,1
1537907307018894,-1,0,-17,-6,-1,-2,-1,0
1537907307018894,1,-6,-7,0,0,-1,0,-1
1537907307031859,0,4,-6,-2,0,1,0,1
1537907307031859,-1,-4,12,4,4,3,0,-1
1537907307040835,0,-1,7,-1,0,0,0,1
1537907307040835,-1,5,-6,2,0,0,0,-2
1537907307047816,0,-3,-3,0,1,0,-1,0
1537907307047816,-1,1,1,4,3,2,1,-1
1537907307062776,-1,-9,-3,-12,-8,-4,-1,-1
1537907307062776,1,4,9,4,1,0,0,0
1537907307069758,0,3,-1,-4,-2,0,-2,-1
1537907307069758,1,-3,-1,2,2,1,-1,-2
1537907307078734,0,-1,-7,-1,0,-1,0,2
1537907307078734,0,1,1,4,0,-1,-1,-1
1537907307092696,-1,7,14,9,2,-1,0,-1
1537907307092696,0,-6,-52,-9,-3,0,-1,1
1537907307101672,0,5,50,-5,-4,-1,-2,1
1537907307101672,-2,-14,-38,-9,7,5,1,0
1537907307107657,0,11,72,0,-7,-2,-2,-2
1537907307107657,-6,-14,-108,9,-3,-3,-4,-5
1537907307122617,6,13,33,12,5,0,0,1
1537907307122617,1,12,35,-5,-4,-2,-1,2
1537907307129598,1,-8,-20,-3,7,2,1,0
1537907307129598,-3,-3,47,17,6,1,0,0
1537907307138574,-8,8,4,40,-1,-4,-5,-8
1537907307138574,-1,-14,-77,-21,4,3,1,0
1537907307152537,-2,15,-32,-12,-2,-3,-2,-2
1537907307152537,8,9,13,4,1,-2,-1,5
1537907307161513,-8,24,85,-87,-25,-4,-3,-2
1537907307161513,0,-25,8,6,-31,-9,-2,0
1537907307175475,6,19,-44,13,14,3,5,5
1537907307175475,-7,-44,-23,-22,7,3,-1,-6
1537907307182456,-1,-18,-26,13,-1,-4,-4,-6
1537907307182456,5,32,93,71,22,6,3,3
1537907307198414,-5,-39,-105,-73,-33,-10,-4,-3
1537907307198414,8,36,127,-1,-14,-2,3,7
1537907307200408,-4,-40,-121,20,28,10,2,0
1537907307200408,-10,-3,10,-46,-11,-1,-6,-9
1537907307212376,2,-29,-75,-29,11,6,3,5
1537907307212376,8,16,67,14,22,7,1,1
1537907307221353,-3,13,-108,-71,-44,-17,-5,-5
1537907307221353,-10,6,89,38,-22,-15,-10,-11
1537907307235315,11,36,59,66,30,10,4,7
1537907307235315,-5,-22,8,-28,-7,-5,-5,-2
1537907307242296,1,-5,-28,49,7,-1,-1,2
1537907307242296,-6,8,-2,-30,1,-4,-5,-7
1537907307258254,-11,-24,90,-29,-20,-9,-5,-6
1537907307258254,-4,4,-61,45,9,1,-2,-5
1537907307260249,1,-5,25,-7,-8,-5,0,2
1537907307260249,2,2,-30,-19,-6,-2,0,2
1537907307272217,-2,-12,69,11,4,-2,-2,-2
1537907307272217,-2,3,14,-8,-17,-6,-4,-2
1537907307281193,-2,-5,-1,-1,9,4,-1,-4
1537907307281193,2,-9,-39,-19,6,1,2,1
1537907307295155,0,16,21,27,-4,-2,-2,-2
1537907307295155,-3,-4,-28,-12,-5,-3,-1,-3
1537907307302136,2,0,25,-3,3,0,1,0
1537907307302136,2,3,-2,10,11,3,0,3
1537907307320089,-2,5,7,14,0,-1,-3,-4
1537907307320089,-3,-7,-19,-9,-5,-3,0,-1
1537907307321086,5,4,9,-3,5,3,1,3
1537907307321086,0,-6,6,19,8,1,2,1
1537907307332056,-4,-4,-31,-7,-7,-4,-3,-3
1537907307332056,0,3,-8,-14,-6,-1,1,2
1537907307341033,2,4,37,18,3,2,2,1
1537907307341033,0,-1,-13,-7,1,0,0,0
1537907307355993,1,1,-3,-10,-9,-2,-1,-1
1537907307355993,0,4,7,4,5,1,-1,1
1537907307361977,-2,-7,16,10,3,-3,-2,1
1537907307361977,1,3,-2,-4,-2,0,0,-1
1537907307378932,-3,-6,-12,3,3,0,0,-2
1537907307378932,-3,4,8,3,-1,-2,-4,-27
1537907307379929,1,-2,2,4,1,2,0,26
1537907307379929,3,0,-8,-10,1,-2,0,3
1537907307391897,1,2,6,2,-2,-2,-2,-1
1537907307391897,-3,4,-5,-4,-1,0,3,5
1537907307400873,3,-5,8,1,4,4,0,-6
1537907307400873,-5,-11,-3,1,3,1,-2,-10
1537907307415833,0,-3,3,-1,3,-1,-4,1
1537907307415833,-2,3,-41,-14,-1,0,-2,0
1537907307421817,-5,-14,73,8,-12,-6,-1,-5
1537907307421817,3,16,-23,21,3,1,1,8
1537907307438772,0,-2,2,-6,-7,-2,1,-6
1537907307438772,0,-2,6,2,5,1,-1,4
1537907307439769,-3,2,12,-12,-8,-3,0,-5
1537907307439769,2,-15,9,-8,-2,-2,-4,-5
1537907307452734,-4,-23,-42,-6,7,4,3,3
1537907307452734,5,13,46,7,-13,-6,-2,6
1537907307461710,-1,-3,-6,4,8,3,0,-2
1537907307461710,-2,2,6,-2,-5,-5,-1,-1
1537907307475673,-2,-3,-18,-9,-6,-3,-1,1
1537907307475673,1,-5,2,-1,1,0,0,0
1537907307482654,-2,8,-6,9,5,1,-2,-8
1537907307482654,-1,2,-7,-7,-1,0,0,1
1537907307497614,0,5,10,6,1,0,-2,-1
1537907307497614,0,-1,-2,1,-3,-1,-1,-1
1537907307504595,-1,3,-13,-2,2,1,1,-3
1537907307504595,2,3,-10,-5,-1,1,1,0
1537907307512574,-1,2,11,-4,-3,0,-1,0
1537907307512574,-1,-2,-2,-3,3,-1,-1,0
1537907307521550,-2,-5,-29,4,-4,-3,-2,1
1537907307521550,1,2,40,7,4,2,-1,2
1537907307535512,-2,4,7,10,2,-2,-2,-4
1537907307535512,-1,0,20,4,-12,-6,-4,-1
1537907307542494,0,-12,-107,-24,0,1,1,0
1537907307542494,0,7,89,4,-2,-2,0,1
1537907307558451,-1,2,16,6,-4,-3,-1,0
1537907307558451,1,-1,8,-1,10,1,1,1
1537907307564436,0,7,9,-2,1,-1,-1,-2
1537907307564436,-3,-10,-40,-7,-5,-2,-2,-3
1537907307572414,2,3,9,-3,3,1,-1,-1
1537907307572414,-3,-10,-13,-3,-2,-1,1,-1
1537907307581390,0,5,21,14,1,-1,1,-2
1537907307581390,-3,5,-30,-11,-3,0,-1,-1
1537907307595353,-1,0,5,4,-1,-1,-1,-1
1537907307595353,-1,4,-12,-9,-2,-2,0,-2
1537907307602335,-1,-4,8,3,2,0,-1,-2
1537907307602335,0,0,-4,15,3,0,0,0
1537907307618291,0,-2,-11,-7,-6,-1,-1,-1
1537907307618291,-1,-2,15,3,-2,1,0,0
1537907307625273,0,-7,-4,-15,0,-2,-1,0
1537907307625273,2,9,-19,7,-1,-3,1,2
1537907307632254,-2,-15,5,6,3,-1,-1,-1
1537907307632254,-1,0,-26,-12,0,1,0,1
1537907307649209,0,2,-9,7,0,-2,-2,0
1537907307649209,1,-1,7,-1,3,1,-2,-1
1537907307655193,0,3,36,-17,-2,-4,-2,-3
1537907307655193,-1,-8,-35,4,-8,-6,-3,1
1537907307662174,0,10,21,-5,-2,-1,-2,-3
1537907307662174,3,1,-22,9,2,1,1,0
1537907307678131,-2,3,-20,-7,-2,0,-1,0
1537907307678131,0,-1,8,3,4,1,0,1
1537907307685113,-2,5,6,-12,-7,-2,1,-2
1537907307685113,-1,-10,-5,-5,-2,-1,0,-1
1537907307700073,-2,-2,14,10,-2,0,-1,-3
1537907307700073,0,5,-14,0,1,-1,-2,-2
1537907307709049,0,-14,2,3,0,1,-1,-1
1537907307709049,-3,-4,11,-7,-2,0,1,0
1537907307715033,-1,-1,-17,-1,-3,-2,1,0
1537907307715033,0,-7,1,1,-2,-1,-2,-2
1537907307722014,-1,-6,19,8,4,2,1,0
1537907307722014,-1,-4,-29,-14,-4,-2,-3,-2
1537907307737972,1,9,14,-4,-2,-1,0,-2
1537907307737972,-1,6,-16,7,0,1,0,-2
1537907307744953,0,4,0,-1,2,-1,0,1
1537907307744953,-2,-5,22,11,0,-2,0,-3
1537907307760911,-1,8,-8,-5,-5,-2,-1,0
1537907307760911,-2,-11,7,0,5,3,-1,0
1537907307762905,1,4,-8,-12,-3,0,2,0
1537907307762905,-4,-6,-12,-6,-6,-3,-3,-2
1537907307775871,-1,-2,-13,1,3,-1,-1,0
1537907307775871,0,-1,18,8,-3,0,-2,0
1537907307789833,0,0,-2,1,3,1,-1,-1
1537907307789833,0,8,12,-4,0,-1,-1,1
1537907307797812,-1,0,-3,4,0,0,-1,-2
1537907307797812,0,-3,-7,-7,-1,1,1,0
1537907307804793,0,5,11,12,3,1,-2,-2
1537907307804793,0,7,0,-7,-5,-2,0,0
1537907307828729,-2,-14,-14,0,-2,0,-2,-2
1537907307828729,0,3,2,6,1,0,-1,-1
1537907307829726,-1,5,10,4,2,-3,-1,0
1537907307829726,-1,-4,-10,-5,0,-2,-1,-3
1537907307842691,-1,-6,-8,-8,-2,0,-1,0
1537907307842691,0,9,12,5,-1,-3,-1,1
1537907307849673,-1,-6,4,-3,-1,-1,-1,-2
1537907307849673,0,0,-1,-1,0,1,-1,-2
1537907307866628,2,-5,-15,-6,0,-1,0,0
1537907307866628,0,3,10,1,-4,-1,0,0
1537907307867626,-2,-7,-7,1,-3,-1,-1,2
1537907307867626,0,-2,-10,-2,1,2,-2,1
1537907307888569,-1,4,12,-6,-2,1,-1,1
1537907307888569,1,11,29,16,6,0,0,-1
1537907307890564,-5,-27,-61,7,3,-1,0,-2
1537907307890564,3,17,28,-27,-8,-3,-2,2
1537907307902532,2,8,20,-21,-3,-2,-2,-2
1537907307902532,-2,0,27,40,3,0,1,2
1537907307909513,-1,-14,14,-13,-3,-1,-2,-2
1537907307909513,2,3,-69,9,5,2,2,0
1537907307926468,-1,-21,85,32,15,0,-1,-3
1537907307926468,-7,1,-105,-63,-5,-3,1,0
1537907307927465,1,-4,26,-46,-26,-7,-5,-1
1537907307927465,1,38,41,97,28,4,2,2
1537907307948409,-1,-30,3,2,13,6,1,1
1537907307948409,-3,-8,-36,-19,-18,-1,-2,-4
1537907307950404,-1,34,-61,-23,-6,-6,-4,-7
1537907307950404,6,-9,-69,-70,-20,-8,0,4
1537907307962372,-4,1,14,127,37,10,3,1
1537907307962372,-4,-3,98,-3,2,-3,-1,-3
1537907307971348,0,7,9,16,20,15,3,2
1537907307971348,-1,-15,-65,-49,-49,-20,-6,-3
1537907307986308,-3,5,-7,-120,-27,-8,-5,-5
1537907307986308,1,-15,-98,23,9,4,0,1
1537907307988303,0,-7,70,30,20,6,3,2
1537907307988303,-2,8,48,-45,18,10,2,-1
1537907308008249,-3,-24,-21,91,22,2,-1,1
1537907308008249,-7,-22,15,-93,-60,-20,-10,-9
1537907308010244,5,82,9,4,-5,1,-1,-1
1537907308010244,2,-25,-99,-17,10,3,4,5
1537907308022212,-7,-12,-45,-45,-39,-12,-4,-5
1537907308022212,13,45,127,71,32,9,4,7
1537907308031188,-9,-47,0,-10,-22,-9,-2,-5
1537907308031188,-7,-21,40,16,6,1,-2,-5
1537907308045151,6,28,-41,-34,0,0,0,2
1537907308045151,-1,-15,-15,3,12,1,-2,-2
1537907308052132,4,12,20,12,-11,-4,0,2
1537907308052132,-3,6,55,12,6,1,-1,-1
1537907308069087,-2,-6,-24,-12,-10,-2,0,-1
1537907308069087,-1,-2,-8,-16,-8,-2,0,0
1537907308070084,1,-19,3,23,20,4,1,1
1537907308070084,-9,0,14,11,-12,-5,-4,-6
1537907308082052,4,15,9,2,-4,-1,1,2
1537907308082052,-1,-4,-36,-16,3,0,1,-1
1537907308091028,-2,-11,37,18,9,1,0,0
1537907308091028,-2,-2,28,19,3,2,0,-2
1537907308104991,-3,3,17,-1,-4,-4,-1,-2
1537907308104991,1,3,-84,7,0,1,1,2
1537907308111972,0,-3,-3,-11,-2,-1,-1,1
1537907308111972,0,-10,23,11,-6,-1,-1,0
1537907308129924,-2,7,27,2,2,-1,-3,-1
1537907308129924,-1,2,9,5,8,2,-1,-1
1537907308131918,-1,-2,-39,-9,-5,-4,0,-3
1537907308131918,-1,-9,4,7,1,1,-1,-1
1537907308141892,1,15,5,-8,0,-1,2,0
1537907308141892,1,-10,0,1,-1,-1,1,-1
1537907308150868,2,7,-11,-4,-1,0,0,2
1537907308150868,-4,-10,20,5,1,-1,0,-2
1537907308165828,0,1,-23,-2,-5,0,-1,0
1537907308165828,0,-1,8,-4,-2,-1,-1,-1
1537907308167823,-2,1,3,2,3,0,-1,-1
1537907308167823,1,4,-8,4,1,1,-1,0
1537907308188766,-1,-3,-15,-4,-4,0,1,-1
1537907308188766,-2,-2,15,3,6,1,-1,-15
1537907308189764,-2,-8,-3,-5,-3,-3,-6,12
1537907308189764,-1,1,-4,3,-3,-1,-2,0
1537907308202729,1,-1,-6,-5,0,2,10,-2
1537907308202729,-2,2,17,-1,-2,-6,-16,-14
1537907308211705,2,-4,-11,2,-3,-3,4,25
1537907308211705,-1,0,-1,2,2,7,0,-5
1537907308225668,-4,2,4,-1,-2,-9,2,-4
1537907308225668,-2,-1,0,0,-1,-1,-6,-2
1537907308232649,-2,-5,-7,-2,-1,0,-1,-10
1537907308232649,3,13,-1,-5,-3,-7,-6,6
1537907308248607,2,-16,-2,-1,4,7,7,5
1537907308248607,-1,-6,-2,-2,-3,0,2,3
1537907308250601,-3,-4,-2,5,6,1,-4,-4
1537907308250601,-2,3,17,6,7,5,3,-3
1537907308262569,-4,-16,-37,-24,-32,-16,-12,-8
1537907308262569,-1,11,0,4,4,1,2,9
1537907308271545,1,17,33,7,-6,0,-2,-6
1537907308271545,0,-6,2,-1,13,4,5,3
1537907308285508,0,8,0,1,9,3,-3,2
1537907308285508,-1,-11,10,-3,-7,-4,-1,5
1537907308292490,-1,-2,2,-7,0,0,4,-7
1537907308292490,2,1,-68,-9,-5,-3,-2,-3
1537907308308447,0,-15,22,-1,-2,-3,-4,2
1537907308308447,-1,5,-8,1,3,4,4,1
1537907308310441,-1,1,12,3,1,-1,-2,-7
1537907308310441,-2,-3,8,-15,-4,-3,-3,-1
1537907308322409,0,7,0,19,-5,-2,-4,-2
1537907308322409,1,0,5,5,6,3,4,4
1537907308331386,-1,-5,-12,0,-1,0,0,-3
1537907308331386,-3,-3,-5,-1,-5,-2,-2,1
1537907308345348,0,7,3,-21,7,4,1,1
1537907308345348,-1,3,4,0,-9,-4,-1,-3
1537907308352329,-2,-7,-10,2,-3,-2,-3,-3
1537907308352329,-2,-5,-1,-17,2,-1,-2,-1
1537907308368287,0,8,16,46,10,2,1,-1
1537907308368287,-2,3,15,-32,-13,-7,-2,-1
1537907308370281,1,-6,-28,-3,0,-1,-2,0
1537907308370281,-1,-3,14,7,-1,-1,0,-1
1537907308391226,2,-1,-17,1,7,1,0,2
1537907308391226,-2,1,31,11,6,0,0,-2
1537907308392223,-2,-2,-9,-21,-6,-4,1,-4
1537907308392223,-2,-20,-12,23,2,-2,-1,-2
1537907308413167,0,13,7,10,1,1,-2,0
1537907308413167,0,-13,-11,-4,-3,0,2,2
1537907308414164,-3,13,16,-8,-2,0,-1,-2
1537907308414164,-3,0,10,5,-1,-3,-2,-2
1537907308429124,-3,-5,-6,-3,-8,-2,-2,-1
1537907308429124,-2,-2,-21,-2,2,0,1,1
1537907308429124,0,-8,1,0,2,0,1,-2
1537907308429124,1,9,-1,2,-1,-2,1,-1
1537907308450068,-1,1,3,-7,-5,-3,-2,0
1537907308450068,0,0,6,12,7,4,1,-2
1537907308451066,-1,-1,0,-9,0,-3,-1,-2
1537907308451066,-2,2,2,-5,-7,-3,0,0
1537907308465028,-1,-1,-6,-16,2,1,0,-1
1537907308465028,0,-7,3,13,4,0,-1,0
1537907308473007,-1,-4,-6,12,2,1,-2,-1
1537907308473007,0,1,9,-1,-3,-3,-1,-1
1537907308487967,0,-5,8,-10,-3,-2,-1,0
1537907308487967,2,6,2,5,1,1,-2,2
1537907308488964,-1,2,-6,-12,1,0,0,1
1537907308488964,-3,-12,4,12,-6,-4,-2,-2
1537907308510905,-1,1,25,19,5,1,-1,0
1537907308510905,2,6,-46,-11,1,1,0,1
1537907308510905,-1,6,6,-6,-6,-3,-1,-1
1537907308510905,0,-8,-6,-19,0,3,0,-1
1537907308524868,0,0,-2,-1,-5,-1,-3,-3
1537907308524868,-3,-8,9,-6,-2,-2,0,-2
1537907308532847,0,0,-6,11,3,0,1,1
1537907308532847,0,10,-7,-2,0,-1,0,0
1537907308547807,-1,-6,-8,-17,-3,-2,1,-1
1537907308547807,-2,0,9,11,0,0,0,0
1537907308548804,0,-13,-15,0,-4,-2,-2,-1
1537907308548804,1,6,21,9,2,0,-1,-2
1537907308570745,-1,1,-7,-7,-1,0,0,0
1537907308570745,-2,-3,-7,-8,-2,1,0,-1
1537907308570745,-2,-5,-5,6,-4,-3,0,-1
1537907308570745,1,4,4,0,6,3,1,-1
1537907308585705,-2,-5,27,-11,-11,-6,-2,-2
1537907308585705,3,3,-70,-3,1,-3,-1,-1
1537907308586703,1,9,7,-2,2,1,0,1
1537907308586703,0,-11,-10,6,1,0,0,1
1537907308607647,-1,-1,4,-2,3,4,2,-1
1537907308607647,-1,-2,25,0,-3,-3,-4,-2
1537907308608644,-3,-3,-8,-1,0,0,-1,1
1537907308608644,0,4,11,-2,-2,-3,-1,0
1537907308630586,1,-1,-21,-3,1,0,-1,0
1537907308630586,-3,-4,15,3,0,-1,1,0
1537907308631583,2,0,-9,-5,-4,-2,-1,-2
1537907308631583,-1,2,-2,-1,-3,0,-1,-1
1537907308645545,-1,-9,-9,0,0,-1,0,0
1537907308645545,0,2,3,-2,0,3,1,1
1537907308646543,-1,-4,8,3,0,-2,-1,-1
1537907308646543,-2,1,2,-2,-4,-1,-2,-2
1537907308667487,-1,5,-13,0,1,0,-1,0
1537907308667487,0,-2,8,3,1,-1,-2,0
1537907308668484,0,-2,2,-5,-4,-2,-1,-2
1537907308668484,0,-1,-4,-2,-4,0,0,0
1537907308690425,-1,2,-4,-3,0,0,-2,1
1537907308690425,-2,-6,4,0,1,-1,1,-3
1537907308691423,-1,-2,6,1,-6,-2,0,-1
1537907308691423,-2,-2,-8,-4,-1,0,-2,-1
1537907308705385,1,0,2,5,2,-1,0,-3
1537907308705385,-1,0,1,-4,-3,-2,-2,-1
1537907308706383,-2,0,2,2,3,1,-2,0
1537907308706383,-1,1,2,0,-2,-3,-3,-1
1537907308728324,-1,1,-5,-2,-1,0,-2,-1
1537907308728324,-1,-1,3,2,-1,0,-3,0
1537907308728324,0,5,-5,-1,2,1,-2,-2
1537907308728324,-1,-9,-1,-5,-3,-4,-1,0
1537907308752260,-3,0,-1,5,3,1,-1,-1
1537907308752260,0,2,-4,-6,-5,-1,-1,2
1537907308752260,-2,-1,-1,1,-1,0,0,0
1537907308752260,0,1,2,4,5,4,2,0
1537907308765225,0,12,-14,-10,-13,-6,-1,-3
1537907308765225,2,-3,22,4,-5,-4,-2,-1
1537907308766223,0,7,-12,0,0,0,-2,1
1537907308766223,-3,-13,5,-1,-1,-1,-1,0
1537907308788164,-4,-3,-15,-7,13,6,0,-2
1537907308788164,-5,13,32,-4,-9,-7,-3,-5
1537907308788164,5,6,-44,-8,-5,0,-1,-2
1537907308788164,-2,-9,-8,11,4,-2,-2,-3
1537907308819082,-4,-20,-12,36,11,4,0,1
1537907308819082,11,23,-28,1,12,6,4,4
1537907308819082,-9,-32,29,6,2,0,-1,-1
1537907308819082,3,22,-21,-32,-16,-12,-6,-6
1537907308834042,-3,-5,74,14,4,4,1,2
1537907308834042,2,-22,36,-78,-25,-6,0,4
1537907308834042,-6,-8,-54,53,29,10,1,-2
1537907308834042,9,58,-6,55,5,-2,-4,1
1537907308848004,9,22,4,-33,-28,-14,-1,0
1537907308848004,-13,-56,25,-44,-39,-13,-10,-10
1537907308849001,10,-11,-30,13,17,13,10,13
1537907308849001,-11,-18,124,-64,-27,-9,-3,-5
1537907308870943,7,10,15,37,37,15,5,4
1537907308870943,-10,-12,-6,103,29,6,2,-4
1537907308870943,-6,-7,-77,-110,-50,-21,-10,-10
1537907308870943,5,0,8,53,28,13,7,4
1537907308884906,7,16,68,21,0,2,1,1
1537907308884906,-3,3,19,-49,-9,3,1,-1
1537907308892884,-7,-3,-17,56,20,3,-1,-3
1537907308892884,-1,2,-19,-23,-2,1,0,-1
1537907308907844,-1,4,-24,-23,-6,-6,0,-1
1537907308907844,0,-2,-27,3,-21,-11,-4,-2
1537907308908842,0,7,66,8,11,3,2,0
1537907308908842,1,-22,70,28,9,2,2,4
1537907308930783,-2,2,-54,-59,-36,-13,-6,-3
1537907308930783,3,12,-29,16,31,6,1,2
1537907308930783,1,-30,20,-20,-10,-7,-2,-1
1537907308930783,-3,30,-12,-17,-6,-1,0,-2
1537907308944745,-5,-34,19,23,10,1,-1,-2
1537907308944745,2,-3,-82,-3,2,1,2,2
1537907308952724,0,8,58,-2,-8,-3,-2,-3
1537907308952724,-4,-22,-42,-10,3,2,1,-1
1537907308967684,-2,10,-18,0,2,2,-1,-1
1537907308967684,0,25,33,-3,-10,-4,-2,-3
1537907308968682,-1,3,31,17,6,2,-2,-1
1537907308968682,1,-6,-109,-8,2,3,1,2
1537907308990623,-2,2,-1,-9,-11,-4,-2,-1
1537907308990623,-1,-5,15,16,15,5,1,1
1537907308991620,2,15,14,-6,-6,-4,-2,-1
1537907308991620,0,-7,5,-2,-8,-3,-1,0
1537907309014559,-2,-11,-6,-2,2,-1,-1,-3
1537907309014559,1,1,-17,1,6,2,1,0
1537907309015557,0,9,-2,-4,-7,-2,-1,-1
1537907309015557,-1,-8,-1,-3,-7,-3,-2,-2
1537907309027524,-1,-4,-18,2,6,2,1,-1
1537907309027524,0,3,10,6,5,1,-1,0
1537907309028522,-2,3,2,-6,-8,-5,-1,-2
1537907309028522,-2,-10,3,0,1,0,-1,0
1537907309050463,-2,1,-6,1,-1,-1,-1,1
1537907309050463,0,1,-2,4,1,3,2,1
1537907309051461,-2,-1,6,1,6,4,1,-2
1537907309051461,0,2,-5,-7,-4,-2,1,-1
1537907309064425,2,0,-6,-2,2,2,5,-2
1537907309064425,7,4,-1,0,1,3,12,16
1537907309073401,2,4,1,5,4,-6,-9,36
1537907309073401,-6,-3,5,-5,-4,-7,-11,-38
1537907309087364,1,1,-3,-1,-1,0,-3,2
1537907309087364,-5,10,1,-1,2,1,-1,-18
1537907309095343,4,-9,-1,-4,-3,2,10,9
1537907309095343,1,-6,5,2,3,1,3,16
1537907309110303,-2,1,-2,-1,0,1,0,-8
1537907309110303,1,-11,-4,4,23,10,5,8
1537907309111300,3,31,0,-42,-36,-15,-7,-12
1537907309111300,-1,7,15,17,0,-2,-4,1
1537907309125263,0,4,-9,-7,-18,-9,-6,-6
1537907309125263,-3,4,2,-1,-3,-3,-5,2
1537907309133242,-6,-18,-11,13,6,1,-3,-8
1537907309133242,-1,-2,-2,-3,16,7,2,-2
1537907309148202,-2,-12,9,-23,-11,-7,0,6
1537907309148202,-3,-7,10,7,-10,-6,-6,-5
1537907309148202,5,18,8,20,11,6,2,-7
1537907309148202,0,-5,0,-2,-9,-3,1,10
1537907309170143,-1,-5,0,23,17,4,-1,1
1537907309170143,-4,-5,5,-8,-8,-5,-7,-5
1537907309171140,-6,-13,-3,-14,-3,0,-1,-11
1537907309171140,1,11,-1,15,3,1,2,4
1537907309185103,-1,0,3,-2,-3,-1,-3,-1
1537907309185103,-1,0,-7,-10,-6,-2,-1,-6
1537907309193082,-1,2,-3,8,4,2,1,0
1537907309193082,-1,-5,-7,-8,-4,-1,-3,1
1537907309208042,-2,2,-7,-6,-3,0,0,-3
1537907309208042,0,-1,-8,-1,-1,-3,-1,1
1537907309209039,-1,-1,-1,8,5,1,1,-3
1537907309209039,-2,-1,-1,-11,-9,-4,-3,0
1537907309229984,-1,-2,-5,-3,1,0,-2,-1
1537907309229984,1,2,0,14,6,1,-3,1
1537907309230981,-2,-9,2,-6,-6,-3,-2,-1
1537907309230981,-2,-6,-3,-10,-4,-1,0,-1
1537907309245940,0,-1,-6,7,2,0,0,2
1537907309245940,0,-7,-5,-3,-2,-3,-1,-1
1537907309252922,-1,-5,3,8,3,2,-1,-5
1537907309252922,0,-3,-4,-8,-6,-2,0,1
1537907309267882,-2,-1,3,12,-1,-2,-3,-1
1537907309267882,0,1,-1,17,5,-1,0,-2
1537907309268879,-2,-2,-7,-33,-10,-2,-2,-4
1537907309268879,-1,2,0,10,-4,0,1,1
1537907309291818,-2,1,-1,-9,4,-1,-1,0
1537907309291818,-1,3,-5,-13,-9,-3,-1,-1
1537907309292816,1,4,10,21,8,3,1,1
1537907309292816,-1,0,0,3,-5,-2,-1,-2
1537907309313759,-1,-1,-4,0,1,-2,-2,0
1537907309313759,-1,11,-4,6,-1,1,-2,0
1537907309314756,0,-19,-2,-25,2,3,0,-1
1537907309314756,-5,-6,-15,-9,0,-1,-1,-1
1537907309329716,0,-4,1,6,-1,-1,-1,1
1537907309329716,0,-6,-2,1,1,-3,-1,0
1537907309335700,-1,14,8,14,0,-2,1,-1
1537907309335700,0,-2,-2,-11,2,1,-1,-1
1537907309344676,-2,-2,3,7,-2,-1,-1,-1
1537907309344676,-1,-1,-10,-6,-2,0,0,-2
1537907309346671,-1,-3,-5,1,-2,-2,-1,-1
1537907309346671,0,6,7,25,13,3,0,0
1537907309358639,-2,-7,-4,-28,-12,-1,-1,1
1537907309358639,0,-3,-4,-6,-3,-1,-1,1
1537907309372602,-1,-2,-5,4,1,-1,-1,-1
1537907309372602,0,-2,6,21,2,-1,-1,1
1537907309379583,4,9,1,-23,-7,-2,0,1
1537907309379583,0,-6,12,6,0,1,1,0
1537907309387562,-4,-11,-6,-18,-6,-1,-1,-3
1537907309387562,0,-3,-11,1,1,-2,-2,1
1537907309402522,1,5,5,11,4,1,1,1
1537907309402522,-1,3,4,-8,-3,-1,-2,-2
1537907309409503,-4,-2,-3,9,1,-1,-1,0
1537907309409503,8,8,6,-9,-1,-1,0,1
1537907309418479,-2,-11,-5,-3,-2,0,0,-1
1537907309418479,-6,-1,0,6,1,-3,-3,-3
1537907309424463,-3,10,1,7,-1,-1,0,-1
1537907309424463,-8,1,11,-7,-3,-2,0,-2
1537907309439423,8,4,-19,-3,0,-1,-1,-3
1537907309439423,-6,-3,12,-4,-3,0,-1,-2
1537907309447402,11,-9,4,5,0,-2,0,1
1537907309447402,-6,-2,-43,-13,-2,-2,-1,2
1537907309462362,-1,-2,1,4,3,-2,-2,-4
1537907309462362,1,6,5,-2,-4,-1,0,1
1537907309469343,5,5,9,-1,-5,0,1,3
1537907309469343,4,-4,12,-6,1,1,1,0
1537907309478319,-15,-5,-15,-2,3,0,-4,-8
1537907309478319,1,6,27,2,2,-1,0,-3
1537907309484303,0,-6,-35,-24,-15,-5,-2,0
1537907309484303,7,5,7,6,2,1,-1,1
1537907309500261,-4,-2,0,4,-6,-3,0,1
1537907309500261,-2,-10,-13,-8,-2,-1,-2,0
1537907309507242,-6,-1,-6,4,0,0,-2,-1
1537907309507242,-3,-2,4,-4,-3,-1,-2,-1
1537907309522202,6,6,13,-4,0,1,-1,2
1537907309522202,-2,3,-3,17,6,1,0,-1
1537907309530180,-6,0,3,3,-4,-5,-3,-3
1537907309530180,-2,-3,-2,-7,-1,0,-1,-7
1537907309539157,1,7,-11,12,0,0,1,2
1537907309539157,1,-18,-21,-14,0,-2,0,1
1537907309545141,-1,9,11,-3,1,-1,-2,-1
1537907309545141,3,0,15,3,-2,-1,-1,-1
1537907309560100,-10,-10,1,2,-2,-1,0,-2
1537907309560100,11,5,-5,-17,-10,-4,-2,2
1537907309567082,-6,-6,-5,11,4,0,-2,-6
1537907309567082,-3,13,6,3,1,-2,-1,-1
1537907309584037,1,-7,-2,0,1,-1,0,1
1537907309584037,-2,5,5,-3,-2,-1,0,-1
1537907309590021,-1,-11,8,-6,1,0,0,1
1537907309590021,0,-6,-11,-6,-3,-2,0,-1
1537907309604980,0,5,-10,-5,0,2,2,1
1537907309604980,-1,-9,-3,2,-1,1,0,2
1537907309605978,1,8,-2,1,1,-1,-2,-2
1537907309605978,-3,-1,6,0,-2,0,-1,-1
1537907309619941,2,2,4,4,-1,-3,-1,0
1537907309619941,-2,0,-5,0,1,-1,-2,-2
1537907309626922,0,4,8,-1,1,1,-1,-1
1537907309626922,-1,-1,-5,0,-1,-1,-1,0
1537907309641882,-1,-6,-1,0,0,0,1,1
1537907309641882,-3,6,1,4,4,0,-1,-2
1537907309649861,3,6,2,-3,-2,-2,0,1
1537907309649861,1,-8,0,-3,-1,0,0,0
1537907309665818,2,1,3,-2,-2,-1,-2,-2
1537907309665818,-2,1,0,-1,0,0,1,1
1537907309665818,-1,1,-2,3,1,-1,0,-1
1537907309665818,-3,-2,-3,3,2,-1,-1,-1
1537907309679781,4,3,6,2,4,2,0,1
1537907309679781,-6,6,1,17,0,-1,0,-1
1537907309686762,13,-1,-3,8,21,6,4,4
1537907309686762,0,-18,-21,-13,-30,-14,-5,-6
1537907309702719,6,21,74,18,7,2,1,2
1537907309702719,-12,10,-40,44,7,1,-1,-2
1537907309709701,-15,-21,-29,-85,-9,-2,-6,-10
1537907309709701,0,-7,5,73,-3,-8,-6,-9
1537907309726655,-1,-29,-51,-103,3,5,4,14
1537907309726655,51,17,68,47,-26,-5,5,12
1537907309727653,36,19,-17,2,-1,-5,-4,28
1537907309727653,-15,2,21,14,43,12,-3,-14
1537907309739621,-74,-34,-97,-47,-61,-27,-12,-39
1537907309739621,3,6,78,25,19,9,12,6
1537907309747600,-6,-2,26,-95,-17,-6,0,-31
1537907309747600,56,11,-63,-87,-33,-15,-31,4
1537907309762561,-36,7,7,53,-16,0,28,18
1537907309762561,38,-8,18,-19,-12,-7,4,20
1537907309770541,-50,-5,-73,67,34,10,-15,-29
1537907309770541,-10,-2,-27,0,62,25,-4,-4
1537907309785500,-47,-4,23,3,-6,4,15,-32
1537907309785500,-4,-4,-56,-35,50,18,4,-19
1537907309786498,26,9,4,16,-78,-28,-2,13
1537907309786498,-6,10,59,102,-5,-2,12,15
1537907309799462,63,5,-75,-105,35,19,12,47
1537907309799462,-22,3,65,125,-13,-13,-5,2
1537907309807441,39,-13,-90,46,100,34,32,38
1537907309807441,-3,-9,5,-82,-53,-22,-23,-34
1537907309822401,1,-11,79,52,25,-4,-30,-23
1537907309822401,-64,-11,-102,-54,12,10,19,-7
1537907309830381,59,7,38,49,30,8,-17,23
1537907309830381,-31,-1,1,34,16,-4,16,5
1537907309845338,25,-1,54,26,-11,-21,-50,-34
1537907309845338,30,4,52,-57,79,35,29,17
1537907309846336,-122,-21,30,-41,-128,-76,-35,-58
1537907309846336,38,25,13,39,38,23,18,20
1537907309859301,22,-7,-29,76,56,21,10,13
1537907309859301,-15,1,-36,-61,-58,-19,-12,-2
1537907309867279,5,17,65,35,55,30,31,37
1537907309867279,7,-13,17,-6,-5,0,-12,-23
1537907309882239,-13,15,-7,43,-5,-16,-5,-2
1537907309882239,15,-33,-12,-19,-11,5,-11,-2
1537907309890218,-6,35,-7,17,-13,-8,5,-1
1537907309890218,-30,-14,-4,-96,-41,-11,-10,-9
1537907309906175,28,14,9,20,11,7,11,20
1537907309906175,-3,-9,-23,-31,-45,-13,-5,2
1537907309906175,-3,-7,9,-26,-21,-14,-16,-22
1537907309906175,10,5,24,81,20,8,16,16
1537907309920138,1,9,1,0,2,4,-2,-3
1537907309920138,-5,0,-6,-20,-7,-11,-12,-9
1537907309927119,-8,-7,-5,-15,4,4,-6,-12
1537907309927119,11,4,0,-11,13,6,16,15
1537907309942079,11,1,-1,-13,-2,5,8,12
1537907309942079,-13,0,-37,17,-8,-10,-18,-10
1537907309950058,9,-1,21,-23,21,12,5,-2
1537907309950058,-23,-11,0,-21,-16,-7,4,6
1537907309965018,2,2,16,-10,-22,-5,-1,-2
1537907309965018,-1,2,-29,-9,4,-5,-8,-12
1537907309966016,8,-12,1,-3,6,7,7,9
1537907309966016,-14,-8,-10,-14,-6,-2,-4,-7
1537907309979978,-9,-1,1,-19,-15,-4,-4,-6
1537907309979978,11,8,13,4,0,-1,2,4
1537907309986960,0,-7,5,11,4,5,2,3
1537907309986960,-4,4,-11,-7,-12,-4,-2,0
1537907310001921,7,0,5,7,4,1,1,1
1537907310001921,-12,-1,4,5,5,1,0,3
1537907310010896,-4,-3,-1,5,-6,0,-3,-7
1537907310010896,6,2,-2,-9,3,3,6,10
1537907310025857,15,-2,-13,-13,-7,-5,-3,1
1537907310025857,-25,-7,3,-1,-4,-3,-10,-20
1537907310025857,2,5,1,-2,-1,1,0,-1
1537907310025857,-1,1,-4,-6,-2,-1,2,3
1537907310039820,1,0,-2,-1,-1,0,4,8
1537907310039820,4,-1,3,2,-6,-3,-4,-1
1537907310047798,0,-2,5,11,6,1,1,-12
1537907310047798,1,1,-5,-3,2,0,1,15
1537907310061760,-9,-2,-2,-2,-6,-3,-5,-12
1537907310061760,8,2,6,-1,1,-1,0,8
1537907310070736,0,1,-1,-1,3,1,2,-3
1537907310070736,1,-2,-4,-4,-2,-1,0,0
1537907310085696,-6,2,-2,-2,-1,-2,-2,0
1537907310085696,4,0,1,0,-1,-2,1,-5
1537907310085696,1,-1,1,2,0,0,0,4
1537907310085696,-4,-2,-5,-1,-4,-2,-5,-6
1537907310099658,-2,0,1,3,1,0,1,1
1537907310099658,2,1,0,0,0,0,-1,-2
1537907310107637,1,0,0,1,0,0,-3,2
1537907310107637,-3,-2,0,-2,0,-1,-2,-3
1537907310122597,0,2,-2,-1,-2,0,0,-2
1537907310122597,-2,1,4,-6,0,1,0,1
1537907310130576,-1,-1,0,3,3,-1,-2,2
1537907310130576,-3,-1,-5,-8,-3,0,-1,-8
1537907310145536,-1,-1,0,-11,-8,-1,1,0
1537907310145536,1,0,4,9,-7,-8,-3,-3
1537907310146533,-3,-2,0,0,2,2,1,2
1537907310146533,1,0,-1,6,4,0,-1,-1
1537907310159499,0,0,-1,-1,4,1,-1,0
1537907310159499,0,-1,0,-3,1,2,1,0
1537907310167478,-2,-3,0,1,-3,-1,-1,-1
1537907310167478,-2,-1,-2,-4,0,-2,-1,-3
1537907310191414,-2,0,-2,-1,-2,0,1,0
1537907310191414,4,1,0,-2,0,0,-1,-2
1537907310191414,-2,-1,-3,-1,-3,-3,0,0
1537907310191414,-3,-2,0,-1,-2,-2,-1,-3
1537907310205376,1,1,0,-1,-2,-4,0,2
1537907310205376,-2,0,1,6,3,0,-1,0
1537907310206374,3,1,-3,-5,1,-1,1,4
1537907310206374,-1,-1,-3,-10,-9,-2,-1,0
1537907310227318,-1,-3,2,11,4,-1,-1,-4
1537907310227318,3,0,1,23,18,6,3,6
1537907310236294,-7,-4,-4,-16,-15,-9,-7,-7
1537907310236294,1,0,-5,-34,-22,-8,-2,-2
1537907310251254,-2,-2,-3,-8,1,1,-1,-1
1537907310251254,-2,-1,3,-1,-5,-1,0,-2
1537907310258236,2,-1,0,9,13,4,3,4
1537907310258236,0,-2,-1,11,7,1,0,-1
1537907310273195,1,1,0,3,1,0,-1,2
1537907310273195,-7,-4,-4,-12,-4,-4,-4,-8
1537907310275190,5,1,1,7,2,3,1,1
1537907310275190,-8,-2,1,4,1,0,-1,-5
1537907310296133,1,-1,-1,-2,-4,-3,0,-1
1537907310296133,1,0,-2,-1,-1,-1,0,1
1537907310297130,0,-1,-2,-4,-5,0,0,0
1537907310297130,1,3,0,6,3,0,-1,3
1537907310310096,-2,0,-1,-2,0,2,-1,-2
1537907310310096,0,0,-2,-5,-4,-1,-2,0
1537907310325055,1,0,0,-3,-6,-1,-1,-1
1537907310325055,2,-1,0,2,5,2,1,2
1537907310334032,-3,-1,0,4,3,-1,-2,-3
1537907310334032,0,-2,-1,-5,-5,-1,-2,-1
1537907310335029,0,0,-3,0,-1,0,-2,0
1537907310335029,1,-1,2,10,5,0,-1,-1
1537907310355973,-2,-2,-3,-6,-5,-3,-1,-1
1537907310355973,-3,-2,-2,-1,-5,-2,-2,-3
1537907310357968,0,0,0,-3,-3,-2,-2,-1
1537907310357968,0,-1,0,1,4,2,-1,0
1537907310369936,0,-1,0,2,1,-3,-2,-2
1537907310369936,-2,-2,-2,-5,-3,-3,0,1
1537907310376927,3,0,0,1,3,0,-1,-1
1537907310376927,-6,-2,-3,-2,-3,-3,0,-2
1537907310393872,-3,1,2,-1,0,0,-2,-3
1537907310393872,-1,-1,-2,-2,-1,-1,-1,0
1537907310394869,-1,-1,0,-2,-1,-1,1,-1
1537907310394869,3,2,-2,-2,-2,-1,-1,1
1537907310415813,0,-3,1,2,1,0,2,0
1537907310415813,0,0,-1,-1,-3,-2,-2,1
1537907310417808,2,-1,0,13,4,0,-1,0
1537907310417808,-2,0,-1,-11,-5,-2,-1,-1
1537907310430774,-4,0,-6,-11,-7,-1,-1,-3
1537907310430774,6,2,-3,-17,13,7,3,4
1537907310437755,3,2,7,60,10,1,2,1
1537907310437755,-10,-6,1,-18,-10,-5,-5,-8
1537907310453712,2,1,1,9,2,-1,-2,-1
1537907310453712,-4,-4,20,-3,-3,-2,-2,-4
1537907310454710,-8,-4,-49,-36,-7,0,-1,-6
1537907310454710,4,-3,-45,84,51,13,6,4
1537907310475654,15,11,29,-37,-12,-2,7,13
1537907310475654,-8,-5,0,-78,-37,-16,-11,-12
1537907310483633,-13,-8,31,43,12,2,-2,-6
1537907310483633,7,8,-42,-91,25,16,8,6
1537907310489616,8,13,71,70,4,-1,-1,-2
1537907310489616,11,-5,-54,68,-2,-3,5,12
1537907310498593,1,-1,-9,33,6,-1,0,2
1537907310498593,-18,-17,-5,-88,-37,-16,-14,-18
1537907310513552,-2,-6,-29,43,55,19,6,4
1537907310513552,-4,0,57,7,-61,-25,-9,-6
1537907310514550,-1,-13,-44,17,13,0,-1,0
1537907310514550,24,21,-53,-30,-17,3,11,22
1537907310536492,-18,-5,29,52,19,4,-22,-13
1537907310536492,6,-9,-12,-8,33,11,15,8
1537907310537489,-20,0,24,14,5,2,17,-23
1537907310537489,6,3,62,52,-1,-2,-1,-1
1537907310549457,-6,-5,-38,-52,-19,2,9,-8
1537907310549457,-11,5,-26,9,9,4,-25,-1
1537907310558433,22,2,20,-42,-35,-11,41,38
1537907310558433,-44,-11,-12,7,18,-3,-42,-31
1537907310573393,35,-7,-44,-6,-82,-39,-19,-22
1537907310573393,-27,1,84,10,14,9,-11,-8
1537907310575388,44,16,-68,-11,22,14,7,16
1537907310575388,17,-3,18,86,37,9,13,28
1537907310596331,-23,-15,-28,-7,-44,-20,8,-2
1537907310596331,-5,-11,-2,-51,-20,-6,-5,-5
1537907310597329,-12,3,58,45,12,-3,-6,-22
1537907310597329,-8,-2,-25,-4,-30,-9,-14,-8
1537907310609296,-2,5,-1,-26,28,15,2,6
1537907310609296,26,15,-11,39,26,11,22,9
1537907310618272,-15,-3,17,-23,4,0,-13,4
1537907310618272,11,0,8,3,-21,-8,9,2
1537907310633233,-12,0,7,-13,1,-1,-3,-8
1537907310633233,-7,-2,-24,11,0,0,-2,-9
1537907310635229,-2,-1,-18,-33,-13,-6,-19,-1
1537907310635229,3,-2,27,0,0,4,8,-2
1537907310656172,0,-1,-8,-37,-6,-5,8,12
1537907310656172,-2,0,-12,13,18,2,-4,-2
1537907310657170,4,-4,-1,11,27,7,-9,-3
1537907310657170,-3,-2,11,5,-41,-17,3,-1
1537907310670135,-1,0,3,12,23,11,1,7
1537907310670135,-2,-4,-23,-36,-16,-8,-3,-9
1537907310679110,-7,1,11,-12,1,-1,-3,-1
1537907310679110,1,1,14,13,8,6,9,1
1537907310694069,0,3,0,1,19,6,-5,0
1537907310694069,4,0,-4,-20,-4,-1,4,2
1537907310695067,-5,-2,0,-14,-18,-5,-5,-3
1537907310695067,1,0,6,-6,0,0,-3,-2
1537907310716011,-2,-1,-3,-5,-6,-1,-2,-1
1537907310716011,2,-1,-2,8,5,1,5,3
1537907310718006,-3,2,4,-15,-12,-5,-4,-2
1537907310718006,5,-1,-1,-11,-1,-2,-2,-1
1537907310729974,-3,-1,1,1,6,2,0,2
1537907310729974,0,-4,0,12,5,2,3,1
1537907310738950,-5,-2,-6,-16,-9,-5,-7,-4
1537907310738950,0,-2,6,-1,-3,-2,-2,-4
1537907310753910,4,-1,1,4,0,2,3,5
1537907310753910,-5,-2,-4,5,3,0,-3,-6
1537907310754908,-1,-1,-3,-18,-16,-3,-5,-4
1537907310754908,-1,0,4,1,5,0,0,-1
1537907310775853,0,-1,-2,-3,0,-3,-1,1
1537907310775853,6,1,-3,4,3,0,0,5
1537907310777847,-1,-1,1,-8,-3,0,-1,-1
1537907310777847,1,0,2,1,0,1,2,0
1537907310789815,-2,-1,-3,0,1,0,-2,-1
1537907310789815,2,1,-2,5,0,0,2,5
1537907310798792,-4,-1,2,-4,-6,-2,-4,-9
1537907310798792,1,1,0,-5,0,2,1,1
1537907310813750,-2,-1,-3,-3,1,-3,0,-2
1537907310813750,0,1,0,8,2,0,0,-3
1537907310814747,0,-1,-3,-8,-6,-4,0,3
1537907310814747,-1,0,-2,-3,0,0,-2,-1
1537907310835691,-1,2,2,0,1,3,0,-1
1537907310835691,1,1,-1,2,2,0,2,2
1537907310837686,-1,-1,-4,-7,-1,0,-2,3
1537907310837686,-3,-1,1,5,-3,-3,-3,-2
1537907310849654,-1,-3,0,0,-2,-1,0,1
1537907310849654,-2,1,-2,-2,0,-1,0,0
1537907310858630,0,0,0,-4,-2,0,-1,1
1537907310858630,-4,-1,1,0,0,-1,-1,-4
1537907310873590,-2,0,-1,2,1,-1,0,-1
1537907310873590,1,-1,-1,-1,-1,1,0,-2
1537907310874588,-3,-2,-1,0,1,0,-1,-4
1537907310874588,0,-2,-2,-6,-4,-3,-2,0
1537907310896529,3,1,0,1,2,0,0,2
1537907310896529,-1,0,0,1,-2,0,0,0
1537907310897526,-1,1,-2,-6,-5,-1,0,-2
1537907310897526,-5,-2,0,3,4,1,1,-1
1537907310909494,0,-1,0,2,0,-1,-1,0
1537907310909494,0,0,-2,-10,-7,-2,-3,-1
1537907310918470,3,-1,-1,7,-2,-4,0,4
1537907310918470,-3,-2,0,-9,-3,-2,-2,-3
1537907310933430,-2,-2,-3,-5,-4,0,1,-2
1537907310933430,-1,-2,1,5,3,0,1,-1
1537907310935425,0,0,0,0,0,-2,0,0
1537907310935425,2,0,0,-1,0,-2,-1,1
1537907310956369,1,0,1,0,0,0,-2,-1
1537907310956369,-1,0,-2,0,-1,-2,-1,-2
1537907310957366,-1,-2,-1,-6,-2,0,0,0
1537907310957366,-1,-1,1,11,2,-1,-1,-2
1537907310969335,-3,1,-1,-5,-5,-2,-2,-1
1537907310969335,0,0,0,4,1,-1,-2,-2
1537907310978310,1,0,-1,-6,-4,-3,-2,0
1537907310978310,0,-2,-1,-2,0,1,-1,0
1537907310993270,-3,-3,-1,0,-1,-1,-1,-3
1537907310993270,-1,-1,-2,-3,-1,-1,0,0
1537907311001250,-2,-2,-1,-1,1,1,-1,-2
1537907311001250,1,-1,-2,3,4,-1,2,0
1537907311007234,1,-1,0,1,-6,0,-1,0
1537907311007234,-4,-4,-1,-1,-1,0,-2,-4
1537907311016209,-2,0,0,-6,-7,-2,-2,-3
1537907311016209,3,0,1,-1,-2,1,0,0
1537907311022193,-1,-1,-1,0,4,-3,0,1
1537907311022193,-7,-2,-1,-1,0,-2,-1,-3
1537907311031169,-2,-4,-1,-1,-1,-3,-3,-3
1537907311031169,-3,-3,0,-2,-1,0,-1,-1
1537907311045132,1,-1,-1,-1,-1,-1,-1,-1
1537907311045132,2,0,-2,-2,-3,-2,-2,1
1537907311054108,0,0,0,3,2,0,1,1
1537907311054108,0,-1,1,-1,-3,-1,2,0
1537907311067073,0,-2,-2,-1,0,-2,-2,0
1537907311067073,-1,-2,-1,-1,-2,-3,-2,-2
1537907311084028,4,1,-2,1,-1,2,1,1
1537907311084028,-8,-2,-1,1,1,1,0,-5
1537907311085026,-1,-1,-2,-4,-3,-1,0,0
1537907311085026,3,-1,-5,-3,0,-2,0,2
1537907311096993,2,-3,0,10,6,2,2,3
1537907311096993,-5,-1,-10,-11,-5,-3,-6,-9
1537907311104971,-3,3,33,-26,-3,1,0,-3
1537907311104971,4,6,0,38,24,9,5,3
1537907311113947,-8,-1,19,0,-24,-12,-4,-5
1537907311113947,4,-5,-95,-45,20,4,1,2
1537907311126912,-7,-6,-4,-24,-46,-18,-8,-6
1537907311126912,13,-6,72,-17,4,5,2,10
1537907311135888,-17,3,45,69,25,7,2,-9
1537907311135888,36,2,-52,-65,-7,-4,-1,24
1537907311141872,-46,-19,-97,60,7,6,12,2
1537907311141872,-39,7,98,-75,-66,-31,-27,-52
1537907311150848,-2,13,-68,22,20,13,-10,-25
1537907311150848,31,2,33,20,21,10,20,56
1537907311164811,49,21,-125,-61,44,17,13,-5
1537907311164811,-40,-48,-1,4,-16,-25,-71,-22
1537907311173787,1,-7,28,-40,-79,-23,29,-30
1537907311173787,-19,8,117,53,3,-1,-27,-22
1537907311186752,17,-1,-14,24,49,26,14,40
1537907311186752,15,9,-128,-19,25,22,41,17
1537907311195728,30,2,-24,-20,-18,-13,-28,21
1537907311195728,-3,-3,76,21,-2,-1,5,-19
1537907311201712,-19,-6,-8,55,-32,-21,-8,-4
1537907311201712,13,8,3,56,57,22,24,10
1537907311218667,28,7,53,24,18,6,27,34
1537907311218667,-31,-10,26,4,-37,-25,-48,-53
1537907311224651,-13,-2,63,-77,-4,-7,-28,-41
1537907311224651,4,8,34,-25,32,17,20,22
1537907311233627,14,5,-48,58,-22,-6,4,33
1537907311233627,-42,-19,-6,29,6,5,40,7
1537907311247590,58,15,-5,13,0,-5,21,27
1537907311247590,-2,-16,-27,4,-30,-16,-43,-33
1537907311256566,-32,-17,-48,-94,12,3,-25,-19
1537907311256566,7,25,39,16,1,8,10,5
1537907311262550,-13,-4,78,-10,-21,-1,5,4
1537907311262550,38,19,-9,4,-14,-3,21,37
1537907311271526,-14,-10,18,5,30,4,-10,-25
1537907311271526,1,-2,-89,-16,-16,-3,4,3
1537907311284493,-3,-3,45,9,0,4,5,2
1537907311284493,10,8,-39,20,7,5,10,12
1537907311293467,-13,-13,6,-31,-6,-9,-26,-28
1537907311293467,17,6,-8,20,3,2,7,3
1537907311307430,-5,-6,15,-19,-6,-6,-8,-4
1537907311307430,-49,-9,40,21,-18,-4,-5,-17
1537907311316406,35,13,-51,24,19,4,3,13
1537907311316406,20,16,31,8,0,0,3,9
1537907311322390,-12,5,20,50,11,1,-17,-14
1537907311322390,-11,-9,-23,-13,-1,1,8,6
1537907311331366,10,-1,-9,-73,18,11,23,32
1537907311331366,-30,-17,22,28,-34,-20,-28,-33
1537907311344331,-19,-5,-4,6,0,-1,-11,-11
1537907311344331,21,10,-4,11,8,3,10,6
1537907311353307,-3,5,40,0,9,8,12,9
1537907311353307,11,-3,-34,-17,6,-6,-15,0
1537907311367270,-17,-11,-19,-4,0,0,-5,-11
1537907311367270,1,-4,-18,-6,-8,-3,1,-6
1537907311376246,-8,3,0,15,-3,-6,-8,-4
1537907311376246,-5,-5,-20,-11,6,5,6,4
1537907311408160,5,-2,-13,6,0,0,6,4
1537907311408160,9,4,10,-7,-6,-7,-8,2
1537907311409158,-12,-3,9,11,-3,0,1,-4
1537907311409158,-9,-10,-27,-11,4,3,5,-1
1537907311413147,5,3,16,-14,-8,-5,-6,0
1537907311413147,3,0,-6,4,0,-1,1,-1
1537907311415142,-10,-7,-6,0,-6,-1,-3,-5
1537907311415142,1,-1,-7,-11,5,2,4,4
1537907311427110,8,2,1,4,5,0,-3,3
1537907311427110,-5,1,-6,-1,-5,-2,1,-1
1537907311436086,-16,-5,-6,7,-1,-2,-1,-4
1537907311436086,5,0,2,-7,1,0,-4,-1
1537907311451046,8,3,5,2,0,-2,3,6
1537907311451046,-9,-6,-12,-1,-3,-3,-3,-7
1537907311453040,0,-2,9,-1,0,-2,0,-1
1537907311453040,-1,0,-6,-4,0,1,-2,-2
1537907311465008,-3,-1,-6,0,-1,-1,1,1
1537907311465008,6,0,-4,-2,-2,0,3,4
1537907311473984,-5,-1,0,3,-2,0,-3,-3
1537907311473984,3,1,-5,-2,1,-1,1,2
1537907311486950,6,0,-1,1,0,-1,3,2
1537907311486950,-11,-6,2,-3,-4,-3,-9,-8
1537907311495926,-7,-2,2,4,1,-1,-2,-7
1537907311495926,4,4,-6,-5,-1,-1,3,3
1537907311510886,-2,-3,2,-2,-4,-1,-3,-2
1537907311510886,2,-2,-2,1,3,-1,1,0
1537907311512881,6,-1,-4,-3,-3,0,3,8
1537907311512881,-6,-2,-4,-1,2,1,-2,-8
1537907311524848,-12,-7,-2,5,2,-2,-2,-1
1537907311524848,4,6,1,-5,-4,-3,-4,-11
1537907311533825,-4,-1,-5,-3,2,0,-2,-3
1537907311533825,-3,-5,-6,-14,-7,-5,-1,3
1537907311547787,-2,-2,0,0,-8,-3,-3,-3
1537907311547787,0,-1,-3,6,1,2,1,5
1537907311554769,6,1,3,0,0,1,2,3
1537907311554769,0,-2,-1,3,6,2,-1,-2
1537907311570726,-1,-2,-2,-2,-1,-2,-2,-3
1537907311570726,2,-1,-1,-3,-2,1,2,2
1537907311572721,-2,2,-1,1,-1,-1,-2,-5
1537907311572721,-2,0,0,1,1,2,1,0
1537907311593664,-3,0,-1,0,2,1,-2,-4
1537907311593664,2,-1,-1,-1,1,0,-2,-1
1537907311594662,0,-1,-2,0,0,-1,0,-1
1537907311594662,-10,-5,-2,5,-1,-3,-2,-4
1537907311607627,2,0,0,-8,-4,1,-1,0
1537907311607627,3,0,-1,0,2,0,1,6
1537907311614609,-11,-4,-4,-2,-6,-4,-5,-11
1537907311614609,4,-1,-1,0,-2,0,0,2
1537907311631563,-3,-2,-1,2,1,-1,-1,-3
1537907311631563,-1,-4,-2,-3,-2,0,0,1
1537907311632561,8,0,0,1,-1,-1,3,8
1537907311632561,-9,-3,-1,0,0,-3,-4,-7
1537907311644528,-6,-3,-1,-3,-1,-1,-1,-2
1537907311644528,-1,0,-1,-1,-1,-1,-1,-3
1537907311653504,-1,0,0,-4,-3,-2,-1,2
1537907311653504,4,2,-1,2,-1,1,2,1
1537907311667467,2,0,-2,-2,-2,-1,0,1
1537907311667467,-3,-1,-2,-1,0,-2,1,0
1537907311674449,-1,-1,0,-2,-1,2,3,0
1537907311674449,1,-1,0,-1,4,2,4,5
1537907311691404,-1,2,2,1,3,2,-1,-4
1537907311691404,3,2,1,3,2,1,0,-3
1537907311692401,-3,1,0,1,0,0,-3,-2
1537907311692401,5,2,1,-5,-2,-3,1,3
1537907311704368,1,0,1,2,1,-1,-1,1
1537907311704368,-3,-1,-1,-3,-3,-3,-1,-5
1537907311713345,-1,0,0,4,2,3,0,-2
1537907311713345,2,1,0,7,2,0,-2,1
1537907311728304,-4,1,0,5,3,0,1,-1
1537907311728304,0,-3,-5,-20,-9,-2,1,3
1537907311734289,-3,-2,0,2,-4,-2,-4,-6
1537907311734289,1,1,1,-5,-3,-1,-3,0
1537907311751243,1,-1,0,5,2,0,-2,1
1537907311751243,1,1,1,6,4,2,0,3
1537907311752241,-5,-3,8,12,5,1,-1,-2
1537907311752241,-1,-7,-22,-15,3,2,-1,0
1537907311765206,-4,4,-7,-8,-17,-10,-4,-4
1537907311765206,-3,2,12,6,-1,-3,-2,0
1537907311773184,5,6,44,0,4,3,1,5
1537907311773184,-2,-29,-27,46,41,17,5,1
1537907311788144,-9,-16,0,-74,-53,-24,-6,-8
1537907311788144,6,22,34,56,6,1,-2,0
1537907311795126,13,9,-88,-72,-45,-13,-2,4
1537907311795126,-1,20,27,2,19,11,3,3
1537907311811083,10,-19,-20,2,25,16,11,19
1537907311811083,-1,-20,-39,40,27,3,3,1
1537907311812080,-22,-28,-5,-90,-100,-47,-26,-28
1537907311812080,-8,16,35,-63,-39,-12,-5,-5
1537907311825046,-2,13,-96,73,63,22,29,18
1537907311825046,11,60,75,52,13,11,-11,-5
1537907311834022,12,-41,40,-24,22,2,-9,-9
1537907311834022,-2,-32,-84,4,-4,-1,0,12
1537907311847985,-14,-6,127,-71,-33,-16,-58,1
1537907311847985,-21,-12,-119,28,17,8,59,-25
1537907311854966,34,38,16,-13,51,34,67,53
1537907311854966,27,-5,-31,98,73,27,12,22
1537907311870924,-50,-21,-20,-79,-71,-74,-85,-83
1537907311870924,33,6,73,67,61,26,36,62
1537907311872918,-7,26,-42,-73,45,20,-6,-36
1537907311872918,-55,4,91,-52,-80,-63,-53,-47
1537907311891868,83,15,21,103,96,55,97,101
1537907311891868,-8,-19,-51,-48,-30,-15,-48,-51
1537907311900845,-31,-35,3,-9,-4,0,-8,-9
1537907311900845,36,35,-15,67,48,35,60,72
1537907311915805,-32,8,16,-86,-84,-30,-63,-71
1537907311915805,48,-29,5,-40,11,-1,-20,29
1537907311921788,-20,-4,-4,45,-13,3,15,-3
1537907311921788,-74,-1,-43,-18,-24,-7,7,-41
1537907311938742,0,-7,23,15,14,-2,-52,-19
1537907311938742,15,-11,-43,29,14,14,12,27
1537907311940737,12,37,-28,-33,-19,-9,15,17
1537907311940737,-8,-18,31,2,-46,-25,-30,-32
1537907311951708,12,9,-55,56,30,30,61,26
1537907311951708,6,2,13,-42,-8,-10,-9,21
1537907311960684,-14,4,-7,15,-15,-10,-1,-4
1537907311960684,14,-11,35,-6,4,-4,-25,-31
1537907311975644,21,6,8,12,13,12,19,12
1537907311975644,-37,7,17,-38,-33,-15,-16,-26
1537907311982625,9,-11,20,90,27,7,23,28
1537907311982625,26,6,-10,10,33,22,26,27
1537907311998583,-28,-12,-40,-9,-22,-18,-35,-37
1537907311998583,-10,-5,8,-36,-28,-14,-4,-9
1537907311999580,12,-2,17,30,18,7,-6,9
1537907311999580,5,2,-3,-29,4,4,-1,-4
1537907312012546,-10,4,-8,3,7,4,13,0
1537907312012546,-2,3,13,-13,-10,2,13,14
1537907312021524,-13,-5,0,80,25,-3,-34,-31
1537907312021524,-5,-13,-26,-34,-25,-12,-11,-7
1537907312035485,3,7,12,22,5,8,27,15
1537907312035485,-17,-6,-7,-32,-16,-6,-7,-11
1537907312042467,5,1,-2,28,11,2,-11,3
1537907312042467,11,2,7,-9,-5,-4,2,7
1537907312058424,-1,0,0,-10,0,1,11,4
1537907312058424,0,0,2,7,3,2,-2,-2
1537907312060418,-4,-2,-3,-7,-4,-6,-13,-5
1537907312060418,0,2,7,0,-2,0,4,1
1537907312081362,6,1,-3,8,10,8,8,6
1537907312081362,-11,-2,-12,-8,-9,-5,-9,-11
1537907312087346,-1,-4,5,12,-3,-2,-1,3
1537907312087346,1,-2,-3,-11,-2,-2,-3,1
1537907312095325,3,5,-4,6,1,-2,5,4
1537907312095325,-8,-4,1,-8,-7,-3,-2,-6
1537907312102307,1,-1,2,-3,-2,-3,-3,-2
1537907312102307,9,1,0,3,2,1,1,6
1537907312126241,-3,-4,-3,-1,1,0,1,-2
1537907312126241,-6,-3,1,-3,-3,-2,-1,-5
1537907312127239,3,-2,-2,3,1,-1,-3,3
1537907312127239,2,3,-5,-1,0,-1,-3,1
1537907312141201,-2,1,2,2,-4,0,5,2
1537907312141201,-5,-3,-1,-2,1,-1,-2,-7
1537907312142199,0,-1,-4,-1,-3,0,-3,1
1537907312142199,0,3,3,-1,2,1,0,1
1537907312155164,-1,0,1,16,4,0,2,0
1537907312155164,-2,-1,-3,-25,-5,-2,-6,-4
1537907312162145,-4,-2,0,13,-5,-4,-3,-1
1537907312162145,-2,3,0,-4,-4,-1,1,-5
1537907312178102,-5,-1,1,3,4,3,2,1
1537907312178102,1,0,-3,0,-3,-1,1,-1
1537907312180097,1,0,1,0,1,-1,0,-1
1537907312180097,3,-1,-1,-6,-5,-2,1,3
1537907312201041,2,0,-2,1,1,-1,-2,-2
1537907312201041,-4,0,-3,3,-2,-1,-1,-2
1537907312202038,0,1,3,-7,-3,-1,-2,0
1537907312202038,0,-1,0,7,2,2,0,-1
1537907312216001,0,1,-2,-8,-2,-2,-3,-1
1537907312216001,-3,-2,-2,-1,-1,0,0,1
1537907312217995,-1,-1,1,2,1,0,-1,0
1537907312217995,1,0,-4,-4,-2,-3,-1,-1
1537907312238940,-1,0,0,0,1,1,1,0
1537907312238940,0,1,1,2,2,1,-1,-1
1537907312239938,1,0,-3,-2,-3,-2,-1,1
1537907312239938,-4,-3,1,0,1,-1,-3,1
1537907312260882,0,0,-2,-5,-4,-3,-3,-2
1537907312260882,-2,-1,2,8,5,0,-1,1
1537907312262878,-1,-2,0,-1,-1,1,-1,-3
1537907312262878,-2,-1,-1,-4,-2,-1,-1,-1
1537907312274846,-2,-2,-2,0,1,0,3,0
1537907312274846,0,-1,-2,-3,-3,-1,-1,0
1537907312283822,-2,-2,-2,-1,1,-1,-1,-3
1537907312283822,2,-2,0,1,1,0,1,1
1537907312298781,-3,0,0,0,-2,2,-1,-1
1537907312298781,-2,2,-1,0,-2,0,0,0
1537907312299779,-1,0,-2,-1,-1,-1,1,1
1537907312299779,2,1,-2,-3,-4,-2,0,0
1537907312320722,2,-1,-2,-2,0,-2,0,-1
1537907312320722,0,-1,9,-2,-1,-1,-1,-1
1537907312327703,-4,-2,-5,0,-1,-1,-1,-3
1537907312327703,-1,-1,-2,0,1,2,0,0
1537907312334685,3,2,0,-4,-4,0,0,1
1537907312334685,3,0,-15,7,5,2,2,3
1537907312343660,-3,0,33,1,1,-3,-4,-3
1537907312343660,-3,-2,-3,-10,-13,-5,-3,-1
1537907312358620,-4,-3,-25,-3,23,8,0,-2
1537907312358620,8,1,-15,31,13,4,5,7
1537907312359617,9,2,29,-75,-54,-15,2,13
1537907312359617,10,8,10,35,30,10,4,-1
1537907312381559,-20,-7,-42,-22,-11,-8,-12,-22
1537907312381559,11,11,-43,72,2,2,9,14
1537907312382556,-19,-37,62,-36,12,3,-2,-6
1537907312382556,56,50,-74,-6,-36,-14,5,23
1537907312394524,9,-11,44,4,-9,5,-17,21
1537907312394524,-93,13,16,20,-34,-21,0,-64
1537907312403500,-8,-12,-9,121,107,38,-10,-31
1537907312403500,14,-4,-39,37,-87,-37,30,19
1537907312426438,-5,20,53,7,62,22,17,24
1537907312426438,57,38,-108,-115,-99,-37,-73,-22
1537907312427436,-28,-20,65,-85,-32,-4,12,16
1537907312427436,-5,-33,42,28,56,27,26,4
1537907312441398,69,41,22,83,38,11,12,20
1537907312441398,-16,-15,62,22,55,14,6,-2
1537907312442396,14,8,-103,-3,-4,-5,-20,-6
1537907312442396,-33,11,-15,-32,5,3,7,-21
1537907312454364,3,-27,41,-71,-100,-36,1,-4
1537907312454364,15,-3,67,0,66,19,1,-6
1537907312463340,4,4,-38,-38,-12,-10,-28,-8
1537907312463340,-27,-17,1,80,25,3,23,13
1537907312478300,-3,-16,-38,-33,-57,-2,23,-34
1537907312478300,-25,-52,22,-54,-50,-12,-26,-23
1537907312480294,16,-14,-75,28,24,7,41,36
1537907312480294,-2,-1,59,-6,21,13,-13,-8
1537907312501238,-46,-14,-32,16,27,-11,-54,-26
1537907312501238,29,14,-8,7,0,5,47,42
1537907312502236,10,23,22,25,-8,2,15,17
1537907312502236,-8,-6,-20,-53,-3,-6,-50,-27
1537907312515201,-2,9,1,30,9,5,10,7
1537907312515201,1,-5,3,-1,15,12,30,46
1537907312523180,-12,15,6,12,-24,-21,-41,-46
1537907312523180,-24,-11,8,-5,3,-3,-29,-28
1537907312538140,-1,11,-5,-17,-2,0,-1,-3
1537907312538140,1,-9,5,8,4,2,19,5
1537907312540135,17,1,-5,25,13,13,30,29
1537907312540135,12,3,11,-24,-16,-8,-13,-2
1537907312561078,-13,-18,-13,-5,-5,-7,-3,-12
1537907312561078,2,-1,-3,3,13,7,5,15
1537907312562076,1,7,4,16,-14,-9,-8,-8
1537907312562076,-10,-8,0,-16,-2,-2,-13,-8
1537907312575041,0,-1,-3,6,12,7,16,13
1537907312575041,1,-8,-4,5,2,-1,-5,-3
1537907312584017,-5,13,5,-7,-8,-2,-9,-11
1537907312584017,0,-3,5,-2,1,1,6,6
1537907312598977,-1,-7,-6,29,19,5,7,7
1537907312598977,0,5,-1,-39,-19,-11,-15,-10
1537907312599975,-10,-5,-6,6,-8,-5,-2,-10
1537907312599975,5,5,-3,-10,0,3,8,12
1537907312620918,1,0,1,4,1,-2,-4,-1
1537907312620918,-6,-4,-3,0,-5,-6,-11,-10
1537907312622913,0,3,-1,1,6,4,9,8
1537907312622913,5,1,5,4,2,1,2,4
1537907312634881,-2,4,6,-4,-2,-3,-5,-2
1537907312634881,-3,-4,-10,4,0,1,0,-3
1537907312643857,-1,-1,-3,2,0,1,5,3
1537907312643857,5,5,-1,-5,-1,-1,-3,0
1537907312658817,3,1,1,1,-1,0,-1,-1
1537907312658817,-4,2,4,6,6,2,1,2
1537907312659815,2,3,3,-6,-2,-1,-1,-1
1537907312659815,-4,1,6,8,12,4,-2,-2
1537907312680759,0,2,-13,-21,-3,1,3,2
1537907312680759,-2,2,-9,13,-19,-6,-5,-4
1537907312682755,-3,1,13,-3,-3,-1,-3,-5
1537907312682755,1,2,-10,-6,-1,-3,1,2
1537907312703698,0,3,11,-2,2,1,0,2
1537907312703698,-1,-1,-9,-1,0,-3,-5,-3
1537907312704696,-6,-4,-8,2,1,-1,0,-3
1537907312704696,1,-5,5,0,1,2,1,3
1537907312718659,-2,-7,-2,5,1,-1,0,-2
1537907312718659,-2,-1,20,-2,-3,-1,-1,-3
1537907312719657,1,0,-20,2,0,-1,1,2
1537907312719657,-3,0,8,-12,-4,-2,0,-2
1537907312740599,0,5,-15,1,-5,-1,-3,1
1537907312740599,2,2,29,12,8,4,2,2
1537907312742594,-2,-2,-27,-6,-2,-2,-2,-2
1537907312742594,3,-6,-24,-4,3,0,2,0
1537907312754561,-11,-6,-1,3,-5,-4,-3,-5
1537907312754561,5,0,0,-2,-2,-1,0,1
1537907312763537,1,6,20,8,3,0,1,-1
1537907312763537,-1,2,2,-2,1,1,-1,-1
1537907312785479,6,-1,-3,-9,-9,-5,-3,0
1537907312785479,-7,-9,-3,2,7,2,1,-1
1537907312793457,-1,-9,-2,2,1,0,-2,-3
1537907312793457,-1,-3,7,-3,-4,-2,-2,0
1537907312801436,5,0,-2,-1,-4,-2,1,1
1537907312801436,-1,-3,-5,2,4,2,-2,-2
1537907312802434,2,0,10,-3,-4,-5,-2,1
1537907312802434,-1,-2,-20,-4,-1,0,-1,-1
1537907312823378,-1,1,21,3,2,-1,0,-2
1537907312823378,1,3,-1,0,1,0,-1,-1
1537907312825373,-1,1,3,-2,-2,0,2,1
1537907312825373,0,-1,-6,3,2,0,0,-1
1537907312838339,-3,-4,1,-13,-5,-5,-4,-1
1537907312838339,-1,-6,-22,0,0,2,-1,-2
1537907312840334,2,-3,9,2,-1,0,0,2
1537907312840334,0,-2,5,3,-5,-2,-1,-2
1537907312861277,-5,-3,-3,5,5,3,0,-1
1537907312861277,-2,-1,3,-7,-6,-7,-3,-1
1537907312862274,-1,-3,2,0,1,3,-1,-2
1537907312862274,-4,1,4,-2,-7,-4,-2,-1
1537907312875240,3,2,0,3,1,1,-1,0
1537907312875240,0,-2,-6,-3,0,0,-2,-1
1537907312884216,0,-3,-11,1,-1,-3,0,0
1537907312884216,1,-3,5,-4,-4,-1,-1,0
1537907312898177,-3,-1,-5,3,2,2,-1,-1
1537907312898177,-1,-2,25,-3,0,0,0,-2
1537907312905159,2,-6,-29,1,-5,-4,-1,0
1537907312905159,-1,-5,-34,-13,-4,0,-1,0
1537907312921116,-2,0,18,0,-2,-2,-2,-3
1537907312921116,6,9,8,13,6,3,3,2
1537907312922113,0,1,21,-2,-2,-1,-1,-1
1537907312922113,-7,-1,13,3,4,-1,-2,-4
1537907312944055,6,-4,-20,-11,-6,-4,-1,3
1537907312944055,-1,-19,-3,-12,-4,-2,-2,-1
1537907312945052,-3,-11,-33,-2,0,0,-1,-4
1537907312945052,1,-3,33,3,-1,-2,1,0
1537907312958017,-6,-3,5,3,0,-1,1,0
1537907312958017,-1,-5,-4,-3,-2,-2,-1,-2
1537907312964999,16,6,8,-4,-3,0,4,12
1537907312964999,-3,1,20,1,-2,0,2,0
1537907312981954,14,7,-32,-4,1,0,3,9
1537907312981954,-27,-8,24,0,3,0,-4,-13
1537907312982951,-21,-9,-38,2,2,-4,-7,-14
1537907312982951,8,2,41,-30,22,10,8,19
1537907312994919,12,-5,-16,7,-55,-33,-46,8
1537907312994919,4,18,6,65,22,13,31,-18
1537907313003895,28,-13,30,-63,-2,2,7,18
1537907313003895,-71,-15,-90,-22,-32,-14,-2,-29
1537907313017858,35,6,-30,-32,-5,-2,-13,-26
1537907313017858,19,11,-58,-18,15,8,18,45
1537907313025836,-105,1,48,102,-8,-34,-97,-112
1537907313025836,37,67,88,-14,13,27,71,72
1537907313040797,51,-42,-88,-23,-25,-22,-48,27
1537907313040797,39,45,66,50,28,24,79,51
1537907313042793,-31,-41,-89,-87,-56,-9,-22,-58
1537907313042793,14,30,94,29,-7,-11,-35,26
1537907313063736,-5,65,41,-16,-26,9,63,15
1537907313063736,-49,-64,-18,-23,17,-10,-50,-67
1537907313064734,48,26,14,98,76,20,46,105
1537907313064734,-83,-109,-86,-101,-68,-41,-122,-42
1537907313077699,36,7,38,-12,7,0,39,-81
1537907313077699,9,58,7,40,17,11,16,3
1537907313084680,44,12,26,-82,-6,16,42,28
1537907313084680,34,1,-83,-10,22,-3,-17,40
1537907313100639,-10,-26,5,69,73,40,116,127
1537907313100639,-31,17,11,-6,-78,-53,-128,-117
1537907313102633,14,11,-14,-3,-13,-7,16,-31
1537907313102633,18,-35,-5,59,7,0,48,9
1537907313123575,-16,29,10,-46,10,20,20,-3
1537907313123575,65,17,23,20,51,24,69,108
1537907313124573,-70,-45,19,45,-29,-23,-90,-66
1537907313124573,49,15,-10,-18,-14,3,9,-43
1537907313137538,-60,12,-2,-13,-25,-19,-66,-58
1537907313137538,0,-39,-84,-37,1,-1,-21,17
1537907313146514,26,37,24,38,35,22,63,50
1537907313146514,-4,-18,5,-12,-7,-11,33,2
1537907313161474,-8,-2,16,51,38,15,-66,-22
1537907313161474,-26,-12,-7,-14,-10,12,-11,-17
1537907313162471,8,-5,-12,-57,-24,-11,-35,-8
1537907313162471,-22,18,-3,25,5,1,22,-38
1537907313183415,3,-2,19,3,8,1,26,22
1537907313183415,-3,-7,0,-12,-17,-7,31,17
1537907313185410,3,-3,3,2,11,16,8,4
1537907313185410,20,14,7,40,22,8,7,3
1537907313197378,-24,-22,-3,6,0,-8,-30,-19
1537907313197378,-21,-25,-11,-38,-31,-16,-23,-28
1537907313206354,19,14,-1,-8,7,7,30,32
1537907313206354,1,3,4,21,15,7,-12,5
1537907313221313,-15,-12,-3,-7,-11,-10,-11,-20
1537907313221313,4,2,-5,-12,-5,-1,3,-1
1537907313222311,11,6,9,8,7,3,18,25
1537907313222311,-5,3,2,9,-3,-1,-15,-18
1537907313243255,-14,-13,-3,-5,2,0,-1,-13
1537907313243255,12,-2,6,-9,0,0,10,15
1537907313245250,-3,-1,-1,5,-1,-2,-6,-3
1537907313245250,-6,-4,-3,-3,2,9,-13,-11
1537907313257218,4,-3,1,-1,3,-4,12,24
1537907313257218,-8,-9,-3,-3,-8,-4,-8,-24
1537907313266194,3,-1,-2,-3,1,11,4,25
1537907313266194,0,4,-3,-1,-6,-32,-11,0
1537907313281154,2,-5,4,3,0,-1,4,9
1537907313281154,2,-6,0,1,-6,0,-4,27
1537907313282152,-4,-6,-2,-4,1,-5,-1,-37
1537907313282152,-1,-2,1,3,8,18,7,-6
1537907313303097,-4,-6,1,5,1,-1,-8,-3
1537907313303097,-1,-6,-3,-8,-4,-6,0,0
1537907313304093,0,5,0,-2,2,4,8,5
1537907313304093,0,8,1,3,2,3,1,8
1537907313326036,-5,4,-2,-2,-3,-5,-5,-18
1537907313326036,-1,8,7,0,1,2,2,1
1537907313327033,0,6,14,1,-2,-5,3,7
1537907313327033,-1,0,-18,-5,-1,-3,-1,-9
1537907313339999,-3,-7,-47,-8,0,0,0,-2
1537907313339999,4,2,4,3,5,1,0,-2
1537907313340996,-1,-4,5,-3,-9,-9,-3,4
1537907313340996,-3,-5,7,-1,4,-1,-1,-4
1537907313362935,7,-2,14,7,-1,3,2,2
1537907313362935,-9,-2,9,-6,-1,-3,-5,-4
1537907313363933,4,-1,-29,2,4,-2,1,-1
1537907313363933,-1,0,2,2,1,5,3,1
1537907313385874,0,-4,7,-12,-4,-2,-3,-2
1537907313385874,0,-2,1,5,-4,-5,-3,-8
1537907313386871,-4,0,12,-1,1,0,4,1
1537907313386871,2,2,5,-3,-1,1,0,-1
1537907313400833,-2,-1,7,5,0,-1,-2,-5
1537907313400833,-2,-1,0,-2,-7,-3,-5,-1
1537907313400833,-1,-4,-8,1,2,1,1,-1
1537907313400833,2,-1,-2,-10,-1,-1,-1,0
1537907313422775,-3,2,9,2,0,1,-1,-3
1537907313422775,0,2,-18,-2,3,0,1,1
1537907313423772,2,2,-3,-1,2,-1,-2,-1
1537907313423772,1,2,2,2,-2,-1,1,-1
1537907313445714,-5,-1,6,-1,1,2,0,-3
1537907313445714,0,-1,6,-3,0,-1,1,0
1537907313446711,-3,1,-12,-3,-5,-4,-3,-2
1537907313446711,3,3,6,4,1,2,1,1
1537907313460674,1,0,-3,0,-1,-1,-1,-1
1537907313460674,-10,-8,-9,1,0,0,-5,-8
1537907313460674,1,0,9,-3,-5,-2,-2,-2
1537907313460674,-1,-4,-24,-2,0,2,-1,-1
1537907313482615,2,-1,11,1,3,0,0,1
1537907313482615,3,4,8,-5,-2,-1,1,0
1537907313483612,1,1,-14,4,-2,-2,1,3
1537907313483612,-6,-8,-11,-5,-3,-1,-2,-5
1537907313497575,0,2,-9,-3,-2,0,-2,-1
1537907313497575,3,5,33,3,2,0,1,3
1537907313505554,-1,-2,-22,-2,0,0,1,0
1537907313505554,18,2,-5,3,0,1,4,18
1537907313520514,-6,-5,-16,-2,10,2,4,1
1537907313520514,12,-6,9,20,-5,-5,-3,-3
1537907313521511,-26,1,42,10,-15,-6,-8,-20
1537907313521511,8,-11,-72,8,26,9,22,19
1537907313542455,16,34,37,-11,-22,-4,-9,9
1537907313542455,9,-14,-28,-33,7,5,-7,3
1537907313543452,36,12,55,10,7,-1,5,36
1537907313543452,-46,-29,51,58,0,-1,17,-39
1537907313557415,-25,-31,-57,-8,1,2,36,-4
1537907313557415,-16,-13,81,66,50,26,10,21
1537907313572375,17,27,-121,-56,-38,-26,-63,-80
1537907313572375,-11,23,117,-31,-3,6,-14,91
1537907313580354,89,18,-76,103,97,31,13,-50
1537907313580354,0,11,-27,-34,-78,-42,-48,23
1537907313581351,-83,-60,-73,43,1,3,82,-54
1537907313581351,-17,-90,-14,-22,-10,-12,-15,-24
1537907313603293,-6,65,83,-78,-52,-18,-1,-13
1537907313603293,39,1,-45,56,81,17,102,103
1537907313603293,18,45,99,-51,-36,-6,-99,-64
1537907313603293,-37,23,-61,40,-14,-15,-100,-115
1537907313617255,-31,-106,12,34,24,-1,-14,-44
1537907313617255,9,10,-38,-113,-74,-6,49,16
1537907313625234,-18,68,83,13,2,-16,28,19
1537907313625234,49,4,-20,118,72,54,127,127
1537907313640194,-79,-56,-18,-68,-61,-39,-128,-93
1537907313640194,-33,-44,-23,-39,-31,-16,-23,-68
1537907313641192,95,35,-2,30,66,38,45,107
1537907313641192,13,34,-1,-74,-41,-18,-77,-52
1537907313663134,16,-2,-45,12,10,18,44,67
1537907313663134,11,13,45,53,19,12,37,-7
1537907313663134,-11,-27,-23,-20,17,14,69,50
1537907313663134,-30,15,3,-3,-4,-14,-59,-29
1537907313679092,26,-9,18,15,13,1,9,-9
1537907313679092,-16,23,-12,-7,-26,-17,-26,-32
1537907313685075,-17,-20,-15,-2,0,2,-4,12
1537907313685075,45,18,14,-6,4,11,33,59
1537907313709011,-2,6,1,-18,-29,-15,-23,-38
1537907313709011,-50,-17,-17,0,12,4,-45,-72
1537907313709011,25,-17,-5,-7,4,1,29,35
1537907313709011,8,-11,6,-14,-15,-5,-3,-6
1537907313722974,6,15,13,-8,-9,0,12,34
1537907313722974,17,1,-6,10,14,5,-3,8
1537907313723970,-16,-37,-1,2,-10,-7,-36,-23
1537907313723970,10,8,-3,-13,-1,3,34,8
1537907313745911,-12,10,4,6,3,1,7,23
1537907313745911,8,0,2,10,10,0,-31,-10
1537907313746908,-17,-18,-7,6,-9,-5,-8,-7
1537907313746908,-9,-2,-7,-19,-9,-10,-14,-33
1537907313759874,8,14,1,4,3,2,8,26
1537907313759874,-11,-10,6,4,0,2,-8,-11
1537907313760871,7,-15,4,3,-8,-3,-15,-5
1537907313760871,-3,-8,-3,-8,0,-7,0,-15
1537907313782812,-11,-9,4,4,-3,-1,-2,7
1537907313782812,9,5,-2,1,10,7,8,11
1537907313783810,-8,-4,-3,6,4,-1,-14,-13
1537907313783810,0,3,41,-8,-6,-5,-6,-14
1537907313805751,-7,2,-8,-3,-4,1,11,17
1537907313805751,1,-4,-81,-13,-4,-2,-12,-6
1537907313806749,2,-4,4,12,8,6,-5,2
1537907313806749,-6,0,5,-1,-3,-3,3,-7
1537907313820711,2,6,44,6,0,-2,3,9
1537907313820711,1,8,44,3,-3,-4,-5,-2
1537907313820711,-8,-2,12,-2,-3,0,-17,-17
1537907313820711,0,7,-58,-17,-9,-2,10,-1
1537907313842653,-4,3,-16,-1,2,-2,1,4
1537907313842653,0,-1,-45,-1,6,5,-3,-18
1537907313843650,4,9,-2,2,0,-1,0,37
1537907313843650,-1,1,10,-3,0,-4,2,23
1537907313857613,-1,10,17,3,2,-1,-4,-9
1537907313857613,1,-1,-7,-2,-6,-4,-5,-2
1537907313865591,-3,-10,-7,-3,-1,0,-3,-12
1537907313865591,-9,1,35,0,0,-1,-4,-16
1537907313880551,-1,-6,-20,0,-3,0,2,16
1537907313880551,2,1,9,3,4,3,1,7
1537907313881549,-2,1,-8,-7,-4,-3,-4,-9
1537907313881549,-1,-9,-34,-5,-2,0,-1,2
1537907313902493,-3,3,22,6,0,1,2,-2
1537907313902493,-1,6,57,5,1,-2,-7,-3
1537907313903490,-4,-5,-42,-9,-1,-2,2,-3
1537907313903490,3,7,1,8,1,-1,-1,-7
1537907313917453,-1,0,-2,-2,-2,0,0,0
1537907313917453,-3,-2,-9,0,1,0,-2,2
1537907313925431,-3,-1,36,0,-2,-2,-2,-1
1537907313925431,-1,-4,-21,0,4,0,0,-6
1537907313940392,0,5,17,1,-3,0,1,0
1537907313940392,1,-4,-21,2,0,-1,-1,6
1537907313941389,-5,-4,-7,-3,0,-3,-2,-9
1537907313941389,-1,-2,0,2,-1,-1,-3,-7
1537907313962333,-1,-2,-8,-3,-1,0,-1,3
1537907313962333,1,-1,1,-2,-2,-2,0,1
1537907313963331,3,3,-1,2,-1,-2,-1,-2
1537907313963331,-2,-3,-2,-3,-1,0,-2,-3
1537907313977293,2,-2,-16,1,1,0,0,1
1537907313977293,-1,2,75,2,-4,-4,-2,-2
1537907313985271,1,-3,-65,-4,-1,1,-2,-2
1537907313985271,2,1,21,5,1,-2,0,0
1537907314000231,-2,-5,-32,-6,-3,-3,-2,-2
1537907314000231,-1,0,-18,-7,1,1,-1,-1
1537907314001229,3,4,40,6,-1,1,0,1
1537907314001229,0,0,-3,7,-2,-2,-2,-3
1537907314023170,-2,2,25,-4,0,2,0,1
1537907314023170,-4,-11,-52,-7,-2,-3,-1,-1
1537907314023170,-1,-1,-7,-4,-3,-1,-3,-3
1537907314023170,2,0,4,-3,-1,1,0,0
1537907314046108,2,3,17,4,1,1,1,1
1537907314046108,-6,-4,-9,-3,-4,-3,-5,-5
1537907314047106,-3,-4,0,-3,1,-1,-2,-5
1537907314047106,7,1,-2,-3,-1,0,5,5
1537907314060071,0,-1,13,-5,-1,0,1,7
1537907314060071,-13,0,-41,5,-3,-5,-8,-20
1537907314061069,-6,-6,-2,6,3,-1,-4,-6
1537907314061069,7,5,-1,2,0,1,3,9
1537907314083010,13,-2,-39,-10,7,7,11,14
1537907314083010,18,4,43,16,2,0,8,16
1537907314084008,-18,2,26,29,10,-9,-30,-14
1537907314084008,-2,-7,-20,-67,-17,2,7,-22
1537907314105949,-51,-23,24,31,-17,-6,-9,-27
1537907314105949,56,-1,-63,-26,11,2,12,54
1537907314106946,20,46,16,22,12,22,38,16
1537907314106946,-12,13,36,41,22,-1,-12,-5
1537907314119911,-12,69,44,-18,-9,2,-29,-67
1537907314119911,-18,-54,-13,64,-10,-37,-71,-16
1537907314120909,29,47,-26,53,22,12,27,26
1537907314120909,-38,-55,2,-91,-71,11,89,-3
1537907314142850,-7,56,32,2,64,26,66,67
1537907314142850,36,25,104,85,-8,-9,-89,-120
1537907314143847,-18,-109,-116,-126,-83,-32,-16,-14
1537907314143847,59,99,-7,90,33,0,-3,65
1537907314165789,-9,34,85,-80,-47,-30,-98,-12
1537907314165789,1,-31,-58,14,17,30,127,66
1537907314166786,-38,-38,-36,4,30,-13,-25,-91
1537907314166786,-9,-19,68,17,-52,-7,-25,-60
1537907314180749,62,17,-38,121,86,16,61,126
1537907314180749,-58,56,7,-61,-73,-27,-75,-97
1537907314180749,26,-2,-40,-40,-2,10,17,43
1537907314180749,9,41,-66,-7,33,5,25,46
1537907314202690,36,16,18,24,10,4,55,71
1537907314202690,-27,-23,28,13,28,8,-7,18
1537907314203688,6,-15,50,25,32,33,58,49
1537907314203688,-44,-51,-24,-10,3,-28,-61,-76
1537907314225629,-44,-36,-36,-54,-28,-8,-107,-74
1537907314225629,17,-7,-6,-23,6,-2,-23,11
1537907314226626,-30,-7,25,7,-20,-16,-56,-58
1537907314226626,10,9,12,-19,21,14,-3,34
1537907314240589,9,-28,-78,-13,-27,-10,12,-41
1537907314240589,-5,-4,18,-17,0,5,26,32
1537907314240589,9,31,52,-16,-11,-10,-6,15
1537907314240589,11,-4,-8,24,16,7,20,13
1537907314262530,-15,-45,-29,-3,-15,-7,11,-27
1537907314262530,-4,9,-4,-30,6,7,12,9
1537907314263527,4,9,37,26,8,4,5,13
1537907314263527,-7,-10,-8,0,1,-4,-13,-14
1537907314286466,2,-26,-19,-12,-16,-4,-8,-13
1537907314286466,2,7,11,-4,9,4,10,14
1537907314286466,5,8,10,5,1,1,2,0
1537907314286466,-6,-32,-11,-3,-4,-7,-19,-7
1537907314316386,3,-44,-6,-9,-8,-5,0,-10
1537907314316386,1,-47,0,-1,8,8,23,12
1537907314316386,-10,-94,13,4,-5,-4,-5,-6
1537907314316386,2,-45,6,-5,-1,-4,-8,-1
1537907314322370,-2,-39,-7,18,5,6,12,-4
1537907314322370,-5,-10,-19,-13,-6,-2,4,5
1537907314323368,3,21,5,-10,-7,0,-8,4
1537907314323368,0,22,19,6,4,-3,-4,0
1537907314346306,1,42,0,1,-5,-6,4,-8
1537907314346306,-4,42,-24,-6,4,6,1,2
1537907314346306,1,41,-47,-4,-4,-5,-4,1
1537907314346306,2,28,17,-1,1,1,1,1
1537907314360269,-3,18,2,4,3,3,2,-7
1537907314360269,0,24,18,-10,-10,-6,2,0
1537907314368248,1,29,8,2,1,0,2,4
1537907314368248,-1,10,-5,0,-1,-2,-1,-2
1537907314383208,0,-6,-4,0,-3,-3,-1,-4
1537907314383208,-1,5,7,1,2,-1,1,2
1537907314383208,-1,9,17,4,0,0,-1,-1
1537907314383208,-3,-13,-25,-2,-2,-3,-6,-2
1537907314406146,0,-6,-1,-8,-5,-3,0,-2
1537907314406146,1,0,0,2,6,2,8,3
1537907314407144,1,3,14,-3,-6,-4,-1,0
1537907314407144,-5,-7,-4,5,4,1,-5,-6
1537907314420109,-4,-5,5,5,1,2,1,-4
1537907314420109,-1,-4,-28,-18,-10,-4,-1,-1
1537907314421106,-2,5,26,-13,-1,-1,-5,1
1537907314421106,3,-2,-17,-1,0,-1,-1,2
1537907314443048,1,-4,-2,6,4,5,2,-1
1537907314443048,1,1,7,-12,-7,-5,-2,2
1537907314443048,0,2,6,6,-4,-1,-3,-2
1537907314443048,3,-1,2,-3,-5,0,1,1
1537907314465986,-5,-4,2,-1,0,-2,-3,-6
1537907314465986,-1,2,23,6,4,3,3,0
1537907314466983,-3,-6,-30,-2,1,0,-2,0
1537907314466983,-2,2,3,-1,-1,-2,-1,-1
1537907314479949,4,-11,-50,-6,-1,-1,0,4
1537907314479949,-3,2,17,4,-1,-1,-1,-1
1537907314480947,-8,-4,-13,3,2,-1,0,-7
1537907314480947,0,5,40,-2,-5,-1,-3,-2
1537907314503885,6,7,-39,2,2,0,2,3
1537907314503885,1,0,71,-3,-1,1,1,0
1537907314503885,4,1,-41,3,7,3,3,3
1537907314503885,-7,1,36,3,-3,-3,-6,-6
1537907314525826,1,-5,2,0,-2,-2,1,1
1537907314525826,-2,-4,-18,4,4,2,1,0
1537907314526824,-2,-3,6,8,-1,-2,-2,-1
1537907314526824,3,-1,-10,-7,-4,-3,0,1
1537907314540786,-4,3,10,-4,-2,-2,-2,-3
1537907314540786,1,-2,-2,2,3,2,2,2
1537907314540786,0,0,8,-5,-1,-3,0,0
1537907314540786,-1,-2,-35,6,1,1,0,0
1537907314563725,1,-3,8,-13,-4,0,-3,0
1537907314563725,-2,-2,-11,0,1,0,-2,-1
1537907314564722,0,6,33,-4,-1,-2,-3,-1
1537907314564722,-6,4,11,7,-2,-4,-3,-5
1537907314585667,1,-11,-49,4,3,1,1,1
1537907314585667,9,-1,-23,-5,0,0,3,11
1537907314586664,9,-1,2,0,3,1,2,7
1537907314586664,10,0,6,-18,-4,-2,1,8
1537907314599629,-23,-4,38,15,4,-4,-7,-25
1537907314599629,-21,-10,-29,-12,-18,-7,-8,-20
1537907314607608,13,3,3,9,6,5,13,20
1537907314607608,9,7,19,48,9,1,26,25
1537907314622568,11,11,24,-17,6,9,-7,3
1537907314622568,16,10,-19,25,19,2,-10,-14
1537907314623565,-40,-34,-58,-37,-16,-14,-17,-28
1537907314623565,-64,-18,39,59,7,-8,-50,-47
1537907314645506,81,9,-8,-79,-36,-3,5,22
1537907314645506,64,37,38,59,8,-9,21,69
1537907314646504,-59,23,-68,-39,0,5,-25,-65
1537907314646504,-13,19,65,-27,-19,-25,-39,-6
1537907314659469,22,11,-36,15,8,-15,25,-8
1537907314659469,62,54,52,63,76,34,46,83
1537907314667448,-49,13,-17,-64,-69,-59,-73,-62
1537907314667448,-28,-37,-77,46,33,27,108,50
1537907314682408,-67,-18,-7,-67,-64,-52,14,20
1537907314682408,77,52,-28,-30,-20,63,58,28
1537907314683405,53,27,93,55,34,-10,30,24
1537907314683405,-37,-48,-55,31,2,4,-126,-106
1537907314706344,-14,-1,18,-11,14,-7,40,52
1537907314706344,-57,-4,-11,67,33,5,-102,-56
1537907314706344,27,-15,-8,-78,-51,-9,102,12
1537907314706344,0,23,-14,-60,-2,-13,11,-21
1537907314719309,-32,42,33,-8,14,23,-14,-38
1537907314719309,5,39,-2,1,-4,-17,1,20
1537907314728285,26,-8,32,87,47,51,84,89
1537907314728285,88,74,34,-13,8,-7,10,73
1537907314743245,-69,-5,-22,50,9,10,-26,-77
1537907314743245,-60,-3,-24,-64,-28,-9,17,-63
1537907314743245,-6,-57,11,28,6,5,-3,2
1537907314743245,58,-28,-22,-18,-2,15,83,71
1537907314766184,20,-30,3,4,6,1,-14,13
1537907314766184,-34,-51,0,-31,-25,-19,-33,-40
1537907314767181,22,5,-3,5,16,11,-7,15
1537907314767181,-16,0,-4,-19,-6,-3,-20,-8
1537907314780146,12,-25,12,26,5,7,-26,-11
1537907314780146,-31,-33,-16,-49,-17,-21,-1,-17
1537907314788125,4,25,0,17,5,1,-17,15
1537907314788125,-2,-15,-1,-14,-7,-1,-14,-19
1537907314803085,3,6,-7,10,-4,1,-4,-6
1537907314803085,7,-21,13,4,2,3,37,22
1537907314803085,-2,3,-3,-2,4,0,-27,-8
1537907314803085,-6,-5,-18,-15,-9,-7,-8,-18
1537907314826024,21,16,76,19,10,9,28,23
1537907314826024,-21,-22,-17,-8,-8,-18,-8,-6
1537907314827021,-6,-9,-23,-20,-9,3,-19,-26
1537907314827021,-6,-3,-66,-15,-2,9,4,-13
1537907314839986,22,-4,-45,25,20,16,22,27
1537907314839986,2,-41,32,11,-10,-32,-6,47
1537907314848962,-11,-103,92,16,-1,-2,-22,-20
1537907314848962,-1,-94,-11,3,-4,-3,15,-6
1537907314861928,-1,5,-1,-8,-7,5,-13,-31
1537907314861928,-9,30,-50,-17,-4,9,1,-9
1537907314878883,8,55,-8,4,5,4,-2,10
1537907314878883,2,25,22,-10,-1,8,20,52
1537907314885864,-8,8,-66,-14,-6,-22,-7,-3
1537907314885864,-13,43,63,10,-4,-29,-7,-53
1537907314887859,-1,84,-30,-1,-2,-3,-8,-7
1537907314887859,1,22,69,3,3,14,6,36
1537907314899826,3,1,-77,-7,-7,-11,-8,-12
1537907314899826,2,-2,16,0,2,12,9,23
1537907314908803,3,-3,-28,3,4,5,0,7
1537907314908803,3,43,64,-3,-3,-8,-4,-19
1537907314921768,-2,-18,-10,-9,0,9,9,23
1537907314921768,-5,-6,12,4,-6,-1,-6,-12
1537907314930744,7,8,5,9,4,1,-4,-3
1537907314930744,-5,2,-53,-10,0,-1,1,-8
1537907314945704,4,-6,17,8,3,-1,3,10
1537907314945704,-2,-32,2,-13,-4,7,-1,-13
1537907314947699,-6,2,22,-1,-7,-8,-3,0
1537907314947699,4,3,-52,-1,-3,-5,-2,-8
1537907314968643,-1,-2,30,3,0,1,-2,1
1537907314968643,1,-9,-30,-9,5,7,2,2
1537907314969640,1,-9,-8,0,0,-2,2,11
1537907314969640,-1,7,-10,2,-4,-9,-7,-13
1537907314982605,-1,-1,79,12,2,7,-4,-5
1537907314982605,-4,-3,24,-7,-6,-3,1,0
1537907314991581,-5,-17,-100,-1,4,1,0,-1
1537907314991581,2,1,52,1,2,0,-1,-8
1537907315005544,-1,1,-33,5,0,-2,0,1
1537907315005544,3,14,-5,-8,2,5,3,0
1537907315007539,-2,-2,111,-9,-3,-3,-1,-2
1537907315007539,-5,-5,-111,1,-3,-5,-6,-9
1537907315028482,6,12,36,10,5,3,4,10
1537907315028482,-3,-4,13,-3,-3,-1,-3,-1
1537907315029480,-1,-11,9,1,-3,-4,-4,-4
1537907315029480,-4,10,32,-10,-3,1,0,-9
1537907315042445,3,5,11,2,-1,-3,1,7
1537907315042445,-2,-35,-30,-11,-5,-1,-2,-2
1537907315049426,-3,4,53,15,6,0,-12,-44
1537907315049426,8,-2,-104,2,6,-1,0,27
1537907315066381,-2,1,-5,-7,-3,0,-1,3
1537907315066381,-6,-7,28,-5,-5,-2,-5,-18
1537907315067379,3,4,-15,16,3,1,2,7
1537907315067379,-5,-1,0,-10,-4,-1,-6,-20
1537907315088322,0,8,73,9,4,2,2,3
1537907315088322,2,-8,-72,-18,-5,0,1,11
1537907315090317,4,4,-95,-2,4,1,3,11
1537907315090317,5,-2,40,5,-1,0,4,5
1537907315102285,1,0,-4,-5,-1,-2,2,8
1537907315102285,6,7,51,9,2,3,1,-1
1537907315111261,-26,-8,-36,-1,-3,-4,-5,-16
1537907315111261,0,5,30,-7,-3,0,-1,0
1537907315126221,41,-4,-24,23,16,7,16,24
1537907315126221,-34,6,0,-25,-13,-4,-2,11
1537907315127219,18,-40,2,13,-13,-12,-9,-5
1537907315127219,-22,44,5,27,4,-2,-2,-34
1537907315148163,-6,-19,26,-83,-50,-22,-19,43
1537907315148163,14,19,-51,124,40,25,10,-29
1537907315150157,-4,17,93,-72,-28,-21,-66,-49
1537907315150157,15,-25,-58,58,32,6,58,26
1537907315162125,-81,-13,44,41,17,10,-1,-33
1537907315162125,2,25,-27,-35,-22,-27,-37,23
1537907315171101,80,36,60,36,38,24,86,108
1537907315171101,2,46,15,13,10,26,25,-14
1537907315186061,6,-74,-5,112,7,-30,-64,-21
1537907315186061,-29,-15,16,-58,0,21,-93,-83
1537907315187059,-59,-35,-89,76,20,8,13,-44
1537907315187059,28,36,109,-107,-75,-47,-64,-21
1537907315208003,-77,-57,-111,87,57,22,82,97
1537907315208003,-55,-38,-45,52,65,42,-85,-82
1537907315209997,16,3,97,15,-50,-25,-40,-82
1537907315209997,23,48,-29,-54,16,14,74,96
1537907315221965,70,68,39,-48,-12,6,30,43
1537907315221965,-25,-14,-18,29,20,-35,23,19
1537907315230941,6,25,20,42,-3,19,-74,-13
1537907315230941,-24,75,-58,16,-48,-38,8,-45
1537907315245901,97,125,48,37,72,12,9,17
1537907315245901,-48,53,16,-94,-71,-23,-18,-34
1537907315247896,-28,69,-53,4,3,3,35,8
1537907315247896,23,-75,9,-36,-12,2,-62,-6
1537907315268840,-24,-67,-11,6,18,2,2,-41
1537907315268840,55,-94,15,44,3,6,59,90
1537907315269837,-13,-8,-24,-44,-13,-9,-22,-10
1537907315269837,-14,-34,28,24,30,12,9,-7
1537907315281805,-14,-3,-22,-38,-22,8,-5,-22
1537907315281805,12,75,-2,-16,-11,-5,5,-6
1537907315290781,3,0,14,-39,-1,-4,12,22
1537907315290781,-6,-49,-33,35,22,9,-4,12
1537907315305741,-11,-5,-22,-37,-32,-10,-41,-52
1537907315305741,20,-17,49,-22,-28,-14,22,-3
1537907315307736,4,-25,-75,-2,26,24,37,66
1537907315307736,-11,-54,97,30,11,-1,-19,-53
1537907315328680,-5,-5,-71,-33,-25,36,1,7
1537907315328680,9,10,81,-7,-6,-5,33,-57
1537907315329678,1,-2,110,12,9,-21,-14,68
1537907315329678,-9,-22,-95,3,-6,-82,-34,-58
1537907315342643,-13,59,93,-9,-12,23,-23,-104
1537907315342643,28,15,-40,7,12,11,40,25
1537907315350621,-5,-24,-83,-27,-7,-4,10,-13
1537907315350621,-6,-5,27,-20,2,85,17,101
1537907315365582,-7,-29,53,9,-9,-64,11,10
1537907315365582,-9,-64,-128,11,3,21,-23,-19
1537907315367577,0,-106,96,0,-5,-16,2,-4
1537907315367577,0,-126,-55,3,3,5,1,-8
1537907315388520,-13,-103,-9,-48,-17,13,2,-14
1537907315388520,4,80,127,43,8,26,8,27
1537907315389518,-5,9,-96,-14,-7,-46,-1,-3
1537907315389518,-7,36,12,0,-3,7,-13,-14
1537907315402483,3,74,81,6,-3,-5,-12,-17
1537907315402483,10,45,-101,-13,-6,-22,7,22
1537907315411460,3,75,-13,11,12,20,6,-6
1537907315411460,-11,43,26,12,-1,-2,-7,-17
1537907315426419,0,18,-101,-19,-13,-14,-12,0
1537907315426419,11,-18,30,6,7,-9,14,25
1537907315427417,1,23,62,14,5,18,2,-11
1537907315427417,-6,36,-17,-6,-2,-4,-11,-9
1537907315448361,2,58,14,-7,-9,-11,-5,4
1537907315448361,5,16,-36,3,9,5,7,8
1537907315450355,-4,-13,-3,8,5,9,0,-11
1537907315450355,0,1,-45,-19,0,-4,-3,3
1537907315462323,2,11,60,16,-2,-4,-3,-1
1537907315462323,2,-22,-31,-11,-9,-9,3,6
1537907315471299,-5,3,-37,-27,-7,1,-3,-5
1537907315471299,-2,11,34,15,8,4,1,0
1537907315486259,1,-3,-42,-3,0,0,0,0
1537907315486259,0,-8,11,-7,-4,-5,-1,4
1537907315487256,0,-13,0,1,-2,2,2,0
1537907315487256,1,10,21,11,1,2,-3,-3
1537907315508200,2,-20,-26,-4,-3,-2,1,0
1537907315508200,-5,-17,10,-1,-3,-8,-5,-3
1537907315510195,-4,-2,12,-1,0,3,-1,-4
1537907315510195,4,24,-11,13,5,4,2,1
1537907315522163,-2,-6,-34,-16,1,-3,-1,-1
1537907315522163,1,-9,3,2,-3,-4,2,7
1537907315531139,2,11,14,-5,-11,-2,0,-2
1537907315531139,-4,1,48,-13,-7,-4,-5,-5
1537907315546099,0,-8,-41,-3,1,2,-1,3
1537907315546099,1,-7,-35,-1,7,1,3,4
1537907315547097,0,12,2,-1,4,3,-3,-4
1537907315547097,-2,-7,42,15,-2,-3,-1,1
1537907315568040,0,-5,12,2,-4,-1,-2,-2
1537907315568040,1,-6,23,-4,-2,-1,-1,1
1537907315570035,-2,-10,-13,1,-2,-1,0,0
1537907315570035,-1,-1,-16,0,2,1,-1,-1
1537907315582003,0,5,10,-4,-1,-2,-15,-16
1537907315582003,-2,-10,-4,-1,0,1,11,12
1537907315590979,2,7,-25,-2,3,-1,0,2
1537907315590979,-2,8,30,-12,-5,-3,-1,-1
1537907315605940,-8,-1,-7,12,2,1,-6,-12
1537907315605940,5,1,-19,-3,-2,-2,-3,-2
1537907315606937,1,-4,-56,-1,0,2,3,4
1537907315606937,-1,-3,8,-1,-1,0,1,-1
1537907315628877,-1,5,-8,-2,-1,-2,4,3
1537907315628877,-1,-3,18,-3,0,0,-2,-1
1537907315629875,0,11,29,-7,-4,0,2,-1
1537907315629875,-4,-5,-104,-3,1,-1,-3,-5
1537907315641843,1,6,81,10,1,0,3,4
1537907315641843,-2,-2,-2,1,-2,-3,-3,-5
1537907315650819,-3,3,-7,6,5,0,-3,-4
1537907315650819,1,3,2,-3,-2,-2,0,0
1537907315665779,-1,1,-7,3,1,0,2,4
1537907315665779,-1,3,33,-10,-6,-4,-2,-2
1537907315673758,-4,-11,-56,-18,-3,1,-1,-4
1537907315673758,0,-6,28,16,5,2,1,2
1537907315688718,3,7,-36,-5,-1,-1,1,6
1537907315688718,-1,-1,36,0,-4,-4,-2,-2
1537907315701683,-2,-1,19,2,-2,-1,-1,-4
1537907315701683,-3,1,8,1,0,-1,0,-2
1537907315710659,0,-5,-16,-6,-1,0,0,-1
1537907315710659,1,0,-10,-3,-1,-1,1,2
1537907315712654,6,1,9,1,-1,-1,4,7
1537907315712654,12,17,-1,3,-1,-2,1,11
1537907315725619,-10,-40,-10,-4,-2,-3,-4,-3
1537907315725619,-23,37,10,5,0,-1,-5,-17
1537907315727614,9,-22,-10,3,3,1,-2,-8
1537907315727614,-3,-29,0,-13,-13,-12,-11,17
1537907315748558,2,24,10,9,11,4,24,0
1537907315748558,5,24,-4,5,5,10,-19,-15
1537907315754542,27,2,13,3,7,8,34,15
1537907315754542,-1,6,-12,15,4,-8,-24,-31
1537907315771496,-53,-31,17,30,29,13,-55,-79
1537907315771496,73,16,-8,-40,-31,-25,15,43
1537907315772494,23,24,23,13,5,28,55,50
1537907315772494,5,7,36,7,14,1,-47,-17
1537907315785459,63,9,-26,0,-1,21,88,49
1537907315785459,-128,-40,-4,17,27,4,20,-34
1537907315792440,-2,9,-12,-2,-9,-33,67,75
1537907315792440,20,11,9,99,50,1,-45,-51
1537907315808398,84,-6,-37,-59,-78,-57,-119,9
1537907315808398,-14,-5,18,28,16,48,-48,-48
1537907315810393,-100,-46,-63,-61,-77,-22,59,-64
1537907315810393,34,41,36,63,93,46,98,101
1537907315822360,-47,-6,17,-109,-80,-17,71,-36
1537907315822360,100,28,-12,122,84,-16,48,101
1537907315838318,41,4,15,-89,-63,18,3,-6
1537907315838318,-41,-26,-36,-16,-33,-12,72,40
1537907315845299,39,32,83,127,83,51,-74,-3
1537907315845299,2,-29,-85,-81,-86,-27,16,-112
1537907315852281,17,87,107,38,64,15,15,-5
1537907315852281,19,79,84,7,33,44,98,86
1537907315868238,21,29,-33,-30,-14,1,-16,-61
1537907315868238,-7,12,12,-7,18,21,23,115
1537907315870233,-96,-37,-41,28,13,-6,-104,-92
1537907315870233,47,-24,-14,-34,-26,-5,98,115
1537907315891177,-124,-54,10,74,46,-2,-102,-74
1537907315891177,75,15,-8,-63,-51,-35,-65,-111
1537907315892174,80,-41,-26,-56,-53,-15,46,45
1537907315892174,-37,-34,-12,-98,-40,-22,-46,40
1537907315905139,47,31,17,26,58,29,57,99
1537907315905139,-51,-65,7,73,-8,-17,-13,-27
1537907315912121,0,45,28,6,1,1,-57,4
1537907315912121,-45,-77,-6,34,-4,-8,-57,-90
1537907315928078,-18,9,-33,7,7,3,53,64
1537907315928078,18,45,18,-47,21,14,-18,31
1537907315930073,9,14,-3,36,15,-19,-88,-83
1537907315930073,27,67,-16,7,-9,9,-47,24
1537907315951017,-66,-69,-46,-57,-46,-63,-75,-104
1537907315951017,-29,29,10,6,-3,-7,26,14
1537907315952014,-5,-13,-9,23,19,8,-2,12
1537907315952014,31,17,-18,-27,-23,-6,3,-25
1537907315964979,26,-7,1,-1,-3,1,64,61
1537907315964979,2,1,21,11,2,2,-22,2
1537907315971960,-2,-22,-4,15,13,-2,-12,12
1537907315971960,-9,-38,-5,-7,-10,-12,-29,-56
1537907315988915,4,-12,-3,4,-1,3,20,15
1537907315988915,-9,-49,1,-4,-7,7,-3,-2
1537907315989913,3,-4,-3,8,18,-4,-2,9
1537907315989913,-18,-44,-8,-1,-14,-14,-7,-44
1537907316010856,7,0,-7,1,-4,6,3,-1
1537907316010856,-5,-20,16,-4,2,5,6,17
1537907316012851,-3,-55,-13,11,7,7,0,9
1537907316012851,-11,-57,-11,-9,-12,-27,-36,-44
1537907316033795,4,-79,6,-2,-7,-4,13,16
1537907316033795,6,-54,5,4,3,1,20,22
1537907316034793,-6,-17,7,9,6,12,-14,-5
1537907316034793,-8,15,-7,-5,-5,-11,-1,-26
1537907316048755,-1,38,-12,-4,1,11,10,2
1537907316048755,-5,-6,-40,-2,-2,-5,16,21
1537907316049753,1,25,43,14,5,-14,-17,-3
1537907316049753,-6,39,-39,-15,-6,16,-6,-16
1537907316070696,8,46,18,0,2,12,18,16
1537907316070696,-6,52,-10,-3,-2,-2,-4,-8
1537907316072692,2,47,23,19,8,11,5,8
1537907316072692,-4,23,48,2,-3,4,-10,-10
1537907316084659,0,24,-31,-12,-2,-8,6,0
1537907316084659,-4,-3,-54,0,-1,2,-2,-7
1537907316093635,1,7,-6,-7,-1,-6,-2,3
1537907316093635,-3,7,6,7,-2,3,-3,-10
1537907316115577,3,15,34,7,-5,-11,-4,2
1537907316115577,2,-2,13,-4,-2,-3,-3,2
1537907316117571,0,-7,-13,0,0,5,2,4
1537907316117571,-2,-6,-12,-2,-4,-8,-12,-8
1537907316130537,0,-8,-38,-9,-3,-3,1,3
1537907316130537,-1,2,4,-3,3,3,-4,1
1537907316132531,-2,-7,-3,7,2,-7,-2,-2
1537907316132531,-2,-6,1,-4,-3,-1,-5,-9
1537907316144499,1,6,8,2,-3,-1,0,3
1537907316144499,-1,-1,13,3,2,5,1,0
1537907316161454,-1,-10,-12,-3,-1,-2,-3,-1
1537907316161454,-4,-22,-12,-6,-3,0,-3,-5
1537907316168435,2,3,34,2,-4,-1,1,3
1537907316168435,0,-6,-51,-12,-2,-1,2,-1
1537907316169433,0,1,-7,6,4,1,-1,0
1537907316169433,0,6,-48,6,0,-2,-1,-1
1537907316191374,1,15,47,-7,-1,-5,2,0
1537907316191374,-1,9,56,3,-1,1,-3,-1
1537907316192371,0,3,-19,-4,-3,-2,-3,0
1537907316192371,-3,-2,8,-4,-2,0,-1,-2
1537907316204339,2,5,-8,24,1,-1,1,0
1537907316204339,-2,-8,-1,-16,-4,0,-1,-2
1537907316213315,1,2,-6,-2,4,1,0,0
1537907316213315,-2,-1,0,-6,-1,-1,1,-2
1537907316236254,0,-5,-12,-4,1,0,0,1
1537907316236254,-2,-1,31,8,0,0,-3,0
1537907316237251,-4,-2,-22,-6,-9,-6,-4,-6
1537907316237251,1,5,28,18,5,2,-1,-1
1537907316251214,3,-3,-48,-5,-2,-1,0,1
1537907316251214,-4,-6,-80,-1,6,3,0,-4
1537907316252211,1,2,56,-10,-6,-5,-1,3
1537907316252211,-4,-2,-18,-2,-1,-1,-2,-4
1537907316264179,1,3,23,0,-2,-2,-2,3
1537907316264179,0,-2,6,1,-1,-2,-1,2
1537907316273155,-3,-5,2,3,3,3,0,-1
1537907316273155,-2,-1,9,-8,-9,-5,-1,-2
1537907316288115,0,4,-6,0,1,0,1,-1
1537907316288115,-1,1,4,1,2,1,-1,-2
1537907316290110,-1,-6,-28,9,2,1,1,-1
1537907316290110,5,4,22,-1,-2,-1,2,3
1537907316311054,-3,-3,-12,8,7,2,0,-1
1537907316311054,-5,-3,27,-5,-13,-7,-3,-6
1537907316312051,6,-1,-11,-3,2,1,2,4
1537907316312051,-5,-3,-32,-2,-3,-1,-2,-6
1537907316325017,-9,-3,42,4,3,0,-2,-2
1537907316325017,18,10,-16,-2,1,4,5,15
1537907316333993,-10,1,3,6,9,1,-3,-8
1537907316333993,-3,-12,8,0,-5,-5,-8,-11
1537907316348953,-6,-6,-29,-8,-5,-5,-2,-3
1537907316348953,-10,-3,40,-5,-5,0,-1,-7
1537907316349950,22,4,-5,-33,-1,1,6,15
1537907316349950,0,9,-13,6,-1,3,3,5
1537907316370894,-13,-5,5,-5,-3,1,1,0
1537907316370894,27,3,5,11,0,0,8,20
1537907316371892,-42,-25,-18,0,-4,-9,-19,-27
1537907316371892,17,15,17,33,17,2,-9,1
1537907316384857,-3,-8,-5,8,1,-1,0,53
1537907316384857,-9,-4,7,-3,10,12,37,-35
1537907316393833,-83,-32,-28,-34,-58,-35,-93,-91
1537907316393833,70,11,-3,-29,-4,1,28,61
1537907316408793,50,36,15,41,40,9,-21,79
1537907316408793,-39,-25,4,4,-3,32,64,-30
1537907316409790,-12,-3,-1,53,38,16,87,7
1537907316409790,-65,-22,7,-66,-25,-34,-113,-115
1537907316430734,76,5,-33,21,40,8,66,-43
1537907316430734,-57,-5,-11,-3,-71,45,-93,-74
1537907316432729,30,14,-8,-35,-10,-21,-53,76
1537907316432729,9,16,14,37,15,20,79,29
1537907316444697,50,20,2,12,17,-13,-111,9
1537907316444697,72,41,41,51,26,-3,82,91
1537907316453673,-17,9,7,28,-6,-65,-75,-128
1537907316453673,-74,-32,-56,-67,-87,46,-49,-11
1537907316468633,-26,4,11,-19,-26,-7,39,45
1537907316468633,34,9,-12,-29,4,21,46,88
1537907316470627,44,6,29,36,36,66,39,54
1537907316470627,13,2,6,16,12,-34,3,48
1537907316490574,-48,-23,9,14,17,80,28,-76
1537907316490574,-42,-28,-15,-18,13,-13,36,-100
1537907316492569,32,-13,-19,-54,-58,-43,43,35
1537907316492569,-6,-13,5,12,37,22,-9,-22
1537907316504537,-30,-27,-14,-28,-29,-27,-8,-16
1537907316504537,29,11,14,31,37,-9,-38,73
1537907316521491,16,2,10,14,18,13,22,10
1537907316521491,-28,-5,-5,4,-1,-2,0,-52
1537907316528473,6,16,-5,-13,-12,-5,1,23
1537907316528473,-11,0,6,9,8,-32,-45,-14
1537907316529470,-24,-3,-10,-14,-13,34,-7,-26
1537907316529470,16,5,-1,2,3,-11,0,20
1537907316551412,-6,-1,-2,0,-9,-13,10,-6
1537907316551412,-10,-10,-4,-12,-14,-10,-54,-32
1537907316552409,8,4,0,0,6,11,6,15
1537907316552409,23,10,9,21,24,10,22,33
1537907316564377,-13,-10,-4,-15,-13,-14,21,-16
1537907316564377,-8,-7,-4,-7,-5,-5,-32,-27
1537907316573353,14,8,4,11,10,9,8,33
1537907316573353,6,-4,3,5,5,-11,16,-1
1537907316588313,-21,-11,-8,-15,-13,7,-12,-32
1537907316588313,8,-8,-6,-4,-5,-10,-6,16
1537907316594297,9,11,7,13,16,11,12,17
1537907316594297,-4,5,-2,0,-3,1,-9,-15
1537907316611251,-6,3,-3,-8,-9,-5,-6,-8
1537907316611251,5,2,6,5,7,-1,-5,14
1537907316612249,-4,-10,0,0,0,0,-6,-9
1537907316612249,5,9,-4,1,3,5,14,3
1537907316624217,4,3,-2,-1,-5,-3,-6,3
1537907316624217,-1,1,1,0,3,-9,-4,-2
1537907316633193,-2,-5,-3,0,0,8,1,-1
1537907316633193,1,-3,4,0,-2,-6,-1,2
1537907316648153,-7,-13,-2,0,-2,-4,-4,-8
1537907316648153,-2,-2,-3,-3,0,-2,-9,-7
1537907316654137,-4,1,6,0,4,4,2,3
1537907316654137,5,-15,0,6,3,1,3,7
1537907316671092,-4,0,-5,-12,-2,-2,-4,-11
1537907316671092,-3,0,-2,-1,-7,-5,-3,-3
1537907316672089,3,-6,-1,5,2,1,2,8
1537907316672089,-2,-6,-2,8,6,-1,3,-2
1537907316685054,-7,-9,-4,-4,-5,-2,-7,-9
1537907316685054,0,8,-1,1,1,-4,-2,2
1537907316693033,5,11,1,5,8,4,4,4
1537907316693033,-7,-6,-2,-3,-7,-5,-5,-6
1537907316707993,-1,-4,-1,0,1,-1,-2,-4
1537907316707993,2,6,2,-3,2,0,0,4
1537907316714974,-5,-2,-3,5,2,1,-3,-5
1537907316714974,6,6,1,-4,0,1,4,3
1537907316730932,-1,10,1,0,-1,-3,-2,0
1537907316730932,1,-4,-5,-2,-4,-5,-3,-4
1537907316731929,0,17,3,2,-2,0,0,0
1537907316731929,3,16,2,0,1,0,0,1
1537907316744894,-1,2,2,-2,-8,-3,-2,2
1537907316744894,0,0,0,0,2,-1,-2,1
1537907316753870,-2,-6,-2,-7,-3,1,0,-1
1537907316753870,0,3,-2,-1,-1,0,0,0
1537907316767834,1,-1,-4,2,1,-1,-3,-1
1537907316767834,-4,-6,14,-10,-10,-2,-3,-2
1537907316774815,0,1,-11,19,6,1,-1,0
1537907316774815,-3,-3,-11,-33,-11,-5,-3,-2
1537907316790772,-1,-4,-15,6,6,2,2,0
1537907316790772,-1,-2,6,-6,0,-1,0,0
1537907316792768,0,-1,5,-33,-16,-5,-2,0
1537907316792768,3,-4,10,8,4,0,0,0
1537907316820693,-3,-2,-2,0,0,-1,0,-3
1537907316820693,-4,-2,-14,0,5,3,2,1
1537907316822689,1,-1,11,3,-4,-4,-2,0
1537907316822689,-2,-4,-4,6,3,0,0,-2
1537907316827675,0,0,5,-14,-5,-3,-2,-1
1537907316827675,0,-9,-4,10,5,2,-1,-1
1537907316834657,6,-1,-5,-2,-1,0,1,2
1537907316834657,-3,-2,4,1,2,-1,-1,-2
1537907316865573,0,2,2,11,1,0,-2,-2
1537907316865573,1,-3,-4,-1,-1,-1,-2,-1
1537907316867567,-4,-3,-4,-2,-1,0,0,-1
1537907316867567,0,-2,1,6,2,1,1,0
1537907316873551,-4,-3,8,-3,-4,-1,-1,-3
1537907316873551,1,-4,-8,-5,-6,-5,-3,0
1537907316874548,1,2,1,3,1,0,0,3
1537907316874548,-1,1,-16,1,3,1,1,0
1537907316887513,0,-3,-4,-20,-3,0,-1,2
1537907316887513,-1,4,22,-5,-10,-3,-1,-2
1537907316894494,0,-4,-37,21,13,3,-1,-2
1537907316894494,-8,-8,-4,36,10,1,-2,-1
1537907316910452,5,1,-18,-47,-22,-7,1,7
1537907316910452,11,11,50,39,26,5,-1,7
1537907316912446,-21,-10,-8,-34,-42,-18,-14,-23
1537907316912446,3,-2,-9,63,-4,0,2,8
1537907316933390,-1,-11,9,-33,4,-4,1,15
1537907316933390,29,24,1,-51,10,18,24,32
1537907316935385,-60,-42,-12,42,-2,-1,-56,-76
1537907316935385,16,23,16,-77,-15,0,45,15
1537907316947353,-1,-1,7,96,1,-59,-62,80
1537907316947353,9,8,-8,23,15,28,49,-35
1537907316956329,11,-1,-7,-48,-87,-30,-2,18
1537907316956329,16,-5,-69,109,93,37,39,29
1537907316971289,-53,-6,34,-89,-104,-27,-34,-96
1537907316971289,18,32,38,54,26,-11,-61,12
1537907316972287,12,15,-24,116,82,50,53,10
1537907316972287,8,-7,36,-21,-12,10,65,37
1537907316993231,21,12,-8,-92,-16,4,-6,77
1537907316993231,-36,-3,-81,13,-22,5,2,-44
1537907316995226,29,35,42,-24,40,8,-60,2
1537907316995226,-77,-21,-37,-44,-81,-57,-96,-105
1537907317007194,18,16,-13,37,31,15,35,25
1537907317007194,-6,-27,-19,-42,-32,14,27,25
1537907317016170,32,-15,17,10,38,-3,51,72
1537907317016170,12,-29,5,-67,-27,-2,13,29
1537907317030133,-6,-33,3,35,-9,-1,-24,-52
1537907317030133,-22,-32,0,8,2,-19,-24,-12
1537907317039111,11,12,4,-18,-4,9,30,17
1537907317039111,2,11,14,12,15,0,-37,-7
1537907317053072,-15,10,0,24,17,8,8,-39
1537907317053072,8,13,-5,0,4,1,8,22
1537907317055066,-10,-3,-7,-7,-1,-1,-5,-3
1537907317055066,-3,6,19,-12,-8,-7,-26,-18
1537907317067033,15,-2,-12,25,27,14,24,10
1537907317067033,-2,-6,-3,1,-2,-10,-10,-2
1537907317081993,-6,-4,6,-32,-22,-13,-19,-13
1537907317081993,-2,-2,8,6,3,-1,-9,-2
1537907317090969,14,6,-1,18,21,14,30,12
1537907317090969,-5,-10,-1,-3,-5,-11,-2,3
1537907317091967,-10,-3,5,-8,-9,-6,-6,-10
1537907317091967,13,8,5,8,9,8,6,16
1537907317113908,-2,-4,-9,15,14,9,1,-6
1537907317113908,-8,-8,3,-10,-11,-11,-11,-10
1537907317114906,1,-6,-1,2,2,2,8,6
1537907317114906,3,-1,1,1,4,1,-1,4
1537907317126873,-4,-3,0,8,5,1,-6,-13
1537907317126873,-4,-5,0,0,-2,-6,-3,0
1537907317143829,3,3,1,-5,-2,-1,10,9
1537907317143829,3,0,3,5,2,0,-9,2
1537907317149812,-5,-5,2,8,2,0,3,-9
1537907317149812,3,-4,-5,-1,0,2,1,8
1537907317158790,-5,-2,-2,-1,-2,-4,-3,-2
1537907317158790,-11,-7,4,-3,-3,-3,-6,-8
1537907317173749,1,0,-3,8,10,6,2,-1
1537907317173749,1,1,-2,-6,-5,-6,-1,5
1537907317174748,6,2,1,-2,-3,-4,-4,-1
1537907317174748,-7,-2,-4,0,-3,-2,-4,-2
1537907317186714,6,22,6,7,5,6,7,3
1537907317186714,-3,1,5,0,18,5,-3,1
1537907317195689,-1,-2,-1,-5,-28,-13,-4,-4
1537907317195689,7,4,1,-8,0,4,1,6
1537907317210649,-2,-8,-4,8,4,-1,0,-3
1537907317210649,-4,-12,-4,-8,-6,-4,-3,-3
1537907317212644,-1,14,-5,-9,2,1,2,3
1537907317212644,3,-4,-3,-8,4,1,1,1
1537907317233588,0,-10,2,20,2,-1,-2,-2
1537907317233588,-1,-1,1,-14,-4,-3,-2,-3
1537907317234586,-4,-4,1,2,3,1,2,-1
1537907317234586,1,7,1,2,-2,0,-2,-1
1537907317247551,1,9,-3,-6,-2,0,0,-1
1537907317247551,1,9,-2,7,-4,-3,0,3
1537907317255529,-1,-1,-1,1,3,1,-1,-2
1537907317255529,-7,6,1,1,0,0,-2,-4
1537907317270490,-3,-1,-3,-1,1,2,0,-1
1537907317270490,-2,0,-1,1,-6,-1,-4,-3
1537907317272485,3,0,-3,-7,-2,-1,0,2
1537907317272485,3,2,3,8,4,0,1,1
1537907317293428,-1,-3,-1,-3,-1,1,1,0
1537907317293428,-3,-3,-4,-6,-7,-6,-2,-1
1537907317294426,3,2,1,6,9,2,0,1
1537907317294426,2,-2,-4,4,0,-1,-2,0
1537907317307391,2,1,2,-20,-9,-3,0,2
1537907317307391,-2,3,5,6,-3,-1,0,-4
1537907317316367,-5,-8,1,2,7,3,-1,0
1537907317316367,2,-3,-3,-5,-5,-5,0,0
1537907317331327,1,-5,-3,4,7,1,0,-2
1537907317331327,3,0,-2,2,-4,-4,0,4
1537907317332326,-5,-3,-2,-7,-5,-3,-1,-2
1537907317332326,0,1,0,4,0,1,-2,0
1537907317353269,-1,-2,-5,0,-3,0,-1,-2
1537907317353269,-4,-4,0,1,2,2,0,-4
1537907317361249,2,-1,-1,1,-2,0,-1,0
1537907317361249,4,0,0,-2,0,0,-1,3
1537907317367232,-8,-3,-3,1,1,0,-1,-4
1537907317367232,-1,-1,-1,-4,-4,-2,-1,-1
1537907317376208,-1,-1,-1,-1,1,0,-1,0
1537907317376208,-2,0,0,0,-3,-2,-1,-1
1537907317390171,1,-1,-1,-1,-2,1,-1,1
1537907317390171,-1,-1,-2,-5,10,3,-1,-2
1537907317397152,-1,0,4,0,-12,-3,-1,0
1537907317397152,5,1,1,67,24,3,1,1
1537907317412112,-7,-2,-9,-90,-32,-9,-7,-7
1537907317412112,-4,-4,10,38,-5,-3,2,2
1537907317421089,4,3,-7,-6,-4,-1,-1,1
1537907317421089,7,-3,4,15,9,16,21,24
1537907317427072,-7,-5,9,-45,-26,-4,6,-13
1537907317427072,-2,1,-15,35,38,14,4,-8
1537907317436049,-13,-5,17,91,-70,-34,-38,-45
1537907317436049,4,-2,11,46,58,23,36,21
1537907317450011,12,-1,-53,16,34,5,9,16
1537907317450011,-31,-25,-3,-105,-88,-41,-74,-48
1537907317456992,22,34,27,98,104,39,33,31
1537907317456992,4,19,12,-90,-42,-12,-25,-2
1537907317473946,6,0,40,127,49,8,29,51
1537907317473946,14,10,-16,-37,28,30,38,0
1537907317474944,-51,-16,-27,-93,-70,-40,-101,-105
1537907317474944,-8,20,-5,-41,-42,-38,13,-22
1537907317486911,5,22,4,55,19,3,-19,-7
1537907317486911,7,24,5,21,-15,-10,3,46
1537907317495888,20,19,3,-20,39,17,32,46
1537907317495888,-5,8,-10,-2,17,10,-13,-12
1537907317509850,-8,-11,-12,-52,-89,-34,-17,-6
1537907317509850,8,-12,4,27,29,8,11,1
1537907317516831,0,-35,-6,-37,0,5,12,9
1537907317516831,-3,-37,-11,-3,-6,-4,-8,-5
1537907317533785,0,-37,6,14,15,9,5,-7
1537907317533785,0,-33,4,9,7,3,3,-2
1537907317534783,1,-28,-1,-18,2,10,16,8
1537907317534783,-4,-6,-2,-8,-22,-8,-12,1
1537907317566697,-5,18,3,2,14,8,-5,-12
1537907317566697,-2,23,0,-11,-4,-5,0,-4
1537907317568693,3,16,-10,-2,9,3,18,22
1537907317568693,-1,12,2,17,13,3,-12,-10
1537907317571684,-4,7,1,-16,-7,-1,-2,-8
1537907317571684,1,6,-5,0,0,-1,-4,1
1537907317572682,4,1,3,13,13,2,19,13
1537907317572682,2,-7,0,1,6,1,-2,1
1537907317584649,-2,-8,-10,-28,-14,-10,-19,-15
1537907317584649,0,-6,-1,11,-2,-3,7,5
1537907317594623,2,-6,-2,-4,-3,2,4,3
1537907317594623,-3,-7,-2,-4,3,3,2,-3
1537907317599609,2,-1,-2,1,7,1,1,1
1537907317599609,1,0,1,9,1,-2,-1,-1
1537907317624543,0,-1,-1,-14,-7,-4,-2,1
1537907317624543,2,0,-2,-4,-7,-2,-1,-1
1537907317625541,-6,1,2,3,4,2,3,-2
1537907317625541,-3,-3,1,-1,-1,1,0,-2
1537907317629530,5,5,-3,-2,3,2,7,6
1537907317629530,-7,-2,-3,-2,-6,-2,-2,-1
1537907317653465,5,4,1,1,5,2,0,0
1537907317653465,-1,0,1,1,1,0,1,-1
1537907317654463,-2,0,-3,-4,-5,-2,-2,-1
1537907317654463,1,-2,0,0,-2,0,-1,-1
1537907317659450,-1,-6,1,-2,3,3,0,0
1537907317659450,0,-8,-3,-2,0,-1,-1,0
1537907317668426,1,-13,-3,-9,-6,-2,1,2
1537907317668426,-1,-11,-1,-3,-4,-1,-1,-3
1537907317682388,3,-3,0,-5,10,2,1,-1
1537907317682388,0,-2,2,10,-7,-3,1,4
1537907317689369,-1,-6,-1,-5,-2,-3,-8,0
1537907317689369,-3,-8,-1,-1,-2,-1,-4,-5
1537907317706324,-1,-6,1,4,4,2,0,-2
1537907317706324,2,1,1,-5,-4,0,0,0
1537907317707322,-3,1,0,2,2,3,12,3
1537907317707322,5,10,-1,-3,-4,-4,-7,2
1537907317719289,-4,10,-1,-5,1,0,-5,-7
1537907317719289,-3,14,0,7,1,0,0,0
1537907317728265,-1,17,0,-3,-4,-2,0,0
1537907317728265,1,14,0,-2,0,1,3,3
1537907317743225,3,14,1,4,0,0,2,4
1537907317743225,1,9,-1,-1,-1,-1,-2,0
1537907317749209,0,3,0,2,1,-1,-2,-2
1537907317749209,2,1,0,0,0,2,0,-1
1537907317766164,-5,1,0,0,3,1,-1,-2
1537907317766164,-3,-2,-2,-8,-6,-3,-2,-1
1537907317767162,0,0,-2,9,1,-1,-2,-1
1537907317767162,-2,-1,-3,2,-3,0,0,-1
1537907317779130,0,-3,-1,-9,-12,-5,0,-1
1537907317779130,1,-6,-4,-4,6,2,0,0
1537907317796087,0,-4,-1,-7,-2,0,-1,0
1537907317796087,-1,-1,4,5,3,1,0,1
1537907317803068,-1,-3,0,22,9,1,2,2
1537907317803068,2,-4,-4,-11,-10,-5,-2,-1
1537907317810048,1,0,0,-7,-6,-1,-1,-2
1537907317810048,-6,-2,-4,-2,0,0,0,-3
1537907317825008,2,0,1,-4,0,-1,-1,0
1537907317825008,-4,-1,2,3,2,0,1,-1
1537907317831990,-1,0,-2,-3,-1,-1,0,-1
1537907317831990,0,2,-1,1,2,-1,1,1
1537907317839968,0,-1,0,0,-3,0,-1,0
1537907317839968,0,2,0,4,1,0,-1,-4
1537907317848945,-3,0,-1,-1,-2,-1,-2,-5
1537907317848945,0,-1,1,-3,-1,-2,0,-1
1537907317870887,1,-2,-2,-3,0,-1,-1,2
1537907317870887,-1,-2,0,-1,1,0,0,1
1537907317872881,-2,-4,-1,0,2,0,0,0
1537907317872881,-1,-3,-4,-5,-5,-2,-1,0
1537907317885846,3,-1,-1,-3,-4,-1,-1,1
1537907317885846,0,-2,1,3,-2,-3,-1,0
1537907317899808,-6,0,0,4,1,-1,-2,-3
1537907317899808,-1,-3,-1,-4,-1,-4,0,-1
1537907317900805,-1,-2,-1,-5,-1,1,2,-1
1537907317900805,-4,-4,-1,5,4,3,2,0
1537907317908784,1,-2,-2,-21,2,4,1,2
1537907317908784,-2,0,6,22,19,5,1,0
1537907317922746,-3,0,6,3,-17,-6,-2,-5
1537907317922746,0,2,4,13,-9,-4,-3,-1
1537907317929727,0,-5,-9,-16,5,1,-4,-1
1537907317929727,-1,-2,5,10,-7,-1,-2,-1
1537907317953663,3,-2,9,70,45,13,6,7
1537907317953663,-4,-2,-5,-61,-20,-9,-6,-6
1537907317954660,6,3,2,29,-7,-1,7,7
1537907317954660,3,3,16,60,-27,-2,2,0
1537907317975605,-4,-1,-17,-50,8,4,-6,-6
1537907317975605,-2,-7,-52,-81,-74,-19,-3,2
1537907317977599,-4,-2,1,83,29,2,-1,-2
1537907317977599,4,8,-1,-96,0,12,2,2
1537907317982586,-4,3,2,-4,-7,-9,-6,-7
1537907317982586,5,12,19,26,56,29,10,4
1537907317989567,3,11,2,-8,-9,-19,-4,-1
1537907317989567,-6,5,-3,30,-3,-5,2,-1
1537907318005525,-2,15,4,-22,-5,0,0,-1
1537907318005525,-2,13,2,29,-3,-3,-3,-2
1537907318012506,0,10,4,0,-1,4,-4,-4
1537907318012506,0,11,-1,-12,6,-6,-3,0
1537907318036442,0,-3,-7,-17,-16,-6,0,0
1537907318036442,0,-11,5,32,18,1,3,0
1537907318037440,-3,-16,0,-14,-3,3,2,1
1537907318037440,0,-22,-9,-17,-6,-4,-2,-1
1537907318042426,1,-23,-3,7,4,1,0,0
1537907318042426,1,-24,7,21,12,1,-1,-1
1537907318049407,-3,-38,0,-22,-7,0,-2,-3
1537907318049407,-2,-23,-10,-19,-9,-4,-3,-4
1537907318065365,-1,-5,0,13,-1,1,0,1
1537907318065365,-1,5,6,-5,5,-2,-2,-3
1537907318072347,1,15,-5,-22,-10,-3,-3,-1
1537907318072347,-1,12,-3,12,6,1,0,-2
1537907318088304,1,12,0,-1,-5,2,1,1
1537907318088304,-1,10,3,1,1,-1,-1,-1
1537907318090299,0,8,0,-3,1,3,0,-1
1537907318090299,-1,2,0,8,7,3,-1,0
1537907318102267,1,5,-1,-4,-2,-2,1,-1
1537907318102267,0,2,-3,-7,-4,-3,-2,0
1537907318111242,-2,-2,-1,-5,-2,-1,0,-1
1537907318111242,2,-4,-2,-3,1,-2,0,2
1537907318125205,-3,-12,-1,-5,-4,0,0,-1
1537907318125205,0,-6,2,4,2,1,0,0
1537907318132186,-3,-7,-1,-6,-5,-3,0,-1
1537907318132186,-1,-7,-1,0,0,1,-2,-1
1537907318148143,2,-5,0,-3,8,0,0,1
1537907318148143,-2,-6,-2,17,-2,-4,-1,-3
1537907318150138,-2,3,-4,-38,-16,-3,-2,-2
1537907318150138,-2,1,1,6,-9,-6,-3,-3
1537907318162106,-3,2,-3,-7,-2,0,-1,-3
1537907318162106,-1,0,5,6,7,2,-1,-1
1537907318178064,2,1,-6,-3,-7,-3,-1,0
1537907318178064,-5,-5,1,11,-1,-2,-1,-3
1537907318186043,1,0,0,-17,0,0,0,2
1537907318186043,-2,-2,-2,-10,5,1,1,0
1537907318192027,1,2,1,3,2,-1,-1,-1
1537907318192027,0,5,-1,10,12,4,0,0
1537907318207984,-4,8,-1,-1,-16,-8,-2,-1
1537907318207984,1,5,-2,0,-2,-1,-1,0
1537907318208983,-2,2,0,3,0,-2,-1,-1
1537907318208983,0,4,-1,0,4,2,0,-1
1537907318223943,-1,2,2,10,1,0,-1,-1
1537907318223943,0,3,-3,-6,11,2,-1,0
1537907318229926,-3,0,2,-1,-10,-1,-1,-2
1537907318229926,-1,0,-4,-19,-14,-4,-2,-2
1537907318245884,-2,-2,-3,7,10,3,0,1
1537907318245884,4,-1,3,-6,-19,-4,-1,0
1537907318251870,-5,-3,0,15,13,2,1,-2
1537907318251870,-2,-5,-3,-10,-2,0,0,-1
1537907318274809,2,-5,-1,-7,-4,-3,-1,0
1537907318274809,2,-4,3,14,8,1,0,0
1537907318275805,-2,-5,-2,6,-2,0,-1,-2
1537907318275805,-1,-4,-2,-5,-3,-4,-2,0
1537907318283784,-2,-4,-1,6,0,1,-1,-2
1537907318283784,-3,-1,-2,2,2,0,0,0
1537907318289767,1,1,1,0,0,0,-1,0
1537907318289767,-1,2,0,-1,5,1,0,0
1537907318305724,0,1,-2,3,-4,-1,-3,-2
1537907318305724,0,3,-1,-3,-3,-2,-1,0
1537907318311707,0,0,-2,-3,1,-3,0,0
1537907318311707,1,1,-1,-2,-2,-2,-2,0
1537907318327663,-1,3,-1,1,-1,-1,0,-1
1537907318327663,-1,1,-2,-8,-4,0,0,-1
1537907318328661,-4,-3,1,1,2,1,-1,-2
1537907318328661,0,-10,-3,-6,9,3,1,0
1537907318343621,0,-5,2,10,-5,-5,-1,-1
1537907318343621,-2,-7,2,-2,-9,-4,-3,0
1537907318349604,2,-3,-3,-4,0,0,-2,0
1537907318349604,-1,-4,1,3,-3,0,-2,-2
1537907318365562,-1,-4,-2,-9,-3,1,0,1
1537907318365562,-1,-2,-2,4,5,1,-2,-1
1537907318371546,-2,2,-1,-2,0,-1,-1,-3
1537907318371546,1,8,1,1,1,-2,0,-2
1537907318387503,-3,2,-1,0,3,1,0,0
1537907318387503,3,5,0,-1,-4,-3,0,0
1537907318388501,-2,5,2,1,1,0,0,0
1537907318388501,-3,-1,-1,1,0,0,-2,-2
1537907318410442,-2,1,0,2,-1,-2,-2,-2
1537907318410442,0,0,-3,-6,0,1,-2,0
1537907318410442,0,1,2,11,4,0,0,-3
1537907318410442,1,-6,-2,-16,-5,-1,1,-1
1537907318424405,0,4,0,42,39,11,4,2
1537907318424405,-5,-1,-6,-82,-81,-24,-6,-6
1537907318432384,5,0,-2,1,28,9,3,5
1537907318432384,-2,-2,8,39,3,2,5,0
1537907318455324,-3,-5,-12,-16,-31,-18,-11,-7
1537907318455324,1,-3,15,113,77,18,8,4
1537907318456322,-9,-4,-21,-103,-95,-27,-13,-11
1537907318456322,14,12,21,119,74,23,9,16
1537907318478261,-9,-1,-4,-103,-73,-36,-14,-14
1537907318478261,2,7,8,-56,91,42,10,2
1537907318478261,0,3,8,23,-77,-31,-8,0
1537907318478261,-5,-1,-19,4,16,2,2,-1
1537907318493222,7,10,5,48,72,30,6,7
1537907318493222,1,12,2,2,-43,-24,0,1
1537907318493222,2,14,13,16,66,24,13,1
1537907318493222,-2,13,-1,-44,-23,-5,-6,-4
1537907318515162,-1,13,0,25,-11,-3,0,0
1537907318515162,-4,9,-2,13,-1,1,-2,-1
1537907318516160,3,15,3,27,16,3,-3,2
1537907318516160,-3,4,-6,-11,-28,-13,-5,-3
1537907318538101,0,-2,-4,-17,-4,7,6,2
1537907318538101,-3,0,-1,7,-7,-3,-6,-2
1537907318539098,-2,-13,-5,-7,4,-1,-1,1
1537907318539098,-3,-21,-5,-32,-15,-7,-3,-3
1537907318553061,1,-35,4,0,6,2,1,1
1537907318553061,-1,-75,-6,-8,-18,-6,-2,-2
1537907318553061,-2,-68,-3,18,5,-2,-1,-1
1537907318553061,-2,-29,0,-18,-8,-2,0,-3
1537907318575002,0,-2,2,8,-4,-2,0,1
1537907318575002,-3,25,-5,12,-5,-3,-1,-4
1537907318576000,-1,29,-2,-3,10,6,0,-2
1537907318576000,-2,26,0,-10,-4,0,-5,-1
1537907318597941,-1,20,-1,-6,-5,-3,0,0
1537907318597941,0,17,-4,2,-2,-1,0,0
1537907318598938,8,8,2,7,14,7,1,3
1537907318598938,-6,6,0,-17,-10,-5,-1,-4
1537907318612901,-4,-2,0,5,-2,-2,-1,-5
1537907318612901,1,-2,0,-2,-4,-3,-2,-2
1537907318612901,-1,-3,1,3,4,-1,1,-1
1537907318612901,4,-10,-3,-4,-5,-2,0,0
1537907318634843,1,-13,-3,-2,0,1,1,0
1537907318634843,-3,-9,0,0,0,-1,-1,-1
1537907318635840,-1,-7,0,-5,3,2,-1,0
1537907318635840,-3,-9,-3,3,10,2,0,1
1537907318658778,0,-7,2,-20,-8,-2,-1,0
1537907318658778,-1,-13,-2,50,2,-3,-2,-2
1537907318658778,-4,-5,-7,-61,-21,-5,-3,-2
1537907318658778,-1,-2,-3,-13,-16,-5,-3,-3
1537907318672741,2,8,0,9,14,6,3,3
1537907318672741,2,10,-2,-10,-1,-1,0,2
1537907318680719,-4,3,3,15,15,3,-1,-2
1537907318680719,0,4,-1,-5,-1,0,-2,-2
1537907318695679,-4,4,0,4,-5,-4,-3,-1
1537907318695679,2,9,-1,-15,-5,-2,-1,0
1537907318695679,0,9,-1,17,6,2,0,0
1537907318695679,-3,8,-1,-11,-3,0,0,-1
1537907318718619,-1,5,-2,9,1,-1,-1,-2
1537907318718619,-2,3,-1,-6,-2,-1,-2,-3
1537907318719616,1,8,-4,6,7,3,1,0
1537907318719616,1,5,2,9,-5,-3,0,0
1537907318733578,1,2,-2,-2,-7,-1,-1,1
1537907318733578,-2,3,-2,-9,1,0,0,1
1537907318733578,-1,3,-1,6,1,0,-2,-2
1537907318733578,-2,-2,2,27,21,4,0,-1
1537907318755520,-3,-8,-8,-25,-37,-12,-5,-4
1537907318755520,2,-5,-4,-11,-7,-3,-1,0
1537907318755520,0,-6,4,12,6,0,1,3
1537907318755520,3,-10,-2,9,7,3,0,0
1537907318778458,1,-8,2,-12,5,0,2,0
1537907318778458,-3,-9,-2,3,-3,-1,0,-1
1537907318779456,-2,-9,-1,-3,-4,-3,-3,-3
1537907318779456,1,-3,2,-7,-1,0,-2,-2
1537907318800400,1,0,-1,7,7,2,-2,1
1537907318800400,-1,1,-1,-3,-6,-2,-1,-1
1537907318801398,-2,4,0,6,5,1,0,0
1537907318801398,0,3,-4,-10,-12,-3,-3,-2
1537907318831319,-2,4,1,6,9,2,1,-1
1537907318831319,0,2,-4,-8,-4,-3,0,1
1537907318831319,0,3,0,7,-3,-2,0,-1
1537907318831319,-3,1,-4,-8,-4,-1,-1,-2
1537907318838300,1,0,-1,3,1,0,0,1
1537907318838300,-1,1,1,3,3,1,0,-1
1537907318839298,3,-2,-1,-3,-7,-4,-1,0
1537907318839298,-3,-2,-3,-8,-9,-2,-2,0
1537907318853260,-3,-4,0,3,5,1,0,-1
1537907318853260,1,-1,-1,-3,-6,-3,-2,0
1537907318853260,1,-3,-1,0,1,0,-1,-1
1537907318853260,5,0,-1,-4,-1,0,-2,1
1537907318875202,0,0,1,1,1,2,0,1
1537907318875202,-7,-2,0,-2,-2,1,-1,-4
1537907318876199,-3,0,0,1,1,1,0,-3
1537907318876199,2,-1,-1,-4,-4,-2,0,-1
1537907318906119,2,1,0,8,8,3,1,2
1537907318906119,1,1,3,-4,23,6,0,0
1537907318907116,-2,-2,-1,84,-2,-4,-1,1
1537907318907116,-4,-2,-2,-30,4,-1,-4,-3
1537907318913101,1,-8,-37,-63,13,9,5,1
1537907318913101,3,22,40,51,-53,-14,1,4
1537907318913101,-5,-8,5,-57,-40,-16,-8,-7
1537907318913101,-3,-5,-43,84,80,27,9,2
1537907318935042,-3,-5,13,-41,-67,-22,-7,-7
1537907318935042,-8,-32,-93,-60,-32,-11,-8,-5
1537907318936040,1,-2,73,22,40,11,3,2
1537907318936040,0,26,-70,26,-54,-14,-6,-2
1537907318957979,-1,-6,77,-39,-10,-1,-3,2
1537907318957979,1,4,20,127,84,25,8,2
1537907318958976,-6,8,-8,-94,-76,-23,-10,-6
1537907318958976,-3,-3,79,-61,5,5,-1,-4
1537907318972938,3,21,-58,33,40,11,6,2
1537907318972938,-3,20,-20,-5,-27,-10,-6,-4
1537907318972938,1,20,-15,11,28,10,5,4
1537907318972938,-1,19,31,18,2,-1,-2,0
1537907318994880,-3,11,4,12,-22,-8,-3,-3
1537907318994880,-2,5,24,-23,11,4,0,0
1537907318995878,2,-6,-35,-2,7,3,-2,0
1537907318995878,1,-21,12,-13,-9,-4,-1,1
1537907319018816,1,-26,4,25,3,-2,-2,-2
1537907319018816,2,-59,-11,-41,-4,-2,0,-2
1537907319018816,1,-84,5,18,10,2,1,-1
1537907319018816,-2,-51,-6,-14,-20,-8,-1,-3
1537907319032778,-2,-20,-8,16,15,3,-1,0
1537907319032778,1,23,12,-3,2,1,0,-2
1537907319033776,1,36,-10,0,-5,-1,0,2
1537907319033776,1,20,3,3,4,0,0,0
1537907319054720,0,20,-9,8,4,2,-2,-1
1537907319054720,1,17,11,-10,0,1,0,1
1537907319055718,-2,17,-5,2,6,0,1,0
1537907319055718,-4,7,-11,-15,-7,-4,-1,-1
1537907319085640,-1,9,8,20,8,1,-1,2
1537907319085640,0,0,3,-12,-6,-4,-3,-1
1537907319086636,0,0,-6,5,8,2,1,0
1537907319086636,0,2,1,-1,-4,-3,0,0
1537907319092620,-2,-4,-2,3,-5,-3,-2,-1
1537907319092620,4,-6,4,-3,7,1,-1,-1
1537907319093618,-3,1,-10,-3,-3,0,-1,-3
1537907319093618,1,-4,0,-2,-2,-2,-1,-1
1537907319115560,-1,-3,1,5,2,1,1,0
1537907319115560,-1,-4,-3,-10,-1,-1,-2,0
1537907319115560,-1,1,1,-1,1,1,-2,-4
1537907319115560,-1,-2,-1,2,0,-1,0,-2
1537907319145478,-2,0,-3,5,-2,-2,-2,-1
1537907319145478,-1,2,4,-1,-1,0,-1,2
1537907319146475,1,3,-2,-5,17,5,3,1
1537907319146475,2,0,-2,25,-2,-4,0,1
1537907319152460,-2,0,-1,-15,-37,-11,-2,-2
1537907319152460,-1,0,1,-6,-2,-2,0,-1
1537907319153457,-2,0,-3,-6,-6,-1,-2,0
1537907319153457,-3,-2,-2,5,13,2,1,-1
1537907319183376,1,-2,2,12,16,4,2,0
1537907319183376,0,-4,-4,0,-9,-5,-1,1
1537907319184374,1,-4,2,22,15,5,1,2
1537907319184374,-2,-2,-6,-29,-15,-6,-4,-3
1537907319198336,-2,2,-2,4,1,-1,-2,-2
1537907319198336,-2,2,-1,-2,25,9,2,0
1537907319199334,-6,2,-6,-5,-26,-12,-6,-4
1537907319199334,-1,6,-7,-36,-23,-5,-2,0
1537907319212299,0,5,1,-2,2,1,0,0
1537907319212299,0,3,-1,-7,5,2,-2,-3
1537907319213297,-3,2,-3,-5,9,3,1,-1
1537907319213297,-1,-1,8,19,-2,-1,-1,-1
1537907319235240,-1,-2,-3,0,4,0,-1,-1
1537907319235240,0,0,0,-2,-4,-2,-3,-1
1537907319236236,2,0,-1,3,-3,-3,-1,1
1537907319236236,0,-3,0,-1,-3,0,-1,0
1537907319258177,1,-2,0,-1,10,4,1,2
1537907319258177,-1,-4,3,10,-4,-3,-2,-2
1537907319259176,0,-4,-2,-7,-12,-4,-3,1
1537907319259176,-3,-4,-1,3,7,1,0,-2
1537907319272140,2,-5,0,3,5,0,-1,1
1537907319272140,-4,-2,-2,-8,-11,-5,-1,-1
1537907319288097,1,-1,0,5,5,0,0,-2
1537907319288097,1,-1,0,1,1,-1,2,-1
1537907319295079,-1,2,0,6,0,-1,0,-1
1537907319295079,0,-1,-3,-15,-8,-3,1,-1
1537907319296077,1,0,0,12,7,1,1,0
1537907319296077,0,-2,-1,2,3,0,0,-1
1537907319318017,-1,-2,-1,-6,-8,-3,-1,-1
1537907319318017,-2,-1,1,5,6,1,-1,1
1537907319319016,-1,-2,-1,9,-8,-3,-2,0
1537907319319016,2,-2,1,0,1,1,-1,1
1537907319332979,-3,-5,-1,1,-1,-2,-2,-3
1537907319332979,0,0,0,4,-1,0,-2,0
1537907319339959,0,0,1,-11,2,4,0,-3
1537907319339959,-2,0,-1,7,1,-1,-1,0
1537907319354918,1,2,0,0,2,1,-1,-1
1537907319354918,-5,-1,-1,-2,-4,-1,-2,-1
1537907319355915,-2,0,-3,-4,-2,-1,0,0
1537907319355915,0,2,1,-4,-1,0,0,-1
1537907319378853,0,0,-2,0,3,0,-1,0
1537907319378853,0,2,0,1,0,1,0,-2
1537907319378853,0,2,-2,-10,-10,-4,-2,0
1537907319378853,3,1,1,0,2,1,-2,0
1537907319391819,-2,1,-1,0,1,0,0,-2
1537907319391819,-3,-2,-1,-3,-6,-2,-2,0
1537907319399798,-1,-1,0,8,6,-1,1,-1
1537907319399798,-2,0,-1,2,-4,-2,-2,1
1537907319415755,3,-1,-1,-6,3,2,0,0
1537907319415755,-2,-1,2,16,5,-2,0,-2
1537907319416753,-3,-4,-5,-32,-17,-3,-2,-2
1537907319416753,-2,-2,1,10,-9,-4,-3,-1
1537907319438694,-4,-4,-2,-5,-4,-1,0,-1
1537907319438694,2,0,-1,5,3,0,1,1
1537907319438694,1,-1,2,6,9,3,0,-1
1537907319438694,-4,-3,-2,-3,-2,-2,-1,-2
1537907319462631,1,1,-1,-2,-1,-1,0,-1
1537907319462631,-1,-2,0,1,0,1,0,-2
1537907319463630,1,1,-3,-30,13,4,1,0
1537907319463630,-4,-2,0,26,-17,-9,-4,-3
1537907319467617,-2,-2,-3,21,4,0,0,-3
1537907319467617,-1,-3,-11,-24,9,3,1,2
1537907319474599,0,-1,18,18,12,4,1,-1
1537907319474599,5,16,25,-4,11,5,4,1
1537907319490556,-6,-17,-86,-43,-40,-15,-7,-5
1537907319490556,2,8,27,29,-22,-8,-2,2
1537907319490556,-2,-18,-86,-78,-47,-12,-3,0
1537907319490556,2,-4,28,83,68,19,7,3
1537907319504519,-2,3,48,11,-30,-6,-5,-4
1537907319504519,7,15,18,-4,4,4,3,6
1537907319512498,-2,-4,-73,-50,-15,-7,-6,-4
1537907319512498,-3,-1,72,-17,-24,-13,-7,-1
1537907319528456,7,8,7,25,47,15,8,9
1537907319528456,-5,-2,63,41,-7,0,-1,-5
1537907319534438,-5,15,-20,31,3,5,-2,-3
1537907319534438,-4,1,-58,-23,-18,-4,-2,-5
1537907319550395,1,6,-22,43,76,21,4,1
1537907319550395,-3,4,47,-69,-65,-22,-7,-6
1537907319551393,2,7,-6,52,22,5,1,3
1537907319551393,-2,2,23,-14,-16,-4,2,0
1537907319564357,2,-2,-6,8,11,2,-2,2
1537907319564357,-2,-18,-44,6,9,-2,-1,-2
1537907319572336,0,-10,47,-58,3,1,0,-2
1537907319572336,3,-7,-31,-12,7,0,2,3
1537907319587296,-2,-14,18,-9,-25,-9,-2,-1
1537907319587296,-1,-17,-30,-21,9,1,-1,-2
1537907319594277,1,-8,42,36,-1,-2,-1,1
1537907319594277,-1,-9,-21,12,6,2,0,0
1537907319618213,-3,-3,4,-30,-18,-5,-3,-3
1537907319618213,-1,3,-11,16,11,4,0,-1
1537907319619211,2,11,13,34,12,2,2,2
1537907319619211,0,4,-15,-27,-11,-2,-1,0
1537907319633173,-3,6,10,-5,-9,-5,-2,-1
1537907319633173,-2,5,-21,-7,9,2,0,0
1537907319633173,-1,2,19,20,0,-3,-1,-1
1537907319633173,-1,-3,-9,-23,-6,-1,-1,-2
1537907319647136,-2,-1,10,-6,-9,-4,-2,-1
1537907319647136,2,-5,-16,12,9,-1,-1,-2
1537907319654117,-2,-4,10,1,-5,-5,-4,-2
1537907319654117,-2,0,-2,-4,-4,0,-2,0
1537907319669078,-7,0,-1,0,-2,-1,-2,-5
1537907319669078,1,0,-10,-9,-2,-1,-2,0
1537907319678054,-1,-2,12,18,8,3,1,-3
1537907319678054,1,3,-8,-15,-7,-5,-1,1
1537907319684038,-1,1,4,1,-2,-1,0,0
1537907319684038,-2,0,-8,-3,1,-1,0,-1
1537907319692017,0,1,9,8,-3,-2,-2,-1
1537907319692017,-2,-2,-3,3,3,2,-1,-1
1537907319706977,1,0,0,-7,-4,-2,0,-2
1537907319706977,-5,-2,-4,5,0,-3,-3,-2
1537907319714955,0,3,3,5,2,-1,1,1
1537907319714955,-1,-2,-3,-1,3,0,0,-2
1537907319729915,-1,-3,-1,0,-1,-2,0,1
1537907319729915,1,0,-3,-6,11,3,-1,2
1537907319737894,-4,-2,1,5,-19,-8,-4,-3
1537907319737894,-2,-7,-3,-13,8,1,0,0
1537907319744875,-3,0,3,3,-5,-2,-3,-3
1537907319744875,2,0,-7,-2,-4,-1,-1,1
1537907319751857,0,-2,4,1,10,2,0,1
1537907319751857,0,-2,0,16,5,1,-1,0
1537907319766816,0,1,2,8,1,0,0,-1
1537907319766816,-3,0,-5,-9,-3,0,1,-2
1537907319774795,-1,2,2,6,5,1,1,1
1537907319774795,0,7,-3,-17,-10,-4,-1,-1
1537907319789755,-3,2,-3,1,-7,-4,-3,-2
1537907319789755,-2,2,-2,-16,2,2,1,0
1537907319805712,-2,-3,0,7,-17,-5,-3,-1
1537907319805712,-2,1,-2,5,9,4,1,-1
1537907319807707,-1,0,-1,-4,-5,-2,-1,0
1537907319807707,1,-2,1,-16,6,1,1,1
1537907319811696,0,-3,-6,10,1,-4,-2,-3
1537907319811696,-5,-4,-1,-3,1,-2,-3,-4
1537907319826656,0,-3,0,-7,-9,-2,-1,0
1537907319826656,-1,-5,-3,6,0,-1,0,0
1537907319834635,0,-4,2,-1,7,2,0,2
1537907319834635,-1,-4,-2,-3,-6,-3,-1,-1
1537907319850594,0,-1,-1,-1,5,-1,1,-2
1537907319850594,-2,-4,-2,6,-5,-3,-3,-3
1537907319857576,-1,1,0,-4,0,-1,-2,-1
1537907319857576,0,-1,-2,-2,-5,-1,-2,-2
1537907319872535,-2,1,1,-4,2,1,1,0
1537907319872535,-3,-2,-1,7,-3,-2,0,-1
1537907319873534,-2,-1,1,-6,2,3,-1,-2
1537907319873534,-1,0,-2,0,-5,-2,-2,-1
1537907319887497,1,0,0,-1,2,0,-1,1
1537907319887497,-1,-1,-3,0,0,0,-1,-2
1537907319894476,0,-1,2,1,0,1,-1,-2
1537907319894476,-3,-3,-1,2,-3,-2,-2,-2
1537907319918413,-1,-2,-1,-3,-1,0,-1,-2
1537907319918413,-2,-3,3,11,3,1,-2,-2
1537907319919411,1,0,-5,-12,-8,-3,0,-1
1537907319919411,1,-4,2,0,13,6,1,0
1537907319941351,0,-2,-2,3,-16,-7,-1,-1
1537907319941351,-4,-1,-4,-9,-8,-3,-3,-2
1537907319941351,-1,-1,1,4,3,1,1,-3
1537907319941351,0,1,-3,1,-5,-2,1,2
1537907319947335,2,0,-1,-7,8,3,3,2
1537907319947335,-1,2,2,6,2,3,2,1
1537907319954315,0,-2,-4,-8,-9,-3,-1,1
1537907319954315,1,0,-1,0,0,0,0,1
1537907319969275,-3,-1,0,-3,3,0,-2,1
1537907319969275,-2,-1,-3,1,-6,-3,-1,-1
1537907319978251,-2,1,-2,1,3,-1,0,1
1537907319978251,0,-1,-1,1,-2,-1,-2,-1
1537907319992214,0,-2,-3,-3,0,0,0,0
1537907319992214,0,-2,0,6,-1,-2,-1,-1
1537907319993211,1,-1,-2,-9,-1,1,0,1
1537907319993211,-2,-2,-4,-6,-2,-2,0,0
1537907320016150,-1,-1,-3,-17,-6,-2,0,0
1537907320016150,-1,2,3,8,-2,-3,0,0
1537907320016150,0,-2,0,9,-1,-2,-1,0
1537907320016150,-1,0,0,-7,-4,-1,-1,-2
1537907320029115,-2,-3,-2,-4,0,0,-3,-2
1537907320029115,-2,1,-1,3,5,2,1,-2
1537907320038091,-1,0,-2,-4,1,1,-1,-2
1537907320038091,-2,-1,-1,1,0,0,-2,-2
1537907320053051,1,2,1,4,2,-1,2,0
1537907320053051,-1,-2,-1,-6,0,0,-1,-1
1537907320053051,-2,0,0,4,2,1,-1,-1
1537907320053051,0,-1,0,-2,-2,-2,-1,0
1537907320067014,-2,-2,0,0,2,0,-1,0
1537907320067014,-1,-2,-1,0,-2,-2,0,-1
1537907320074993,-1,-1,-2,-5,-1,-2,-1,-1
1537907320074993,-1,0,-1,1,-3,-1,0,0
1537907320090951,-2,-1,-1,1,-1,0,-3,0
1537907320090951,2,1,-1,-7,-4,-2,0,0
1537907320097932,-1,-2,2,-1,4,0,0,-2
1537907320097932,-1,-2,0,2,-2,-2,-2,-1
1537907320120871,0,0,0,4,0,-1,0,1
1537907320120871,-2,-2,-3,-4,0,0,-1,0
1537907320121869,-2,-1,0,1,-1,-1,2,-1
1537907320121869,0,0,-1,1,-3,-4,0,0
1537907320126856,-2,-2,0,-7,7,3,1,-1
1537907320126856,2,2,3,19,3,1,-1,0
1537907320142813,0,0,-8,-23,-13,-6,-3,-1
1537907320142813,-1,-1,5,26,3,3,-2,-1
1537907320149795,-1,0,-1,29,1,-2,0,-1
1537907320149795,0,-2,-8,-51,-18,-5,-1,0
1537907320157772,-1,-2,7,22,22,6,1,-1
1537907320157772,2,-3,3,20,2,-3,0,0
1537907320172731,-2,1,12,48,19,4,-2,-3
1537907320172731,1,3,-29,-77,-41,-12,0,-1
1537907320173729,1,2,-10,14,-3,0,-1,-1
1537907320173729,-2,-7,-40,-23,2,0,-1,-3
1537907320195670,-3,-11,-9,-87,-21,-5,-5,-4
1537907320195670,2,11,101,88,13,3,2,3
1537907320195670,-7,-11,-86,32,-27,-10,-5,-6
1537907320195670,4,11,24,-28,24,8,4,4
1537907320209633,3,2,4,-19,-15,-4,0,1
1537907320209633,-3,-5,-6,-9,2,-1,-3,-1
1537907320217611,1,4,30,-15,11,2,0,1
1537907320217611,-4,-8,11,36,8,3,0,-2
1537907320232571,-1,4,-15,0,1,-1,0,-1
1537907320232571,0,1,-8,-13,1,1,0,-1
1537907320233569,-2,-1,15,3,2,-1,1,0
1537907320233569,-1,0,-15,-16,-10,-4,0,-2
1537907320246534,0,-2,9,-4,3,2,-2,-1
1537907320246534,0,-5,-15,54,14,2,1,-1
1537907320254513,-1,-5,5,-14,0,1,-2,-2
1537907320254513,1,-2,3,-58,-25,-8,-4,-1
1537907320269474,0,1,-3,13,-2,-2,-1,1
1537907320269474,-1,-10,-8,13,10,2,-2,-2
1537907320277453,0,-2,4,-9,-2,-1,1,0
1537907320277453,-1,-4,8,12,4,1,-2,-1
1537907320292413,1,-5,-2,9,-1,-2,1,0
1537907320292413,-1,-4,-16,-25,0,1,-2,-3
1537907320293411,0,1,10,-7,4,1,0,2
1537907320293411,-2,3,-3,11,-3,-3,-2,0
1537907320307372,-1,0,0,7,5,1,1,-2
1537907320307372,-1,2,-7,5,-1,-1,-2,0
1537907320322333,-1,3,7,-1,-1,-1,0,-1
1537907320322333,-3,3,1,15,0,-1,-1,-2
1537907320329314,0,2,-3,-2,-6,-2,-1,0
1537907320329314,2,2,-1,-6,0,-2,-2,-1
1537907320338289,-3,2,2,-1,-1,0,-3,0
1537907320338289,-3,-1,-2,-7,-1,-2,0,0
1537907320361228,1,-1,2,6,3,0,0,-2
1537907320361228,-1,-2,-5,-1,1,0,-1,-2
1537907320362225,2,0,1,-10,-3,-3,-1,0
1537907320362225,1,0,-1,10,-1,-1,0,-1
1537907320374193,0,-1,-2,4,-2,-2,-2,0
1537907320374193,-2,-2,0,5,1,2,0,-3
1537907320389153,-1,-2,1,-5,2,-1,1,-2
1537907320389153,0,-1,0,10,9,2,0,-1
1537907320398129,-1,0,0,-3,-5,-2,-1,1
1537907320398129,-1,-3,-4,-5,-7,-4,-2,-1
1537907320404113,0,-1,2,-11,1,2,0,0
1537907320404113,-1,-1,2,29,-5,-3,0,0
1537907320420070,-1,-2,-5,-23,8,1,-1,-1
1537907320420070,-4,-3,3,33,20,4,1,-1
1537907320428049,1,-1,-5,-38,-25,-7,-3,0
1537907320428049,2,-1,-3,-4,13,3,0,-1
1537907320434033,-2,2,6,15,-9,-3,1,-1
1537907320434033,-2,1,-3,-7,-8,-3,-2,0
1537907320443009,-2,-1,1,12,12,1,0,0
1537907320443009,-1,2,0,8,-3,-1,0,-2
1537907320457970,-2,3,-6,-23,-10,-2,0,-1
1537907320457970,-1,0,-1,-11,-6,-2,-1,-3
1537907320471934,1,2,1,9,0,-1,0,0
1537907320471934,-1,2,-2,-5,-3,-2,0,-1
1537907320480909,0,2,3,12,8,2,0,0
1537907320480909,0,0,-4,-9,1,-2,-1,-1
1537907320481923,-1,-2,0,5,-3,0,-1,-2
1537907320481923,-1,-3,-3,3,-7,-3,1,-2
1537907320494870,0,-4,0,11,2,0,0,-1
1537907320494870,-1,-6,-3,-6,4,2,1,-1
1537907320503847,0,-4,-2,2,-2,-4,-2,0
1537907320503847,0,-2,-3,-21,-8,-4,-3,-2
1537907320517809,-1,-5,-3,4,-6,-2,-1,-1
1537907320517809,1,-2,-4,-3,-1,-1,0,1
1537907320524791,-1,0,2,9,10,3,0,-1
1537907320524791,-1,-2,2,-2,2,1,0,-1
1537907320540748,0,0,-5,-6,-1,-3,-1,-1
1537907320540748,0,1,3,3,-1,-1,-2,-3
1537907320542743,0,0,-1,-3,-1,-2,0,-1
1537907320542743,0,0,-4,-9,-6,-2,-1,-1
1537907320554712,-1,-3,2,4,0,2,-1,0
1537907320554712,0,-1,-2,-7,-1,-1,-1,1
1537907320563688,-2,-1,0,8,0,-1,-3,-1
1537907320563688,-1,-1,-3,-10,-4,0,0,-1
1537907320577649,-1,-3,-3,1,-1,0,0,-2
1537907320577649,1,-1,1,-7,-7,-1,0,0
1537907320584630,1,-1,1,7,2,1,1,-1
1537907320584630,0,-6,-5,-5,-2,1,-1,0
1537907320600587,-2,3,-2,-2,4,1,-1,-3
1537907320600587,-3,0,11,11,0,-2,-1,-1
1537907320602582,-6,-1,19,-4,-10,-3,-4,-4
1537907320602582,-1,-8,-60,-6,-2,-3,-3,-1
1537907320623526,1,16,16,-3,5,4,1,3
1537907320623526,-3,-3,-19,-5,-1,-1,-1,-1
1537907320624523,3,9,20,6,4,1,1,1
1537907320624523,-3,-7,16,-4,-3,-1,0,-1
1537907320637489,-2,-12,16,-2,-6,-3,-2,-4
1537907320637489,0,17,-1,7,-1,-2,2,4
1537907320644470,1,-17,-17,-7,-1,-2,-1,5
1537907320644470,6,19,-6,19,9,2,3,17
1537907320668407,-4,-6,-10,-7,-3,-2,-10,-21
1537907320668407,-1,22,49,-12,-7,-2,-3,-10
1537907320669404,1,9,-17,6,-2,0,0,1
1537907320669404,-3,-57,-6,-11,-4,-2,0,25
1537907320683366,-12,9,8,-1,-2,-1,0,-38
1537907320683366,13,2,-25,5,5,3,5,50
1537907320684364,8,16,29,1,-2,-2,-1,20
1537907320684364,-2,16,-19,-6,-1,0,0,-26
1537907320706305,-3,-29,-12,-5,-6,-2,-1,-4
1537907320706305,-6,-75,-101,-18,-4,-1,-2,-19
1537907320707305,-3,21,23,5,6,2,4,-5
1537907320707305,0,-14,76,10,-2,-4,-1,10
1537907320721267,-3,-25,11,3,-2,-3,0,11
1537907320721267,6,1,7,12,-2,-1,0,0
1537907320722266,-3,1,-58,-14,-2,2,-1,-3
1537907320722266,-12,-54,-44,1,0,-5,-1,23
1537907320742209,5,52,2,-17,-9,-3,-5,-30
1537907320742209,-6,42,110,11,3,0,-3,-8
1537907320751185,9,19,-12,24,5,8,5,-13
1537907320751185,1,21,-13,-33,-4,0,0,33
1537907320757169,3,-6,31,6,4,-2,-1,4
1537907320757169,-7,-32,-39,-9,-3,-3,-1,-12
1537907320766145,1,11,25,-3,-2,-4,-12,-30
1537907320766145,-5,35,52,23,1,6,7,2
1537907320781105,5,-29,-38,-14,-6,-1,2,10
1537907320781105,-9,26,57,2,-6,-1,2,-26
1537907320782103,3,24,-22,11,13,2,-2,0
1537907320782103,-7,-25,12,2,-7,-11,-16,-52
1537907320811025,2,-14,-51,1,-1,0,5,29
1537907320811025,-1,-23,-20,-9,1,12,2,7
1537907320812022,-11,-40,-28,-15,-9,-20,10,22
1537907320812022,2,29,13,0,-1,-1,-10,-15
1537907320817009,-5,1,15,7,3,12,2,6
1537907320817009,7,18,-30,-3,-1,-17,6,-2
1537907320825985,-4,-30,9,-12,-10,4,1,0
1537907320825985,1,24,19,8,-2,-6,-13,-21
1537907320840945,-2,1,-18,3,1,-3,-3,16
1537907320840945,5,10,7,1,4,6,-2,20
1537907320841942,-7,8,47,6,0,1,-3,-30
1537907320841942,1,-12,-46,-21,-3,0,8,5
1537907320862886,6,-2,35,3,3,1,-5,9
1537907320862886,-4,1,-5,4,2,1,-2,7
1537907320864881,-5,-17,28,3,4,0,0,10
1537907320864881,1,10,-8,-18,-11,2,2,-16
1537907320876849,1,9,-19,6,5,-2,1,5
1537907320876849,-3,-10,15,0,0,-3,-1,-13
1537907320885825,0,-3,-20,-1,2,0,-4,0
1537907320885825,1,-9,2,18,4,1,1,8
1537907320900786,1,7,20,9,2,-2,0,0
1537907320900786,-2,1,-21,-23,-19,-9,-6,-4
1537907320902782,-2,-4,-28,-27,-6,3,-2,4
1537907320902782,2,6,-5,8,9,5,4,2
1537907320923725,-3,-4,18,-21,-16,-6,-3,-5
1537907320923725,-4,14,-17,19,4,3,-3,-8
1537907320924723,0,-25,-20,5,1,-1,-1,5
1537907320924723,4,9,39,-1,3,1,1,-3
1537907320938687,0,5,-20,9,5,0,2,-4
1537907320938687,-3,-10,24,1,1,-1,-5,4
1537907320945666,0,2,4,-8,-7,-2,0,1
1537907320945666,1,-1,-27,-1,1,1,1,0
1537907320959629,-3,-2,-34,4,0,0,-1,-6
1537907320959629,2,3,36,-15,-1,-2,0,1
1537907320968606,-1,-3,-25,15,6,1,-1,0
1537907320968606,-6,-8,-12,-31,1,-1,-5,-5
1537907320983565,3,11,18,22,-2,-2,2,4
1537907320983565,1,-9,-24,0,-2,0,0,-3
1537907320984562,-1,-1,85,12,-2,-2,-3,-3
1537907320984562,-5,-1,-83,-26,-13,-6,-3,-3
1537907320998524,5,-10,53,21,21,8,7,2
1537907320998524,8,5,22,-5,1,-1,0,8
1537907321006502,0,0,-16,1,-4,-4,1,5
1537907321006502,2,-15,0,14,3,4,1,0
1537907321020465,-6,1,26,-15,-4,-2,-3,-6
1537907321020465,-5,-18,-37,10,-2,0,0,12
1537907321027446,0,8,11,-9,0,0,1,11
1537907321027446,-1,15,12,8,-7,-5,-1,-19
1537907321043403,1,13,-6,-9,-5,-3,2,16
1537907321043403,1,-8,-7,0,4,1,0,-24
1537907321044402,-5,-4,-19,-15,-2,1,-5,-13
1537907321044402,-1,-2,-4,-4,1,0,4,9
1537907321057366,-1,1,-55,13,-3,0,-3,-8
1537907321057366,-3,8,59,2,-1,-4,-1,4
1537907321066343,7,-3,-21,-14,-6,-3,0,4
1537907321066343,0,-1,-11,7,-1,0,-3,-6
1537907321081302,1,6,17,24,1,-1,-1,3
1537907321081302,-1,-3,-8,-19,-2,-1,1,-1
1537907321082300,-2,-3,-14,14,7,1,0,-1
1537907321082300,0,-5,-7,-32,-14,-5,-2,5
1537907321103244,-3,-5,-5,-7,1,-1,-2,-4
1537907321103244,-2,6,-7,8,2,0,-2,-1
1537907321105239,-6,-16,-30,-15,-7,-1,-1,-9
1537907321105239,7,23,112,31,11,5,2,4
1537907321117207,0,2,-14,-12,-2,1,-1,1
1537907321117207,-2,-3,2,-9,-6,-3,-5,-8
1537907321126186,1,3,-27,3,0,0,-1,1
1537907321126186,0,-31,-38,10,9,4,3,5
1537907321141144,-4,-1,-3,-14,-5,-2,-1,-2
1537907321141144,1,1,-10,4,0,-1,1,2
1537907321142142,0,7,17,9,10,2,1,0
1537907321142142,-6,-27,-67,-17,-14,-7,-5,-3
1537907321163087,0,59,101,3,-4,-3,-2,-7
1537907321163087,-2,-54,-31,0,6,3,1,3
1537907321165080,2,12,9,-9,-11,-5,-1,3
1537907321165080,0,14,13,-1,3,1,0,-1
1537907321177048,-1,-19,-53,-9,1,0,1,0
1537907321177048,-2,15,12,4,4,1,-2,-3
1537907321186025,2,-5,21,0,-3,-1,0,0
1537907321186025,-1,0,-1,-6,-3,-1,0,0
1537907321200983,-2,-11,-20,-5,-2,-1,-2,-3
1537907321200983,2,7,16,18,1,0,1,-1
1537907321201994,-1,-10,-21,-5,-4,0,-2,0
1537907321201994,2,16,21,9,2,1,0,-2
1537907321222924,-4,-14,-15,-3,0,-1,0,0
1537907321222924,2,9,-2,-6,0,1,1,3
1537907321224919,-4,0,12,3,-3,-2,0,-3
1537907321224919,0,5,17,-1,2,0,4,13
1537907321236886,-1,-9,-1,-7,-7,0,-1,3
1537907321236886,-5,-2,-27,-5,-1,-5,-2,-4
1537907321245862,-3,-1,3,-7,-2,0,-3,1
1537907321245862,8,17,15,24,12,3,1,-4
1537907321260822,-2,-10,0,3,-2,0,-1,-3
1537907321260822,1,8,-23,14,1,3,3,4
1537907321262817,-2,-7,9,-21,-5,-3,-2,-6
1537907321262817,-7,-9,11,-14,-6,0,-2,-7
1537907321283761,6,18,5,13,-8,-4,4,4
1537907321283761,-2,-15,-55,-18,-5,-1,-3,-2
1537907321284759,3,9,41,13,7,2,0,0
1537907321284759,-4,-10,18,7,2,1,-1,0
1537907321296726,-10,-42,-31,0,5,-2,-1,0
1537907321296726,7,47,6,-7,-6,-4,0,-4
1537907321305702,-6,-14,-27,1,-2,-3,-6,-2
1537907321305702,5,5,-9,-4,-5,0,-1,-4
1537907321320662,-2,-12,14,8,11,3,-3,-4
1537907321320662,-5,-10,16,1,-9,-11,-6,-2
1537907321326646,-2,3,-12,0,3,2,3,1
1537907321326646,-1,2,12,2,-3,-2,-1,-8
1537907321343601,3,7,1,-5,1,2,0,29
1537907321343601,-4,-8,-6,2,3,3,-2,-6
1537907321344599,4,1,7,-2,-11,-7,-3,-3
1537907321344599,-4,-7,-14,0,0,-2,-1,2
1537907321356567,1,16,-13,-14,-1,4,-4,-13
1537907321356567,-4,-26,15,11,4,-10,4,2
1537907321365543,2,-7,-13,-2,-2,-2,0,11
1537907321365543,-3,3,3,-4,0,4,2,-17
