timestamp,emg1,emg2,emg3,emg4,emg5,emg6,emg7,emg8
1537904979462400,0,4,-8,-5,-1,-1,-1,0
1537904979462400,0,2,0,1,2,2,-1,0
1537904979463397,-1,-5,-15,-4,4,1,1,0
1537904979463397,1,2,14,-4,-3,-2,-1,-3
1537904979467386,-1,0,6,8,0,0,-2,-2
1537904979467386,0,1,12,-10,-3,-1,0,1
1537904979468384,-1,-6,-14,4,2,0,-3,-1
1537904979468384,0,6,20,14,4,1,0,-1
1537904979473371,-1,-8,-21,-8,-1,0,0,-1
1537904979473371,-1,4,28,-13,-8,-4,-1,-2
1537904979491322,-3,-6,3,-5,-1,1,0,-1
1537904979491322,5,11,-11,3,0,-2,-1,0
1537904979493317,-1,-2,11,10,4,0,-1,0
1537904979493317,-1,-3,-39,1,0,-2,-1,0
1537904979506283,-2,10,72,-4,-7,-2,-2,-2
1537904979506283,-5,-21,-31,-8,-2,1,-1,-1
1537904979518251,3,4,-5,1,2,-1,0,-2
1537904979518251,-2,-1,-14,-2,-3,-1,-1,-3
1537904979528224,0,3,14,3,2,-2,0,1
1537904979528224,-3,6,8,2,-1,-3,-3,-1
1537904979534209,-3,-4,-13,-9,-5,0,-1,0
1537904979534209,-2,-2,-16,-6,1,-1,-1,-2
1537904979549168,1,4,3,5,0,-1,-1,-1
1537904979549168,0,-11,-46,0,1,1,-1,1
1537904979551163,0,5,10,-15,-4,-2,0,-1
1537904979551163,0,-3,10,8,3,1,0,-1
1537904979572107,1,0,-27,-5,-2,-2,-3,-2
1537904979572107,-4,-2,10,-7,-4,-1,-2,-4
1537904979611003,0,1,-1,0,1,-1,-1,-1
1537904979611003,-3,5,7,-1,-3,-2,0,-1
1537904979612000,-1,-3,-13,-6,-2,-2,-3,-2
1537904979612000,0,2,-20,0,-1,-2,-2,0
1537904979612997,0,-5,1,9,7,1,0,1
1537904979612997,-1,-5,-2,-17,-12,-4,-2,0
1537904979623968,-1,0,26,5,-2,-1,1,0
1537904979623968,-2,-2,-36,-4,0,0,1,-2
1537904979624965,-1,-1,-7,-7,-2,0,-1,-1
1537904979624965,0,-6,26,9,6,-1,0,-2
1537904979629952,-1,-2,-28,-3,0,-1,-1,0
1537904979629952,0,2,30,5,-1,0,0,0
1537904979637931,0,-3,-13,-3,-4,-2,-1,-1
1537904979637931,-4,-9,-6,-3,-2,0,-1,0
1537904979662864,2,25,-11,-2,-1,0,-1,0
1537904979662864,-3,-15,71,3,2,-2,-2,-1
1537904979663861,1,7,-22,1,-2,0,-1,-1
1537904979663861,1,-6,-6,-2,0,-2,-1,-1
1537904979675829,-2,-3,8,4,1,0,-1,0
1537904979675829,-1,3,20,-5,-3,-1,0,0
1537904979690789,-1,-1,-17,-3,0,-2,-2,-1
1537904979690789,1,12,-3,1,2,1,0,-1
1537904979698768,-1,-16,-9,-1,-3,-2,0,-1
1537904979698768,-1,3,7,7,0,-3,1,-1
1537904979699765,0,-3,3,-9,-4,-2,-2,-1
1537904979699765,-1,2,-39,5,1,1,-3,-1
1537904979721707,-1,-7,-10,-6,0,0,-2,-1
1537904979721707,3,3,28,1,-1,1,1,1
1537904979721707,-1,1,0,10,1,1,2,0
1537904979721707,0,-1,-6,-11,-1,-2,0,-1
1537904979735670,-1,-1,11,6,0,-1,-1,-2
1537904979735670,-2,2,-28,-4,0,0,-1,-1
1537904979743648,-4,-8,6,0,0,1,-1,0
1537904979743648,1,3,12,1,1,0,0,-1
1537904979766587,-1,-1,-2,0,0,-1,0,0
1537904979766587,0,3,-18,-7,0,0,-1,-1
1537904979767584,-1,-10,4,0,0,0,-1,-1
1537904979767584,1,7,10,7,0,0,-1,-2
1537904979781547,-1,-4,21,-7,-1,0,-2,1
1537904979781547,-2,9,-63,1,-1,0,-1,-1
1537904979782544,0,-1,35,3,-1,-3,-1,1
1537904979782544,-1,-9,14,3,0,-1,-2,-1
1537904979804486,1,11,9,-6,-4,-3,-1,-1
1537904979804486,-1,-7,4,-5,-3,0,-1,-2
1537904979804486,-2,0,-17,-7,-5,-1,0,-2
1537904979804486,2,5,0,1,0,0,0,1
1537904979818449,-1,-5,1,-2,0,0,0,-2
1537904979818449,-2,-3,8,-1,0,0,-1,-1
1537904979819447,-2,1,-26,-1,-1,-2,0,-3
1537904979819447,-2,-5,7,2,0,-1,0,0
1537904979841388,-3,-7,-24,0,-4,-2,-1,-1
1537904979841388,-1,-5,22,5,1,0,0,1
1537904979842386,0,2,42,-5,-3,-1,-1,-1
1537904979842386,-1,-3,-60,-4,2,1,0,1
1537904979864327,3,10,18,6,5,-1,2,0
1537904979864327,-1,1,-4,1,-2,-2,0,-2
1537904979865326,0,2,12,-2,0,0,-1,1
1537904979865326,0,-1,-12,-6,-4,1,0,-3
1537904979878290,-4,-13,4,4,0,-3,-2,-2
1537904979878290,1,1,-1,0,0,1,-2,0
1537904979879288,-1,4,-3,2,1,-1,0,-1
1537904979879288,-2,-5,9,-7,-2,0,0,1
1537904979902227,0,1,-19,6,0,1,-2,-1
1537904979902227,-1,-2,-32,-8,1,-1,-3,-1
1537904979902227,0,-2,17,5,-4,-1,-1,-2
1537904979902227,-1,5,17,-6,-2,-1,-1,-1
1537904979924167,-1,-2,-4,-4,-2,-1,-1,-1
1537904979924167,0,-6,-17,0,-1,-2,-1,0
1537904979925165,-2,1,-2,-11,-1,0,0,-1
1537904979925165,-2,-2,-7,11,0,-3,-2,-2
1537904979939126,4,5,19,-4,0,2,1,-1
1537904979939126,-2,-4,1,-4,-4,-1,-1,0
1537904979939126,-1,-1,-13,-1,0,-1,-1,-1
1537904979939126,1,2,14,2,-1,1,0,-1
1537904979969047,-2,-5,-40,-6,1,1,1,0
1537904979969047,0,6,44,9,-1,-3,-2,-3
1537904979970043,0,-1,1,1,1,1,0,-1
1537904979970043,-1,-1,-10,-4,0,-2,-3,0
1537904979984005,0,2,-7,-1,-1,-1,-1,0
1537904979984005,-2,-10,-40,-6,2,1,-1,0
1537904979985004,-1,3,13,-2,-5,-3,-2,-1
1537904979985004,-1,3,25,8,-6,-4,0,-1
1537904979997968,5,0,6,15,29,8,3,3
1537904979997968,0,-2,-5,-12,19,13,2,1
1537904980006944,-2,1,9,2,-31,4,-3,-3
1537904980006944,-5,-4,25,-30,-54,-30,-10,-6
1537904980028885,1,4,0,1,-25,-20,-2,-2
1537904980028885,3,7,18,30,77,25,6,2
1537904980044843,1,-2,-58,-18,25,22,1,0
1537904980044843,0,-13,-7,-6,-11,3,-1,1
1537904980045840,-4,-3,3,-25,-83,-31,-8,-2
1537904980045840,-2,-3,-12,6,6,-14,-2,-2
1537904980046838,0,3,3,-1,-27,-3,0,0
1537904980046838,1,-2,-23,29,41,18,7,2
1537904980057808,3,8,6,4,107,44,9,5
1537904980057808,4,23,10,20,-43,43,2,1
1537904980074764,-5,-10,-6,-29,-58,-91,-15,-7
1537904980074764,-3,-11,-35,-23,-109,-47,-7,-3
1537904980081745,-5,-3,58,-8,-26,-22,-4,-3
1537904980081745,-1,0,-24,6,33,10,1,-2
1537904980083740,4,11,13,26,85,33,7,4
1537904980083740,3,12,7,5,-9,4,1,1
1537904980104684,-1,-8,-4,52,80,19,3,-1
1537904980104684,-1,-9,11,-62,-24,-9,0,1
1537904980106679,0,-6,-6,3,-75,-5,0,1
1537904980106679,-1,1,-39,-4,-28,-36,-6,-2
1537904980117650,-3,3,-14,-29,-52,3,-2,-5
1537904980117650,-3,-1,27,2,-15,-12,-2,-3
1537904980126625,2,0,22,15,69,21,3,2
1537904980126625,2,4,20,19,35,33,7,1
1537904980141587,1,2,-19,2,26,40,2,4
1537904980141587,-3,-9,-29,4,-77,-74,-13,-5
1537904980143582,-5,-7,13,-73,-5,8,-1,-4
1537904980143582,-1,-7,-13,7,6,-6,-2,-3
1537904980164523,1,10,2,12,29,5,0,6
1537904980164523,-2,-3,13,51,83,32,3,-10
1537904980165526,-1,-1,-14,6,-61,2,0,1
1537904980165526,-4,3,4,-54,-32,-36,-7,-7
1537904980177489,-3,-13,-6,15,26,-5,-1,-2
1537904980177489,0,11,-10,-40,8,2,-1,2
1537904980186465,5,9,22,44,38,37,8,4
1537904980186465,0,-8,-20,64,73,40,2,1
1537904980201424,-5,-4,-11,-112,-128,-70,-14,-9
1537904980201424,-5,-10,0,-8,-3,-15,-5,-1
1537904980203419,-1,-3,7,15,63,4,-3,-1
1537904980203419,5,2,11,32,57,27,7,8
1537904980224363,-2,2,-9,22,13,23,3,-2
1537904980224363,-1,-7,9,-10,-79,-25,-5,-1
1537904980225360,-1,-2,-13,-32,-45,-16,-1,-2
1537904980225360,-2,0,17,-25,16,12,1,2
1537904980248299,-3,-3,5,44,32,-5,-1,-1
1537904980248299,4,9,6,-18,1,11,1,3
1537904980249297,0,-2,-12,20,-23,-10,0,-1
1537904980249297,0,4,46,21,51,11,2,1
1537904980261264,2,-8,-60,-14,-10,14,2,2
1537904980261264,-2,0,27,-5,30,-3,-3,-1
1537904980263259,0,-2,-40,10,-41,-24,-4,-1
1537904980263259,-3,4,14,-9,-77,4,-1,-2
1537904980285201,-1,-3,27,-39,-29,-19,-4,-2
1537904980285201,0,-10,-23,32,7,21,4,1
1537904980292182,-3,7,4,-18,26,-2,-1,-1
1537904980292182,0,-7,-7,34,85,25,3,0
1537904980298166,0,3,23,-24,-61,-19,-4,-2
1537904980298166,0,5,-13,3,-4,-1,1,1
1537904980307142,-1,-14,8,2,5,3,1,0
1537904980307142,-2,-2,-13,-1,-10,-6,-2,-2
1537904980322102,0,2,18,46,58,11,2,0
1537904980322102,-4,-4,-19,-32,-27,-12,-3,-2
1537904980323099,-1,-5,0,-1,2,-3,-3,-2
1537904980323099,-3,-1,-3,-18,-2,-7,-2,-1
1537904980352022,-1,1,-2,11,9,6,0,-2
1537904980352022,-1,-4,10,-6,-5,-3,-1,0
1537904980353020,2,4,-17,12,15,5,0,0
1537904980353020,-2,11,-25,-12,-12,-3,-2,-3
1537904980358006,-4,-17,8,-18,-15,-4,-2,-1
1537904980358006,1,10,-14,13,1,2,1,2
1537904980366982,-2,0,24,3,9,-1,-2,-2
1537904980366982,-1,2,12,-13,-7,-4,-1,-2
1537904980381942,-1,-2,-22,5,5,2,-1,-1
1537904980381942,0,-1,32,8,0,-1,0,-1
1537904980382939,-1,1,-27,-14,4,0,-2,0
1537904980382939,-3,0,9,-7,-4,-3,0,0
1537904980403883,-2,-1,8,11,1,0,-2,0
1537904980403883,-2,-7,-7,-5,-3,-1,-1,0
1537904980405878,-3,0,4,7,7,1,-1,-2
1537904980405878,0,-7,-1,-13,-12,-4,1,-2
1537904980417846,0,6,11,11,4,0,1,0
1537904980417846,-1,-10,-13,-4,-1,0,0,1
1537904980426822,-1,1,19,11,3,0,0,1
1537904980426822,0,-4,-18,-11,-1,-3,-2,-1
1537904980441782,0,9,9,1,1,1,-1,1
1537904980441782,-2,7,6,-4,-4,-1,-1,-3
1537904980442779,-2,-17,-29,-3,0,0,-1,-1
1537904980442779,-1,-4,14,2,-1,-3,-2,-2
1537904980464721,-1,2,-4,1,5,3,2,0
1537904980464721,-1,2,8,-7,-9,-3,-1,0
1537904980465718,-1,5,7,-2,-3,-2,-1,-1
1537904980465718,-1,0,1,-4,-3,-1,-1,0
1537904980477686,0,-4,-15,-4,5,0,2,0
1537904980477686,-1,-7,7,7,1,-1,0,1
1537904980492646,0,1,13,4,1,0,0,-1
1537904980492646,0,-1,-36,-8,-2,-2,-1,0
1537904980501623,-1,-4,1,5,-1,0,-1,-2
1537904980501623,0,2,23,4,-3,-3,-2,-2
1537904980507607,1,2,-21,-7,4,2,1,1
1537904980507607,-1,-9,10,2,-2,-2,-2,-2
1537904980524562,-1,-4,-11,-1,-1,0,-1,1
1537904980524562,-3,-8,-17,-5,-2,0,-1,-1
1537904980525560,0,9,11,-1,-2,-1,-2,-3
1537904980525560,-2,-1,31,7,0,0,-2,-2
1537904980537529,-1,-3,-49,-18,-5,-1,0,-1
1537904980537529,1,4,0,-6,-1,1,0,0
1537904980546502,-4,-2,5,2,3,-1,1,0
1537904980546502,-4,6,5,-7,-3,-4,0,-1
1537904980561465,-1,-4,3,8,-2,-1,-2,-1
1537904980561465,0,6,7,7,5,2,-1,-1
1537904980567448,0,-1,0,-1,-4,-3,-3,-3
1537904980567448,-1,-11,-18,-5,-1,0,-2,0
1537904980599361,0,12,26,3,6,2,0,2
1537904980599361,1,-4,-6,34,7,-1,1,0
1537904980600358,-2,7,4,-18,-17,-6,-5,-4
1537904980600358,1,-5,8,-4,-2,-1,-2,-1
1537904980606342,-1,-3,-28,-9,-3,-3,-2,-1
1537904980606342,0,2,1,14,19,7,2,0
1537904980608337,-1,-6,-6,-9,-7,-1,0,0
1537904980608337,-1,8,12,0,-6,-3,-2,-1
1537904980629280,-2,-6,18,25,1,-1,-1,-2
1537904980629280,-3,0,-30,-39,2,3,-1,-1
1537904980630278,-1,-4,-2,5,1,1,2,1
1537904980630278,5,4,-2,11,11,7,1,3
1537904980643243,-1,-5,9,-2,-2,-3,-2,-3
1537904980643243,1,10,47,12,-14,-6,-4,0
1537904980652220,-2,-11,-67,-1,7,5,1,0
1537904980652220,-3,-6,-14,18,-5,-7,-4,-3
1537904980667179,-2,7,10,-29,1,5,0,1
1537904980667179,1,-6,-4,16,-1,-3,1,1
1537904980669175,2,4,13,-17,41,12,3,3
1537904980669175,-4,2,-10,-3,-56,-19,-4,-5
1537904980689121,0,-2,4,12,-3,0,-3,-2
1537904980689121,-1,-5,-16,-5,-11,-5,-3,0
1537904980695106,-2,-2,20,13,-2,-3,-2,-1
1537904980695106,3,8,19,62,39,12,4,3
1537904980703085,-1,-2,-17,-102,-29,-8,-3,-4
1537904980703085,-3,-10,-26,6,0,1,-1,-3
1537904980712061,-3,2,5,2,-30,-12,-6,-4
1537904980712061,0,-4,19,-35,6,6,0,0
1537904980727020,4,2,-2,33,6,1,1,2
1537904980727020,0,-2,-3,6,15,3,0,-2
1537904980733004,1,-3,7,12,2,-2,-1,1
1537904980733004,-6,-8,-28,-29,-7,-2,-1,-4
1537904980748962,-3,-4,15,18,16,0,-1,-2
1537904980748962,5,9,-4,4,1,1,1,1
1537904980750957,-2,-4,0,2,-8,-6,-5,-3
1537904980750957,2,6,1,1,-5,0,0,1
1537904980762925,0,-2,-2,12,14,2,1,1
1537904980762925,-4,-4,13,-30,-14,-3,-3,-4
1537904980771902,-1,-2,-11,9,-7,-3,-2,-2
1537904980771902,3,3,3,11,12,1,2,-1
1537904980786861,-3,-4,-8,1,-7,-3,-2,-3
1537904980786861,-3,-5,5,10,5,-1,0,0
1537904980787858,3,5,18,-10,6,6,2,0
1537904980787858,3,-4,-22,-34,-26,-6,-2,1
1537904980808801,-1,0,6,21,-5,-4,-2,0
1537904980808801,-8,-4,-13,-42,-6,-3,-3,-4
1537904980810796,-9,-1,23,32,11,3,0,-4
1537904980810796,8,1,-23,18,13,1,0,0
1537904980823761,5,3,5,-48,-22,-5,-1,2
1537904980823761,0,-8,-8,0,-1,0,-1,2
1537904980832737,-11,-6,2,-8,10,-4,-2,-3
1537904980832737,3,4,16,-11,-2,1,-4,-8
1537904980847697,-11,-2,1,26,1,0,1,-2
1537904980847697,-10,1,3,10,3,2,2,1
1537904980848695,19,3,-4,-7,-5,3,2,8
1537904980848695,14,1,2,-5,4,0,-1,2
1537904980876620,-10,-2,-5,5,4,-1,-4,-2
1537904980876620,11,-1,0,-2,-6,-3,-4,0
1537904980878616,-5,4,-5,-2,9,6,5,1
1537904980878616,1,2,-5,-5,-1,1,1,2
1537904980882605,-2,-2,-3,18,2,-4,-1,1
1537904980882605,-24,0,3,-8,-15,-5,-4,-7
1537904980891581,21,9,-7,-3,-12,-7,-1,-1
1537904980891581,-28,-8,2,-8,18,2,-3,-4
1537904980906541,12,8,4,10,-6,1,3,0
1537904980906541,1,-2,-6,7,1,0,0,2
1537904980908536,4,3,0,10,3,3,2,4
1537904980908536,-13,-11,-2,-15,3,-5,-3,-3
1537904980929480,-4,-4,12,-7,-9,2,-4,-8
1537904980929480,8,-2,-32,-3,-4,-4,-1,1
1537904980931475,-11,-8,-1,-3,-6,-5,-5,-4
1537904980931475,-3,-9,7,-3,7,1,3,3
1537904980942444,3,5,-2,3,20,4,0,2
1537904980942444,8,3,18,-3,-16,-3,0,-1
1537904980951420,-10,-4,1,5,-11,-4,-4,-4
1537904980951420,6,7,4,9,12,1,0,2
1537904980966380,0,-4,-6,19,4,5,3,5
1537904980966380,5,1,-7,-17,-4,-2,-2,-3
1537904980973361,-10,-7,-1,-42,-21,-5,-2,-2
1537904980973361,-6,-2,-1,5,-15,-9,-1,-5
1537904980989318,4,-1,0,14,65,13,3,1
1537904980989318,8,12,7,8,14,29,10,9
1537904980990316,-5,-10,-13,1,-29,-1,1,2
1537904980990316,8,24,10,4,-24,-44,-12,-6
1537904981003281,-4,3,-4,-22,-4,-5,-11,-6
1537904981003281,-12,-7,1,6,-2,-14,-6,-8
1537904981012257,4,-4,-2,-2,31,14,1,0
1537904981012257,-4,-20,-12,-4,-35,34,9,1
1537904981034198,1,0,-16,-7,-24,-36,-5,0
1537904981034198,-2,-5,-3,-25,10,5,-1,-4
1537904981035196,-9,-15,8,-11,-31,-26,-3,-3
1537904981035196,5,10,9,21,43,14,1,5
1537904981049158,-17,-14,-5,-8,19,11,1,-11
1537904981049158,19,24,11,23,12,-3,-7,10
1537904981051153,-2,-9,-2,6,10,-1,-2,-2
1537904981051153,-5,-4,-3,-1,-18,6,10,3
1537904981071100,6,2,10,19,-1,-15,-3,3
1537904981071100,-11,-24,-27,5,17,-5,-4,-7
1537904981079078,8,19,4,-24,-39,-9,-1,1
1537904981079078,-4,-12,2,-13,0,18,1,-1
1537904981086060,-1,1,-3,10,18,6,5,-1
1537904981086060,-3,1,-7,-23,-43,2,3,1
1537904981093041,0,10,-2,5,20,-52,-18,-5
1537904981093041,-6,-3,-10,-17,-27,11,-2,-4
1537904981108998,6,9,4,3,-20,-7,4,4
1537904981108998,-5,0,7,15,28,15,0,-1
1537904981110993,-4,3,0,6,13,23,4,0
1537904981110993,1,13,3,2,11,-7,3,1
1537904981122961,0,2,-4,-17,-27,-8,-9,0
1537904981122961,-6,-9,-12,-3,1,-7,1,-1
1537904981131937,0,-3,13,34,28,29,12,3
1537904981131937,6,10,-9,-20,4,-27,-12,-1
1537904981153878,3,5,2,-6,-27,12,2,0
1537904981153878,-3,-2,-1,-4,-10,-15,-8,-4
1537904981155873,4,9,-6,-16,6,7,4,1
1537904981155873,4,9,4,6,22,-6,-6,0
1537904981168839,-5,2,-4,0,-21,2,3,-2
1537904981168839,1,7,2,-1,-18,-21,-4,-2
1537904981170833,10,22,0,-2,0,-12,2,5
1537904981170833,-4,-1,6,5,7,-62,-1,-4
1537904981191777,-4,-2,-2,-2,6,-96,1,-1
1537904981191777,-1,12,3,5,3,-94,-1,-2
1537904981192775,-1,1,-3,0,-5,-60,-5,0
1537904981192775,1,19,-14,-4,3,-17,0,3
1537904981205740,6,-6,14,11,-2,5,2,3
1537904981205740,0,2,4,4,3,16,4,0
1537904981220700,-4,-23,-7,-13,-12,18,-2,-2
1537904981220700,-3,-28,7,8,-3,31,2,-2
1537904981229676,2,36,1,7,-14,31,-6,0
1537904981229676,1,33,-3,-37,-9,38,1,1
1537904981230674,2,-8,2,8,-22,40,0,-3
1537904981230674,-1,34,-2,5,-36,30,-2,-2
1537904981251618,0,34,0,-5,-32,38,-1,-2
1537904981251618,-1,-10,-3,8,-32,36,1,-1
1537904981253612,-2,25,0,8,-20,25,-1,-3
1537904981253612,-1,5,-2,-3,-14,21,-1,2
1537904981266577,1,-27,-4,-1,6,26,-1,1
1537904981266577,5,-7,2,-5,10,17,1,2
1537904981272561,-3,-2,-1,2,16,14,-1,-2
1537904981272561,-2,-41,-1,2,24,7,-2,-2
1537904981288518,-1,-49,-2,-6,26,13,-1,1
1537904981288518,-3,-27,3,10,22,6,2,-2
1537904981296498,0,-19,1,0,26,3,0,1
1537904981296498,0,-30,-1,2,15,3,0,-1
1537904981311457,-1,1,-4,-4,14,1,-2,-3
1537904981311457,2,-12,1,3,14,0,-1,-1
1537904981313452,4,-9,-1,1,8,-1,-2,-2
1537904981313452,1,5,0,0,8,-2,-1,-1
1537904981325419,-1,-65,0,-11,8,-1,-1,-1
1537904981325419,-1,-73,2,18,6,-2,0,-2
1537904981334396,3,-79,-3,-4,1,-3,-3,-2
1537904981334396,8,-126,-2,6,1,-1,0,-2
1537904981356337,0,-115,-4,-1,-6,-5,-3,-3
1537904981356337,-2,-60,2,-4,-1,-3,0,0
1537904981358332,-10,-79,1,-1,1,-3,-2,-2
1537904981358332,-6,-35,0,0,3,-4,-2,0
1537904981371298,-5,-29,3,6,4,2,1,-1
1537904981371298,-5,20,-1,-5,-2,-1,-1,1
1537904981373292,-5,82,-4,2,0,-3,-1,-1
1537904981373292,-3,90,0,-2,-1,0,0,-2
1537904981394236,0,119,-6,-5,-3,-2,-1,0
1537904981394236,0,73,0,-3,0,-1,-1,-1
1537904981395234,-3,65,-1,-6,-9,-6,-5,-1
1537904981395234,-1,80,-1,-5,-4,-1,-1,-1
1537904981409196,0,72,-4,0,-3,-5,-2,0
1537904981409196,2,49,0,0,5,2,2,-1
1537904981411191,1,36,1,6,5,0,1,0
1537904981411191,1,27,-4,-6,-5,-5,-1,0
1537904981432135,-2,21,3,3,-10,-7,-3,-2
1537904981432135,-3,11,0,-2,-3,-2,-2,0
1537904981433132,-1,15,1,13,4,0,2,-1
1537904981433132,-3,4,-2,-4,-4,-3,-1,-2
1537904981445100,-1,-2,1,4,13,5,2,0
1537904981445100,0,0,6,-6,-8,-6,-4,1
1537904981454076,-1,-15,-2,-8,-7,-4,-1,1
1537904981454076,-3,-28,-6,8,2,-1,-1,-1
1537904981469036,-2,18,2,-5,-9,-3,-2,-2
1537904981469036,0,-1,-1,9,5,-2,0,-1
1537904981471030,1,-3,-1,-1,3,-1,0,2
1537904981471030,-1,-1,2,1,-10,-5,-2,0
1537904981491974,-1,-3,-12,-11,0,-1,-1,0
1537904981491974,-2,-1,-4,-6,-7,-1,-1,-3
1537904981492972,-2,-6,3,10,5,-3,0,-1
1537904981492972,1,6,-1,4,-6,-7,-3,-2
1537904981504940,0,-14,-1,-25,-9,-3,0,0
1537904981504940,1,0,-3,2,-2,-3,0,-1
1537904981513916,-1,-5,1,-3,2,1,0,0
1537904981513916,-2,0,-1,5,8,2,1,-1
1537904981528876,2,3,1,-3,-3,-2,0,2
1537904981528876,-2,-6,-4,8,-6,-5,-3,-1
1537904981530871,0,7,-3,-8,-4,-1,-2,0
1537904981530871,-3,-8,3,-2,-3,0,0,0
1537904981551815,1,-2,-8,-12,7,2,-1,1
1537904981551815,-4,-1,-2,-5,-9,-6,0,-2
1537904981552813,-2,-3,4,15,6,-1,0,-1
1537904981552813,2,10,0,-1,-2,-3,0,0
1537904981565779,-3,-9,-4,-5,-10,-5,-2,-3
1537904981565779,1,6,-2,7,2,-1,0,0
1537904981574755,-2,0,-4,-16,-6,-2,-1,-2
1537904981574755,0,-6,-2,10,14,3,1,0
1537904981589715,-2,-2,7,-1,-11,-5,-1,-3
1537904981589715,0,-3,-1,-3,2,-1,-1,-1
1537904981590712,-1,-9,-2,-13,-13,-5,0,-2
1537904981590712,-1,-5,-2,-5,5,1,-1,0
1537904981611655,-2,-1,0,12,7,1,2,-1
1537904981611655,0,-7,-1,-3,-2,-1,-2,-2
1537904981613650,-1,-6,-2,4,2,0,-1,0
1537904981613650,-1,1,2,3,-2,0,-2,1
1537904981634594,0,2,-2,-4,2,-1,0,0
1537904981634594,0,0,5,14,-1,2,0,1
1537904981635591,0,-2,-2,-9,2,0,-1,1
1537904981635591,-2,2,-3,-11,-5,-3,-2,1
1537904981649553,-1,-2,5,17,2,0,0,-2
1537904981649553,-1,-3,-3,-2,-4,-1,1,1
1537904981650551,0,1,-3,-2,2,0,-1,0
1537904981650551,-1,-4,-1,4,-1,-2,-3,-2
1537904981671495,0,3,1,-2,-3,-3,-3,-1
1537904981671495,-1,-6,-4,-12,-3,1,1,-1
1537904981673490,-3,-7,0,6,-2,-3,-1,-1
1537904981673490,-1,0,2,-2,-4,-1,0,-3
1537904981685458,-2,-3,-2,3,6,2,0,-1
1537904981685458,-1,-2,2,9,3,1,0,0
1537904981694435,-2,2,-6,1,-1,-2,-2,0
1537904981694435,-1,-6,-2,-5,-2,-3,-1,-2
1537904981709394,1,0,1,-1,-7,-4,-1,0
1537904981709394,0,-2,-2,0,1,-1,-2,-2
1537904981710393,0,0,0,-2,1,1,0,-1
1537904981710393,0,2,0,-5,0,1,1,0
1537904981739315,-1,-2,2,13,5,2,-1,-1
1537904981739315,-1,-1,-4,-28,-7,-4,-1,-1
1537904981740313,0,-2,-1,17,1,-1,-1,0
1537904981740313,-3,0,-4,-13,-9,-2,-1,1
1537904981745299,-4,-5,2,15,14,7,0,-2
1537904981745299,0,0,-3,3,-24,-12,-6,-3
1537904981760259,-1,-9,-4,-27,-6,-1,-1,-4
1537904981760259,1,-11,2,10,3,0,-1,1
1537904981777212,-3,2,-3,4,11,6,1,-1
1537904981777212,0,-2,-6,13,5,1,-1,-1
1537904981778210,0,1,11,-47,-10,-3,-3,-2
1537904981778210,3,6,5,74,4,-1,3,1
1537904981792172,-3,-2,-16,-81,-41,-20,-7,-3
1537904981792172,0,7,-1,6,16,5,1,0
1537904981793170,-6,-7,8,-22,-19,-3,1,-2
1537904981793170,6,6,8,62,47,13,3,5
1537904981805137,-4,0,-10,-77,-52,-12,-6,-4
1537904981805137,-1,-5,-4,28,-12,-9,-3,0
1537904981814114,2,1,-5,18,32,8,2,1
1537904981814114,2,3,0,77,69,22,10,6
1537904981829073,-3,-10,-13,-67,-78,-34,-8,-6
1537904981829073,0,-2,-15,14,20,6,0,1
1537904981843036,-1,-3,-9,57,-11,-6,-4,-3
1537904981843036,-10,-9,5,54,13,-1,-3,-7
1537904981852013,3,1,-6,11,35,8,-1,2
1537904981852013,-3,-1,45,-127,-69,-14,-4,-4
1537904981853010,2,1,-34,-15,13,6,5,2
1537904981853010,4,6,18,-23,-9,-1,-2,1
1537904981864978,-2,-4,-14,38,-28,-8,-3,-1
1537904981864978,2,1,-5,67,46,14,5,4
1537904981873955,-1,-5,5,50,-15,-5,-6,-4
1537904981873955,2,-2,20,64,78,26,11,5
1537904981888914,0,4,22,-26,13,3,0,-1
1537904981888914,-5,-2,-46,-90,-85,-26,-9,-7
1537904981890910,4,12,36,127,110,40,15,9
1537904981890910,-11,-15,-64,-128,-128,-43,-21,-11
1537904981911853,4,14,11,127,56,20,10,5
1537904981911853,1,15,-8,-4,17,9,3,2
1537904981912851,0,18,14,13,13,-5,-3,0
1537904981912851,-3,16,36,33,29,6,1,-1
1537904981925816,1,-1,-13,-8,14,2,2,0
1537904981925816,-5,-13,34,74,9,-8,-4,-2
1537904981934792,1,15,-41,-116,-81,-39,-10,-6
1537904981934792,-4,12,4,-22,-2,-7,-4,-5
1537904981948754,5,13,9,33,56,10,0,3
1537904981948754,-5,-9,-1,73,61,14,0,-6
1537904981955736,0,0,-18,-78,-73,-29,-14,-5
1537904981955736,2,9,11,44,-1,0,2,2
1537904981979671,0,10,22,-27,25,8,4,0
1537904981979671,6,25,19,5,-1,-3,0,3
1537904981980670,1,11,-19,33,41,11,8,5
1537904981980670,-5,20,13,-128,-59,-11,-7,-5
1537904981985657,-1,30,-24,31,-10,1,1,0
1537904981985657,4,46,-7,-27,10,-8,0,3
1537904981994633,-3,23,13,6,19,6,1,1
1537904981994633,-2,19,-25,5,-37,-10,-1,0
1537904982016573,-2,33,37,30,27,16,5,0
1537904982016573,0,28,-15,-43,-26,-5,-1,-3
1537904982018569,-2,-17,12,30,14,3,-1,-1
1537904982018569,1,0,-6,-29,5,-1,1,1
1537904982030535,0,-49,-4,68,19,7,-2,-1
1537904982030535,0,-81,-7,48,20,1,0,-2
1537904982039511,2,18,5,7,-4,0,-1,-1
1537904982039511,1,42,-26,-54,-47,-13,-7,-4
1537904982045495,-2,40,-2,9,-36,-10,-4,-2
1537904982045495,0,-46,8,8,10,5,1,0
1537904982054471,-2,13,13,2,14,6,1,0
1537904982054471,1,-66,-6,4,-1,-2,-1,-1
1537904982068434,-1,-50,-9,-22,-8,-7,-2,0
1537904982068434,-3,-7,8,2,12,10,4,-1
1537904982082396,-3,-10,-2,-10,-14,-1,0,-3
1537904982082396,0,-39,-5,-1,-2,-2,0,0
1537904982091373,-1,31,0,-21,-10,-5,0,-3
1537904982091373,-2,37,4,20,16,7,0,0
1537904982093368,-1,-6,-11,-70,-56,-15,-5,-4
1537904982093368,1,28,-2,7,2,-2,-2,-3
1537904982121293,0,-55,-2,4,6,0,0,2
1537904982121293,-3,-12,-6,-7,-20,-6,-3,-2
1537904982123288,0,31,9,30,12,4,2,1
1537904982123288,-1,-23,-2,3,0,1,-2,0
1537904982128274,-1,-57,-2,-21,1,2,3,-1
1537904982128274,1,47,-2,5,-8,-5,-4,0
1537904982135256,0,-55,3,-6,-8,-1,-1,-2
1537904982135256,0,26,2,17,8,3,1,0
1537904982159193,-2,-27,-5,2,-1,-1,0,-3
1537904982159193,-3,-73,1,43,11,2,0,-1
1537904982161188,0,-45,-14,-73,-30,-6,-2,-2
1537904982161188,2,-55,-2,16,0,0,-1,-1
1537904982174152,0,-48,-2,-13,-1,-1,-1,-2
1537904982174152,0,-7,1,-8,-1,-1,-2,1
1537904982176146,-1,3,7,17,14,2,0,0
1537904982176146,-2,14,-1,2,12,2,-1,-1
1537904982188114,-5,-9,-7,-17,-22,-7,-5,-1
1537904982188114,-2,-38,-3,-10,-2,0,0,-1
1537904982195095,-1,-22,3,31,7,2,0,1
1537904982195095,-1,-39,0,-29,7,0,0,0
1537904982212049,-1,-4,-5,-1,-14,-6,-2,-2
1537904982212049,-1,27,-2,-11,0,2,0,-1
1537904982213047,-3,-3,-1,3,3,1,0,-3
1537904982213047,-2,14,0,5,-1,-5,0,-2
1537904982233991,2,32,5,6,15,3,1,1
1537904982233991,-2,-19,-7,-4,-12,-1,-2,-4
1537904982235986,-1,-3,3,-24,3,0,-1,-1
1537904982235986,-2,24,1,31,-1,0,-1,-1
1537904982263911,-2,79,-1,-4,-5,-5,-3,-1
1537904982263911,-1,66,0,-6,4,0,0,1
1537904982265906,-1,32,0,-5,-8,-2,-1,-1
1537904982265906,-1,17,0,0,1,2,0,0
1537904982271890,1,29,0,14,6,-2,-3,1
1537904982271890,-1,11,-3,-30,-20,-4,-1,-2
1537904982272888,-1,13,-7,12,-5,-2,-1,-1
1537904982272888,-2,15,-1,-5,-1,2,0,-1
1537904982293832,-2,-1,1,-3,2,2,3,-1
1537904982293832,2,16,-1,-15,20,3,1,1
1537904982295827,-3,18,1,8,-9,-2,-3,-1
1537904982295827,0,20,-4,11,-3,-2,-3,-1
1537904982307794,0,9,0,5,-5,0,-2,-3
1537904982307794,-1,5,-2,-12,-3,-5,1,0
1537904982316771,1,5,0,15,1,-1,-1,1
1537904982316771,2,-3,1,-54,-7,-1,-1,2
1537904982331731,0,-7,-2,-6,-1,-1,-1,0
1537904982331731,0,-4,0,6,6,2,0,0
1537904982332729,-2,-19,-3,2,-13,-2,-1,-1
1537904982332729,-1,-10,1,-6,0,-1,0,-2
1537904982361651,-1,-21,0,4,2,-1,0,-2
1537904982361651,0,-14,2,-17,-12,-5,0,-1
1537904982363645,1,-16,0,19,24,3,2,0
1537904982363645,-2,-14,-3,22,-10,-3,-2,-2
1537904982367635,-1,13,-4,-17,-9,-4,-1,1
1537904982367635,1,11,0,12,4,1,-1,-1
1537904982376610,-2,12,2,7,16,4,1,-1
1537904982376610,-3,18,-4,5,-7,-3,-1,-2
1537904982399549,-2,12,1,0,0,0,0,-1
1537904982399549,-1,4,-1,10,-3,0,-1,-1
1537904982400546,2,10,0,-8,-3,-1,0,-1
1537904982400546,1,0,1,9,6,1,0,0
1537904982414509,-1,-2,-4,-7,-12,-1,-2,0
1537904982414509,-1,-4,2,5,-3,1,1,-2
1537904982415506,0,-2,0,-1,0,0,0,-1
1537904982415506,-1,-12,1,-2,3,2,0,0
1537904982436450,-1,-7,-3,-4,-2,-1,0,-1
1537904982436450,-1,-9,-3,-5,-10,-5,-2,-2
1537904982438444,-1,-6,-3,-8,-1,-1,-1,-2
1537904982438444,-1,-8,3,5,-3,-4,0,-2
1537904982451410,0,2,4,2,5,3,0,-3
1537904982451410,-3,2,8,-4,5,0,-1,-3
1537904982453404,0,-3,-44,2,-1,-1,1,1
1537904982453404,0,0,8,-1,7,3,-1,1
1537904982473351,-2,4,-3,-1,-2,-3,-5,-2
1537904982473351,1,0,7,19,4,2,-2,1
1537904982474349,1,-3,14,-6,-4,18,51,12
1537904982474349,-1,3,-6,7,14,-2,3,-4
1537904982496290,-3,1,-5,-14,-14,-24,-84,-16
1537904982496290,-1,-4,-2,10,-3,-12,-24,-8
1537904982496290,-1,-2,7,1,-8,-8,-17,-2
1537904982496290,1,-4,-8,-8,-8,9,31,7
1537904982511250,1,-9,2,-1,5,8,26,5
1537904982511250,-2,-4,-8,-4,-2,1,3,1
1537904982511250,-2,2,4,9,13,3,2,-1
1537904982511250,-2,6,-1,-10,-8,-3,-9,-2
1537904982533192,-2,5,-2,5,-3,0,11,0
1537904982533192,-1,5,-4,-8,-3,4,3,0
1537904982534189,-1,3,6,1,3,-3,-2,-2
1537904982534189,-1,3,4,-7,9,2,-9,-3
1537904982556130,0,0,-5,-4,-17,-6,1,0
1537904982556130,0,2,-5,-2,-1,1,12,2
1537904982557127,0,-1,5,4,-4,-6,-16,-3
1537904982557127,-1,-4,-3,-2,2,-3,-11,-2
1537904982571090,1,-4,0,-2,20,10,17,4
1537904982571090,-1,-7,-3,-12,-24,-8,-3,-2
1537904982572087,-1,-10,0,-4,-6,-5,-10,-4
1537904982572087,-2,-8,0,2,-2,0,-1,-1
1537904982594028,0,-2,1,7,7,5,11,1
1537904982594028,0,-5,-2,-3,10,2,2,1
1537904982595026,-2,-3,-1,-2,-8,-5,-7,-4
1537904982595026,-1,4,-1,-1,-5,-6,-2,0
1537904982615970,-1,5,4,5,1,3,3,-1
1537904982615970,-2,3,-1,-1,6,1,-3,-3
1537904982616967,0,6,0,-2,-2,0,-3,-2
1537904982616967,-1,3,-1,0,-4,-1,-1,-1
1537904982630930,0,1,1,3,3,0,2,-1
1537904982630930,-2,2,-2,-13,-1,1,2,-1
1537904982631927,-1,-1,0,3,1,1,0,-1
1537904982631927,1,-1,0,-4,8,2,-2,0
1537904982653868,-2,-3,-5,18,-14,-6,-1,-2
1537904982653868,-2,-1,-1,-3,0,1,2,0
1537904982653868,-1,-6,1,2,4,-2,-4,-1
1537904982653868,1,-11,-2,-5,-2,0,-2,-1
1537904982675810,0,-13,-1,-3,3,1,2,0
1537904982675810,0,-15,3,4,3,0,1,-1
1537904982676807,-1,-13,-2,-4,-3,-4,-3,-1
1537904982676807,-1,-5,-2,5,2,-1,-2,-1
1537904982690770,0,5,-2,-8,-4,-3,2,-1
1537904982690770,0,6,-1,3,-2,0,0,0
1537904982691767,-1,12,-1,-1,-2,-3,-2,-1
1537904982691767,0,10,-4,1,-7,-4,-2,-2
1537904982713708,0,8,-1,-4,-3,0,1,1
1537904982713708,1,6,-1,-5,17,5,0,-1
1537904982713708,1,6,-1,6,-4,-1,0,0
1537904982713708,-2,3,5,-7,-24,-7,-3,-1
1537904982736647,0,-1,0,-4,5,0,0,0
1537904982736647,0,-4,-13,-2,-7,-1,-2,1
1537904982736647,-1,-7,-4,2,6,2,1,0
1537904982736647,-3,-6,3,10,25,7,2,0
1537904982750610,-2,1,17,-28,14,3,1,1
1537904982750610,-1,-13,-14,-22,-52,-15,-4,-1
1537904982751607,-4,-2,-8,5,-19,-7,-6,-5
1537904982751607,3,-5,-19,-9,4,-1,3,1
1537904982781527,-6,-8,24,34,49,14,2,-3
1537904982781527,4,7,-15,-51,18,7,4,4
1537904982782525,2,16,-3,-57,-48,-17,-7,-3
1537904982782525,-2,-10,32,91,51,15,5,2
1537904982804466,3,17,-38,-58,-78,-26,-9,-3
1537904982804466,0,5,-4,42,13,4,0,-2
1537904982804466,-2,0,48,35,32,12,4,2
1537904982804466,2,12,-6,-24,10,1,-1,1
1537904982811447,0,-9,17,-9,15,7,2,0
1537904982811447,-4,-3,15,38,18,1,0,-1
1537904982811447,0,0,-24,-40,-28,-11,-5,-3
1537904982811447,-4,-5,0,6,8,4,-1,-1
1537904982833389,0,6,8,3,10,5,2,-1
1537904982833389,3,9,-37,-57,-76,-26,-7,-1
1537904982834386,1,6,63,57,28,7,2,0
1537904982834386,1,-5,-49,-12,0,-4,-1,0
1537904982856327,-3,2,56,8,-20,-8,-3,-1
1537904982856327,-2,-9,15,110,91,24,8,1
1537904982857325,-3,-8,-11,-59,-63,-16,-5,-4
1537904982857325,0,-16,-38,-17,5,1,1,0
1537904982871287,6,-10,6,46,-6,0,1,3
1537904982871287,-6,-23,17,37,-1,-4,-3,-4
1537904982871287,5,-21,-28,33,78,20,8,6
1537904982871287,-5,-19,20,-13,-96,-29,-13,-7
1537904982893229,-5,-26,-39,-18,-1,-2,-3,-6
1537904982893229,2,-6,38,11,75,25,11,4
1537904982894226,-9,-17,-38,-50,-85,-35,-15,-13
1537904982894226,0,18,20,19,19,3,0,2
1537904982917164,3,18,-10,32,35,8,4,2
1537904982917164,-2,19,-5,-67,-31,-9,-6,-5
1537904982917164,-1,17,-23,39,42,16,5,1
1537904982917164,-1,20,33,-14,-5,0,-2,-2
1537904982931127,-3,8,-12,-12,-32,-9,-5,-2
1537904982931127,-3,4,-4,-19,-2,0,0,-1
1537904982932124,-1,7,-25,6,-32,-6,-3,-1
1537904982932124,0,7,28,17,-12,-4,-1,-2
1537904982953068,1,-2,-31,-75,47,14,3,3
1537904982953068,-2,2,13,-11,-64,-21,-8,-5
1537904982954066,-1,-9,4,38,68,21,10,4
1537904982954066,-1,-2,-12,-68,-57,-19,-8,-4
1537904982977004,-2,-9,-18,16,4,2,1,-1
1537904982977004,1,-7,7,40,23,4,0,2
1537904982977004,-2,-7,35,6,18,5,1,1
1537904982977004,-1,-7,-36,34,27,8,2,0
1537904982990967,-4,-4,5,-9,-35,-13,-5,-4
1537904982990967,-1,2,-28,-16,-23,-7,-3,-4
1537904982991965,2,8,5,13,23,8,3,1
1537904982991965,0,4,4,-3,11,3,1,0
1537904983013906,-1,5,5,9,-6,-3,-3,-3
1537904983013906,-3,1,-17,-9,-3,-1,0,-2
1537904983013906,0,5,7,-12,6,2,1,0
1537904983013906,0,-1,4,-24,3,-1,2,1
1537904983027869,-1,0,-10,13,-6,-3,0,-1
1537904983027869,1,1,12,-25,-6,1,0,0
1537904983035849,2,2,0,24,0,-4,-2,-2
1537904983035849,-3,-2,-1,-11,-7,-1,0,-1
1537904983050807,-1,-2,-2,14,-11,-4,-2,-2
1537904983050807,-2,0,-1,-11,7,2,1,1
1537904983051805,2,0,2,-8,15,1,1,3
1537904983051805,-2,-7,-18,18,-6,-2,-1,-1
1537904983073746,0,3,32,8,13,2,0,-2
1537904983073746,1,-9,-8,15,-6,-4,-1,-2
1537904983073746,2,2,-51,10,2,2,0,1
1537904983073746,-1,0,4,-13,12,1,-1,-1
1537904983096685,1,-2,-6,-11,-14,-4,-2,2
1537904983096685,-2,5,12,-13,-3,-2,-1,1
1537904983097682,-2,1,4,-4,-11,-3,0,-3
1537904983097682,0,-4,8,-8,7,3,0,1
1537904983110647,0,3,-2,10,8,2,3,0
1537904983110647,0,0,-1,-3,-3,-3,-2,0
1537904983111645,-1,-4,4,2,-5,-3,-2,0
1537904983111645,0,6,-1,7,-5,-1,-2,-2
1537904983133586,0,-5,0,10,3,0,-2,0
1537904983133586,-1,-9,-10,-1,0,1,0,-1
1537904983134583,3,7,8,-18,-14,-2,-1,-1
1537904983134583,-3,-17,-2,0,3,0,1,-2
1537904983156525,0,11,-2,-7,0,0,0,0
1537904983156525,-2,-1,3,-5,3,-1,0,-1
1537904983157522,-2,-4,9,6,-7,-2,-3,-1
1537904983157522,-1,-2,-1,-16,-10,0,-1,-1
1537904983170487,-10,-19,-5,-5,-8,-3,-2,-6
1537904983170487,10,5,-6,14,3,1,4,6
1537904983171485,-3,-12,4,-18,-2,1,0,-3
1537904983171485,-4,-9,-2,2,5,-1,-1,-4
1537904983193426,3,-4,-8,6,4,0,0,1
1537904983193426,-7,-16,3,3,9,-2,-2,-3
1537904983194423,-8,9,-6,-31,-27,-9,-4,-4
1537904983194423,5,15,11,9,6,2,0,1
1537904983216365,1,-7,-7,-6,-3,-3,-3,-1
1537904983216365,-2,-2,-1,7,3,1,-3,-3
1537904983217362,-2,-5,2,-11,-6,0,0,0
1537904983217362,-2,2,-1,5,-2,-3,-1,-3
1537904983231325,-2,5,4,-3,0,3,1,-3
1537904983231325,5,3,-5,0,-19,-4,-1,3
1537904983231325,-1,-3,1,21,5,0,-1,-2
1537904983231325,0,7,-1,-7,1,2,-2,0
1537904983253266,3,2,-2,1,1,2,0,0
1537904983253266,-5,0,0,-10,3,1,0,-1
1537904983254264,3,8,-2,-11,-4,-4,-3,0
1537904983254264,-4,-6,-5,4,-4,-1,-2,-2
1537904983276205,3,2,0,5,8,1,0,3
1537904983276205,0,5,4,22,7,1,-1,-2
1537904983277202,-3,-1,2,5,0,-2,-1,-3
1537904983277202,-1,-3,-3,0,3,1,1,-1
1537904983299143,-2,2,-2,-5,-4,-3,-3,0
1537904983299143,-4,0,2,-4,5,-1,0,-4
1537904983300141,3,-1,3,-5,-12,0,-1,2
1537904983300141,-1,2,1,3,2,1,1,0
1537904983313106,-2,-1,-3,-12,-6,-1,1,-2
1537904983313106,-2,1,-1,-8,-10,-5,-2,-2
1537904983314104,2,2,-7,-3,9,4,2,1
1537904983314104,7,7,1,-2,1,-2,0,1
1537904983337042,5,4,0,-2,-3,-1,-1,1
1537904983337042,-5,-2,-1,-5,0,1,-3,-2
1537904983337042,-5,-5,0,-10,-2,-4,-2,-2
1537904983337042,-3,-14,-3,3,-5,-1,-1,0
1537904983351005,0,35,2,5,4,1,0,-1
1537904983351005,0,-1,-4,-11,-7,0,-1,-4
1537904983352003,-1,1,-1,6,4,2,-2,0
1537904983352003,2,7,-1,1,1,0,1,1
1537904983373944,-3,-7,-4,3,1,1,1,-2
1537904983373944,0,3,-1,-6,-5,-2,-3,-1
1537904983373944,-1,-1,-2,-5,-3,-1,-2,-2
1537904983373944,-2,-10,-1,1,-1,-2,-1,0
1537904983396882,-4,-12,-2,0,2,2,1,-1
1537904983396882,-1,1,-3,-3,-3,-3,-2,1
1537904983397880,-1,-11,-2,-1,3,1,0,0
1537904983397880,-1,1,-1,-1,-1,0,-1,0
1537904983410845,-2,-7,1,2,0,-2,1,-2
1537904983410845,-1,-12,-2,0,2,1,0,-2
1537904983411842,0,8,4,-1,0,-2,-1,0
1537904983411842,-3,-5,-1,-3,-1,0,-1,-2
1537904983441762,-1,-5,1,-2,-2,-3,-3,1
1537904983441762,0,-3,-1,-2,-4,-1,-1,-1
1537904983442760,-1,-22,-4,-2,0,0,-1,0
1537904983442760,1,15,4,1,-1,-2,-1,-3
1537904983457720,1,-7,-2,1,0,-2,-1,4
1537904983457720,1,2,-2,-4,-1,1,8,-19
1537904983458717,-5,-2,-1,0,-3,-4,-19,2
1537904983458717,0,-2,-2,0,-1,-2,-7,-1
1537904983470685,3,-3,-1,-2,-3,-2,17,27
1537904983470685,4,4,0,-3,-2,-2,-1,-1
1537904983471683,-2,6,0,-1,-2,1,3,-23
1537904983471683,-2,-12,-3,-2,0,1,5,4
1537904983493624,0,15,0,-2,-3,-2,-6,-2
1537904983493624,-3,-2,-1,-2,0,-1,-7,-7
1537904983494621,1,0,-1,1,1,1,5,5
1537904983494621,-1,0,-1,-2,-3,-2,-4,-4
1537904983516562,-1,-8,-1,0,0,1,3,3
1537904983516562,-4,4,2,3,-1,-3,-1,10
1537904983517560,-2,0,-2,0,-1,-3,-4,-8
1537904983517560,-2,5,-1,-3,-2,-2,1,-1
1537904983530525,0,-2,-2,0,-3,-2,-5,-7
1537904983530525,-1,2,1,0,1,2,-1,1
1537904983531523,0,0,-1,-1,0,1,2,6
1537904983531523,0,-1,-1,-1,0,0,1,6
1537904983553464,-3,-3,-1,-1,1,-2,-3,-10
1537904983553464,-2,-1,0,-1,-1,0,-4,2
1537904983554461,-2,-4,0,1,1,0,4,7
1537904983554461,-2,0,-1,0,-1,-1,-1,-5
1537904983576402,-2,-2,-2,-3,-2,-1,-5,-9
1537904983576402,1,2,4,11,2,1,1,4
1537904983577400,0,-1,-7,-26,-4,-1,0,2
1537904983577400,-1,-2,-2,-2,0,0,-1,-4
1537904983591362,-2,-3,-6,-6,-5,-3,-4,-4
1537904983591362,-2,-2,4,-1,-1,1,0,4
1537904983591362,2,2,5,20,4,1,1,0
1537904983591362,-3,-4,-25,0,7,2,0,-3
1537904983613304,-4,-3,38,-4,-22,-8,-7,-4
1537904983613304,-1,1,-8,5,5,2,0,-1
1537904983614301,0,-3,-5,15,13,2,1,-1
1537904983614301,-3,-2,-24,-35,-22,-9,-7,-4
1537904983636242,0,-7,-12,58,15,7,2,1
1537904983636242,-4,5,25,-10,-9,-4,-5,-4
1537904983652200,3,27,40,-75,-17,-5,-2,2
1537904983652200,-2,-19,-30,8,-3,-2,-2,1
1537904983653197,-7,-32,-72,77,23,7,0,-4
1537904983653197,3,7,26,61,-7,-5,0,3
1537904983658184,-6,-4,-32,-24,-29,-9,-5,-4
1537904983658184,2,9,42,68,-3,-2,-3,-3
1537904983673144,1,4,-16,-14,-1,0,-2,-4
1537904983673144,-1,-11,-12,-55,7,3,0,1
1537904983674141,2,-3,14,12,14,3,1,3
1537904983674141,-2,-5,-84,-11,22,8,3,2
1537904983704061,-12,-6,72,-73,-59,-24,-15,-13
1537904983704061,-3,-15,-63,-18,-17,-2,-1,-2
1537904983705058,9,19,28,78,26,5,4,7
1537904983705058,-6,-17,7,35,3,1,-2,-2
1537904983719021,4,10,22,55,34,8,6,5
1537904983719021,3,16,9,-39,-23,-7,-3,1
1537904983720019,-9,-20,-25,-60,-28,-10,-6,-8
1537904983720019,5,10,11,41,24,8,5,4
1537904983732984,2,13,27,43,18,6,3,3
1537904983732984,2,2,1,21,22,5,4,1
1537904983733981,-1,-6,-12,14,3,2,-1,0
1537904983733981,2,-12,-71,45,44,12,9,6
1537904983756920,-14,4,34,-95,-87,-34,-19,-19
1537904983756920,-8,-12,-1,60,15,4,-3,-3
1537904983756920,3,-21,-22,-33,6,4,3,3
1537904983756920,1,22,23,31,2,0,2,0
1537904983769885,4,4,-18,-2,15,6,1,3
1537904983769885,-1,2,14,44,10,1,1,1
1537904983785843,-7,-5,-10,5,-7,-2,-3,-5
1537904983785843,-2,-1,32,-28,-18,-5,-5,-1
1537904983793821,3,4,-9,-3,16,7,5,4
1537904983793821,1,8,4,-23,-12,-4,-1,-2
1537904983793821,2,-2,7,24,10,3,3,1
1537904983793821,0,3,7,-21,-16,-5,-3,-4
1537904983816760,1,-2,-14,-22,13,5,2,3
1537904983816760,0,-12,-23,33,18,4,1,2
1537904983817757,-4,1,-11,-39,-21,-5,-4,-3
1537904983817757,1,5,47,-38,-15,-5,-1,-3
1537904983840696,-1,-12,-54,10,-1,2,0,-1
1537904983840696,1,0,-2,-10,2,-1,0,0
1537904983841693,-1,2,4,37,10,1,0,1
1537904983841693,-1,3,15,-34,-10,-3,-3,-1
1537904983853661,0,-6,-4,20,20,7,4,3
1537904983853661,-2,-3,-20,-72,-25,-6,-4,-4
1537904983854659,4,1,-14,84,46,13,6,3
1537904983854659,-5,-7,20,-50,-37,-16,-6,-5
1537904983876600,3,1,-7,-12,8,4,1,2
1537904983876600,0,-1,12,1,0,-2,1,1
1537904983877597,-1,1,-6,10,6,1,-1,-1
1537904983877597,-1,0,5,15,5,3,-1,-1
1537904983890563,0,1,-14,-5,-2,0,-1,-1
1537904983890563,-1,0,13,15,0,-1,-1,-2
1537904983898541,-2,-3,0,-12,-14,-4,-2,-2
1537904983898541,0,2,4,-3,3,1,1,1
1537904983929458,0,1,13,0,-4,0,1,0
1537904983929458,0,-2,-5,-1,0,-1,-1,-1
1537904983929458,-1,2,9,-6,-7,-3,-1,-1
1537904983929458,0,0,-1,-3,0,0,-1,-2
1537904983936440,-1,0,2,5,10,1,1,-1
1537904983936440,1,2,0,-3,0,-1,-3,0
1537904983937437,-2,1,-1,-9,-13,-3,-3,-3
1537904983937437,0,-1,5,2,-1,-1,-1,0
1537904983959379,2,-2,-4,-9,-3,-1,0,1
1537904983959379,-1,0,4,1,1,0,1,0
1537904983960376,-2,-2,8,0,-5,-4,-2,-2
1537904983960376,0,-3,-1,-4,1,-1,0,-2
1537904983973341,1,1,0,0,0,0,-2,-1
1537904983973341,0,-1,0,-2,-3,-3,-2,-1
1537904983974339,-2,-1,3,4,1,2,0,-3
1537904983974339,0,2,-2,0,0,-2,-2,1
1537904983996280,0,0,0,-2,-2,-1,-1,1
1537904983996280,-2,-4,3,-1,-3,0,0,-3
1537904983997278,-3,-1,0,-4,-2,0,0,0
1537904983997278,2,4,-3,-8,-8,-4,-3,0
1537904984026200,-2,-1,4,4,1,0,-1,-3
1537904984026200,0,-2,-3,0,-6,-3,-1,2
1537904984028195,0,0,0,1,0,-2,-2,-1
1537904984028195,-3,-4,2,2,0,-1,0,-1
1537904984042157,1,2,-10,-6,5,2,1,2
1537904984042157,-3,-2,3,13,-3,-3,-4,-3
1537904984043155,-2,-1,0,-10,-9,-3,-3,-1
1537904984043155,-1,0,0,-1,2,3,0,-1
1537904984057118,0,1,0,0,1,-1,-1,-1
1537904984057118,-2,2,-2,-5,2,1,0,-1
1537904984064099,0,0,0,3,-1,-2,-1,-1
1537904984064099,-2,-5,0,2,2,1,0,-1
1537904984079059,-1,0,3,-4,-4,-1,-1,0
1537904984079059,-2,-1,-1,-1,-1,-2,2,0
1537904984081053,0,-2,2,-3,-5,-4,-1,0
1537904984081053,-1,2,-2,0,1,1,-1,0
1537904984101998,-1,0,-1,-2,-6,-2,-3,-1
1537904984101998,-2,-3,0,-2,1,-1,-1,-1
1537904984102995,-1,-3,-2,1,1,1,0,1
1537904984102995,0,1,-2,-2,-2,-1,-3,-1
1537904984116957,0,-1,1,3,0,0,-1,-2
1537904984116957,0,-1,-1,-3,-3,-2,-2,-2
1537904984117955,-1,-1,1,-1,-1,0,0,1
1537904984117955,-1,0,1,1,2,2,-1,-2
1537904984138899,-2,-4,2,-2,-1,-1,-2,-1
1537904984138899,1,1,-4,-4,1,1,0,0
1537904984140893,0,-2,-2,0,0,-1,-1,0
1537904984140893,-2,-3,-2,-5,-4,-4,-2,-2
1537904984152861,0,-1,-2,-1,-1,0,-1,-1
1537904984152861,-2,-1,1,-1,1,2,-2,1
1537904984168819,0,-2,1,0,-1,-1,-2,-1
1537904984168819,1,-2,1,1,-1,0,-1,0
1537904984176797,0,2,1,5,6,1,2,0
1537904984176797,0,-1,-2,2,1,-1,-2,-2
1537904984177795,-1,1,-3,-7,-4,-3,-1,-2
1537904984177795,-2,-2,0,-9,-9,-1,-1,-3
1537904984198739,1,1,1,16,3,0,0,-1
1537904984198739,1,0,-11,-7,21,11,5,2
1537904984206718,-2,-2,2,40,5,-6,-6,-2
1537904984206718,-3,-3,3,12,-16,-7,-3,-3
1537904984212702,-7,-5,-5,-17,-37,-14,-7,-5
1537904984212702,-6,-7,-5,-5,-36,-13,-9,-6
1537904984221678,-2,-7,-22,87,44,19,8,2
1537904984221678,3,18,58,-75,-41,-11,-3,1
1537904984236638,2,-4,-13,70,20,4,1,1
1537904984236638,0,-4,-11,90,37,11,5,1
1537904984238632,1,5,28,-58,-32,-7,-4,-2
1537904984238632,6,3,-22,46,35,9,4,4
1537904984259576,-5,-10,-16,40,22,3,1,-2
1537904984259576,-6,-5,17,-128,-101,-31,-15,-10
1537904984273539,2,-5,-53,48,16,7,4,2
1537904984273539,1,4,-4,89,41,12,5,5
1537904984274536,-2,1,9,-63,-25,-5,-4,-1
1537904984274536,3,5,14,34,34,7,4,4
1537904984281517,-5,-3,2,9,-5,-3,-2,-2
1537904984281517,-4,-4,-11,-76,-18,-5,0,-3
1537904984296477,-1,0,-11,45,14,5,3,-1
1537904984296477,1,0,3,-3,15,4,2,1
1537904984302462,-3,2,25,-55,-25,-8,-2,-3
1537904984302462,-2,-6,-32,-1,0,-1,-2,-1
1537904984319416,6,8,17,35,26,6,4,6
1537904984319416,-3,-6,-33,20,-7,-3,-1,-3
1537904984320414,-2,1,17,-79,-32,-9,-4,-5
1537904984320414,-2,-2,6,21,-2,1,-2,-2
1537904984341357,-2,0,-10,5,5,2,0,0
1537904984341357,1,4,6,28,4,0,0,-1
1537904984343352,2,1,-11,22,14,3,1,2
1537904984343352,-4,-6,-1,32,5,0,-1,-3
1537904984356317,1,-2,8,-62,-27,-10,-3,-3
1537904984356317,0,2,-8,5,9,3,1,1
1537904984358312,0,0,13,10,-2,-2,-1,-2
1537904984358312,-2,-4,1,4,5,3,1,-3
1537904984379256,0,1,-2,-16,-11,-4,-3,-2
1537904984379256,0,-1,13,-7,4,2,0,-1
1537904984380254,2,-3,-14,29,33,10,5,2
1537904984380254,-2,-6,-2,-44,-25,-9,-6,-3
1537904984393219,1,0,-5,-30,1,2,0,0
1537904984393219,-3,-2,-3,16,-7,-4,-2,-2
1537904984409176,-1,2,11,42,-1,2,-1,0
1537904984409176,-1,0,-8,-45,0,-1,0,-1
1537904984416157,-2,-1,11,-9,-12,-2,-1,-3
1537904984416157,-1,1,-1,-15,2,2,1,1
1537904984418152,-1,1,-1,1,-2,-2,0,-1
1537904984418152,0,-1,-22,79,22,5,3,2
1537904984447075,-3,-4,-11,-20,-6,-4,-4,-3
1537904984447075,1,2,5,0,-1,0,-1,-1
1537904984448072,2,1,-5,-1,3,3,-1,1
1537904984448072,-7,-5,2,50,3,-4,-3,-4
1537904984453059,0,3,16,-27,-6,1,1,0
1537904984453059,0,2,4,3,9,4,3,0
1537904984462035,-3,-1,3,-47,-16,-5,-4,-2
1537904984462035,1,3,5,-12,0,0,0,1
1537904984483976,-2,-2,-3,24,2,-1,-1,-2
1537904984483976,0,1,10,-16,-3,-1,2,0
1537904984485972,-1,-1,-6,4,-1,-3,1,-1
1537904984485972,0,0,-2,-33,-7,-3,0,-2
1537904984498936,-2,-1,3,2,-3,-2,-2,-2
1537904984498936,1,-1,-6,3,0,-1,-2,0
1537904984500931,-1,-2,-6,-7,-1,-3,-3,-1
1537904984500931,-1,-2,4,-6,-6,-2,-1,-1
1537904984512899,0,-1,-5,9,0,-2,0,-1
1537904984512899,0,-1,-1,0,2,-2,0,0
1537904984521875,-2,-2,1,1,-7,-4,-4,-4
1537904984521875,0,0,2,-4,0,1,0,0
1537904984536835,-3,-2,1,6,3,3,-2,0
1537904984536835,-2,0,-7,-11,-10,-5,-2,0
1537904984537833,-2,-2,-2,-7,-1,0,-1,-1
1537904984537833,0,-1,2,17,3,0,0,0
1537904984558776,0,0,-2,-2,-1,-3,1,-1
1537904984558776,-2,-2,0,1,1,1,-1,-2
1537904984560771,1,0,-2,-2,-4,-2,0,-1
1537904984560771,0,0,2,0,-1,-1,-2,-1
1537904984581715,0,-1,-1,4,1,0,0,1
1537904984581715,-1,-2,-4,0,-1,-2,-4,0
1537904984582713,-2,-2,1,3,0,0,0,0
1537904984582713,1,0,0,-5,-2,-1,-2,-1
1537904984596676,0,-1,0,0,-1,1,-1,-1
1537904984596676,0,-4,-1,0,0,1,0,-1
1537904984597672,0,1,-1,-6,-3,-1,0,-1
1537904984597672,-1,0,1,-7,0,1,-1,-1
1537904984619614,-1,-1,-1,9,3,-2,-3,0
1537904984619614,0,0,-2,-3,-7,-4,-1,-2
1537904984620611,1,0,0,-1,0,-1,-1,-1
1537904984620611,-1,-2,-1,-4,-3,-2,-1,0
1537904984632579,-1,-1,0,-2,-2,1,0,0
1537904984632579,-3,0,-1,1,0,-2,-1,-1
1537904984641555,-2,-1,0,-1,1,-1,-1,0
1537904984641555,-2,-9,-2,-5,1,-1,1,-2
1537904984656515,4,8,-1,-1,-2,-3,0,1
1537904984656515,2,1,2,5,3,1,2,2
1537904984658510,-1,-2,-2,-5,-2,-1,-1,0
1537904984658510,-1,1,1,-1,-3,0,-2,0
1537904984686436,-2,-5,-1,-1,-1,0,-1,-1
1537904984686436,-2,-3,-1,-1,1,-1,-1,-2
1537904984688430,-2,-2,-1,3,0,1,-1,0
1537904984688430,-1,-3,-2,-3,-2,-1,-2,1
1537904984692419,-1,0,2,-1,-1,0,-2,0
1537904984692419,1,2,-2,-3,-3,-2,-1,0
1537904984701395,-1,-2,0,1,3,0,0,-1
1537904984701395,-2,-7,-3,-3,-3,-3,-2,-2
1537904984724334,1,12,0,-4,0,-1,0,1
1537904984724334,2,0,-1,2,3,2,-2,0
1537904984725331,1,1,0,-2,-3,-2,-3,0
1537904984725331,0,1,-3,-3,-5,-2,-1,-1
1537904984739294,-3,-10,-2,0,1,-1,0,-1
1537904984739294,-1,-2,-1,2,2,-1,-1,-1
1537904984740291,-1,1,0,-3,-5,-3,-1,0
1537904984740291,0,-1,-1,4,1,-3,-1,-1
1537904984761235,-2,-1,-1,-3,-1,-1,0,0
1537904984761235,-2,2,-2,-1,0,0,1,-2
1537904984763230,-1,-6,0,0,-1,-3,-1,0
1537904984763230,0,3,1,1,2,1,-2,1
1537904984776195,0,1,-2,-1,0,-1,1,-1
1537904984776195,0,-2,1,3,2,1,2,0
1537904984778190,0,1,-1,1,-1,-3,-1,-1
1537904984778190,1,0,-4,4,1,-2,0,-2
1537904984799134,-2,-2,-3,-12,-10,-4,-3,-2
1537904984799134,-2,-2,-1,-2,1,1,1,-2
1537904984800131,-2,0,5,4,4,3,0,-2
1537904984800131,4,8,-5,22,24,7,4,4
1537904984813097,-5,-10,7,-31,-17,-9,-9,-6
1537904984813097,2,2,9,40,7,1,1,1
1537904984829054,-6,-6,-13,-52,-15,-8,-3,-6
1537904984829054,4,2,-28,51,16,8,5,2
1537904984836035,-8,-12,11,-22,-19,-11,-8,-8
1537904984836035,3,7,30,11,-1,1,0,3
1537904984843017,5,11,9,-76,-9,1,-2,1
1537904984843017,-6,-8,-4,-17,-13,-8,-5,-3
1537904984858974,-3,-6,-17,38,20,8,1,-1
1537904984858974,5,11,1,14,1,0,3,4
1537904984860969,-2,-7,-30,31,11,2,0,0
1537904984860969,0,0,12,-13,-2,1,0,0
1537904984872937,2,0,-3,-45,-10,-4,-1,0
1537904984872937,-6,-11,-16,60,29,5,0,-2
1537904984881913,3,1,-27,13,-3,0,1,1
1537904984881913,-7,-5,9,-73,-39,-13,-6,-7
1537904984895876,0,0,0,46,9,3,2,0
1537904984895876,-4,-5,-8,-26,-14,-5,-5,-4
1537904984902857,-1,-1,6,33,15,4,0,0
1537904984902857,1,3,-7,21,9,4,2,0
1537904984918814,0,1,14,6,-9,-1,1,-1
1537904984918814,-1,1,1,-22,-5,-2,-2,-3
1537904984920809,-1,-2,4,6,0,-3,-1,1
1537904984920809,-3,-2,7,-5,-3,-3,-3,-2
1537904984941753,3,6,-1,8,3,0,3,3
1537904984941753,-1,-3,-15,-15,-5,-2,-1,-3
1537904984942750,-2,-3,13,-1,-3,-1,0,-3
1537904984942750,-1,1,5,-4,0,0,0,-2
1537904984963694,2,2,0,28,13,2,2,3
1537904984963694,-3,-3,-6,-46,-15,-5,-2,-1
1537904984965689,-2,-3,3,6,-4,-1,-2,-2
1537904984965689,1,0,5,9,1,0,0,0
1537904984978654,1,0,-7,4,6,3,-1,0
1537904984978654,-2,-3,0,-7,-6,-2,-3,0
1537904984980649,2,1,-1,36,15,7,3,1
1537904984980649,0,1,7,-23,-12,-4,-4,-1
1537904985001593,-2,-2,-4,-23,-9,-2,-2,-3
1537904985001593,-1,-2,-10,-16,-10,-6,-4,-2
1537904985002590,-1,1,1,-1,-3,-3,-1,0
1537904985002590,0,-1,1,9,9,3,3,0
1537904985015555,3,2,0,9,9,4,3,2
1537904985015555,-2,-2,5,3,3,2,1,1
1537904985039491,-1,0,-4,0,-2,-4,-2,-1
1537904985039491,-2,-2,-3,9,-7,-2,-3,-3
1537904985040489,-2,-1,1,-3,-2,-1,-1,0
1537904985040489,-1,0,-5,-4,0,0,0,0
1537904985041486,-1,-3,7,2,2,3,0,-2
1537904985041486,0,-2,0,3,5,1,0,1
1537904985069411,-1,1,-8,-8,-5,-4,0,-1
1537904985069411,0,0,0,5,0,0,0,-1
1537904985070408,0,-1,3,1,-3,-2,-1,-1
1537904985070408,-1,0,-3,-5,-6,-3,-3,-1
1537904985075395,0,1,-4,1,0,-1,-2,-1
1537904985075395,-3,-1,0,0,-2,0,-1,-1
1537904985091352,-2,-2,5,-2,-3,-1,0,1
1537904985091352,-1,-2,-3,0,3,2,2,0
1537904985099331,0,-2,-3,-2,-3,-1,-3,0
1537904985099331,0,-1,0,-1,0,0,1,0
1537904985100329,-1,0,0,-5,-3,-3,-1,0
1537904985100329,-1,-2,-2,4,3,1,0,-2
1537904985137230,-3,-2,-2,-1,3,0,1,-1
1537904985137230,-1,1,-2,-4,-5,-4,-5,-1
1537904985139225,-1,-1,2,2,1,3,0,0
1537904985139225,1,1,-1,-2,-2,-5,-1,1
1537904985139225,-2,0,-1,1,2,1,-1,-1
1537904985139225,-2,-3,0,3,4,3,0,-3
1537904985144211,1,0,-2,-13,-12,-7,-4,-1
1537904985144211,-1,-1,1,1,2,-1,-1,-1
1537904985159171,0,-1,-2,-3,-1,1,-1,0
1537904985159171,0,0,1,4,6,3,1,-1
1537904985160169,0,-3,-3,-1,-2,0,0,-1
1537904985160169,-3,2,2,-2,-2,0,0,-1
1537904985182110,0,-1,1,1,1,0,1,-1
1537904985182110,-1,-2,-2,-6,-4,-1,-2,0
1537904985183108,0,2,1,3,2,0,1,-1
1537904985183108,-1,-1,-1,-3,-5,-3,-3,-1
1537904985196073,-1,-1,-1,-1,1,-1,-1,-1
1537904985196073,0,-4,-3,-5,-5,-4,-1,-2
1537904985203054,0,1,4,3,-2,-2,-3,-1
1537904985203054,0,-1,-2,0,0,2,-1,-1
1537904985219011,-3,0,-1,1,1,-1,-1,-1
1537904985219011,-2,0,-2,-2,0,-2,0,-2
1537904985221006,0,-1,-3,0,2,0,-1,1
1537904985221006,0,0,2,-1,1,-3,-2,-1
1537904985241950,0,1,-2,-3,-6,-2,-1,-1
1537904985241950,0,2,-1,17,-4,-3,-2,-1
1537904985242947,-3,-4,-4,-12,-3,0,1,-1
1537904985242947,-2,0,0,9,6,3,2,0
1537904985255913,-2,-3,-5,-7,-6,-3,-3,-2
1537904985255913,-2,-1,2,1,-2,-1,-1,0
1537904985262894,0,-1,-2,1,0,-2,0,-1
1537904985262894,-1,0,-2,-8,-4,0,1,0
1537904985278851,1,1,5,10,8,2,1,0
1537904985278851,-2,-2,-1,-4,-1,1,1,-1
1537904985280846,-1,0,0,0,-2,-1,-3,-1
1537904985280846,1,-3,-2,-3,0,-1,-1,-1
1537904985308771,0,-1,-1,-1,2,2,1,-1
1537904985308771,-1,-1,-1,-4,-2,0,0,1
1537904985317747,-1,-1,-1,0,0,0,0,-2
1537904985317747,-1,-2,-2,1,-6,-3,-2,-1
1537904985318745,-1,-2,0,-2,1,1,-1,-3
1537904985318745,0,-1,-1,-4,3,-1,-1,0
1537904985322734,-2,0,3,4,-2,-1,-2,-2
1537904985322734,-1,-2,-2,-4,0,-3,0,0
1537904985338692,0,-2,3,2,-4,0,0,0
1537904985338692,1,0,-3,-1,2,-2,-1,1
1537904985345673,-2,-2,-1,0,-1,-1,1,1
1537904985345673,-3,-4,-2,-7,-8,-3,-3,-1
1537904985369609,-2,0,1,13,2,0,-1,-1
1537904985369609,-2,-2,-3,-10,0,-1,-1,-1
1537904985370608,-2,0,3,-5,-3,0,-1,-2
1537904985370608,-2,0,-2,2,3,0,-1,-1
1537904985375595,0,1,0,0,1,1,1,0
1537904985375595,0,1,-2,3,-2,-4,-3,-1
1537904985382575,1,-1,0,4,2,-1,0,0
1537904985382575,0,-1,-2,-4,-4,-2,-1,-1
1537904985399530,-2,-1,-3,-1,1,0,1,0
1537904985399530,-1,-1,3,0,1,0,-2,-2
1537904985400527,-2,1,-3,1,-3,-1,-3,-1
1537904985400527,1,0,1,4,-5,-1,-2,0
1537904985429451,-1,-1,-5,13,15,4,1,2
1537904985429451,-1,1,13,31,2,0,1,-1
1537904985430448,-2,-6,-19,-46,-3,-1,-2,-3
1537904985430448,3,6,34,54,17,6,2,2
1537904985435435,0,-4,-42,-16,-6,-4,-3,-1
1537904985435435,-2,-8,-26,42,39,11,3,1
1537904985444410,-4,2,41,-18,-77,-26,-12,-6
1537904985444410,1,0,14,-83,33,11,4,1
1537904985459369,4,2,-50,-6,-34,-7,-3,3
1537904985459369,-4,1,23,-114,-43,-11,-7,-4
1537904985460366,-3,-8,-5,52,28,8,2,-3
1537904985460366,5,2,-7,-18,25,8,3,3
1537904985481310,-7,-5,-2,-109,-56,-21,-12,-9
1537904985481310,2,-4,8,118,44,12,6,4
1537904985488292,2,2,22,51,8,1,0,1
1537904985488292,-4,-6,-30,-34,-13,-5,-4,-3
1537904985495274,1,0,12,50,33,8,2,1
1537904985495274,1,2,-1,-31,-29,-6,-2,1
1537904985504249,0,-3,-7,45,30,6,3,0
1537904985504249,-3,-4,-11,42,-2,-5,-3,-5
1537904985519209,-2,0,11,-22,-10,-5,-2,0
1537904985519209,-1,-1,-1,-23,-17,-9,-4,-2
1537904985520206,2,4,-3,-18,6,4,4,3
1537904985520206,-2,-1,-10,-5,-16,-4,-1,-2
1537904985541150,-2,-2,25,-4,-3,-1,-1,-2
1537904985541150,0,4,-2,2,9,3,1,2
1537904985543145,2,0,-18,-21,9,4,2,2
1537904985543145,-2,-1,4,-10,-22,-8,-4,-3
1537904985555113,1,-1,6,26,19,6,2,0
1537904985555113,-2,-2,-3,12,0,1,0,-1
1537904985564089,1,-1,-12,-41,-8,-4,-3,-1
1537904985564089,-3,-1,10,5,-4,0,-1,0
1537904985578052,0,0,1,42,12,2,-1,0
1537904985578052,1,0,-9,-12,-2,0,-1,0
1537904985593012,-4,0,5,-12,-7,-1,-1,-1
1537904985593012,2,1,-1,13,-1,-3,-1,0
1537904985601988,-3,-2,4,4,8,3,1,-1
1537904985601988,-4,-1,-1,-18,-9,-2,-1,-5
1537904985602985,0,0,-5,9,4,0,0,1
1537904985602985,0,-2,-4,15,-1,0,-2,-1
1537904985616948,-2,0,13,-7,-5,-4,-4,0
1537904985616948,-3,-3,-6,-5,-5,-3,-1,-2
1537904985623929,-1,-1,1,-6,6,3,0,0
1537904985623929,2,0,1,6,-9,-6,-2,0
1537904985646868,0,-1,4,-9,-3,-2,-1,-2
1537904985646868,-1,-1,0,-3,5,2,0,-2
1537904985647866,-1,-1,-3,2,3,1,1,-1
1537904985647866,-2,0,-3,3,2,0,-1,-1
1537904985661828,-2,-1,7,-17,-11,-2,-1,0
1537904985661828,0,-1,-4,1,-4,-3,-2,0
1537904985662826,-2,-2,-14,-7,4,1,0,-2
1537904985662826,-2,0,13,-6,-9,-3,-1,-1
1537904985675790,0,1,2,9,5,1,1,1
1537904985675790,0,-1,-3,-13,-2,1,0,-1
1537904985683769,1,1,1,3,-3,-2,-1,-1
1537904985683769,-2,-2,-6,-2,0,0,-2,-3
1537904985698729,0,-1,0,-3,-8,-5,1,-1
1537904985698729,-1,-1,-2,-2,-1,0,0,-1
1537904985705711,-1,-1,1,3,-1,-3,0,1
1537904985705711,-2,-3,-3,5,3,3,0,0
1537904985721668,-1,-1,-2,5,3,2,0,-1
1537904985721668,0,0,2,-1,4,-2,-1,0
1537904985722665,2,0,-2,3,-3,-2,0,-1
1537904985722665,-2,-3,-5,-21,-10,-3,-1,-2
1537904985735631,-1,-2,2,0,3,-1,0,-1
1537904985735631,1,-1,-8,2,1,0,0,-2
1537904985744606,0,0,8,8,-2,1,-1,-1
1537904985744606,-1,-2,-1,-6,-4,-2,-1,-1
1537904985758569,-1,0,-3,4,6,2,1,0
1537904985758569,-1,-1,0,2,-2,-2,-1,-1
1537904985765550,0,-2,-1,4,3,0,0,-1
1537904985765550,-1,-2,-6,0,2,0,0,-1
1537904985781508,-2,-1,1,0,-3,-2,-1,-2
1537904985781508,-2,-1,0,-2,-1,0,0,0
1537904985783503,-1,1,-3,-14,-7,-5,-2,-2
1537904985783503,0,-1,-1,4,-1,-2,0,-2
1537904985795470,-1,-2,-3,-1,3,2,0,-1
1537904985795470,0,0,2,-4,-2,-1,-1,-1
1537904985804447,-1,-1,1,6,2,-1,-2,0
1537904985804447,-1,-1,-1,6,-2,-2,-2,-2
1537904985818410,0,-2,0,0,3,2,1,-1
1537904985818410,1,-1,-5,-8,-5,-3,-2,0
1537904985832373,-3,-1,-5,-18,-12,-5,-3,-2
1537904985832373,-2,0,0,2,2,0,1,0
1537904985841349,-1,1,1,-3,0,0,-2,-2
1537904985841349,-1,2,0,-4,4,2,0,1
1537904985843345,0,-4,-3,0,0,-2,-1,-1
1537904985843345,-2,0,-2,1,-2,-1,-2,2
1537904985871269,0,-1,-2,-2,0,-1,0,-1
1537904985871269,-1,-2,2,4,2,2,0,0
1537904985873265,0,-2,-7,1,-1,-4,-2,0
1537904985873265,0,-1,1,-9,-2,0,-1,-1
1537904985879248,-1,-3,4,22,7,2,-1,1
1537904985879248,-4,-2,-4,-18,-11,-6,-3,0
1537904985880247,-1,2,1,-5,2,1,0,-1
1537904985880247,-2,-4,-2,3,3,1,0,-1
1537904985902187,0,-2,-2,30,9,0,-1,-1
1537904985902187,-3,-4,-5,-3,-4,-1,-1,-2
1537904985903186,0,4,20,-2,-5,0,0,0
1537904985903186,0,0,-1,75,21,2,2,2
1537904985923130,0,4,1,-51,-17,-4,-2,1
1537904985923130,1,1,10,90,36,8,3,3
1537904985938090,-6,-9,-43,-100,-55,-18,-9,-6
1537904985938090,-2,-9,0,110,85,24,9,5
1537904985939087,-2,1,-43,-111,-85,-31,-14,-8
1537904985939087,-4,3,69,59,24,-1,-4,-5
1537904985947066,-1,-7,-12,119,27,3,1,1
1537904985947066,-5,-10,-49,-119,-39,-13,-7,-6
1537904985969007,-3,-9,30,108,16,6,1,0
1537904985969007,2,-3,-59,-70,-15,-2,0,1
1537904985971002,1,0,22,44,53,16,5,5
1537904985971002,-2,-1,5,-19,-38,-12,-7,-6
1537904985983966,4,4,22,14,21,6,4,2
1537904985983966,-2,-1,-7,-41,-35,-11,-5,-5
1537904985985962,6,10,26,15,15,8,5,4
1537904985985962,1,3,0,4,9,2,2,1
1537904985997929,-3,-2,-16,-119,-29,-7,-3,-5
1537904985997929,0,1,9,27,17,7,3,2
1537904986006905,-1,3,1,-31,-22,-5,0,1
1537904986006905,0,1,-5,-34,-10,-2,-1,0
1537904986021865,-1,-1,3,34,18,4,2,-1
1537904986021865,0,1,-2,-2,-7,-3,-2,1
1537904986022863,-3,-3,-10,15,10,3,1,-1
1537904986022863,-1,3,22,-4,-19,-8,-5,-1
1537904986043807,-1,0,0,16,6,2,2,0
1537904986043807,0,-2,-15,-10,0,1,0,0
1537904986045801,1,0,4,-22,-6,-3,-2,-1
1537904986045801,-1,0,9,-29,-15,-3,-2,-3
1537904986057769,-1,0,-8,7,8,1,-1,1
1537904986057769,-1,-3,-3,-1,1,0,0,-1
1537904986072729,-2,-4,4,-14,-10,-3,-4,-3
1537904986072729,1,2,2,2,2,0,1,-2
1537904986081705,-1,-2,-6,26,13,5,1,3
1537904986081705,-1,-2,15,-16,-13,-3,-2,-4
1537904986082703,-1,0,-4,-6,-5,-4,-3,-3
1537904986082703,0,1,-11,23,4,1,1,1
1537904986103646,-3,-1,5,-2,4,1,2,0
1537904986103646,1,0,-5,0,3,0,2,0
1537904986105641,0,0,7,3,0,-2,-2,-1
1537904986105641,-1,-3,-13,-26,-10,0,-2,0
1537904986117609,-2,-4,-6,3,1,1,-3,-3
1537904986117609,-1,-2,-3,-6,-1,-1,0,-1
1537904986126585,-2,-1,-6,4,1,1,1,-2
1537904986126585,-2,-1,4,0,-5,-4,-2,0
1537904986141545,1,0,2,3,6,2,1,1
1537904986141545,0,1,-8,-6,-4,-1,-2,0
1537904986143540,-2,-2,-1,-15,-1,1,-1,1
1537904986143540,0,2,2,10,3,1,0,-1
1537904986164484,1,1,-1,8,5,1,1,-1
1537904986164484,1,-2,0,9,6,1,-1,0
1537904986165482,1,-1,-4,12,-1,-4,-1,0
1537904986165482,-2,0,-1,-23,-11,-4,0,-1
1537904986177450,1,-1,-5,33,3,0,0,1
1537904986177450,-2,-2,5,7,-5,-3,-1,-1
1537904986186426,-2,0,-6,-5,9,4,2,-1
1537904986186426,1,0,-7,29,-9,-2,-2,0
1537904986201385,1,0,15,-35,-10,-4,-2,-1
1537904986201385,-1,0,-1,7,1,-1,-2,-1
1537904986203380,-2,-3,-16,-31,-3,-2,0,-1
1537904986203380,-2,-3,17,37,1,1,-1,-1
1537904986224324,0,0,-9,1,-1,-1,0,-2
1537904986224324,-1,-1,-4,-9,-7,-2,-3,0
1537904986225321,-1,-3,6,7,-3,0,-1,-3
1537904986225321,0,-1,-1,-13,4,1,1,0
1537904986237289,-1,-1,-2,-3,1,-1,-2,-2
1537904986237289,-2,-2,-2,-15,-8,-2,-1,1
1537904986246265,-1,0,-2,8,1,0,0,-1
1537904986246265,0,1,2,-3,5,3,0,-2
1537904986261225,-2,-1,-1,-4,1,0,0,0
1537904986261225,-3,1,-5,8,5,2,0,-2
1537904986263220,-1,0,-1,-3,-5,-3,-2,-2
1537904986263220,0,0,0,-9,-3,-3,-1,-1
1537904986284164,-1,-2,0,3,4,1,-1,-1
1537904986284164,2,0,-8,-1,-3,-2,-1,0
1537904986285162,-2,0,3,0,1,0,1,-2
1537904986285162,-3,-2,2,-1,2,-3,-1,0
1537904986298127,0,2,3,29,10,-2,0,-1
1537904986298127,-1,-3,-10,-49,-34,-8,-4,-2
1537904986307104,0,1,-1,-20,-5,-2,-4,-2
1537904986307104,0,0,-1,3,8,2,0,0
1537904986322063,-4,-1,-3,-2,3,2,0,-1
1537904986322063,1,1,1,9,10,2,1,-1
1537904986323061,-1,-16,-2,6,-5,-2,-1,1
1537904986323061,-1,19,0,-9,-1,2,0,-2
1537904986351983,0,-2,-3,-8,-7,-6,-2,-2
1537904986351983,-1,-4,2,3,3,1,0,0
1537904986352980,-1,5,-2,-4,-5,-2,-3,-1
1537904986352980,0,-12,-2,8,5,1,0,-1
1537904986357967,0,-1,-2,-5,-2,-1,-1,-1
1537904986357967,1,5,2,6,3,0,0,-1
1537904986366943,-2,-9,-2,1,-1,-1,-1,-2
1537904986366943,-2,-3,0,-3,-1,-1,0,0
1537904986388885,-1,2,1,-10,-2,-1,-1,0
1537904986388885,-2,-7,-2,9,1,-1,-2,-1
1537904986390880,1,4,0,4,6,2,1,0
1537904986390880,3,0,-4,11,15,4,0,0
1537904986403845,-2,-3,-7,-26,-17,-6,-4,-2
1537904986403845,0,0,-4,-19,-11,-5,-1,-1
1537904986405840,-2,0,7,20,-10,-3,-2,-3
1537904986405840,6,9,4,51,27,9,4,5
1537904986426783,0,-5,-4,33,3,-1,-2,0
1537904986426783,2,2,-4,96,65,18,8,4
1537904986432767,-2,4,5,-99,-43,-15,-4,-2
1537904986432767,-8,-7,15,-5,-61,-20,-9,-6
1537904986441744,0,2,-21,-9,16,8,3,4
1537904986441744,-3,-2,29,26,27,5,0,-1
1537904986442742,-1,-3,-31,-49,-10,-1,-1,0
1537904986442742,0,-2,-7,1,14,3,2,1
1537904986463685,2,4,-24,-60,20,7,4,2
1537904986463685,-7,-11,-20,-40,-32,-14,-8,-6
1537904986465680,-1,1,23,-32,-14,-3,-2,-1
1537904986465680,1,0,-4,-35,-1,-1,-2,0
1537904986477647,-4,-3,11,36,15,4,1,-1
1537904986477647,2,5,5,10,11,5,1,1
1537904986494602,-2,1,-7,35,10,0,-1,0
1537904986494602,-1,-2,-9,-13,2,-1,0,-1
1537904986501583,-1,-2,14,19,-5,-3,-2,-2
1537904986501583,0,1,2,-15,-17,-5,-2,-2
1537904986502581,-2,-2,-4,30,9,2,0,-1
1537904986502581,-2,-4,0,-9,-2,0,-1,-2
1537904986524522,-1,0,11,13,-8,-3,-1,-1
1537904986524522,-1,0,-4,-16,-15,-4,-2,1
1537904986525520,0,2,-3,8,11,2,0,1
1537904986525520,0,-2,1,1,2,1,-2,-1
1537904986537488,-2,0,3,-2,-8,-2,-1,-2
1537904986537488,0,-1,-2,-15,-8,-4,1,0
1537904986546463,0,1,0,30,14,4,1,1
1537904986546463,0,-1,-9,-12,-3,-3,-3,0
1537904986561423,-3,-2,0,1,-8,-1,-3,-2
1537904986561423,0,2,-4,-22,3,2,-1,-2
1537904986567407,0,-1,2,-9,-8,-2,-1,-1
1537904986567407,-3,-2,3,-8,-11,-1,-1,-4
1537904986584362,1,-1,-2,-5,-4,-3,-1,-2
1537904986584362,1,2,3,-8,4,2,0,0
1537904986586357,-1,-1,3,20,12,0,0,0
1537904986586357,-2,-2,-4,-17,-2,-1,1,-2
1537904986597328,0,-2,0,-6,-7,-4,-2,-1
1537904986597328,-1,-1,5,9,-4,-2,-2,1
1537904986606304,0,1,2,9,5,2,-1,-2
1537904986606304,0,-2,0,5,5,3,1,-1
1537904986629243,1,-1,0,4,4,1,0,0
1537904986629243,-1,-2,-5,-11,-7,-4,-4,-2
1537904986630240,0,-1,-3,10,1,0,1,0
1537904986630240,-1,-2,0,4,1,1,-1,0
1537904986644203,-2,-1,0,-4,-4,-2,0,-1
1537904986644203,-1,1,-3,3,0,0,1,0
1537904986645202,-2,-1,-2,22,1,0,0,-2
1537904986645202,0,1,2,-8,-6,-2,-2,-2
1537904986667141,-1,2,3,-3,1,0,-1,-1
1537904986667141,-2,-2,-1,-8,-6,-2,-2,-4
1537904986668140,-1,0,-4,3,10,2,0,-2
1537904986668140,-1,-2,0,12,0,-1,-1,-2
1537904986689083,0,-2,-5,-9,-11,-2,-2,-1
1537904986689083,-3,-3,-2,6,-6,-2,-3,-2
1537904986691078,-1,-1,0,-4,2,1,0,2
1537904986691078,0,-2,-6,22,7,1,1,-1
1537904986704043,-1,0,5,-3,1,-2,-2,-1
1537904986704043,-2,0,-5,1,1,1,1,-1
1537904986706039,0,-2,-4,-4,-8,-2,-3,-1
1537904986706039,-1,0,-1,-6,1,-1,-1,1
1537904986718006,-2,-1,2,13,4,2,0,0
1537904986718006,1,0,-3,-3,3,-1,0,-1
1537904986733962,0,-2,2,-3,0,-1,0,-1
1537904986733962,-1,-1,1,-4,-3,-2,-1,0
1537904986740943,0,0,-3,0,1,-2,-2,-2
1537904986740943,-2,-2,1,-3,-3,-2,0,-2
1537904986747925,-1,0,-1,1,0,0,-1,-2
1537904986747925,-2,1,-4,-10,-7,-3,-3,0
1537904986763882,-1,-2,5,14,6,3,1,0
1537904986763882,1,-3,-7,6,-4,-1,-1,1
1537904986765876,-2,-1,1,8,6,-1,-1,-2
1537904986765876,0,1,-8,8,13,2,-2,0
1537904986786820,-1,-3,-6,-32,-45,-12,-6,-4
1537904986786820,0,0,4,7,0,2,-1,2
1537904986787818,-1,1,-3,-13,0,1,0,0
1537904986787818,2,-2,1,5,1,1,1,-1
1537904986800783,0,-3,-5,5,12,1,0,1
1537904986800783,-2,0,3,-7,2,-3,0,-2
1537904986807764,-1,-1,-5,8,-9,-4,0,0
1537904986807764,0,-1,8,-2,9,4,3,1
1537904986823722,-1,0,3,32,18,5,2,0
1537904986823722,-1,3,12,-36,-40,-11,-5,-2
1537904986825716,0,-1,-14,-21,19,6,1,2
1537904986825716,-5,-4,-6,-28,-46,-14,-7,-5
1537904986846660,-3,-2,-4,37,15,1,-1,-3
1537904986846660,0,4,6,-47,-58,-14,-4,-1
1537904986847658,-3,-5,18,63,22,4,1,-3
1537904986847658,-1,-4,-12,-2,-2,-2,-2,0
1537904986860623,0,1,1,-2,-19,-5,-1,-2
1537904986860623,2,-1,22,84,73,20,6,3
1537904986867604,-2,-2,-11,34,-21,-9,-3,-1
1537904986867604,0,0,-7,-53,-33,-5,-3,-1
1537904986883562,1,1,-6,2,22,4,2,3
1537904986883562,-1,-4,-7,3,9,2,1,-3
1537904986885557,3,3,14,7,10,4,1,-1
1537904986885557,-2,-1,10,-28,0,-1,-2,-2
1537904986906500,0,1,-21,-28,-32,-9,-4,-2
1537904986906500,-1,2,-8,-25,-3,-1,-2,0
1537904986908495,0,1,5,-5,4,1,0,0
1537904986908495,-1,-2,2,14,14,2,0,1
1537904986920464,-2,0,2,-12,-9,0,2,0
1537904986920464,-1,-3,-6,-2,-1,-2,-2,-2
1537904986929445,0,-2,-4,-19,-12,-5,0,-2
1537904986929445,0,0,4,35,26,7,3,-1
1537904986946395,-2,-6,6,-1,4,2,2,-1
1537904986946395,1,-2,-6,11,1,-4,-2,0
1537904986951381,-1,-3,-7,-12,-7,-3,-2,-2
1537904986951381,1,-1,-1,5,3,0,0,-1
1537904986952379,-1,-1,3,-14,4,1,0,-2
1537904986952379,0,-3,-10,-9,-7,0,-1,-2
1537904986961354,1,4,8,-24,5,1,0,-1
1537904986961354,0,2,-9,6,-8,-4,-2,-1
1537904986981300,-2,0,1,0,4,1,1,-1
1537904986981300,1,0,-4,10,7,0,0,1
1537904986983295,0,1,-1,-8,-5,-2,0,0
1537904986983295,0,1,4,13,6,1,0,0
1537904987012218,0,0,-1,-1,1,0,-1,0
1537904987012218,-1,0,-3,-3,-2,-3,-3,-1
1537904987013215,0,1,-3,2,5,3,-1,0
1537904987013215,-1,2,-4,-28,-19,-4,-1,-2
1537904987014213,2,1,-5,-12,4,-1,-2,1
1537904987014213,-2,-4,-1,1,-3,-1,-1,-1
1537904987019200,0,-3,-2,-6,-5,-3,-2,-1
1537904987019200,1,-2,0,14,15,5,1,1
1537904987033162,0,-1,7,1,0,1,0,0
1537904987033162,0,1,-2,-8,-6,-4,-3,0
1537904987048122,-1,-2,-3,-3,-3,-1,1,-1
1537904987048122,-1,-1,0,5,-3,-4,-1,-1
1537904987056100,0,0,1,4,2,1,-1,0
1537904987056100,-2,0,-3,2,4,1,1,-2
1537904987063082,-1,3,-1,-3,-8,-4,0,-2
1537904987063082,0,4,4,10,6,2,2,-1
1537904987079039,1,1,-2,-5,-2,-1,-2,-1
1537904987079039,-1,3,-3,4,3,2,0,-1
1537904987081034,1,0,-2,-3,2,-1,-1,0
1537904987081034,2,1,10,28,14,1,0,0
1537904987093002,-1,-1,-20,-61,-19,-4,-4,-3
1537904987093002,-2,-2,-3,-2,-4,0,1,-2
1537904987099984,0,0,-2,4,0,2,1,-3
1537904987099984,-2,-1,3,-17,1,0,0,-1
1537904987115942,1,3,2,30,10,1,0,-1
1537904987115942,0,3,4,-8,-2,-4,-3,-1
1537904987122923,1,-1,-4,-12,-5,-3,-4,1
1537904987122923,-1,0,-4,5,-4,-5,-3,-2
1537904987138880,-2,-1,8,12,9,2,0,-1
1537904987138880,-2,-3,-6,-8,-7,-5,-1,-3
1537904987140875,-2,-4,2,13,0,-1,-2,-1
1537904987140875,-3,0,-4,-7,-4,-3,1,-2
1537904987161818,1,-1,3,1,7,1,2,1
1537904987161818,-3,-3,-3,0,-10,-2,-2,-3
1537904987163813,-1,1,-6,-11,-12,-4,-2,-1
1537904987163813,0,-1,-4,-4,0,1,-3,0
1537904987183759,-1,0,3,14,16,2,0,0
1537904987183759,-1,-1,3,-2,-17,-4,-2,-3
1537904987185754,-1,-2,-4,-26,0,-1,0,-1
1537904987185754,-1,-2,-3,-5,-3,0,-1,-3
1537904987198719,-2,-2,2,8,0,-2,0,-1
1537904987198719,4,1,0,2,5,-1,-2,2
1537904987200714,-3,0,2,10,1,0,1,-2
1537904987200714,0,-2,-7,0,10,2,-1,1
1537904987212682,-3,-4,0,-28,-39,-11,-7,-4
1537904987212682,1,-1,-1,7,11,1,3,-1
1537904987221659,1,0,-8,11,-1,0,1,-1
1537904987221659,-3,-2,4,-10,-12,-3,-1,-4
1537904987235623,0,2,-3,6,3,-1,-1,-1
1537904987235623,-2,1,-1,0,4,2,1,1
1537904987242604,0,-1,2,1,-1,-1,-1,-2
1537904987242604,-1,0,2,22,16,3,2,-1
1537904987259557,-4,-9,-10,-28,-20,-7,-4,-2
1537904987259557,-1,-1,1,0,12,4,1,0
1537904987260557,-3,-2,1,7,3,-2,0,1
1537904987260557,-1,-5,-8,-27,-2,3,1,2
1537904987273522,-3,-4,-2,5,-12,-4,0,-2
1537904987273522,-3,0,1,8,8,4,1,1
1537904987280503,0,3,7,18,12,3,2,-1
1537904987280503,0,0,-2,-36,-8,-1,0,-2
1537904987295461,0,0,-3,-22,-12,-4,-3,-1
1537904987295461,1,-1,-3,2,-1,1,1,0
1537904987302442,1,0,-2,1,-4,0,-1,1
1537904987302442,0,2,4,16,-2,-3,-1,1
1537904987319397,1,4,3,4,19,7,4,0
1537904987319397,-1,-1,-1,0,0,-1,-1,-2
1537904987320394,-1,-3,-3,-23,-15,-5,-5,-2
1537904987320394,-1,1,-2,37,15,4,1,-2
1537904987342335,1,0,-1,-1,-12,-4,-3,0
1537904987342335,-1,-1,0,13,3,0,-1,-1
1537904987343333,-1,-3,-2,-9,12,6,2,1
1537904987343333,-2,-3,4,21,-12,-7,-3,-4
1537904987356298,0,0,-2,4,4,1,2,-1
1537904987356298,-1,-3,-3,0,-5,-1,0,-2
1537904987362282,-1,-1,-1,-1,-1,-1,0,0
1537904987362282,-1,0,-3,-7,0,0,-1,-1
1537904987378239,1,0,5,15,14,2,1,0
1537904987378239,0,3,2,1,4,-2,-2,1
1537904987379237,-2,-2,-8,-36,-33,-10,-4,-3
1537904987379237,-1,-2,2,-3,3,-1,0,1
1537904987394197,-3,-1,4,11,4,4,0,0
1537904987394197,0,1,0,11,20,3,2,1
1537904987400181,0,0,-5,-52,-46,-10,-5,-3
1537904987400181,-1,-3,-1,3,0,-2,-3,-2
1537904987415141,0,2,8,-20,-14,-3,-1,-2
1537904987415141,1,0,-4,65,25,7,2,0
1537904987431098,-2,-3,2,23,7,-2,-1,-2
1537904987431098,-1,-3,-1,12,-20,-4,-3,0
1537904987438080,3,4,1,-34,11,1,1,0
1537904987438080,-3,-2,-2,-12,-42,-10,-5,-4
1537904987439077,-1,-3,29,10,43,10,4,2
1537904987439077,-3,0,-37,-60,-4,-3,-1,-3
1537904987454038,-3,-5,-31,51,-29,-9,-5,-3
1537904987454038,2,5,54,51,38,9,4,4
1537904987460021,-5,-11,-63,-36,-17,-11,-8,-4
1537904987460021,4,8,33,-62,-12,2,2,3
1537904987482960,0,-5,-20,52,14,2,1,-1
1537904987482960,1,-1,-25,-11,59,15,5,2
1537904987483957,-6,0,56,-12,-55,-19,-9,-8
1537904987483957,-1,-12,-64,13,11,3,-1,-3
1537904987497920,2,8,39,-24,-44,-11,-4,0
1537904987497920,0,1,7,51,4,-3,-1,0
1537904987498918,3,3,11,22,51,15,6,4
1537904987498918,-2,-1,13,-1,-11,-4,-3,-4
1537904987520859,5,6,4,33,55,13,4,5
1537904987520859,-5,-11,-38,-105,-48,-15,-8,-5
1537904987521857,2,3,28,12,-3,1,2,1
1537904987521857,0,0,5,12,4,0,2,-1
1537904987536817,0,-1,5,30,30,8,4,1
1537904987536817,-1,-2,-5,-31,-13,-4,-2,0
1537904987542800,-2,-1,-23,24,8,1,1,-1
1537904987542800,0,1,9,41,19,5,1,0
1537904987565738,-3,-4,-1,-28,-2,-4,-4,-1
1537904987565738,-1,-2,-8,-26,-31,-9,-4,-3
1537904987566735,-1,-1,-8,-1,1,1,1,-2
1537904987566735,-1,0,16,10,4,-1,-1,-1
1537904987580698,-2,-2,-8,-19,-10,-3,-1,-2
1537904987580698,-2,-1,1,-18,-15,-2,-2,-1
1537904987581696,2,5,-1,26,23,6,1,3
1537904987581696,-2,1,2,4,1,-1,-1,-3
1537904987604634,-3,-3,-2,-16,-6,-4,-1,-2
1537904987604634,-1,-1,2,15,4,2,1,1
1537904987605632,-1,-1,-4,3,11,5,3,1
1537904987605632,-1,0,0,-7,-15,-5,-3,1
1537904987618597,-2,-3,0,-9,-2,0,0,-4
1537904987618597,1,-1,4,-2,0,-1,0,0
1537904987633557,0,0,-8,0,-5,-1,1,0
1537904987633557,1,-1,2,-6,-6,-3,-2,-2
1537904987640538,0,0,2,-3,3,3,-1,2
1537904987640538,-3,-2,-9,3,-8,-6,-4,-3
1537904987641536,-1,0,-6,3,-6,-1,-2,-2
1537904987641536,1,0,3,41,25,5,2,2
1537904987657493,-2,-3,-4,-47,-30,-7,-4,-3
1537904987657493,-1,-1,3,-4,-9,-2,0,-1
1537904987670459,0,0,-2,3,4,1,0,1
1537904987670459,-1,-1,3,3,2,-2,-1,-1
1537904987678438,0,-2,0,39,6,2,1,-1
1537904987678438,0,1,-2,-7,3,0,-1,1
1537904987679436,1,-2,-3,8,-3,-1,0,-1
1537904987679436,-1,-1,2,-11,-3,-2,0,-1
1537904987694396,0,0,-2,-2,2,-2,-1,-3
1537904987694396,-1,-2,0,-7,-4,-1,-2,-2
1537904987707361,0,0,-1,2,2,1,-1,0
1537904987707361,-2,0,0,-4,-1,1,1,0
1537904987716337,-2,0,-2,-6,-1,-3,-3,-1
1537904987716337,-1,1,-1,0,2,1,-1,-3
1537904987722320,1,0,-2,-8,0,0,1,0
1537904987722320,-1,0,-4,-2,-5,-2,-1,-1
1537904987740273,-1,1,-1,-3,2,1,-1,1
1537904987740273,1,1,4,11,29,7,3,3
1537904987740273,-4,-5,-5,0,-38,-12,-7,-4
1537904987740273,-2,-2,0,5,5,2,1,0
1537904987761216,-1,-3,-8,-28,-10,-4,-2,-2
1537904987761216,0,-2,1,8,-2,-2,-1,0
1537904987761216,1,1,2,0,7,1,-1,1
1537904987761216,1,-2,-7,-18,-14,-4,-2,-1
1537904987776176,-2,-3,3,9,3,1,0,-1
1537904987776176,0,-2,0,-9,-4,1,1,-2
1537904987783157,0,0,-3,-10,-1,-1,-3,-2
1537904987783157,-1,-1,1,6,-2,0,1,0
1537904987816070,1,-1,0,3,11,3,2,0
1537904987816070,-2,0,-3,-5,-12,-3,-1,-4
1537904987817068,-2,-1,2,10,9,2,2,0
1537904987817068,0,0,-1,-5,-1,-3,-4,-1
1537904987821057,-1,0,2,7,-1,0,-1,-1
1537904987821057,-2,-2,-3,-6,-4,0,-1,-2
1537904987822055,0,-2,-2,-1,2,0,0,-2
1537904987822055,-1,2,2,-4,-1,0,-1,2
1537904987844992,-2,-1,-2,3,3,-1,-2,1
1537904987844992,-1,-2,-3,-6,-12,-5,-3,1
1537904987845990,-1,1,0,-5,4,2,-1,-1
1537904987845990,-1,-2,-2,3,-3,-1,1,-2
1537904987865936,2,-1,0,10,1,-2,-1,0
1537904987865936,-1,-2,1,-8,1,-1,-1,-2
1537904987866933,0,-1,0,0,11,3,2,1
1537904987866933,0,0,-4,-11,-19,-4,-1,0
1537904987888874,-1,-2,-1,0,-4,-3,-3,-2
1537904987888874,-2,-1,1,0,1,0,0,-2
1537904987889872,-2,-1,-1,-3,-4,-3,-3,-1
1537904987889872,-3,-2,4,3,6,0,-1,-1
1537904987911813,-2,0,0,-2,1,1,-2,-1
1537904987911813,-2,-1,-2,-1,-5,-2,-1,0
1537904987912810,0,-1,-1,2,3,0,-1,-1
1537904987912810,-1,-2,-2,0,0,-2,-2,-1
1537904987925776,1,1,-2,-3,-1,1,1,1
1537904987925776,0,1,3,3,3,1,-1,0
1537904987926773,-3,-1,-1,-1,-1,-2,-3,-3
1537904987926773,6,3,-2,-3,4,4,0,3
1537904987948715,0,-1,0,-10,-8,-3,-1,-1
1537904987948715,2,2,10,41,29,8,3,2
1537904987949712,-3,-4,-24,-69,-42,-11,-4,-3
1537904987949712,-2,-5,-14,-28,17,4,1,-1
1537904987963674,6,15,18,60,-5,-3,2,0
1537904987963674,-2,-9,-9,-52,-37,-9,-3,-4
1537904987964672,-1,8,11,20,12,4,1,0
1537904987964672,-2,-5,-3,17,4,-1,-1,-2
1537904987985616,-6,-9,-15,-72,-17,-2,-2,-1
1537904987985616,4,3,-15,26,11,0,2,2
1537904987986614,-2,-1,10,22,4,-2,-1,-1
1537904987986614,-5,-6,-1,-9,-11,-2,-1,-3
1537904988008555,2,0,12,37,26,6,1,2
1537904988008555,2,10,3,-20,-20,-4,-4,-1
1537904988009552,0,-5,-6,-5,1,1,1,1
1537904988009552,-2,0,8,7,3,3,-2,-1
1537904988023515,-2,-1,-2,0,3,1,1,0
1537904988023515,-3,-4,-2,5,0,-3,-4,-4
1537904988024512,0,0,-4,0,4,0,0,-1
1537904988024512,1,4,3,0,3,0,0,0
1537904988045456,-6,-8,-10,-45,-23,-7,-4,-4
1537904988045456,-1,-1,4,18,-10,1,1,0
1537904988046453,2,4,-2,-4,1,-1,1,0
1537904988046453,-1,-2,5,9,-3,-5,-3,-2
1537904988070389,0,-4,-3,8,6,2,3,-1
1537904988070389,-1,-5,-1,-27,2,1,0,1
1537904988071387,-1,-6,0,19,1,-2,-1,-1
1537904988071387,-1,-2,-6,-20,-6,-1,-3,0
1537904988091334,1,-2,-1,-4,4,1,-1,-1
1537904988091334,1,-1,-3,-6,-3,-5,-2,-1
1537904988092332,-1,0,3,12,5,1,0,-1
1537904988092332,-2,-1,-1,0,-2,-2,-1,-2
1537904988106295,1,2,1,6,2,0,0,-1
1537904988106295,-2,-1,0,-1,6,1,-2,-2
1537904988106295,-2,-2,-1,-3,-3,0,-1,1
1537904988106295,0,1,0,2,-2,-2,-1,-1
1537904988129233,-2,1,-4,0,1,1,2,-1
1537904988129233,-2,-1,2,9,0,-1,-1,-1
1537904988130232,0,-1,0,1,4,0,0,-2
1537904988130232,-1,0,0,3,-5,-1,1,-1
1537904988143196,-1,0,0,8,6,1,-1,0
1537904988143196,0,3,-2,-7,-3,-1,0,1
1537904988144193,0,0,-1,-3,-2,-1,-1,0
1537904988144193,-3,-1,-2,-2,-5,-2,-2,-1
1537904988166134,-1,-3,0,-1,3,1,-1,-1
1537904988166134,-2,-4,0,0,2,-1,-1,-2
1537904988166134,1,-1,1,-3,-4,-1,-1,0
1537904988166134,0,-2,3,9,1,0,1,-2
1537904988198048,0,-3,-3,2,3,-1,-1,-1
1537904988198048,-1,-2,-1,0,-1,-1,-1,-1
1537904988199045,-1,0,0,2,1,0,0,-1
1537904988199045,0,-3,-3,0,-4,-4,-1,-1
1537904988203035,0,0,0,-1,3,2,-1,-2
1537904988203035,1,2,1,7,0,-1,-1,-2
1537904988204033,-1,-2,-1,3,4,1,0,-1
1537904988204033,-3,-1,-2,-5,-5,-2,0,-1
1537904988225974,-1,2,-3,-10,-6,-2,-1,1
1537904988225974,-3,-2,3,6,4,2,-1,-1
1537904988226972,0,-1,-5,17,5,3,-1,1
1537904988226972,1,3,4,-35,-11,-2,-3,-2
1537904988248913,0,-3,0,2,-4,-5,-2,0
1537904988248913,-1,-1,-4,-7,0,1,-1,-2
1537904988249911,-1,0,1,1,-2,-3,-1,0
1537904988249911,0,-4,-6,8,3,1,2,0
1537904988263872,-1,5,11,2,2,0,-1,-2
1537904988263872,-2,-3,-28,-9,-8,-6,-2,1
1537904988263872,-1,-2,-12,-9,-2,0,0,-1
1537904988263872,0,-2,-19,26,14,3,2,3
1537904988293793,-2,6,32,-15,-18,-7,-2,-1
1537904988293793,-1,-3,-15,-11,1,2,0,-3
1537904988294791,0,-2,29,-14,-4,0,-1,-1
1537904988294791,1,7,18,36,12,1,1,2
1537904988309750,-1,-3,-33,-36,-9,-3,-2,-1
1537904988309750,-2,-10,8,5,1,-1,-1,-1
1537904988310748,-3,13,5,-2,-4,-3,-4,-3
1537904988310748,2,-8,1,-16,-1,1,0,1
1537904988331691,1,1,10,25,7,1,1,0
1537904988331691,0,11,6,1,-1,1,0,-2
1537904988332690,-3,-17,-17,-12,-9,-5,-2,-3
1537904988332690,1,5,32,12,0,-1,-1,-1
1537904988345654,-1,4,-29,3,1,0,0,-1
1537904988345654,-1,-21,4,-1,4,0,0,-1
1537904988346652,0,15,-36,-6,-5,-1,-2,0
1537904988346652,-1,1,0,-6,-2,-2,-2,-2
1537904988369591,-5,-16,31,-4,-6,-2,-4,-4
1537904988369591,5,34,65,6,2,0,1,-1
1537904988369591,0,-17,-64,4,5,1,0,1
1537904988369591,-2,0,-21,-13,-8,-4,-4,0
1537904988382555,0,-10,-5,10,8,3,1,0
1537904988382555,-4,7,16,3,-1,-2,-3,-3
1537904988398512,2,-17,7,-8,-1,1,4,10
1537904988398512,-4,0,-51,6,3,1,0,-10
1537904988405493,3,13,41,0,0,-2,0,3
1537904988405493,0,-8,-3,1,-1,-1,-2,0
1537904988406491,-2,19,-19,-1,1,-1,-2,-18
1537904988406491,0,-4,11,-11,-6,-2,0,15
1537904988436411,-8,7,-2,5,-1,-3,-5,-30
1537904988436411,1,-8,-23,-2,-2,0,3,6
1537904988437408,1,4,59,4,-1,-2,-1,-5
1537904988437408,-1,-16,-36,-3,5,3,1,6
1537904988442395,9,34,84,15,1,3,3,7
1537904988442395,0,14,-36,-12,-4,-3,-3,-5
1537904988450373,4,16,-36,5,3,0,-1,7
1537904988450373,-6,-31,53,2,-2,0,0,-5
1537904988466331,0,-13,-40,-3,3,1,0,6
1537904988466331,-3,-23,-30,0,5,1,0,-1
1537904988466331,2,19,58,-3,-9,-5,-3,5
1537904988466331,1,10,-33,-4,-4,-2,-1,-4
1537904988489271,-3,-21,-23,-2,-1,-1,-2,-2
1537904988489271,-1,1,21,2,-2,1,1,0
1537904988490267,-2,2,-34,9,4,2,2,1
1537904988490267,2,5,33,-2,-5,-4,-3,-7
1537904988511211,-3,-11,-37,-7,-4,-4,0,5
1537904988511211,-2,5,-13,8,2,2,0,1
1537904988512209,-1,-15,34,0,-3,-2,-2,-1
1537904988512209,0,4,24,-6,-3,-3,0,-2
1537904988526171,1,7,-35,-1,3,3,4,4
1537904988526171,-5,-17,13,-3,-4,-3,-1,-6
1537904988526171,-1,4,-12,-13,-2,-2,-2,0
1537904988526171,-2,-6,-10,2,-4,-3,-2,0
1537904988549110,-1,10,43,-1,-3,-2,-2,0
1537904988549110,-1,-5,-4,4,1,-1,0,0
1537904988550108,-3,-2,56,-1,1,0,-1,-1
1537904988550108,-4,-21,-100,-17,-1,-2,-2,-2
1537904988572048,1,4,-1,8,-1,0,1,3
1537904988572048,-2,0,8,-6,-4,-2,-2,-2
1537904988572048,0,-9,-34,2,0,0,-1,-2
1537904988572048,1,23,110,2,2,1,1,-2
1537904988593989,-1,-16,-73,-6,3,1,1,6
1537904988593989,4,2,5,8,1,0,2,3
1537904988594987,3,-23,-20,-5,-2,-1,-2,14
1537904988594987,-3,11,-6,-1,-1,0,-3,-7
1537904988616928,2,-9,9,0,-2,-1,-1,-1
1537904988616928,1,9,26,2,0,0,0,3
1537904988616928,-5,-10,-31,-8,1,1,2,-5
1537904988616928,4,10,19,10,-1,0,0,2
1537904988622912,-2,2,-3,2,0,0,0,2
1537904988622912,-3,-5,-13,-6,-3,-2,-2,-4
1537904988638869,-3,-4,8,1,-3,-2,0,-7
1537904988638869,0,-3,-19,-2,1,-1,0,2
1537904988645851,-3,-7,-19,-7,0,-2,-3,-5
1537904988645851,-1,-4,12,2,-4,-2,-1,0
1537904988646849,0,3,20,7,2,1,1,-2
1537904988646849,2,5,-2,1,-4,-2,-2,-1
1537904988676769,-1,5,3,2,-1,-1,-1,-3
1537904988676769,-2,-8,-21,2,-1,0,-1,-2
1537904988677767,-1,9,27,-6,2,3,0,-2
1537904988677767,-4,-19,-20,-13,-16,-4,-2,-2
1537904988691729,2,12,17,-8,2,3,1,2
1537904988691729,-4,-33,-13,9,-5,-1,-2,-1
1537904988691729,-1,9,11,5,2,1,0,-2
1537904988691729,0,5,-21,3,7,2,-1,0
1537904988705692,-3,-13,-3,3,-3,-3,-3,-4
1537904988705692,-1,-4,0,-12,5,3,-1,1
1537904988706690,1,35,8,-17,1,-1,-1,-1
1537904988706690,1,3,6,32,-9,-3,-1,-1
1537904988728630,1,6,0,-7,1,0,0,0
1537904988728630,1,9,-18,-11,-6,-3,0,0
1537904988729628,-1,-16,5,0,0,1,-2,-2
1537904988729628,0,-2,-9,-12,3,1,0,1
1537904988751569,-2,-8,27,13,-5,-3,-2,-2
1537904988751569,1,15,31,1,2,0,-1,-1
1537904988752567,-3,-14,-60,-4,-2,-2,-2,-1
1537904988752567,-1,10,44,-2,2,1,0,0
1537904988765531,1,-10,6,5,0,-1,0,-2
1537904988765531,-1,7,-7,-6,-2,-2,-2,-2
1537904988766528,-1,0,-2,4,-6,-3,0,-1
1537904988766528,-1,-11,-10,3,4,-1,0,-2
1537904988789467,-3,-3,-19,-7,-1,0,-1,-1
1537904988789467,0,11,12,-3,-3,0,-1,-1
1537904988789467,1,-6,-12,10,2,0,1,-3
1537904988789467,-1,5,-8,-3,1,0,-1,-1
1537904988819387,-2,-7,24,-5,2,0,-1,-1
1537904988819387,0,-5,-32,6,-3,-3,-3,0
1537904988819387,-1,-9,4,4,-4,-2,-2,-2
1537904988819387,1,-3,-16,-4,3,2,2,1
1537904988825371,-2,9,13,-2,-4,-2,-2,-3
1537904988825371,-1,-8,-45,-5,0,2,-1,-2
1537904988826369,-1,-4,31,6,1,-1,-1,1
1537904988826369,-1,8,2,-8,-1,-2,-1,-2
1537904988849308,0,-2,-7,1,2,-1,0,1
1537904988849308,0,2,-2,-3,-8,-3,0,-2
1537904988849308,-3,-5,-3,-2,-1,-1,-1,0
1537904988849308,1,0,-11,4,1,1,-1,-2
1537904988872246,0,4,-6,-4,4,2,0,-1
1537904988872246,-2,1,6,-5,-9,-3,-4,-2
1537904988873243,0,-2,4,4,-1,-2,-1,-1
1537904988873243,-3,-3,-12,-7,-1,0,-1,-3
1537904988886209,0,-4,2,1,-3,-3,-1,-1
1537904988886209,1,-3,6,-2,4,-1,0,1
1537904988886209,1,0,7,-3,-2,-2,0,1
1537904988886209,0,12,5,1,0,1,-2,0
1537904988916128,1,-19,-13,-1,-1,-1,0,1
1537904988916128,-1,3,-25,6,3,0,-1,0
1537904988924107,-2,-8,18,0,-4,-1,-3,-1
1537904988924107,-2,-2,-39,-6,0,2,-1,-1
1537904988931089,0,3,7,0,1,0,-2,-1
1537904988931089,0,4,21,3,-4,-1,2,0
1537904988933083,-1,-7,-10,2,-1,-1,-2,-1
1537904988933083,-2,-3,7,-8,-2,-2,-2,-2
1537904988954027,-1,-2,-32,-4,-2,0,-2,0
1537904988954027,-3,-2,12,17,9,3,-1,-1
1537904988955024,1,3,6,-6,-6,-2,-2,-1
1537904988955024,0,2,3,-7,-3,-2,0,-2
1537904988967989,-2,2,-4,3,-2,-2,-1,-2
1537904988967989,0,-8,0,-6,-3,-1,1,0
1537904988976966,0,10,22,6,3,1,-1,-1
1537904988976966,-1,-5,-16,-2,-1,-1,-1,1
1537904988991925,-1,4,2,-7,-4,0,1,-1
1537904988991925,-1,6,-15,3,2,0,-3,-2
1537904988992923,-1,-7,-2,-2,1,0,0,1
1537904988992923,-2,-9,32,2,-1,-1,-3,0
1537904989004891,1,9,7,1,-3,-1,-1,0
1537904989004891,-2,3,-7,-5,-1,-1,0,1
1537904989022843,-3,-1,-3,-3,-3,-2,1,-3
1537904989022843,2,2,18,4,3,-1,1,-1
1537904989023840,-1,-4,31,6,1,-1,-1,1
1537904989023840,-1,8,2,-8,-1,-2,-1,-2
1537904989024838,0,-2,-7,1,2,-1,0,1
1537904989024838,0,2,-2,-3,-8,-3,0,-2
1537904989030822,-2,-2,-8,2,0,-1,-3,-1
1537904989030822,-3,-2,15,-5,-4,-3,-3,-1
1537904989031819,-1,4,2,-1,0,-2,-1,1
1537904989031819,-4,-8,-20,-10,-4,-3,-1,-2
1537904989058747,-2,0,-5,-1,2,-1,0,0
1537904989058747,-1,0,10,2,-3,0,0,-1
1537904989060742,-1,-2,-17,2,2,1,-2,-3
1537904989060742,-3,1,10,-3,-3,-2,1,0
1537904989064731,-1,-6,6,3,-2,0,-1,0
1537904989064731,-2,-8,-12,-8,1,0,-2,-1
1537904989073707,-2,-11,-23,-3,0,-1,-1,0
1537904989073707,-2,3,37,6,0,-2,0,-1
1537904989088667,-1,0,-29,-9,-1,-3,-1,-3
1537904989088667,1,-2,16,2,-1,-1,1,0
1537904989095649,-1,2,16,0,-1,-2,-1,-1
1537904989095649,-2,-1,-5,-3,-9,-3,0,-1
1537904989111607,-1,-2,-2,-1,-3,-1,0,0
1537904989111607,-1,3,14,8,4,1,-2,0
1537904989112605,-2,0,-16,-4,2,-2,-2,-1
1537904989112605,-1,-5,-20,-28,0,-1,-3,-1
1537904989125569,-1,2,15,20,-8,-3,-2,-3
1537904989125569,-1,0,-13,-5,2,0,0,-3
1537904989132551,0,-2,-15,2,-3,-3,-1,0
1537904989132551,-2,-8,0,9,1,0,-1,-1
1537904989149505,-1,4,-6,-6,-1,1,-1,-1
1537904989149505,0,1,25,2,-1,-1,-1,1
1537904989150504,-3,-4,-15,-4,-2,0,0,0
1537904989150504,1,-5,4,2,5,1,0,1
1537904989171447,-2,2,-17,0,-3,-2,-1,0
1537904989171447,-3,-5,6,2,-5,-3,-1,-2
1537904989173443,0,1,3,-2,-1,1,-1,0
1537904989173443,-2,-3,-17,0,-1,-2,0,-1
1537904989201366,-1,3,19,3,3,1,0,0
1537904989201366,1,5,-10,-8,-5,-3,-1,1
1537904989203362,-2,-13,-11,4,0,0,0,-2
1537904989203362,1,16,12,-4,-2,1,-1,-1
1537904989209345,0,-5,-2,5,2,-4,0,-2
1537904989209345,0,-3,-5,-9,1,1,1,1
1537904989210343,2,1,9,2,-5,-3,-1,-1
1537904989210343,-1,-2,-7,7,3,-1,-2,0
1537904989231286,1,9,26,6,2,1,-1,0
1537904989231286,-2,-21,-31,-13,0,2,0,-1
1537904989233281,-1,3,27,5,-2,0,0,-2
1537904989233281,-1,0,19,11,2,0,-1,-1
1537904989254224,-2,-5,-37,-12,-5,-3,-1,-1
1537904989254224,-1,-2,4,-1,-1,-1,-1,-1
1537904989255222,1,8,12,5,0,0,-1,-1
1537904989255222,0,-3,-8,-3,-1,-1,0,-1
1537904989269185,-1,-3,-10,-6,1,1,-2,2
1537904989269185,-2,4,9,0,-3,0,-2,-2
1537904989270182,-3,-8,-22,-5,3,-2,-1,0
1537904989270182,1,6,3,-2,-8,-1,0,-3
1537904989291127,0,-4,-11,-9,3,1,2,0
1537904989291127,-1,-1,-13,1,-7,-4,-3,-1
1537904989298108,-1,-2,1,-9,-4,-2,-1,-1
1537904989298108,0,0,10,15,2,-2,-2,1
1537904989305089,-1,-1,11,-5,-1,-1,-1,1
1537904989305089,1,-4,-1,5,2,0,1,0
1537904989314066,-4,-4,-15,-8,0,2,1,-1
1537904989314066,-2,-1,8,2,3,0,-1,2
1537904989337005,-2,-5,9,2,-1,2,1,-1
1537904989337005,0,6,3,2,3,0,-1,0
1537904989338003,0,3,6,2,-1,0,0,0
1537904989338003,0,-3,-9,-2,-2,-1,-2,-1
1537904989351965,0,-5,-14,-3,3,1,1,3
1537904989351965,1,19,8,0,-5,-1,0,-2
1537904989352964,2,2,21,4,0,0,2,0
1537904989352964,-3,-7,-54,-9,-3,-3,-2,-1
1537904989374902,0,2,8,0,0,1,1,1
1537904989374902,-2,-4,2,-3,3,1,0,0
1537904989375900,0,1,-5,-3,3,1,0,0
1537904989375900,0,1,6,4,-3,-3,0,-4
1537904989388864,-1,-3,5,5,-3,-2,-2,-3
1537904989388864,0,-5,-3,0,4,0,-1,-1
1537904989390859,-1,1,-5,-5,-9,-5,-2,-2
1537904989390859,-1,-4,1,2,2,-1,1,-1
1537904989411803,-2,-4,4,5,1,-1,-1,-1
1537904989411803,-2,4,1,-11,-6,-1,0,0
1537904989412801,-1,-3,-5,-2,0,0,-2,-3
1537904989412801,0,0,-23,-6,-1,1,-1,0
1537904989425766,-1,1,9,5,-2,-1,-1,-3
1537904989425766,-1,4,2,1,1,0,0,-1
1537904989433745,-2,-10,-12,-4,1,-1,1,1
1537904989433745,0,2,-4,-2,-3,-1,-1,0
1537904989448705,-2,-6,10,2,-1,-1,-1,-2
1537904989448705,-1,-2,-52,2,0,-1,-2,-2
1537904989450700,2,6,43,-8,-2,0,-1,0
1537904989450700,-1,-3,26,2,-1,0,0,1
1537904989478626,-2,-2,-21,-3,2,0,0,-2
1537904989478626,2,0,3,2,0,0,0,-1
1537904989480622,-3,-5,-29,0,-3,-1,-2,-1
1537904989480622,0,2,19,6,5,0,1,0
1537904989485609,-2,2,6,-22,-10,-2,-2,0
1537904989485609,-4,-7,7,6,-2,-2,-2,-2
1537904989494584,1,5,-16,5,6,2,1,1
1537904989494584,1,1,11,-1,-1,0,-1,0
1537904989509543,-1,-6,-11,3,-3,0,0,1
1537904989509543,-2,-4,16,-6,1,0,-2,-1
1537904989510541,-2,-1,-3,-3,-6,-2,-2,-1
1537904989510541,-2,-2,-1,-4,-1,-2,1,-2
1537904989531483,0,5,2,0,-2,-2,-2,-1
1537904989531483,0,-1,-5,11,5,3,1,0
1537904989537467,0,-15,-27,-9,-8,-3,-2,-2
1537904989537467,-1,9,19,-1,0,0,0,-1
1537904989545446,-1,-5,-25,1,1,-1,0,-1
1537904989545446,0,1,9,1,0,-1,0,0
1537904989554422,-2,1,5,4,5,-1,1,-1
1537904989554422,-2,-2,-9,-8,2,2,0,0
1537904989576363,-2,0,7,8,-9,-3,0,-1
1537904989576363,-2,-4,0,-3,-2,-2,-4,-2
1537904989578358,3,6,7,0,0,1,0,-1
1537904989578358,-1,-2,-12,0,0,0,-2,-1
1537904989591323,-1,1,26,3,2,0,-2,0
1537904989591323,0,-4,-34,-12,-3,-1,1,1
