timestamp,emg1,emg2,emg3,emg4,emg5,emg6,emg7,emg8
1537917260812107,-6,-3,-1,3,3,27,-65,-15
1537917260812107,7,3,-7,-12,-10,-18,47,3
1537917260828065,1,-1,-2,-4,-8,2,9,8
1537917260828065,-2,-2,-2,-1,-1,0,-11,-1
1537917260828065,-2,0,-5,-1,2,-34,-25,-5
1537917260828065,-12,1,16,9,24,42,54,-9
1537917260829062,0,-3,1,0,-13,-38,11,-5
1537917260829062,1,-1,-3,-5,-3,30,-12,0
1537917260830059,0,1,1,-1,0,10,26,-2
1537917260830059,-8,-4,-3,1,-4,2,-8,-2
1537917260832054,5,1,-7,2,8,-23,21,1
1537917260832054,1,-1,5,6,10,15,6,4
1537917260846017,-2,-4,-3,-4,-7,-35,-2,-9
1537917260846017,1,0,-3,-3,-2,18,-11,12
1537917260855990,-11,-1,2,-1,-1,7,-13,-18
1537917260855990,0,-2,-4,-1,-6,-30,-8,5
1537917260860977,-6,2,5,5,14,10,10,-23
1537917260860977,2,-2,-5,-2,4,1,-21,-5
1537917260885910,3,2,-2,-4,-15,-19,-25,6
1537917260885910,-18,-3,2,5,9,3,17,-11
1537917260886908,2,0,1,-1,-14,0,19,-7
1537917260886908,1,-1,-1,1,7,48,-16,-11
1537917260905857,-6,-2,4,5,1,30,-20,-8
1537917260905857,-9,-2,-4,-13,-30,-34,-10,-15
1537917260946747,14,0,-1,-2,22,-8,-33,7
1537917260946747,5,1,-1,-8,-19,-48,33,36
1537917260946747,1,0,2,1,-1,28,-43,-9
1537917260946747,-4,-2,-1,1,1,21,-6,-6
1537917260947745,-10,0,2,8,6,-4,-21,-22
1537917260947745,-2,2,3,8,28,22,31,-11
1537917260951734,1,-1,1,1,1,10,7,10
1537917260951734,1,-3,-1,-3,-2,-17,2,6
1537917260953729,5,0,-1,-5,-20,-3,-10,19
1537917260953729,-19,-5,-3,-3,-6,1,-3,-27
1537917260966694,-3,-1,1,1,2,1,4,2
1537917260966694,7,1,7,0,3,8,-16,-22
1537917260972678,-8,-2,0,0,-1,-1,19,5
1537917260972678,-6,-1,0,1,2,-2,-16,-10
1537917260980657,-2,7,7,-2,-1,1,5,4
1537917260980657,-7,-5,-14,-1,0,-31,-5,9
1537917260995617,-10,-19,-4,0,-5,9,19,-15
1537917260995617,-11,-3,-3,-1,2,12,-42,-8
1537917261011574,8,16,9,-1,-1,-10,16,1
1537917261011574,6,-26,10,7,3,-3,1,-8
1537917261013569,-10,-23,-12,-5,-4,-11,42,8
1537917261013569,31,-1,-7,-7,-8,-12,-38,17
1537917261034513,-5,2,-10,-3,0,-3,-2,16
1537917261034513,2,17,18,1,-3,7,17,6
1537917261035510,-1,-7,-2,-1,3,-8,-22,6
1537917261035510,-10,-4,-6,-2,-2,1,-22,-46
1537917261048476,12,6,2,-2,-2,-22,25,65
1537917261048476,-4,2,-8,-2,-3,-6,-5,15
1537917261063436,-9,10,5,2,11,16,49,12
1537917261063436,3,7,6,6,17,29,-23,-3
1537917261071414,-7,-9,-7,-7,-15,-3,20,-32
1537917261071414,-9,-4,2,-6,-9,2,-23,-16
1537917261078395,6,7,-7,-7,-22,-10,-7,6
1537917261078395,3,2,3,-1,-1,-11,15,6
1537917261094353,-19,-22,-1,5,17,36,-15,-31
1537917261094353,5,5,-5,-2,6,-7,-3,0
1537917261096348,12,17,0,3,4,3,-20,-11
1537917261096348,-5,-7,9,4,-3,5,39,23
1537917261108316,-5,-8,-12,2,4,-56,-42,-31
1537917261108316,1,-2,-1,0,-3,6,31,10
1537917261117292,19,22,-2,0,0,11,8,12
1537917261117292,-20,-13,34,2,-3,1,-40,-5
1537917261132252,6,-30,-33,-4,-1,-23,44,1
1537917261132252,-8,17,-5,3,14,23,-20,-21
1537917261133249,0,-6,-2,-8,-18,3,37,-16
1537917261133249,1,8,-4,-8,-26,-32,5,8
1537917261154193,4,9,13,-1,6,56,-15,-6
1537917261154193,4,-14,-12,-7,-11,-28,-22,7
1537917261156188,-1,0,3,4,14,-8,-17,-12
1537917261156188,-2,3,4,1,7,6,19,4
1537917261168155,6,-2,-2,1,-1,3,-15,-4
1537917261168155,9,5,-12,-9,-11,11,4,9
1537917261177132,3,0,17,3,0,-25,-34,11
1537917261177132,12,0,-14,-1,-5,-3,49,-3
1537917261192091,-14,-3,-4,1,6,-10,1,-2
1537917261192091,22,13,8,2,1,26,5,21
1537917261193089,-15,-13,-8,-4,-2,-4,-15,-12
1537917261193089,9,6,-1,2,-5,-9,-5,22
1537917261215030,5,7,9,-2,-4,-13,13,-2
1537917261215030,-11,-9,-1,2,4,24,30,-5
1537917261217025,-7,-5,-5,-3,1,25,-20,-10
1537917261217025,5,-1,-6,-2,2,-12,-11,-12
1537917261227996,-2,8,13,3,-3,6,10,-4
1537917261227996,0,3,7,0,-2,-12,-2,5
1537917261236972,-3,-4,-11,3,0,-17,28,22
1537917261236972,-21,-15,0,4,15,40,5,-19
1537917261251932,22,26,4,-7,-14,-8,-16,1
1537917261251932,-14,-8,-1,-6,-9,-33,15,-1
1537917261252929,8,2,2,4,12,56,-33,-3
1537917261252929,-8,-5,-10,-4,-12,-53,-6,-13
1537917261274870,5,-3,-1,1,10,-25,-17,-9
1537917261274870,-15,3,0,-2,-8,31,-23,-10
1537917261275868,15,3,4,-5,-13,-17,28,14
1537917261275868,10,1,0,0,1,9,-48,-12
1537917261287836,-2,0,2,0,10,-4,-8,5
1537917261287836,-10,-7,-4,3,3,20,30,5
1537917261296812,3,11,14,-2,-7,-40,-10,-18
1537917261296812,9,-14,-19,-3,1,21,15,17
1537917261311772,-1,2,-5,-6,-10,19,10,-16
1537917261311772,-16,-14,-36,0,6,-92,-23,-4
1537917261313767,5,2,7,1,6,89,13,0
1537917261313767,3,-5,6,4,-5,-54,-26,6
1537917261334711,-11,2,5,1,2,16,5,-3
1537917261334711,7,-5,10,1,-3,1,4,-1
1537917261335709,-18,1,-2,-2,0,4,5,-8
1537917261335709,-9,15,-3,-1,-1,-2,16,-3
1537917261347676,15,-7,-2,-5,6,-6,-25,14
1537917261347676,8,6,5,-1,-12,30,-23,-3
1537917261356652,2,-4,-8,-2,-11,-65,-2,12
1537917261356652,-7,21,28,4,17,60,52,5
1537917261379591,-21,-39,-27,0,0,-11,-7,-8
1537917261379591,3,3,8,-1,-3,-1,13,-9
1537917261380589,1,0,1,-3,-3,-26,-36,-13
1537917261380589,0,-5,-12,-3,-2,8,-17,13
1537917261394551,3,19,8,0,-4,-18,26,34
1537917261394551,-4,-11,0,1,6,3,-2,-16
1537917261395549,-9,-7,-2,-3,-9,21,23,18
1537917261395549,8,-2,2,3,0,-12,-8,5
1537917261416493,-9,2,0,-2,-6,-8,10,-5
1537917261416493,2,-6,-4,-2,1,44,-12,-4
1537917261418488,8,0,12,6,11,-5,-16,-6
1537917261418488,-5,-8,-7,-6,-2,11,6,-8
1537917261432450,-5,1,1,1,-4,-14,-8,1
1537917261432450,9,6,-1,2,4,-21,7,-4
1537917261433448,-13,-2,-4,-3,-8,-17,-1,-19
1537917261433448,10,0,5,-1,-4,-3,-8,15
1537917261454391,-8,-4,-7,0,-5,24,-11,-10
1537917261454391,5,9,7,2,6,-17,4,-12
1537917261455388,6,-11,-6,-4,3,12,8,20
1537917261455388,-7,0,-4,-1,-7,-16,5,-5
1537917261477329,-1,-9,-1,0,-4,-12,9,-4
1537917261477329,-8,5,6,2,2,45,-23,-4
1537917261478327,-17,-6,0,1,-2,-24,-2,-5
1537917261478327,9,-1,-8,-6,0,21,28,-9
1537917261491292,9,4,4,-1,-7,-25,-26,5
1537917261491292,2,3,8,0,0,9,6,7
1537917261498273,-3,-7,-21,-2,7,9,-14,-14
1537917261498273,-15,-11,-6,-5,-13,-20,-15,-16
1537917261514231,-6,3,4,-2,2,16,2,-5
1537917261514231,3,-1,5,-1,-3,-21,19,8
1537917261516226,4,6,-1,1,4,-1,-7,3
1537917261516226,1,9,-3,-6,1,-25,5,12
1537917261537170,-4,-9,-9,-2,0,36,-2,1
1537917261537170,0,-10,-1,1,1,-5,-8,9
1537917261538167,12,6,-2,-1,1,-12,-10,-15
1537917261538167,-7,-14,-3,6,6,28,1,4
1537917261551132,1,6,13,-3,-14,-15,2,-5
1537917261551132,-11,0,7,-2,0,-8,10,-13
1537917261558114,-6,-11,-23,-2,0,-3,-12,15
1537917261558114,-5,-4,-8,0,0,-2,-9,-7
1537917261574071,14,32,13,1,4,-6,-15,17
1537917261574071,16,-27,-22,-2,-5,-14,-45,-3
1537917261576066,12,-1,0,-2,-3,2,42,-9
1537917261576066,-5,1,8,2,-3,8,16,1
1537917261597010,8,1,-8,3,4,2,-28,-5
1537917261597010,2,12,10,3,5,-9,-7,0
1537917261598007,-4,5,10,3,-9,-11,17,11
1537917261598007,-2,-5,-14,-9,-7,31,15,12
1537917261610972,0,-5,3,0,2,-20,-21,-18
1537917261610972,5,1,-1,-1,-6,16,44,10
1537917261617953,-8,2,2,0,6,-24,-31,-14
1537917261617953,-1,6,0,-3,-14,1,-6,-15
1537917261634908,-5,-7,-1,0,0,35,29,9
1537917261634908,-8,-1,-6,-2,3,-19,-14,-5
1537917261635905,-32,1,3,0,2,2,-48,-22
1537917261635905,21,11,9,8,8,9,89,3
1537917261657847,-8,-11,-5,-4,-1,-18,-2,-3
1537917261657847,8,3,-7,-2,-2,7,35,4
1537917261658844,4,7,8,3,2,10,13,-11
1537917261658844,-15,-10,-4,-5,-3,-37,-64,-20
1537917261670812,5,-7,-3,-1,-2,19,8,15
1537917261670812,-9,4,0,0,0,-6,-44,-34
1537917261677793,22,9,4,-4,-4,-8,28,49
1537917261677793,0,-27,-6,0,3,8,-49,-7
1537917261701729,-5,9,4,3,4,1,55,1
1537917261701729,-4,-10,-10,-5,-5,-12,-24,-34
1537917261703724,4,1,4,-2,-3,5,8,14
1537917261703724,8,4,-2,-3,1,0,-4,9
1537917261716689,-3,-5,-1,-2,-3,-7,-36,-4
1537917261716689,6,6,1,-1,-1,-3,19,-2
1537917261718684,-17,-8,0,3,3,13,7,-8
1537917261718684,3,6,3,2,5,10,18,-7
1537917261730652,-4,-7,-5,-3,-3,2,-17,-33
1537917261730652,1,6,0,-4,0,12,-13,40
1537917261739628,-8,-5,-3,-2,-7,3,12,-20
1537917261739628,-9,5,3,-3,-4,-27,-46,-51
1537917261754588,10,1,-1,2,4,26,-7,30
1537917261754588,-3,-3,-1,-2,-1,-2,11,18
1537917261755586,-2,3,1,-2,0,5,-22,-9
1537917261755586,-2,4,-1,0,1,-5,7,19
1537917261776530,5,-5,-4,-1,-3,-17,-10,-4
1537917261776530,-4,1,1,-1,2,1,7,-21
1537917261778524,6,-7,-1,0,-1,1,-19,37
1537917261778524,4,4,-1,-1,-1,-11,-8,-4
1537917261790492,-5,-3,0,-1,-3,4,-10,-11
1537917261790492,-7,-2,2,0,-2,-2,50,36
1537917261799468,-5,-5,-3,-1,0,-30,-18,-39
1537917261799468,-7,4,2,2,2,38,20,8
1537917261813431,-1,-2,-3,-3,-4,-21,23,9
1537917261813431,-6,-5,-1,0,2,7,-42,-7
1537917261814429,-4,-2,-1,-2,-2,5,25,-28
1537917261814429,11,15,0,1,3,8,18,44
1537917261836370,-3,-11,-2,-2,2,-20,7,-9
1537917261836370,-2,2,-2,-3,-5,-9,-17,5
1537917261837368,6,-1,5,5,5,14,37,-27
1537917261837368,-4,0,-2,-4,-3,-9,-17,20
1537917261850333,2,3,0,2,0,8,75,55
1537917261850333,0,2,-1,-2,-2,-18,-70,-13
1537917261858311,-1,-2,-5,-1,2,22,78,5
1537917261858311,-8,-5,-2,-1,-2,-5,-67,-12
1537917261873271,-9,-1,1,1,1,3,7,-38
1537917261873271,-12,-6,1,0,1,3,42,22
1537917261874268,10,1,-1,-3,-2,-10,-37,20
1537917261874268,0,-3,0,0,-1,0,15,-15
1537917261897207,-8,-2,0,1,0,-1,-16,-1
1537917261897207,-5,0,-2,-2,-3,-7,-1,-15
1537917261898204,2,-2,-1,-3,0,8,-24,15
1537917261898204,1,1,-2,-5,-3,-9,15,7
1537917261919148,-5,-2,0,1,-3,-5,-34,-20
1537917261919148,6,2,-1,1,2,6,19,9
1537917261919148,2,11,-1,-1,-4,-10,-15,2
1537917261919148,-1,-19,1,2,1,2,-7,-1
1537917261941090,8,12,2,0,-3,1,13,-8
1537917261941090,10,1,-1,-2,2,-1,8,-4
1537917261942087,9,8,0,-3,-3,1,-7,4
1537917261942087,-9,-41,-8,-3,-5,-1,0,8
1537917261956050,-6,62,15,0,2,-30,-46,2
1537917261956050,12,-8,-4,2,-1,15,-28,5
1537917261957047,9,-10,-5,-2,5,-18,43,21
1537917261957047,9,8,0,2,-5,-2,-20,10
1537917261978989,9,-15,-7,0,3,-51,-39,28
1537917261978989,0,2,9,-4,-13,13,30,-8
1537917261978989,1,10,-6,7,26,81,-32,-18
1537917261978989,-14,-2,-5,-4,-1,7,-14,-19
1537917262000929,0,-8,5,2,1,-54,13,30
1537917262000929,0,5,2,0,1,33,86,15
1537917262001927,-5,-10,-3,-5,-16,-11,-99,-28
1537917262001927,8,10,10,9,11,-21,29,11
1537917262015889,-6,-12,-11,-9,-10,22,-46,-27
1537917262015889,-6,-3,0,0,-3,-59,-24,-44
1537917262016887,-3,-6,4,-2,-8,5,46,63
1537917262016887,6,10,-1,-5,-6,0,1,-16
1537917262038828,-1,-12,-6,-3,-1,37,8,15
1537917262038828,0,-2,-2,5,4,-73,-91,-10
1537917262039826,-2,0,3,3,-1,11,67,0
1537917262039826,1,8,-2,-6,-6,-18,-8,-18
1537917262060769,-1,-12,-6,-6,-9,15,8,-1
1537917262060769,-12,-3,-4,-4,3,28,-12,-31
1537917262061767,-8,-1,3,5,3,-7,-3,-10
1537917262061767,4,4,5,5,8,-3,0,17
1537917262075729,-1,-6,1,5,26,46,36,6
1537917262075729,1,0,-2,0,-17,-23,0,11
1537917262076727,-6,-4,-1,-7,-5,-14,-45,-14
1537917262076727,-1,5,-1,2,-3,1,48,-6
1537917262098668,-3,-5,-3,-2,-5,-1,-11,-10
1537917262098668,-1,1,0,1,10,18,11,5
1537917262099666,3,-3,-4,-1,0,-21,-16,69
1537917262099666,-6,-1,-1,-2,-1,-11,-3,7
1537917262121607,3,-2,0,2,-3,-1,17,9
1537917262121607,-4,-2,-2,1,6,40,-28,2
1537917262121607,5,0,-2,-2,-7,-22,5,-16
1537917262121607,-4,-2,-2,-1,7,26,7,-6
1537917262135570,-2,-2,1,-1,-9,-32,-1,-16
1537917262135570,1,-1,-2,-5,-3,-7,13,15
1537917262143548,-10,-5,-3,-5,-2,5,-73,-24
1537917262143548,7,4,2,5,4,-35,8,5
1537917262158508,0,-1,0,1,2,38,-37,-10
1537917262158508,5,1,0,0,2,17,32,22
1537917262159506,-4,-2,-2,0,1,9,22,-14
1537917262159506,0,-3,-4,-8,-17,-35,31,11
1537917262182444,-5,-2,-2,-2,-1,15,-16,-20
1537917262182444,-4,-3,-2,2,14,16,-35,-3
1537917262183442,-2,-1,0,2,0,-13,39,-1
1537917262183442,-3,-3,-3,-5,-7,-16,-71,-18
1537917262196407,-3,-1,-1,-3,-7,-3,1,-5
1537917262196407,2,-1,0,0,3,19,48,-1
1537917262197404,7,3,2,0,-1,-40,-10,-4
1537917262197404,-2,-1,-1,1,5,13,-16,-5
1537917262218348,2,-1,1,1,5,-3,32,5
1537917262218348,-4,-4,-3,-4,-4,23,26,2
1537917262219345,-5,-1,-2,-2,-9,-17,-26,-16
1537917262219345,4,3,3,6,6,19,-2,4
1537917262241287,-2,-2,-2,-1,1,5,5,-4
1537917262241287,-2,0,1,3,1,-32,-29,-4
1537917262242284,1,-3,-1,-1,3,6,21,-3
1537917262242284,0,-1,-2,-5,-9,21,2,5
1537917262264226,0,0,2,0,0,-26,-13,-5
1537917262264226,1,-1,-1,-2,-1,3,20,6
1537917262265223,-2,-4,-2,-4,-3,22,-2,-3
1537917262265223,-3,-2,-1,1,-10,-3,15,-4
1537917262279186,-2,-2,-3,-4,-8,-18,1,-3
1537917262279186,1,1,0,0,-7,-11,-13,2
1537917262279186,0,-3,3,2,9,18,1,-6
1537917262279186,0,-2,0,1,12,1,-1,0
1537917262301127,-1,-4,-2,-3,-9,-17,10,-3
1537917262301127,1,0,-1,0,1,18,1,3
1537917262302125,-2,0,-3,-1,1,5,-3,-3
1537917262302125,-3,-1,1,2,-1,-11,-24,-2
1537917262316087,1,-2,-1,1,0,-1,-1,1
1537917262316087,-2,-1,-1,-3,-7,-18,4,-2
1537917262317085,-2,1,-1,-3,-4,-2,3,-2
1537917262317085,-3,0,0,-4,-5,18,3,-5
1537917262339026,-1,2,-1,2,5,-8,-8,4
1537917262339026,-2,-2,-1,-2,0,-7,-10,-2
1537917262339026,-1,0,-1,0,-8,-6,7,2
1537917262339026,-1,-1,-2,2,3,6,4,1
1537917262362962,0,0,0,1,3,18,12,-2
1537917262362962,-1,0,-4,-5,-9,-16,4,1
1537917262362962,-1,-1,1,3,0,-5,-6,-2
1537917262362962,-1,-1,-1,-3,2,0,4,0
1537917262375927,3,-1,2,2,1,7,9,1
1537917262375927,0,1,1,4,1,-9,-13,-1
1537917262376925,-4,-3,0,2,1,0,-4,-5
1537917262376925,2,1,-5,-6,-4,3,2,-1
1537917262398866,3,3,0,-2,-4,2,5,1
1537917262398866,0,-3,-2,-3,5,-11,-10,3
1537917262399863,-3,-3,1,1,-2,7,5,-4
1537917262399863,-6,1,6,17,43,27,7,-2
1537917262420807,5,-1,5,32,69,10,-2,0
1537917262420807,1,1,-8,-28,-84,-57,3,7
1537917262421804,-4,-3,-10,-25,-7,10,-19,-10
1537917262421804,-7,-6,-5,-5,-62,-45,23,2
1537917262435767,21,6,2,3,74,-18,-22,-8
1537917262435767,-2,2,6,19,28,17,14,10
1537917262443746,-7,-2,-8,-37,-72,-53,-8,-10
1537917262443746,16,-4,2,14,72,76,61,7
1537917262458706,-15,4,13,17,-47,5,41,6
1537917262458706,5,-7,-4,6,61,98,1,3
1537917262459703,6,8,13,42,24,7,-9,13
1537917262459703,-1,-3,-23,-53,59,-79,-27,22
1537917262481644,21,-15,-42,-112,-106,-75,12,-7
1537917262481644,-17,-2,14,24,103,-36,-16,10
1537917262481644,4,13,24,54,-115,97,26,19
1537917262481644,-2,-1,8,45,127,11,-32,-24
1537917262495607,-2,0,-11,-36,-85,-18,7,20
1537917262495607,-18,-12,-30,-87,-42,-57,-14,-29
1537917262503586,-8,-5,3,8,127,-65,-7,-19
1537917262503586,0,8,36,92,68,76,5,1
1537917262518546,1,13,26,76,-7,-56,33,19
1537917262518546,0,0,-20,-40,-78,-89,-17,-9
1537917262519543,-12,-4,-8,-9,97,44,2,-18
1537917262519543,12,4,-5,-10,-45,119,16,16
1537917262541484,-28,-17,-9,-10,49,50,-32,-6
1537917262541484,5,0,10,41,31,20,10,-12
1537917262541484,13,0,-20,-41,-123,-35,-4,17
1537917262541484,-13,-10,-17,-60,-104,-125,-32,-4
1537917262555447,-2,2,5,23,104,-4,-5,-18
1537917262555447,-15,-2,1,-5,-46,127,15,4
1537917262563426,20,-8,0,14,108,31,-3,-28
1537917262563426,-5,1,-2,-23,-39,-122,10,19
1537917262578386,3,-1,-9,-39,-90,88,-19,-7
1537917262578386,1,1,0,-15,-42,35,7,-5
1537917262579383,-12,-4,9,25,95,127,6,2
1537917262579383,17,6,27,82,41,-64,-5,4
1537917262601324,-16,-7,-21,-58,15,-73,-26,-7
1537917262601324,3,5,6,20,108,-5,-14,5
1537917262608306,0,-3,-8,-14,-40,-64,3,9
1537917262608306,-11,0,0,-6,1,127,1,-7
1537917262624263,0,-2,3,11,-44,-48,4,7
1537917262624263,5,2,9,42,107,75,-5,7
1537917262625261,10,3,-1,9,62,-82,-9,10
1537917262625261,-8,-8,-16,-26,-43,89,-13,-14
1537917262638226,-3,7,19,72,102,60,5,-4
1537917262638226,13,2,-14,-40,-78,48,10,9
1537917262639223,-4,-7,-10,-12,46,78,0,8
1537917262639223,4,18,31,74,77,51,11,-5
1537917262661164,-4,-16,-33,-81,-118,123,-5,0
1537917262661164,3,2,12,26,127,56,-1,-2
1537917262662162,-11,-4,-14,-50,-80,-61,5,-11
1537917262662162,-8,-1,-7,-28,0,-113,-12,-6
1537917262684103,1,6,22,50,42,28,4,-8
1537917262684103,5,8,19,57,12,21,7,-9
1537917262685101,-7,1,2,11,27,66,-7,-13
1537917262685101,-6,-14,-32,-54,-103,-42,11,-12
1537917262700060,-4,-2,-3,-24,55,49,-3,-3
1537917262700060,-15,-2,5,8,40,45,-9,-17
1537917262701058,17,2,-10,-30,-70,32,10,15
1537917262701058,0,-1,-1,26,127,64,-11,2
1537917262721005,2,-2,-3,-25,122,-78,-12,3
1537917262721005,2,-14,-27,-62,-64,-66,-19,6
1537917262722002,-14,4,15,7,-41,-70,3,-12
1537917262722002,24,2,5,22,-11,85,-12,22
1537917262743943,8,1,9,56,83,119,2,5
1537917262743943,4,3,9,42,62,-42,1,-3
1537917262744941,-8,-4,-6,-10,-64,99,-14,-9
1537917262744941,6,-7,-21,-47,-67,-25,-7,3
1537917262758903,-7,1,6,8,-10,25,7,-8
1537917262758903,7,2,4,23,0,-104,-1,7
1537917262759901,-2,-7,-12,-34,-23,2,1,5
1537917262759901,-18,-4,-4,-37,70,23,0,-22
1537917262780844,8,2,1,-5,-59,49,7,12
1537917262780844,-2,-2,2,-3,-22,106,12,4
1537917262781842,1,-2,0,29,85,47,4,5
1537917262781842,3,8,11,1,17,-77,13,1
1537917262804781,-5,-6,-9,-12,17,76,-7,-6
1537917262804781,-7,-4,-9,-34,-126,-48,7,7
1537917262804781,10,3,4,25,52,70,-1,5
1537917262804781,2,5,5,7,-49,126,14,-15
1537917262818743,0,1,6,28,10,-70,7,-9
1537917262818743,-3,-7,-11,-32,-27,-26,-8,-6
1537917262819741,3,6,19,53,115,4,3,3
1537917262819741,-5,-1,8,41,-9,-95,-4,0
1537917262841682,-9,-7,-17,-35,-37,-89,-6,-9
1537917262841682,1,-3,-10,-56,-84,29,-4,-1
1537917262842679,0,2,-2,-28,-17,-67,3,0
1537917262842679,-2,-6,-8,-17,-61,110,-8,-1
1537917262864621,2,-2,-7,-11,-23,-17,-5,-1
1537917262864621,-1,4,11,30,22,-12,5,-4
1537917262865618,-13,6,17,46,48,20,8,-12
1537917262865618,17,-5,-18,-57,-41,-45,-17,16
1537917262877586,2,5,10,26,21,40,1,4
1537917262877586,8,6,4,31,41,-31,6,2
1537917262886562,-13,-4,-1,-11,-32,-43,3,-6
1537917262886562,-6,-1,3,29,114,-27,-4,-14
1537917262901522,-2,-4,-12,-58,-105,2,-5,-3
1537917262901522,-5,2,6,11,43,17,3,-4
1537917262902519,5,-2,-5,-4,-37,-42,1,11
1537917262902519,-6,3,6,17,15,-16,1,-5
1537917262924461,12,4,10,48,93,73,-1,9
1537917262924461,-13,-9,-13,-41,-34,-18,-3,-12
1537917262925458,1,-5,-11,-22,-35,-6,-17,-5
1537917262925458,5,2,5,5,-2,51,19,15
1537917262947399,-4,0,8,24,22,112,2,-13
1537917262947399,4,0,-5,17,-49,-81,-3,9
1537917262948397,-7,-6,-14,-63,-11,-14,-6,-16
1537917262948397,5,-3,-3,-23,-32,-24,-11,-1
1537917262954381,-1,0,-2,-2,-25,-67,-2,-1
1537917262954381,5,1,8,26,44,11,1,12
1537917262961362,10,2,3,34,33,-18,1,11
1537917262961362,-10,-3,-11,-21,-13,-4,-3,-1
1537917262968343,-3,1,3,16,4,-40,2,1
1537917262968343,1,1,2,-5,34,-44,-3,-6
1537917262975325,-1,-2,0,3,12,38,7,1
1537917262975325,-6,-4,-1,-10,4,35,-1,2
1537917262990285,-2,-1,4,7,-1,-70,-2,-1
1537917262990285,2,1,5,16,33,38,-1,-2
1537917262998263,2,-1,-6,-5,-14,-41,-2,1
1537917262998263,-3,-2,-5,-8,-15,-13,-3,-5
1537917263013224,-2,-1,-3,-15,-45,0,-1,1
1537917263013224,-2,-1,3,13,8,16,-2,-3
1537917263021202,1,-2,-2,-5,23,-1,-2,5
1537917263021202,-5,-2,-4,-11,-41,-26,-7,-10
1537917263028184,0,-1,-2,1,45,-20,6,7
1537917263028184,0,-1,0,-5,-17,15,-3,-2
1537917263035165,3,3,0,14,-14,-7,0,2
1537917263035165,-4,-1,-1,-3,32,-36,1,-1
1537917263050125,-4,-3,-5,-18,-39,-4,-2,-7
1537917263050125,-6,-2,-2,-3,7,22,6,-4
1537917263058104,6,-1,1,3,-9,19,-2,9
1537917263058104,-3,-1,4,9,7,1,0,-6
1537917263073064,3,3,1,8,14,7,0,3
1537917263073064,-4,-3,-4,-13,-2,2,-4,-1
1537917263081042,0,0,1,-1,-1,-3,0,-7
1537917263081042,-1,1,-1,-5,-12,-6,-4,-1
1537917263096002,0,-1,-1,2,8,25,0,-1
1537917263096002,-2,-4,-2,-4,-18,16,-4,1
1537917263097000,4,-4,-2,-6,-7,-1,-6,6
1537917263097000,-1,-5,-2,-2,-10,13,-3,-2
1537917263110962,0,0,2,2,1,-19,-3,10
1537917263110962,-1,1,-1,5,17,20,-2,-8
1537917263117943,-4,-1,-1,-7,-12,-57,-1,0
1537917263117943,1,-4,-2,-4,-15,6,-5,4
1537917263141880,-3,0,0,3,3,-32,0,-7
1537917263141880,6,-3,-5,-5,-6,20,-5,21
1537917263142877,-6,-2,-2,1,5,17,1,-1
1537917263142877,0,0,1,4,5,4,1,-3
1537917263155842,-4,-2,-2,-4,6,6,1,-5
1537917263155842,0,-1,-1,-2,-3,-8,-2,-5
1537917263156840,-3,0,1,-1,-7,10,1,-5
1537917263156840,-1,-1,-1,1,-1,-1,-2,0
1537917263170802,0,-1,-1,1,-1,-11,2,-3
1537917263170802,-2,-3,-1,-1,-2,-9,0,-3
1537917263177784,0,1,-1,1,1,6,-1,0
1537917263177784,-3,1,0,0,2,-3,0,-4
1537917263192743,-1,-2,-1,-1,-3,-8,-1,-1
1537917263192743,0,-1,-1,-1,-1,-7,0,-2
1537917263201719,-3,-1,-1,-1,-3,7,-1,-3
1537917263201719,-1,0,-1,-1,0,2,0,0
1537917263215682,0,-1,0,-4,-3,-6,-2,-2
1537917263215682,1,0,-1,0,-3,-3,-3,-1
1537917263216680,-2,-1,-1,1,-2,3,1,-2
1537917263216680,-1,-1,-2,1,2,-2,-2,-2
1537917263230642,-2,-1,-1,-1,-2,-4,0,0
1537917263230642,-3,-1,-1,-1,-3,-3,0,-4
1537917263237624,-2,-1,-2,0,-1,5,-1,0
1537917263237624,2,3,1,2,2,0,-1,-3
1537917263252583,-2,0,1,-4,0,1,2,-6
1537917263252583,3,0,1,-1,-2,0,1,-1
1537917263261559,-1,0,-2,0,0,4,3,-2
1537917263261559,0,-1,0,-3,-3,-1,0,1
1537917263276519,-7,-2,0,2,1,-3,4,-7
1537917263276519,1,2,0,0,1,-2,-4,2
1537917263276519,0,0,0,-2,0,1,4,-1
1537917263276519,-1,0,-1,-2,1,0,1,-2
1537917263290483,0,-1,-2,-3,-3,-2,-1,-1
1537917263290483,0,-2,0,1,-2,-1,-1,-2
1537917263298461,0,-1,0,-1,0,2,-4,1
1537917263298461,-1,-1,-3,-2,-2,0,-1,1
1537917263313421,2,1,-1,-1,-3,-2,2,3
1537917263313421,-1,-1,-3,-5,-3,-4,2,-2
1537917263321400,0,0,-1,-2,0,-3,0,5
1537917263321400,0,-1,1,2,1,9,0,-1
1537917263337357,2,-2,-1,0,-5,-10,-3,2
1537917263337357,-1,-2,-3,-2,-2,3,3,-2
1537917263338355,-2,-2,-1,-4,1,1,-2,-6
1537917263338355,0,-1,-1,-1,-1,-1,-3,-1
1537917263350322,1,-1,-1,-1,1,3,-2,-3
1537917263350322,-1,0,-1,2,-1,-5,1,3
1537917263358301,0,-1,0,0,-3,1,1,-1
1537917263358301,-1,1,1,0,1,0,-2,0
1537917263373262,0,0,-4,-2,-4,-5,-3,0
1537917263373262,-2,0,-3,-6,-6,-4,0,-2
1537917263381239,0,0,-2,0,3,5,-1,-3
1537917263381239,2,-2,0,3,1,-7,-1,-2
1537917263396199,0,-1,-1,-3,-4,3,0,0
1537917263396199,-1,2,0,3,19,22,-2,-3
1537917263397197,2,0,0,0,-22,-30,1,3
1537917263397197,-3,-1,-3,-4,-1,6,1,-1
1537917263410162,0,-1,0,4,1,-1,-1,1
1537917263410162,-1,-2,-2,-4,-6,-3,-4,0
1537917263418141,0,0,0,0,11,12,-1,-4
1537917263418141,0,-1,0,1,2,-3,0,-1
1537917263442077,-2,0,1,2,-1,-1,-3,-1
1537917263442077,-1,-1,0,3,5,2,1,-2
1537917263443074,-1,0,-1,-1,0,3,-1,-1
1537917263443074,0,-1,0,-4,-5,-1,1,2
1537917263464018,0,-1,-1,-2,1,2,-3,1
1537917263464018,-1,0,1,1,-1,-5,-2,-2
1537917263465016,-2,-2,0,0,-1,0,0,0
1537917263465016,0,1,0,-3,-3,-3,-1,-2
1537917263470999,1,-1,0,3,0,1,-2,-2
1537917263470999,-1,-2,-1,-2,-6,-6,0,1
1537917263477981,-2,0,0,1,-1,1,-2,-3
1537917263477981,-2,-2,-2,-1,1,0,0,0
1537917263492941,0,-1,-2,-1,0,-1,-1,1
1537917263492941,-2,0,0,0,-3,-3,-2,-1
1537917263500920,-1,-2,-2,-1,4,5,0,-2
1537917263500920,-1,1,1,3,1,-5,-2,1
1537917263515879,-1,-2,-5,-4,-3,-3,-1,0
1537917263515879,-1,-2,-1,1,-1,0,-1,-1
1537917263516877,1,-1,1,-1,0,0,0,1
1537917263516877,1,-2,-1,-1,0,-3,0,-2
1537917263530840,-3,-1,0,-2,-1,-1,-2,0
1537917263530840,0,-2,0,-2,0,-2,1,-1
1537917263537821,-2,-4,1,-1,-2,-1,-2,0
1537917263537821,-2,-1,-1,-2,-2,-2,-1,-2
1537917263552781,0,0,0,-1,1,1,1,-1
1537917263552781,0,-1,-2,-3,0,-2,0,-1
1537917263560760,1,-1,-1,-3,-3,-2,-1,-2
1537917263560760,-3,-1,-1,-1,-3,-2,0,0
1537917263575720,-1,-1,1,-1,1,-1,-2,-2
1537917263575720,-2,-1,-2,-2,-4,-2,0,-1
1537917263576717,-1,-1,-2,0,-1,-1,-2,1
1537917263576717,-1,1,-1,-1,0,0,-1,-1
1537917263590681,-1,0,0,1,0,0,1,0
1537917263590681,-1,0,0,-3,-2,-2,-2,1
1537917263597661,0,0,0,1,2,1,-2,-1
1537917263597661,0,-1,-1,1,-2,0,-2,-3
1537917263612621,-3,-1,0,2,1,-2,-1,0
1537917263612621,0,-1,0,-1,-1,-2,-1,-1
1537917263621597,-1,-1,-2,-5,-3,-1,0,-1
1537917263621597,-1,-1,0,-1,0,-1,-1,-2
1537917263636557,0,-1,-4,-6,-1,-1,1,0
1537917263636557,-1,1,-1,1,0,0,0,0
1537917263636557,-1,-2,0,2,0,0,1,-1
1537917263636557,1,-2,0,-1,0,0,0,0
1537917263650520,1,0,2,-1,0,-2,-1,-2
1537917263650520,0,-2,-1,-1,-1,-1,-2,-1
1537917263658499,-1,-2,-2,-3,-2,-2,-1,0
1537917263658499,-1,0,0,2,2,-1,0,-1
1537917263673459,-1,1,-1,0,0,-1,-2,1
1537917263673459,-2,-1,-3,-4,-3,-2,-1,-1
1537917263681437,0,0,0,0,0,1,-1,-1
1537917263681437,-1,-1,-1,-2,-2,-1,-1,-1
1537917263696398,0,-1,-1,0,0,-1,-1,-1
1537917263696398,2,-2,-1,1,1,-2,0,-1
1537917263697395,-1,-1,-3,-3,-1,1,-1,0
1537917263697395,0,-1,-2,-3,-3,-1,-1,-1
1537917263710360,-1,-1,0,0,-2,0,0,0
1537917263710360,-4,-2,1,0,-3,4,-3,-1
1537917263718339,-1,-1,2,0,1,2,1,-1
1537917263718339,0,0,0,-2,0,0,-1,1
1537917263733299,-1,1,-1,0,-2,-3,1,-1
1537917263733299,1,-1,-1,-3,-2,-4,-2,-1
1537917263741278,-1,0,-2,1,1,-3,0,-1
1537917263741278,-1,-3,-1,-1,-1,-2,-1,0
1537917263755240,-4,-2,-1,0,0,-2,0,-1
1537917263755240,0,0,-1,-1,-1,-2,0,0
1537917263763218,0,0,1,0,0,-1,0,-2
1537917263763218,-1,0,0,0,0,-1,1,2
1537917263770200,0,0,-2,-2,-2,-2,-1,-1
1537917263770200,-1,-1,-4,-1,0,1,-1,-2
1537917263778178,0,-1,-3,-4,-3,-2,-1,-1
1537917263778178,0,-2,1,2,-2,0,-1,-1
1537917263793138,0,0,1,2,-1,1,-2,0
1537917263793138,0,0,-1,0,-1,-1,0,-1
1537917263801117,1,-1,-1,1,0,0,-3,0
1537917263801117,-1,0,-3,0,0,-1,-2,-1
1537917263815080,-3,-1,-2,-1,0,1,1,-1
1537917263815080,0,-1,0,0,0,0,0,1
1537917263824056,-2,-1,-1,-2,-1,0,-1,-1
1537917263824056,-1,0,0,-1,0,-2,0,-2
1537917263846995,-2,-4,-2,-4,-3,0,-1,-1
1537917263846995,-2,-1,-3,-1,-1,-1,-1,-1
1537917263847992,0,1,-2,0,-2,-3,-2,-1
1537917263847992,-2,1,-1,-3,-1,-1,-1,0
1537917263860957,-1,-2,1,0,0,0,0,-1
1537917263860957,0,-2,2,0,1,1,1,-1
1537917263875918,-1,-2,-1,1,1,-1,0,0
1537917263875918,0,-2,-2,-1,-1,0,0,-2
1537917263883896,0,-2,2,0,2,-1,-1,0
1537917263883896,-1,-1,1,-1,-3,0,-1,-1
1537917263885891,-1,-1,0,1,1,0,1,-2
1537917263885891,-2,-1,-2,-3,-2,-1,0,0
1537917263906835,0,0,-1,-1,-2,0,-1,0
1537917263906835,-1,0,0,3,2,-2,1,-1
1537917263907833,0,-3,-3,-2,-3,-1,0,-1
1537917263907833,-1,-2,-3,-1,-2,-1,0,-3
1537917263920797,-1,-2,-1,-2,-3,-1,-1,0
1537917263920797,-1,1,-1,0,-2,-1,-2,-2
1537917263927779,-1,1,0,1,1,0,0,-1
1537917263927779,0,-2,-1,0,0,-1,-1,-1
1537917263944733,0,0,0,1,2,1,-3,0
1537917263944733,-1,0,0,0,-2,-2,1,0
1537917263945731,-1,0,0,-3,-1,-1,-1,1
1537917263945731,-2,1,0,-2,-1,-1,0,-1
1537917263966675,-1,-1,-2,-3,-2,0,1,-2
1537917263966675,-1,-1,2,3,3,2,-2,0
1537917263968669,-1,-2,-3,-3,-7,-4,-2,-1
1537917263968669,-1,-2,-1,-1,-1,-1,-1,1
1537917263980637,-1,-2,0,2,0,0,-1,-1
1537917263980637,-1,-1,-3,-5,-4,-3,-2,0
1537917263996595,-1,1,0,1,1,2,-1,-1
1537917263996595,-1,-1,-2,-1,-2,-1,-1,0
1537917264004573,-1,1,1,5,4,-1,-1,0
1537917264004573,-1,-1,3,2,2,3,1,-1
1537917264005570,0,-1,-8,-7,-7,-5,-2,0
1537917264005570,-1,-2,-2,-3,-2,-1,-1,1
1537917264026514,-1,0,-2,-3,-1,-1,1,0
1537917264026514,-1,-2,0,2,1,-1,-1,0
1537917264028510,-1,0,3,1,4,2,0,-1
1537917264028510,-1,-1,1,1,1,1,-1,0
1537917264041475,0,1,0,-3,-3,-3,-3,-2
1537917264041475,0,1,-3,-1,0,-1,-1,0
1537917264048456,-2,-1,-2,-1,0,1,0,-1
1537917264048456,-2,-2,0,0,-3,-1,-1,-1
1537917264064413,-3,-2,-2,-1,1,3,1,-1
1537917264064413,2,-1,2,3,7,4,-1,-2
1537917264065411,-1,-1,0,3,19,-12,-3,-1
1537917264065411,-2,2,1,15,57,51,-1,-4
1537917264086355,10,6,-2,-18,-54,-64,-1,3
1537917264086355,-7,-6,-9,-10,-29,-50,-8,-8
1537917264088349,1,0,6,6,24,-32,-5,0
1537917264088349,0,1,-4,-13,-55,31,11,-3
1537917264100318,9,5,11,34,82,17,-2,5
1537917264100318,-1,2,1,7,7,-35,15,4
1537917264109294,-10,0,4,1,-40,85,-8,-10
1537917264109294,-13,-15,-16,-57,-83,-106,-12,-12
1537917264123256,-1,-7,-26,-50,30,124,-31,2
1537917264123256,-1,3,6,-6,-44,12,40,-12
1537917264132232,4,2,12,36,72,125,-13,6
1537917264132232,-5,-2,-6,-12,-5,-72,14,-7
1537917264147192,-8,3,7,6,-7,5,25,-6
1537917264147192,14,-11,-22,-51,-60,-97,-37,26
1537917264148189,-3,0,10,24,82,37,-7,8
1537917264148189,17,26,50,110,50,127,52,22
1537917264160157,-2,-15,-18,-14,52,-117,-27,-4
1537917264160157,-8,0,-2,4,64,-33,-14,-24
1537917264169133,3,0,-1,-3,45,-128,1,2
1537917264169133,-10,-17,-33,-67,-42,-77,-3,-6
1537917264184094,6,12,27,78,92,-27,11,8
1537917264184094,-5,-5,-17,-42,-111,-51,20,-11
1537917264186088,-19,-12,-21,-40,22,-122,-22,-47
1537917264186088,6,7,12,17,122,28,-36,8
1537917264207033,-11,-4,-9,-30,-118,-69,-1,-28
1537917264207033,9,0,0,10,11,-21,-14,33
1537917264208030,11,8,13,45,35,71,23,21
1537917264208030,0,-4,-7,3,10,-119,-18,1
1537917264220995,0,-3,-4,-17,-71,-75,16,9
1537917264220995,1,4,22,72,127,127,-8,-2
1537917264228974,-15,-6,-15,-53,-128,-66,4,-23
1537917264228974,-3,-10,-20,-57,-90,-59,-14,-5
1537917264243933,-3,1,16,37,82,57,-22,-9
1537917264243933,-7,-5,-6,-15,-101,75,27,-11
1537917264245928,0,-5,-12,-32,-95,-66,5,3
1537917264245928,-6,-3,-3,-12,2,103,-7,-9
1537917264265875,-2,3,14,39,58,53,9,-1
1537917264265875,-10,-9,-17,-36,-68,51,-5,-9
1537917264274851,5,5,7,18,42,116,7,9
1537917264274851,2,3,0,-2,-36,-16,2,4
1537917264281832,-4,-3,-7,-30,-14,100,-2,-1
1537917264281832,2,1,0,-1,-8,-27,8,7
1537917264289811,6,-3,-6,-9,-82,-101,2,19
1537917264289811,-18,0,4,11,54,49,13,-37
1537917264304771,2,5,7,17,65,-23,2,3
1537917264304771,-2,3,11,30,53,101,-2,-3
1537917264305768,-5,-4,-12,-21,-34,17,2,-14
1537917264305768,21,3,3,23,55,25,-2,33
1537917264326712,-1,-3,-8,-10,-2,42,-4,4
1537917264326712,19,-5,-11,-37,-55,-128,-29,35
1537917264328707,-7,-3,0,-5,-39,117,13,-6
1537917264328707,12,7,14,50,126,6,-3,20
1537917264340675,-5,-12,-23,-60,-114,-52,-2,-9
1537917264340675,4,2,0,-2,77,8,-3,2
1537917264349651,4,2,7,20,95,80,-5,6
1537917264349651,-1,-2,-2,-6,-48,-84,-12,-14
1537917264364611,2,3,2,6,-26,-18,-1,-1
1537917264364611,-8,6,14,49,89,-4,4,-9
1537917264365609,-7,-3,-10,-31,-53,-62,18,-12
1537917264365609,1,-2,-5,-16,-8,122,7,6
1537917264386552,-3,-1,1,2,29,36,8,1
1537917264386552,-5,1,5,6,14,3,-7,-6
1537917264388547,10,3,10,29,63,28,-5,14
1537917264388547,7,-4,-1,0,-22,-37,-5,10
1537917264400515,3,3,5,29,98,-46,-7,-2
1537917264400515,2,0,0,-3,-41,-34,-2,12
1537917264409491,-1,-5,-12,-37,-69,-64,1,9
1537917264409491,-1,-4,-3,-14,-55,-33,-15,-9
1537917264424451,-5,1,8,16,24,-28,29,-7
1537917264424451,-2,-1,-3,-2,-61,-12,0,-5
1537917264425449,-1,0,4,11,17,-11,0,1
1537917264425449,0,0,3,9,10,-20,3,1
1537917264446392,-1,2,0,5,16,86,-3,-3
1537917264446392,1,-2,-4,-7,-24,-73,10,9
1537917264448387,-1,-5,-9,-24,-49,82,-8,7
1537917264448387,-3,2,8,31,72,62,2,-10
1537917264460355,-4,-1,-2,-4,-51,57,4,-21
1537917264460355,-2,-1,2,-2,30,44,0,-9
1537917264469331,1,1,3,13,37,-33,-1,-8
1537917264469331,-3,-2,1,3,2,23,-1,-3
1537917264484291,5,-2,-7,-21,0,-45,-7,16
1537917264484291,-3,-4,-3,-1,-26,-38,-5,-6
1537917264486286,-4,4,11,40,127,91,5,-4
1537917264486286,-17,-4,-6,-25,-97,-63,3,-15
1537917264507230,2,-5,-9,-24,-41,-32,-10,12
1537917264507230,-9,0,3,3,39,42,-3,-14
1537917264508228,1,0,1,6,-15,-61,-13,-5
1537917264508228,0,2,0,7,16,9,4,4
1537917264520195,-7,-4,-4,-15,-50,-14,-1,3
1537917264520195,3,0,-2,9,59,17,-4,4
1537917264529171,-3,-3,-2,-4,4,-5,0,-12
1537917264529171,4,0,2,-2,-6,13,-4,7
1537917264544131,-6,-2,-1,2,-19,-6,5,-15
1537917264544131,8,-2,-3,-1,11,44,-8,15
1537917264550115,1,-1,0,0,1,-76,-5,1
1537917264550115,-3,-4,-9,-26,-37,0,-3,-2
1537917264567070,1,0,4,9,13,0,-3,1
1537917264567070,-7,1,1,-1,-10,-19,4,-14
1537917264568067,3,-2,-2,-2,-25,6,-2,2
1537917264568067,-1,0,2,10,26,3,2,3
1537917264580035,-1,-1,-5,-9,-27,8,-5,-1
1537917264580035,-1,0,-1,-1,-2,-2,6,-4
1537917264589011,-1,0,0,-1,-7,-5,-2,3
1537917264589011,-1,-1,-2,-1,6,-4,-2,-3
1537917264603971,3,-3,-3,0,-5,-10,-2,4
1537917264603971,-2,-1,-1,-2,-7,14,-4,-5
1537917264605966,1,0,-1,0,-1,-3,-2,2
1537917264605966,-2,-4,-3,-2,-1,0,0,-1
1537917264626910,1,0,-1,1,-9,-4,0,2
1537917264626910,-2,-1,0,0,8,8,0,-4
1537917264627907,0,-1,-1,-4,-12,6,0,-2
1537917264627907,0,-1,-1,0,-2,-11,-1,1
1537917264640872,0,-2,-1,0,-6,-5,-2,2
1537917264640872,-1,0,-3,-5,1,4,-2,-1
1537917264649848,0,-1,-1,0,-3,-3,-3,1
1537917264649848,-2,-1,-1,0,-2,2,2,0
1537917264663811,0,-1,-1,0,-3,-3,0,-1
1537917264663811,-3,-1,-1,-2,-2,7,-1,-5
1537917264670792,1,-1,-2,1,-2,-1,1,2
1537917264670792,0,-1,-1,-1,1,-1,-1,-7
1537917264687747,-1,0,-1,-3,-7,2,-3,9
1537917264687747,-1,-2,-1,-4,-2,-3,-2,-2
1537917264689742,0,-1,-3,-3,-4,0,10,5
1537917264689742,0,-1,-1,0,1,-4,-27,-20
1537917264709689,0,0,3,5,0,0,19,2
1537917264709689,-1,0,0,1,-1,3,-2,-11
1537917264710687,-3,0,0,-2,-2,-1,-10,-1
1537917264710687,2,0,-2,0,0,0,2,4
1537917264723651,-3,-4,-3,-4,-3,-4,2,6
1537917264723651,-1,-1,0,1,2,0,-18,-12
1537917264730633,-4,-4,-4,-4,-6,-2,-22,-18
1537917264730633,4,0,1,2,1,0,38,15
1537917264746590,-4,1,-1,0,-2,0,3,-7
1537917264746590,5,1,0,1,2,4,19,23
1537917264748585,0,-1,-2,-4,-6,-7,-30,-16
1537917264748585,-1,1,1,3,2,2,0,5
1537917264769528,-2,1,0,2,5,0,-10,-22
1537917264769528,-4,-4,-5,-6,-5,-1,-5,-1
1537917264770526,0,0,1,0,-3,-2,3,-15
1537917264770526,-2,-1,-4,-4,1,0,-5,6
1537917264783491,1,0,1,3,0,-3,6,12
1537917264783491,-3,-3,0,-2,0,4,3,2
1537917264790473,-1,-1,-1,-1,-2,0,2,5
1537917264790473,0,0,0,-2,0,6,11,-5
1537917264806430,0,0,0,3,19,-3,-6,4
1537917264806430,-2,-1,-2,-5,-20,-11,-6,-4
1537917264808424,-3,-1,-2,-2,10,18,19,-20
1537917264808424,7,1,-1,0,-9,-12,3,78
1537917264829368,-1,-1,-2,-6,-16,-7,-7,1
1537917264829368,1,1,0,5,13,5,3,-5
1537917264830366,3,1,2,1,2,4,9,20
1537917264830366,-3,-2,-4,-4,3,4,-6,-20
1537917264843331,0,-2,0,1,6,2,-4,-9
1537917264843331,-1,-1,-1,-2,0,-4,0,10
1537917264850312,0,0,1,0,-1,0,1,6
1537917264850312,-4,0,-1,0,2,1,-7,-20
1537917264867267,1,-1,-1,-2,-8,-1,0,6
1537917264867267,-3,1,2,1,0,-1,-1,-17
1537917264868265,1,0,-1,1,-2,-1,2,8
1537917264868265,-2,-2,0,-2,-1,-2,-3,-16
1537917264889209,0,-2,-1,-4,-4,-5,-3,-2
1537917264889209,1,-1,-1,-1,2,3,-1,3
1537917264891204,0,0,-1,0,0,-2,1,2
1537917264891204,-2,-1,-1,2,-4,-4,-5,-2
1537917264903172,-3,-1,-3,-2,-4,4,-3,-1
1537917264903172,0,-1,-2,0,0,1,2,-2
1537917264912148,0,-1,-1,2,-4,-3,0,6
1537917264912148,-4,-2,0,1,-1,-3,-4,-13
1537917264927107,1,0,-1,-4,-1,0,-1,1
1537917264927107,-1,-1,-1,-1,0,1,1,-2
1537917264928105,-1,-1,0,0,-2,-4,1,1
1537917264928105,0,-1,0,1,0,1,-1,-5
1537917264949049,-1,1,-2,1,-1,1,-1,-5
1537917264949049,0,-1,-3,-5,-5,-1,-3,3
1537917264951044,0,0,-1,-1,-1,-2,0,1
1537917264951044,-1,-2,-1,0,-1,-1,-1,-5
1537917264963012,0,0,-2,-2,-3,-1,-2,0
1537917264963012,-1,0,0,0,0,-1,-1,-5
1537917264971988,-1,-1,-2,-2,-2,-3,0,1
1537917264971988,0,-1,-2,-3,-1,-3,-1,-2
1537917264986948,0,-1,-1,-2,-2,-2,0,0
1537917264986948,0,0,-1,1,0,4,-2,0
1537917264987945,-1,-1,-2,-2,0,0,1,0
1537917264987945,-2,-3,-2,0,-2,-2,-1,-1
1537917265009886,0,0,0,-3,-2,-2,-1,-2
1537917265009886,-1,0,0,0,-1,-2,1,-2
1537917265010884,0,0,-1,0,-1,-2,0,1
1537917265010884,1,0,0,0,-2,-2,-3,-3
1537917265022852,-2,-2,-3,0,-1,-1,-1,-2
1537917265022852,-1,-1,0,0,0,-2,-1,0
1537917265032825,-1,-2,0,1,-1,-3,-1,-1
1537917265032825,-1,-1,-1,-1,0,0,-1,-3
1537917265046788,-2,-2,-1,-3,-2,-1,-1,0
1537917265046788,-2,-2,1,-1,-1,-1,1,1
1537917265047785,-1,-1,-2,-1,-2,-2,-1,1
1537917265047785,-3,-1,-1,-1,0,-2,-2,-2
1537917265069726,-3,-1,-1,-1,-3,-2,-1,-1
1537917265069726,-1,-2,0,1,1,-1,0,-3
1537917265070723,-2,1,-4,-3,-3,-3,-3,-2
1537917265070723,-1,0,0,-3,-1,-1,-2,-1
1537917265082691,-2,-3,-2,-2,-1,1,-1,-1
1537917265082691,-1,-2,-1,-1,-1,-1,-1,0
1537917265091667,0,-2,0,-1,0,-1,1,0
1537917265091667,0,-1,-2,-5,-3,-2,-2,-2
1537917265106627,-1,0,1,1,0,0,0,-1
1537917265106627,-1,-1,-1,-2,-1,0,-1,-3
1537917265108622,0,-2,0,2,2,1,1,1
1537917265108622,1,-1,-3,-1,0,-1,-2,-1
1537917265129566,1,-4,-1,-1,0,1,1,2
1537917265129566,-2,-2,-2,1,-2,-2,0,-1
1537917265130563,-2,0,-2,-2,0,-1,-2,-3
1537917265130563,-3,-1,-2,0,0,-1,0,-3
1537917265143529,-1,-5,-2,0,1,5,-9,-3
1537917265143529,-2,-3,-2,-2,-2,-8,-40,-3
1537917265150510,2,0,0,0,2,5,78,9
1537917265150510,0,0,0,0,1,-3,-2,-1
1537917265166467,-1,0,0,-1,-1,-9,-24,-5
1537917265166467,1,-1,-2,-5,-4,5,13,-3
1537917265168462,-4,-2,1,0,0,0,-18,-1
1537917265168462,-3,-3,-1,1,-1,1,12,0
1537917265189406,1,0,1,1,1,2,12,1
1537917265189406,-1,-2,-2,-1,-2,-4,-9,0
1537917265190403,0,-2,-2,-1,0,-4,-17,-3
1537917265190403,0,-2,-1,-3,-1,0,6,0
1537917265203369,-3,-1,-1,0,-1,-4,-13,-5
1537917265203369,0,0,-1,0,0,1,9,-1
1537917265212345,0,0,0,0,-1,0,-6,-1
1537917265212345,-2,-3,-3,0,-1,0,-10,-1
1537917265227304,-1,1,-3,1,-2,0,7,1
1537917265227304,0,-1,-2,-2,-1,-2,6,1
1537917265228302,-2,-2,-2,0,-3,-1,-8,0
1537917265228302,0,0,-1,0,-4,-2,-6,-2
1537917265249246,-2,-1,-1,-4,-2,-1,6,-1
1537917265249246,-1,-1,-1,-1,0,0,9,1
1537917265251241,-2,0,-1,-1,-1,-2,-16,-2
1537917265251241,0,-2,-2,-2,-2,-1,-1,0
1537917265263209,1,-1,-3,-3,-1,0,6,0
1537917265263209,-1,0,-1,0,-1,-1,-4,1
1537917265272185,0,1,-2,-1,-1,-1,-5,0
1537917265272185,-2,0,0,0,1,1,1,1
1537917265287145,0,0,1,1,2,0,2,1
1537917265287145,-1,1,1,1,2,1,0,0
1537917265288142,3,1,1,1,0,1,-5,-3
1537917265288142,3,1,1,1,0,1,2,0
1537917265309086,2,0,-1,0,-1,0,1,1
1537917265309086,1,0,-2,-2,0,1,2,1
1537917265311081,0,-1,0,-1,0,0,0,-1
1537917265311081,0,-1,1,-1,-2,1,-3,-1
1537917265323049,1,-1,0,0,1,1,0,1
1537917265323049,1,0,2,0,0,0,0,-1
1537917265332026,-2,-1,-1,-2,-2,0,-2,-1
1537917265332026,-1,0,-2,0,2,-3,-2,-1
1537917265346985,-1,-1,-1,-1,0,-2,-2,-2
1537917265346985,0,0,-2,1,1,0,4,1
1537917265347982,-1,0,-2,-1,-1,0,-3,1
1537917265347982,-2,-1,0,-2,0,0,-1,1
1537917265368926,-1,-1,-1,-3,-2,-2,-1,0
1537917265368926,-2,-1,-1,-1,-3,-1,-2,-5
1537917265370921,-1,-2,-1,-1,-2,-1,-4,0
1537917265370921,0,0,0,-1,0,2,0,0
1537917265382889,-2,-1,-1,0,-1,1,0,-1
1537917265382889,0,0,-2,-1,-2,-2,0,0
1537917265391865,-1,1,0,0,-1,-1,-1,0
1537917265391865,0,0,-1,1,0,-2,-3,-1
1537917265406825,-1,0,-1,-2,-1,0,-2,-1
1537917265406825,-3,0,-2,-1,0,-1,0,-1
1537917265407822,-1,-1,-2,-1,-1,-2,-1,0
1537917265407822,-1,-1,0,1,0,-2,0,1
1537917265429763,-2,0,-1,0,-1,-2,1,-1
1537917265429763,-1,-1,-1,-2,-1,0,1,1
1537917265430761,-1,-2,0,0,0,-1,0,-2
1537917265430761,0,-2,-2,-3,-1,0,-1,-2
1537917265442729,1,0,0,0,-3,-2,1,-1
1537917265442729,-1,-3,0,0,0,0,0,-1
1537917265451705,-1,-1,-3,-2,0,0,-1,-1
1537917265451705,-1,-1,-1,-2,-1,-1,-2,-2
1537917265466665,-1,0,0,0,0,0,0,0
1537917265466665,1,0,-2,-3,-1,-2,-2,-1
1537917265468660,0,-1,0,-2,-1,0,0,-1
1537917265468660,-1,-1,-1,0,-1,-1,-1,0
1537917265489603,-1,-1,-2,-1,-1,0,-1,-1
1537917265489603,0,-2,1,1,1,0,0,-1
1537917265490601,-2,-2,-1,-2,0,-1,0,-1
1537917265490601,0,-1,-1,-1,0,0,-1,0
1537917265502569,0,0,-1,-2,-2,0,-1,-2
1537917265502569,-1,-1,0,1,1,0,0,0
1537917265511545,-1,-1,-1,-2,-1,-1,-2,-2
1537917265511545,0,-1,-2,-1,-3,-1,-1,-1
1537917265526505,-1,0,-2,0,-1,-1,-2,-1
1537917265526505,0,-1,1,0,-1,-2,0,1
1537917265528500,0,0,0,1,-1,-2,-1,-2
1537917265528500,-2,-1,-2,-1,-2,-1,0,0
1537917265549444,-1,-2,0,-2,0,-2,0,-1
1537917265549444,-2,0,-1,0,1,0,-3,0
1537917265550441,-2,-2,-1,-1,-2,0,-2,0
1537917265550441,-1,0,2,0,1,-1,-1,-1
1537917265563406,-1,-2,-1,-3,-1,-1,-1,0
1537917265563406,-2,-1,-1,-3,-1,-2,-1,-1
1537917265572382,0,0,-1,-2,-2,-1,-1,0
1537917265572382,-2,1,0,0,-2,2,0,-2
1537917265586345,1,0,-1,0,0,-1,-1,-1
1537917265586345,1,0,-1,-1,1,-1,0,-1
1537917265588340,0,-1,-1,-1,0,-2,-2,1
1537917265588340,-1,-2,-3,-1,-3,-1,-1,0
1537917265609283,-2,-2,-1,-1,1,-2,-2,-2
1537917265609283,0,-1,-2,0,-1,0,-1,-2
1537917265611278,0,1,0,-1,0,0,-1,-1
1537917265611278,-1,0,1,0,-1,0,-1,0
1537917265632222,-1,-1,-1,1,0,-1,0,-1
1537917265632222,-1,-1,-3,-1,-1,-1,-1,-1
1537917265633220,-2,-2,0,1,-1,0,0,-1
1537917265633220,0,-1,-1,-2,-2,-3,-2,-1
1537917265647182,-1,-1,-1,-1,-1,0,-1,-2
1537917265647182,0,-2,-2,-1,-1,0,-1,1
1537917265648180,-1,-1,0,-1,0,1,1,-1
1537917265648180,-2,-1,0,-2,1,2,0,-1
1537917265669124,0,-2,-1,0,-3,-1,0,-1
1537917265669124,0,0,0,-1,-2,-1,-3,1
1537917265671118,-1,-2,-1,-1,-2,-2,1,-1
1537917265671118,0,0,-1,0,-1,-1,-3,-1
1537917265692063,0,-1,-2,0,0,0,0,1
1537917265692063,-1,-2,-1,-1,-3,-1,-1,-2
1537917265693060,-1,-1,-1,-1,-1,0,-1,0
1537917265693060,0,0,0,0,-1,-1,-1,-2
1537917265706026,-1,-1,0,0,-1,0,-2,-1
1537917265706026,-1,0,0,0,0,-1,1,-2
1537917265713007,0,-2,-2,-2,-1,-2,-3,-1
1537917265713007,0,-2,0,1,0,-2,0,1
1537917265728964,-1,-1,0,0,-1,-1,-2,-2
1537917265728964,-1,-2,-1,0,-2,-1,-1,0
1537917265730959,0,-2,-1,-2,-2,-3,0,0
1537917265730959,0,-2,-1,0,0,-2,1,1
1537917265751902,0,1,0,-1,0,1,0,3
1537917265751902,-2,0,-1,-2,-2,-1,-2,-2
1537917265752900,-1,0,-1,0,-1,-2,-1,-3
1537917265752900,0,-1,-1,-2,0,0,0,1
1537917265765865,-1,-1,-3,0,0,-2,-2,0
1537917265765865,1,-2,0,1,0,0,-1,-1
1537917265772846,-2,1,0,1,0,0,-1,-1
1537917265772846,0,-2,0,1,2,3,-1,-1
1537917265789801,-1,1,-4,-6,-7,-6,-2,0
1537917265789801,-1,-1,-4,-1,-1,0,-2,1
1537917265790799,-1,-1,-1,-3,-2,-1,-2,0
1537917265790799,-2,0,-3,0,-1,-1,1,0
1537917265810745,-2,-3,2,3,0,2,2,-1
1537917265810745,-1,1,1,0,0,-1,-2,-1
1537917265819721,-1,-3,-1,0,0,-1,-1,-3
1537917265819721,-1,0,1,1,1,0,-2,-2
1537917265825706,0,-2,0,0,1,0,-3,-2
1537917265825706,-2,-2,-3,-3,-9,-4,0,-2
1537917265834682,0,0,1,2,3,3,3,2
1537917265834682,0,-2,-4,-6,-8,-4,-2,-1
1537917265849642,0,1,-1,-2,1,-1,-2,1
1537917265849642,-1,-3,-2,-2,0,-4,-3,-4
1537917265850639,1,1,0,0,0,4,4,2
1537917265850639,-2,-1,-1,1,0,-1,1,0
1537917265871583,-2,-1,0,0,0,0,0,-1
1537917265871583,0,-3,-2,-2,0,-2,-4,-2
1537917265873578,-1,-1,-1,-1,-2,-4,-5,-3
1537917265873578,0,-1,-1,0,0,0,-3,1
1537917265885546,-1,0,-1,0,-1,-1,3,-2
1537917265885546,0,1,-1,-2,1,-1,1,1
1537917265901503,-1,-2,-2,-1,-1,-3,-3,-4
1537917265901503,-1,-1,-1,-1,-1,-2,-4,-1
1537917265909481,-3,-2,-2,-1,-3,-1,-4,-4
1537917265909481,0,1,1,0,1,2,3,3
1537917265910479,1,0,-2,-2,-1,-1,-1,0
1537917265910479,-1,-1,-1,0,-2,0,1,0
1537917265930425,0,-1,0,-1,-1,0,-1,0
1537917265930425,-1,0,-1,1,-1,-2,0,-2
1537917265939401,-2,0,0,-2,-2,-1,0,2
1537917265939401,-1,-1,-1,1,1,1,2,-2
1537917265945385,-1,-2,-1,-2,-2,-2,-3,-4
1537917265945385,1,-1,1,2,1,-1,2,5
1537917265954361,-1,0,-2,-1,-1,0,0,0
1537917265954361,0,-1,0,-1,1,-1,-2,-1
1537917265969321,-1,-2,-3,-4,-4,-1,-2,2
1537917265969321,-1,1,-1,-3,1,-1,-2,-2
1537917265971316,-1,-1,-2,-1,-3,0,-1,-2
1537917265971316,-1,-2,0,1,0,-1,-1,-3
1537917265992260,0,1,0,1,1,1,-1,0
1537917265992260,-1,-3,-1,1,0,0,-3,-3
1537917265993258,0,-1,-1,-2,-1,-1,1,2
1537917265993258,0,0,-1,-2,-1,-1,1,2
1537917266005225,-1,0,-1,0,-1,-3,-1,-3
1537917266005225,-1,-1,-3,-2,-3,-2,-4,-2
1537917266014201,-2,-1,1,3,2,1,-4,-4
1537917266014201,0,-1,-1,-2,0,1,5,3
1537917266029161,-1,1,-1,0,0,-2,0,1
1537917266029161,-1,-1,0,0,0,1,1,-1
1537917266031156,0,-1,-3,-2,-1,-2,-2,-2
1537917266031156,-1,0,-2,-4,-1,-3,-5,-2
1537917266051103,0,0,-1,-2,3,0,2,2
1537917266051103,-1,0,0,0,-1,0,-1,-2
1537917266059081,-1,1,0,0,-3,-1,-1,-2
1537917266059081,-2,-2,-1,-2,-3,1,-3,-2
1537917266066063,-1,-1,1,2,0,-1,-2,-3
1537917266066063,0,1,0,-1,1,0,3,1
1537917266073044,-1,-2,-1,-1,0,-2,-2,-2
1537917266073044,-1,0,-1,1,1,-2,-1,-2
1537917266089001,-1,-1,-1,0,1,0,0,-2
1537917266089001,1,-1,-2,-2,-4,-1,0,-1
1537917266090996,0,1,0,-3,-1,1,1,1
1537917266090996,0,-2,-2,-1,-2,-1,-2,-5
1537917266111940,-2,-4,-1,-1,1,0,-2,-2
1537917266111940,0,-1,-2,0,0,-1,1,2
1537917266112937,0,-2,-2,-3,-1,0,-3,-1
1537917266112937,0,-1,-2,-1,0,0,-5,-2
1537917266125902,0,-2,-1,2,0,2,3,3
1537917266125902,-1,-1,-2,-2,-2,-2,-1,-1
1537917266134879,-3,-2,-1,0,1,-1,-2,-4
1537917266134879,-3,-1,0,1,-1,-2,0,-3
1537917266148841,0,0,-3,-4,-4,0,-12,0
1537917266148841,0,1,0,0,0,3,11,3
1537917266150836,0,-2,0,-1,0,-1,-1,-1
1537917266150836,-1,-2,3,1,1,-10,-10,1
1537917266171780,-3,0,-1,-1,-3,0,20,-5
1537917266171780,-2,1,-1,1,0,-2,-26,-1
1537917266172778,1,-1,-1,-3,-5,-5,-45,-2
1537917266172778,2,0,-1,1,2,18,82,11
1537917266185743,1,0,0,-2,-3,-10,-4,-3
1537917266185743,-1,-1,0,-1,1,2,8,-2
1537917266194719,-1,-2,0,-1,-2,-2,-1,2
1537917266194719,-3,-1,-1,0,-2,-13,-54,-8
1537917266208682,-2,0,-1,-4,-4,-2,-7,-5
1537917266208682,1,1,0,1,0,21,25,8
1537917266216660,0,1,2,1,3,-3,21,1
1537917266216660,1,-1,-5,-3,-3,-10,-21,0
1537917266231620,0,1,2,1,1,1,6,5
1537917266231620,-3,-3,-3,-2,-1,-9,-21,-7
1537917266233615,-2,-1,0,0,0,5,4,-4
1537917266233615,2,4,6,1,1,6,0,2
1537917266245583,0,-8,-19,-3,1,2,8,2
1537917266245583,-7,-4,-1,-2,-3,-2,-8,-2
1537917266254559,1,4,10,0,1,2,15,3
1537917266254559,0,-5,-7,-4,-5,-2,1,-2
1537917266269519,0,0,3,0,-2,-1,-30,-3
1537917266269519,1,2,-4,-1,1,4,56,5
1537917266270517,2,3,1,2,2,-10,3,1
1537917266270517,-5,8,28,-1,-4,5,3,-6
1537917266291461,-2,-6,-34,-3,-1,8,-2,2
1537917266291461,-1,-8,-6,1,-1,-11,-50,-3
1537917266293456,0,4,3,-2,-3,-11,56,1
1537917266293456,0,-4,1,-1,0,-1,-2,0
1537917266305423,-2,-4,-7,-2,0,-2,-8,-1
1537917266305423,1,0,5,-1,0,9,4,-6
1537917266314400,-7,-3,-11,-6,-7,-9,-26,-9
1537917266314400,-2,1,1,6,5,1,-18,6
1537917266329359,-1,2,16,1,1,-2,3,-1
1537917266329359,5,-4,-6,-4,-2,-4,-4,0
1537917266330357,-7,13,27,8,3,-3,-9,-2
1537917266330357,10,-9,-18,-3,-2,8,19,2
1537917266352298,-2,0,20,3,2,-3,28,2
1537917266352298,-9,1,-19,-4,-6,-8,-10,-5
1537917266353296,8,-11,-17,-6,-4,4,-17,-3
1537917266353296,-12,0,6,0,0,0,-2,1
1537917266365264,7,10,7,3,-1,-4,-18,-10
1537917266365264,-4,22,33,0,-1,-2,15,9
1537917266374241,-4,-13,-8,6,2,10,10,1
1537917266374241,-8,-20,-40,-5,4,-7,-17,-16
1537917266389201,-30,-7,-18,-16,-1,-8,-4,-9
1537917266389201,27,2,37,4,-2,5,7,6
1537917266391195,5,-4,-15,-3,-14,-6,-3,8
1537917266391195,22,10,16,9,17,16,-1,3
1537917266412138,-12,7,8,11,53,-83,-8,-10
1537917266412138,16,-10,-18,-19,-33,74,-2,13
1537917266413136,-11,4,17,-2,-66,-10,-1,-12
1537917266413136,-11,-46,-40,6,57,-30,-7,5
1537917266425104,35,74,41,-5,25,36,23,29
1537917266425104,4,-25,-6,9,-39,-43,-9,-7
1537917266434080,-58,-52,-60,-23,41,-18,-23,-9
1537917266434080,-44,18,38,-68,-126,-14,17,-8
1537917266449039,-11,5,-38,-32,-39,42,7,14
1537917266449039,17,-47,-31,1,14,-34,2,7
1537917266455023,28,80,41,85,52,6,-16,2
1537917266455023,-22,-13,54,57,98,3,8,-20
1537917266471977,31,27,-14,-21,48,29,9,20
1537917266471977,-29,60,15,-35,-59,-9,1,-3
1537917266472975,3,-70,-26,-34,-79,-5,2,4
1537917266472975,3,15,-14,-35,86,9,-6,-21
1537917266485940,-22,-44,-5,-9,-83,-13,-8,-32
1537917266485940,5,-37,-69,8,4,-55,-15,-16
1537917266493919,7,56,72,27,-32,60,15,8
1537917266493919,-12,36,-3,32,-15,4,4,-12
1537917266508879,20,-41,18,35,69,16,8,6
1537917266508879,-8,5,-6,53,119,32,-15,0
1537917266515860,56,28,17,-25,-19,3,32,29
1537917266515860,-9,7,-1,7,-9,-29,-16,-3
1537917266531818,-19,-28,-44,19,-25,0,8,-7
1537917266531818,-28,-52,7,31,40,33,17,3
1537917266532815,8,53,35,-45,24,63,-1,-8
1537917266532815,-12,-2,-38,-75,-70,-88,-20,-11
1537917266554756,0,-15,5,-4,-13,7,-14,1
1537917266554756,1,0,-8,-1,4,-25,0,1
1537917266555754,-16,-36,-34,23,70,39,-4,-6
1537917266555754,10,17,92,34,8,18,7,17
1537917266568719,12,16,-33,-2,-61,-13,-17,-3
1537917266568719,-32,16,22,57,7,22,16,-5
1537917266575701,-15,1,-14,-29,118,-36,-12,-8
1537917266575701,-6,-39,-55,-90,-96,16,-8,-8
1537917266591658,1,-25,7,-16,-91,-36,-13,-8
1537917266591658,12,42,-3,-41,57,13,7,17
1537917266593653,4,-7,17,42,41,-21,-5,2
1537917266593653,25,-9,1,74,-17,-14,5,18
1537917266614596,-25,28,37,-13,76,4,-2,-19
1537917266614596,-10,-28,-48,-6,-64,16,-9,-21
1537917266615594,-13,1,-17,-26,44,-43,4,3
1537917266615594,24,-8,-4,-12,-59,-26,-5,6
1537917266628559,-2,5,28,39,52,56,4,0
1537917266628559,18,35,37,7,-34,-24,-8,5
1537917266635540,-7,-21,-42,-29,110,22,4,7
1537917266635540,-14,11,27,11,-76,18,3,-3
1537917266651498,-12,-21,30,-28,-33,-27,-7,-5
1537917266651498,26,-7,-13,-2,87,12,0,-4
1537917266653492,-1,7,13,13,-112,0,2,-7
1537917266653492,-10,-32,-54,29,127,60,4,4
1537917266673439,19,36,10,17,5,-45,3,4
1537917266673439,-7,20,18,-49,28,64,-6,-11
1537917266674436,-18,-5,-24,4,-96,-95,-2,0
1537917266674436,40,3,0,37,-42,21,11,20
1537917266688399,1,-46,-4,14,-3,68,-1,-2
1537917266688399,-6,33,5,-49,-11,-65,-1,-1
1537917266696378,16,4,-23,-105,16,-7,-17,-6
1537917266696378,4,-22,-2,1,-28,20,3,-3
1537917266711338,-10,32,13,29,42,3,5,5
1537917266711338,-30,8,31,67,-36,-1,1,-5
1537917266712335,63,-13,29,33,27,21,-15,-8
1537917266712335,-3,-9,-55,-13,83,7,18,28
1537917266733279,18,-13,19,30,0,-4,0,-10
1537917266733279,1,-4,-14,17,-2,-10,1,15
1537917266734276,-23,3,0,-7,-107,-13,-3,-8
1537917266734276,6,38,33,11,127,43,2,-10
1537917266748239,29,-20,-33,0,43,-57,-16,3
1537917266748239,-6,-16,0,-101,-104,32,5,-9
1537917266749236,-18,-19,-16,-5,34,-24,-7,-8
1537917266749236,4,5,-1,-23,-80,20,-1,-2
1537917266771178,-5,30,14,89,48,-13,9,11
1537917266771178,16,14,52,20,127,-7,-12,-4
1537917266772175,-11,-24,-74,-9,-44,13,7,10
1537917266772175,-12,-5,29,-10,-36,-7,-9,-20
1537917266794116,-39,-76,-32,10,12,10,8,11
1537917266794116,32,19,18,48,76,8,3,8
1537917266794116,-8,-25,-25,-50,-87,-5,-2,-3
1537917266794116,12,65,6,29,38,-27,-3,-4
1537917266808079,-30,-22,-28,-11,-18,11,1,-9
1537917266808079,11,8,2,-39,25,-11,-1,3
1537917266809077,-19,2,17,32,-14,16,3,-8
1537917266809077,-4,14,-5,-11,8,-25,-5,-2
1537917266831018,8,-23,-4,-30,-1,48,0,-7
1537917266831018,-25,-23,-30,-84,-119,-64,-8,-7
1537917266832015,-1,15,27,74,68,2,4,-9
1537917266832015,-2,-14,14,-31,46,4,4,9
1537917266853956,10,47,-8,35,35,7,0,2
1537917266853956,7,-13,0,29,12,11,-1,1
1537917266853956,1,6,26,21,2,9,4,7
1537917266853956,-25,-28,-24,22,9,-7,-2,-4
1537917266868916,33,24,11,-37,16,-7,-8,-1
1537917266868916,-6,-32,-51,-36,-66,-14,-4,-3
1537917266868916,-24,-18,11,-15,-6,-3,-2,-5
1537917266868916,15,13,7,17,8,13,2,1
1537917266890858,2,-12,8,22,44,-3,-2,2
1537917266890858,-8,14,-9,-59,-38,10,-9,-3
1537917266891855,34,17,8,16,-43,-54,-4,2
1537917266891855,-5,-11,-18,-45,-42,-16,-4,-2
1537917266913796,1,9,-6,-26,-57,-11,1,1
1537917266913796,2,-1,16,54,42,13,6,-2
1537917266914794,-4,-33,12,38,67,21,-4,-2
1537917266914794,-9,12,-32,-3,0,-2,-2,5
1537917266928757,12,13,24,-22,-11,-12,5,8
1537917266928757,-24,-19,3,34,4,4,-6,-11
1537917266929754,-2,2,3,-6,7,7,-4,1
1537917266929754,36,6,6,-4,-8,-9,2,7
1537917266950698,-15,-2,-8,-29,-34,-1,-5,-11
1537917266950698,3,-2,-4,8,5,-8,4,5
1537917266951695,4,8,1,2,-4,8,3,4
1537917266951695,-6,-21,4,10,10,2,-1,-3
1537917266973637,-5,4,-8,-14,-4,-5,4,4
1537917266973637,11,9,10,17,-14,-8,1,-2
1537917266974634,-9,0,-9,-10,19,2,-3,-7
1537917266974634,-5,-2,1,4,-1,3,0,-3
1537917266988596,-7,-3,-1,-20,-17,-12,-4,-4
1537917266988596,-6,1,-2,13,-10,-6,1,-5
1537917266989594,4,2,2,1,13,12,-1,0
1537917266989594,1,-3,3,3,11,3,1,5
1537917267011536,-4,3,0,-5,-12,-4,-1,0
1537917267011536,0,-7,0,6,1,0,-1,1
1537917267011536,1,6,-5,-3,6,8,1,3
1537917267011536,0,-5,3,1,-6,-5,-4,-3
1537917267033477,-6,4,-2,-7,-2,-4,-1,-1
1537917267033477,-2,0,-2,7,2,2,2,4
1537917267034474,0,-3,-1,-8,-3,0,-2,1
1537917267034474,-4,0,1,2,-1,-3,-3,-4
1537917267048437,-2,1,-1,-6,-3,1,-2,-4
1537917267048437,4,1,5,8,7,-1,-2,-1
1537917267049434,-1,-2,-3,-3,-7,2,2,0
1537917267049434,-4,-4,-4,-2,-2,-5,-4,-4
1537917267071376,-3,2,-2,-6,-2,-1,1,0
1537917267071376,4,-1,1,1,-2,-2,1,0
1537917267071376,-1,0,0,2,6,2,-1,0
1537917267071376,-4,-2,1,3,4,-1,-2,-3
1537917267093317,-1,-1,-3,-5,-5,-2,-3,-2
1537917267093317,0,0,-3,2,-1,-2,-1,-1
1537917267094315,2,0,-3,-4,0,2,-1,0
1537917267094315,-1,-3,-1,-2,-2,0,-2,-2
1537917267108277,-4,2,1,-1,-2,-2,-1,-1
1537917267108277,-1,-3,-1,3,-1,-1,0,0
1537917267116256,0,1,-1,1,3,1,0,0
1537917267116256,0,-2,-1,-1,-1,-1,-2,-1
1537917267131216,1,-1,-3,-3,-4,-2,-1,-1
1537917267131216,1,-1,-2,1,-1,-3,-2,1
1537917267132214,-3,0,-1,-1,1,-1,-1,-2
1537917267132214,-1,0,2,2,2,0,-1,1
1537917267153157,-3,-2,-3,-2,-1,-3,-1,-3
1537917267153157,-4,-2,-2,-4,-2,-1,-3,-4
1537917267154155,4,0,-2,-1,-1,-1,1,0
1537917267154155,2,-1,3,2,5,5,7,7
1537917267168117,1,1,-2,-4,-3,-3,-2,0
1537917267168117,-3,-2,0,2,0,-1,-3,-2
1537917267176096,-2,0,2,2,0,-1,-1,-3
1537917267176096,0,1,1,-1,0,-4,-2,-2
1537917267191057,1,-1,-2,-5,-4,-2,-1,-2
1537917267191057,0,1,1,0,-2,1,2,0
1537917267192054,-1,-1,-1,1,3,2,0,0
1537917267192054,0,-2,-1,-3,0,-1,-3,-2
1537917267221973,-2,-1,-2,-4,-3,-1,1,-1
1537917267221973,-3,-1,-1,0,-2,-3,0,-2
1537917267222971,-1,-1,0,1,1,2,-1,-2
1537917267222971,0,-1,-2,1,-1,-1,-2,-2
1537917267227957,1,0,1,1,1,-1,1,0
1537917267227957,0,0,-3,-1,1,2,1,3
1537917267235936,1,-1,4,1,-4,-2,2,2
1537917267235936,-3,-1,-5,1,-4,-6,-3,-1
1537917267250895,-3,-4,-10,-11,-5,-1,-4,-5
1537917267250895,-1,-1,-1,-3,0,-1,3,0
1537917267251893,4,0,4,-2,0,2,3,0
1537917267251893,-6,-2,6,4,1,-3,-5,-7
1537917267273834,2,3,1,5,4,2,8,7
1537917267273834,-1,-1,-2,-3,-3,-5,-5,-4
1537917267273834,-1,-2,-4,-1,-1,0,0,0
1537917267273834,0,-2,-2,-1,-1,1,0,0
1537917267287796,-2,0,1,2,-1,-3,-4,-2
1537917267287796,-2,1,-2,-2,1,0,1,0
1537917267295775,-2,1,-1,-1,0,0,0,-1
1537917267295775,0,0,-3,-2,-1,-1,-1,0
1537917267310735,-2,-1,-1,-1,-1,-3,-2,-4
1537917267310735,-1,0,1,1,1,1,0,-1
1537917267311733,-2,-2,-3,-1,-1,-2,-2,-2
1537917267311733,-1,-1,-3,-4,-4,0,-2,-3
1537917267341653,0,3,1,2,1,2,3,4
1537917267341653,1,0,-1,-1,-3,-1,0,-2
1537917267342650,-2,0,-1,-2,0,-2,0,-3
1537917267342650,-1,-2,-4,-4,-3,0,-1,1
1537917267347637,0,-1,0,1,-2,-1,-4,-6
1537917267347637,1,-1,-1,0,0,-1,-2,-2
1537917267355615,-3,1,-2,-1,-1,0,-2,-1
1537917267355615,1,-3,-1,0,1,1,1,-2
1537917267371573,1,0,1,0,-1,-1,-2,2
1537917267371573,-3,-1,2,1,-1,0,0,1
1537917267371573,-3,-2,-3,-1,0,-3,-2,-3
1537917267371573,1,0,2,-2,0,-2,0,0
1537917267393514,-3,-2,-2,0,-1,-1,0,-4
1537917267393514,2,-1,-3,-4,-2,-2,-2,-2
1537917267394512,-2,0,-1,-2,-2,-1,-1,0
1537917267394512,-3,-2,0,-1,0,1,-2,0
1537917267407477,-1,0,1,0,1,0,-1,-1
1537917267407477,-1,-2,-1,-3,-4,-3,-1,1
1537917267416453,-1,-1,-2,-2,-2,0,-1,-1
1537917267416453,-2,1,-1,-2,-2,-1,-1,2
1537917267431413,-1,-2,-1,0,0,-1,-2,-2
1537917267431413,1,0,2,3,3,1,2,2
1537917267431413,-4,-2,-3,-3,-2,-2,-2,2
1537917267431413,-1,1,-3,-2,-3,-1,-2,0
1537917267453354,-2,-2,-3,-2,-2,-3,-2,-3
1537917267453354,11,-2,-5,-4,-5,-7,-14,28
1537917267454351,0,0,1,0,3,5,5,-4
1537917267454351,0,0,0,1,0,-2,0,-3
1537917267468314,4,4,0,-4,-4,-1,0,3
1537917267468314,-1,-19,-2,0,2,2,1,-10
1537917267476293,-13,-1,1,0,1,-4,-4,-6
1537917267476293,-4,-1,-2,1,-1,0,-1,2
1537917267491253,2,0,-1,-1,-3,1,0,-6
1537917267491253,-1,-3,-2,-1,2,-3,-3,-5
1537917267492250,6,-2,-3,-4,-5,-5,-6,1
1537917267492250,-1,-1,4,8,-3,4,6,-5
1537917267513194,0,0,1,-2,7,3,0,0
1537917267513194,-12,5,2,5,8,2,6,-12
1537917267514192,1,-1,-3,6,-12,-3,-8,9
1537917267514192,-18,6,-1,-16,7,-3,-1,0
1537917267536133,27,8,45,30,-3,2,3,10
1537917267536133,12,2,11,1,7,3,0,5
1537917267537131,-10,1,-64,-18,34,3,5,-2
1537917267537131,-2,-4,-15,-29,-32,-2,-2,2
1537917267551093,5,-13,10,37,-10,3,1,3
1537917267551093,-41,10,20,47,40,3,4,-34
1537917267552090,-3,-4,-5,-78,-20,-3,2,-15
1537917267552090,-10,-21,11,22,-38,-10,-8,-13
1537917267574032,-6,-21,-2,-36,-4,0,4,7
1537917267574032,3,15,-2,55,-5,14,8,-5
1537917267574032,-22,-8,19,10,47,-9,-14,-35
1537917267574032,21,26,-33,-77,-46,-1,25,6
1537917267596971,25,-2,-8,11,-72,-14,-18,42
1537917267596971,-6,-14,6,15,85,20,2,2
1537917267597968,32,27,31,68,-4,-14,3,15
1537917267597968,-20,-38,-34,-47,-23,16,-17,-28
1537917267610933,-11,-6,8,-12,72,-20,-4,-16
1537917267610933,22,-5,-18,68,-105,-14,-10,12
1537917267611930,18,-1,-15,-94,-4,1,-13,31
1537917267611930,-2,-41,19,27,-51,-23,-7,-9
1537917267633871,-6,11,-46,-80,-63,-16,-10,14
1537917267633871,19,24,1,-22,-13,-5,-4,-1
1537917267633871,4,15,30,108,82,15,11,-5
1537917267633871,21,9,9,119,123,29,4,7
1537917267656810,-19,-4,-8,-77,6,-9,6,-8
1537917267656810,21,1,-3,-50,-81,-4,-1,1
1537917267657808,-14,-19,-8,-2,-40,7,4,-1
1537917267657808,-17,4,5,-5,85,-3,5,-15
1537917267670773,4,7,7,70,-19,12,-8,-10
1537917267670773,-12,15,9,-7,27,-17,3,1
1537917267671770,-2,-31,-11,-58,-77,-8,0,4
1537917267671770,-22,-2,-22,-34,49,-13,1,-32
1537917267693712,-7,15,21,35,-50,-2,6,-11
1537917267693712,-1,-22,-27,-3,23,-1,-6,1
1537917267694709,2,-6,1,-63,-54,12,5,12
1537917267694709,24,10,17,3,0,-4,1,17
1537917267716650,2,19,2,32,-4,7,2,-3
1537917267716650,-2,-72,-9,3,101,11,-3,6
1537917267717648,-3,80,23,47,38,3,-3,-12
1537917267717648,8,59,-8,-18,-114,-11,-7,9
1537917267730613,13,0,-7,-62,-44,-15,-3,1
1537917267730613,-27,-9,-6,-11,-23,3,9,-25
1537917267731610,10,-27,1,25,34,3,-7,23
1537917267731610,-11,13,25,65,95,17,8,-3
1537917267753551,-9,-4,1,37,6,14,9,-5
1537917267753551,-5,21,9,5,5,-15,-5,10
1537917267754549,19,-15,-12,29,-22,-37,-4,-6
1537917267754549,-6,4,-16,-94,-13,33,-9,-4
1537917267776490,-16,-24,-17,-15,-23,-34,1,-7
1537917267776490,10,7,-4,-10,67,9,-3,-4
1537917267777488,-16,-1,-4,-36,9,-11,0,-13
1537917267777488,2,-31,5,57,-52,-14,-5,13
1537917267791450,3,17,1,-17,51,19,1,-6
1537917267791450,-3,9,2,-8,-59,-6,-2,11
1537917267791450,2,18,14,68,56,18,5,3
1537917267791450,-1,-27,5,0,3,3,8,-1
1537917267814390,-3,19,-24,23,75,11,-8,9
1537917267814390,3,23,23,15,-5,-1,9,-3
1537917267815387,-10,-2,-15,-27,-37,1,-4,5
1537917267815387,-6,-10,4,-3,-66,-15,-5,0
1537917267836330,-8,-19,-14,-62,62,-18,-7,-28
1537917267836330,-27,-10,-13,-53,-102,6,-3,0
1537917267837328,43,9,2,65,35,-26,2,11
1537917267837328,10,1,-1,-113,-8,-16,-5,16
1537917267851290,-7,-3,6,53,-20,7,4,-1
1537917267851290,3,8,17,41,87,12,-5,-6
1537917267852288,-13,-13,-15,-34,-51,20,4,-6
1537917267852288,-13,-19,11,73,25,-11,-11,1
1537917267873232,19,7,-5,2,48,12,5,11
1537917267873232,-4,-11,-12,-23,-13,2,-2,1
1537917267881210,-15,-16,10,47,9,3,1,-11
1537917267881210,2,8,-2,15,62,1,-2,2
1537917267897168,13,12,-4,-60,-45,-2,-6,-6
1537917267897168,-9,7,-3,-27,-104,-20,3,-3
1537917267897168,-12,-17,0,34,47,7,-2,4
1537917267897168,16,3,8,15,7,9,-1,3
1537917267911131,-13,-25,-10,-39,8,-6,-2,-2
1537917267911131,-1,6,-10,-11,-41,-15,-1,-9
1537917267912128,-2,-6,2,-24,-5,3,-2,-4
1537917267912128,12,4,2,13,-13,0,-2,13
1537917267934069,1,-2,11,60,54,10,-1,2
1537917267934069,10,-2,8,3,25,6,5,5
1537917267934069,-21,-1,2,-11,-32,4,3,-13
1537917267934069,11,1,5,5,-1,1,2,3
1537917267957008,-10,-1,-18,3,-8,1,1,-5
1537917267957008,2,-8,-7,-11,14,-7,-5,8
1537917267957008,-4,-6,-1,-14,-8,7,-2,-4
1537917267957008,4,17,10,45,13,2,6,-4
1537917267970970,-9,-9,0,-10,12,1,-1,-2
1537917267970970,5,-10,-13,-30,-10,-3,-6,-1
1537917267971968,4,0,-3,-28,-54,-18,-7,2
1537917267971968,0,-1,-12,-27,-19,-6,-4,-3
1537917267993909,-4,1,13,36,-8,7,3,-3
1537917267993909,6,0,1,10,33,2,-2,6
1537917267993909,-6,-3,-1,-16,7,0,2,-6
1537917267993909,0,7,-1,5,-7,-1,-1,2
1537917268016848,-8,-7,2,16,2,6,0,-6
1537917268016848,-1,2,1,-7,13,-1,1,3
1537917268017845,4,0,-1,-4,-7,0,-1,2
1537917268017845,-9,-4,-5,-4,0,0,2,-5
1537917268030811,3,0,2,4,-8,-2,-2,0
1537917268030811,1,-3,-3,-5,-2,0,0,-2
1537917268031808,0,1,-2,-1,-4,-1,-3,-2
1537917268031808,-4,-1,-5,-2,6,0,1,1
1537917268054746,-1,-2,2,0,-9,0,-1,-3
1537917268054746,1,3,1,3,-3,-2,-1,-1
1537917268054746,-3,-3,-1,-1,6,2,2,1
1537917268054746,1,2,-4,-7,0,-2,-2,0
1537917268076688,1,0,2,3,-14,-2,4,3
1537917268076688,-4,-4,-2,-1,4,-1,-3,-5
1537917268077685,2,-1,-2,-3,5,-1,-1,0
1537917268077685,-2,-2,-4,-5,-2,0,1,0
1537917268090651,-2,-1,2,4,-3,0,-1,-1
1537917268090651,-1,0,-4,-1,6,-2,0,-2
1537917268098629,2,0,-3,-6,-5,-2,-2,-2
1537917268098629,0,-1,1,0,-2,-2,2,3
1537917268113589,-3,-1,2,3,0,2,-1,-1
1537917268113589,3,-1,0,0,1,-2,-3,0
1537917268114586,3,0,0,-3,0,1,-1,-1
1537917268114586,-2,-1,-1,2,8,-1,0,-1
1537917268136528,-3,-2,0,0,-9,-2,-2,-3
1537917268136528,0,-1,-3,-3,0,0,1,3
1537917268137525,-2,0,-1,1,3,0,-3,-3
1537917268137525,0,0,-4,-5,-11,-3,-2,1
1537917268150490,1,-2,-3,2,-1,-2,-1,0
1537917268150490,-1,0,-2,-4,0,-1,-4,-3
1537917268158469,-1,-1,-2,1,3,0,-2,-3
1537917268158469,1,1,0,0,4,3,3,2
1537917268174427,-2,-3,-2,0,-2,0,-1,0
1537917268174427,-1,0,-3,3,-2,-1,2,0
1537917268175424,0,-2,5,6,4,-1,-2,0
1537917268175424,0,0,2,-3,-3,0,-3,-2
1537917268196368,-1,-1,-9,-8,-2,-3,0,-1
1537917268196368,-1,-2,-2,-1,0,1,0,-2
1537917268197365,0,0,-1,-1,-2,-2,1,0
1537917268197365,-2,0,2,4,-1,1,0,-1
1537917268210331,0,-2,1,-1,-3,-2,-1,2
1537917268210331,-1,0,3,1,1,0,0,-2
1537917268218310,-1,-1,-4,-3,-2,-3,-3,-3
1537917268218310,-3,-1,-1,-5,-2,-2,-1,-3
1537917268233269,1,0,2,3,2,0,1,3
1537917268233269,-1,-1,0,2,1,0,-3,0
1537917268242246,-1,1,-1,0,-3,-1,1,0
1537917268242246,-1,-1,-4,-4,0,-2,-3,-4
1537917268257205,-1,-3,1,0,1,-1,0,1
1537917268257205,0,0,1,-2,-4,-2,-1,-1
1537917268258203,2,0,-5,-4,0,-1,1,-1
1537917268258203,-5,-2,-2,0,-1,-2,-2,-5
1537917268270171,4,0,4,4,-1,1,1,1
1537917268270171,1,-1,-1,-3,-1,0,0,2
1537917268279147,-3,-1,-2,-2,0,1,0,-1
1537917268279147,-2,-3,-4,-3,-3,-2,0,-3
1537917268293110,-1,-1,1,0,-3,-1,-4,-2
1537917268293110,-2,-1,-6,-5,0,-1,0,0
1537917268300091,-1,-1,1,-1,1,-1,-1,0
1537917268300091,0,-2,-2,0,1,-2,-1,1
1537917268317046,-3,-1,2,1,-1,-1,0,-1
1537917268317046,1,3,0,1,0,-3,-2,0
1537917268318043,0,-1,-1,-3,-4,-1,-2,-3
1537917268318043,1,1,0,-1,0,0,-1,1
1537917268338987,-1,1,-4,-1,-2,-2,0,-2
1537917268338987,-3,-1,0,1,-1,0,0,-1
1537917268340983,-2,-1,0,-2,0,-1,2,1
1537917268340983,2,0,2,1,-3,-1,-2,-2
1537917268353947,-3,-2,-5,-3,0,-3,-2,-2
1537917268353947,1,-1,0,1,1,0,3,5
1537917268360928,-1,-2,0,-1,-4,-1,-3,-1
1537917268360928,-2,-2,0,-4,-2,0,1,2
1537917268376885,0,-1,0,1,2,-1,1,1
1537917268376885,-2,-2,0,1,1,0,-3,-2
1537917268377883,-1,-1,-2,-2,-2,1,-1,-1
1537917268377883,0,-1,-1,-1,-2,-1,0,0
1537917268398827,-1,-1,-1,-1,0,1,-1,-2
1537917268398827,-1,-2,0,0,1,-1,1,-1
1537917268400821,-1,-1,1,0,0,-2,0,0
1537917268400821,0,-1,-2,-1,-1,-1,0,-3
1537917268413787,0,1,-1,-1,-1,0,0,-1
1537917268413787,-1,-2,-1,1,1,-1,-2,-1
1537917268420768,-1,-1,-2,0,-1,-2,0,0
1537917268420768,0,-1,-1,-2,-2,-2,0,1
1537917268436725,2,0,-1,-2,-1,-2,-1,1
1537917268436725,-1,-1,-2,-1,-1,-1,-3,-4
1537917268437723,-1,-1,0,-1,0,0,1,0
1537917268437723,-1,-3,2,2,4,2,-2,1
1537917268459664,1,-2,-1,-1,0,-1,0,1
1537917268459664,-1,-1,0,-5,-5,-1,-2,-1
1537917268460661,-2,0,-2,1,2,-2,-2,0
1537917268460661,-1,-1,-2,-1,-2,-2,0,-1
1537917268473627,0,-1,0,0,-1,-1,-1,-3
1537917268473627,-3,0,0,0,-2,-1,-2,-3
1537917268480608,0,0,-3,-2,-4,-2,-2,1
1537917268480608,0,0,-1,1,-2,0,-1,0
1537917268496565,-1,0,-1,1,1,1,0,0
1537917268496565,0,0,1,1,2,0,3,-1
1537917268498560,-1,-1,-1,1,0,-1,0,0
1537917268498560,-1,0,-3,-2,-1,0,-1,-1
1537917268519504,-1,-2,-3,0,-1,-3,-2,-1
1537917268519504,-1,-1,-2,0,-1,-2,0,-1
1537917268520501,-1,0,-3,-3,-2,0,0,0
1537917268520501,-2,-1,-1,0,1,-1,0,-1
1537917268532469,-2,-1,2,2,1,0,0,1
1537917268532469,0,1,-1,-3,1,-1,-2,0
1537917268541446,-1,-2,2,1,-1,0,-1,-2
1537917268541446,-1,-1,-2,-2,0,-3,0,-2
1537917268556405,-1,-1,-2,-3,-5,-2,-1,-1
1537917268556405,0,-4,0,0,-3,0,0,1
1537917268558400,3,1,1,0,0,0,1,0
1537917268558400,-1,-1,0,1,2,-1,-1,0
1537917268579344,-1,-4,-3,-2,-1,0,0,0
1537917268579344,-4,0,-2,0,-2,-1,-2,0
1537917268580342,0,-1,-1,-2,0,-2,-1,-2
1537917268580342,-1,0,0,0,-3,1,-1,0
1537917268593307,-2,2,-1,-1,1,-1,0,1
1537917268593307,-2,-1,-1,0,0,1,0,0
1537917268602283,0,0,0,-1,-3,-1,-2,0
1537917268602283,2,-1,-1,-1,-2,-1,0,-1
1537917268616245,0,-1,2,2,1,1,0,-1
1537917268616245,1,-1,-3,-5,-3,-3,-1,-1
1537917268618240,-2,0,0,2,1,0,0,-1
1537917268618240,-1,-1,-3,-3,-1,-1,-3,-1
1537917268639184,0,1,2,0,-2,0,1,1
1537917268639184,-1,-2,-3,0,0,-2,1,-1
1537917268641183,-2,-2,-4,-4,-1,-2,0,1
1537917268641183,-2,0,-2,-3,-2,0,-2,-1
1537917268653147,-1,-2,0,-2,2,0,-2,-4
1537917268653147,-2,-1,0,3,-2,-1,-3,1
1537917268662123,-2,1,13,13,9,1,-1,-1
1537917268662123,1,-1,-3,-1,-12,-4,-2,-2
1537917268677083,1,-7,-21,-20,2,2,6,4
1537917268677083,1,0,1,6,-2,-2,-1,0
1537917268678080,-2,7,17,9,3,-3,-10,-8
1537917268678080,-5,13,29,11,16,8,-5,-7
1537917268699024,2,-15,-26,-7,-31,-8,10,10
1537917268699024,-5,-6,12,-10,26,-4,-13,-5
1537917268701019,-16,-20,-50,-13,-30,0,5,-5
1537917268701019,6,6,13,9,21,-5,-5,-4
1537917268712987,8,2,4,4,1,2,1,4
1537917268712987,7,34,31,6,-19,13,11,-2
1537917268721963,-11,-16,11,27,64,8,-10,-3
1537917268721963,18,11,20,39,23,19,48,29
1537917268736923,-24,-26,-24,-52,-36,-32,-49,-28
1537917268736923,19,-14,-46,-13,-80,14,17,29
1537917268737920,-2,1,48,-20,1,-79,-37,-22
1537917268737920,-9,28,-39,35,34,64,33,22
1537917268758864,22,91,109,99,37,4,3,-22
1537917268758864,-14,-55,-58,-27,95,5,-11,-8
1537917268760859,1,-2,-60,-51,-120,-20,-23,0
1537917268760859,1,-83,-91,-70,4,-15,12,25
1537917268772827,-16,5,-2,-11,95,39,-1,2
1537917268772827,-23,52,109,114,-117,-34,9,-6
1537917268781803,24,-35,-31,-82,127,21,20,-1
1537917268781803,-20,-28,-54,-89,-128,-76,-55,-17
1537917268796763,1,-16,-10,-40,-14,-19,-5,-6
1537917268796763,7,11,25,39,107,20,7,8
1537917268797760,12,41,71,98,99,30,21,4
1537917268797760,10,3,35,43,55,11,-13,4
1537917268819701,-1,-21,-26,3,27,16,11,16
1537917268819701,6,7,0,-11,-9,-11,-15,-1
1537917268820700,-6,10,-8,5,-65,-1,10,-4
1537917268820700,1,2,-12,-10,-11,0,-9,-9
1537917268832667,-2,-4,10,30,-36,-20,16,9
1537917268832667,12,-2,-13,17,50,57,8,-1
1537917268847627,-9,14,-10,-33,-24,-7,4,0
1537917268847627,-15,-15,3,0,-53,-15,-12,-23
1537917268856603,-4,-3,10,-33,-25,0,-1,10
1537917268856603,4,-17,-33,-24,11,-2,11,-1
1537917268858598,-2,-5,-6,17,30,22,0,2
1537917268858598,5,26,56,-16,-86,-19,-6,-15
1537917268879542,-15,-4,-44,-21,12,-18,6,10
1537917268879542,-13,-18,-31,-25,-59,-14,-10,-7
1537917268880539,12,13,-3,-7,-13,9,2,10
1537917268880539,10,19,22,6,75,10,-1,-7
1537917268892507,-32,-18,-46,45,22,16,-1,-7
1537917268892507,-21,-35,12,4,36,-5,-2,-3
1537917268901483,22,35,0,-23,-13,4,7,10
1537917268901483,-23,-9,11,23,1,6,-5,-17
1537917268916443,21,23,37,8,15,0,-4,-5
1537917268916443,-1,-16,-10,-13,44,-13,-2,-4
1537917268918438,-1,-5,4,55,-63,25,-1,-2
1537917268918438,8,14,8,-29,34,-20,10,12
1537917268939381,3,-20,-1,-14,-48,19,1,-9
1537917268939381,-3,0,-10,-25,26,-25,-7,-10
1537917268940379,-7,-10,0,-6,-80,-38,0,3
1537917268940379,0,6,-3,-9,15,1,10,8
1537917268953344,3,-5,-4,18,-9,9,-1,4
1537917268953344,14,22,21,-6,9,8,1,2
1537917268962320,-7,-7,3,43,41,9,-2,4
1537917268962320,1,-4,26,9,44,16,5,2
1537917268977280,-5,-11,-16,-33,-56,-23,-7,-3
1537917268977280,4,17,-15,-11,-17,12,-1,4
1537917268978278,-10,-33,-5,18,38,-4,-2,3
1537917268978278,17,19,-18,-14,8,12,3,10
1537917268999222,5,3,14,24,-44,-11,-7,-5
1537917268999222,0,0,-7,-76,9,-9,-12,-2
1537917269000219,-9,-5,-3,17,-53,-22,0,-2
1537917269000219,0,8,16,39,43,26,4,-8
1537917269013184,8,9,0,-34,-35,-23,-2,-7
1537917269013184,-15,-14,-14,10,21,-4,-7,-9
1537917269022160,-2,-1,3,-28,-31,16,6,0
1537917269022160,-9,-10,0,8,-16,-3,-6,-11
1537917269037121,5,10,15,28,32,12,0,-1
1537917269037121,3,27,14,44,3,8,1,-8
1537917269038119,-5,-18,-14,-27,65,1,0,5
1537917269038119,7,-12,-7,18,-43,-14,-4,-3
1537917269059062,-7,-15,-42,-32,17,15,4,2
1537917269059062,6,8,20,-8,-4,-10,-3,5
1537917269061057,-8,-10,-35,-26,-27,-8,-2,-13
1537917269061057,-6,-1,3,34,-14,-4,-3,-2
1537917269073024,1,-2,0,-52,0,-9,-12,3
1537917269073024,-5,-1,-6,6,-30,-2,2,-3
1537917269087984,3,-10,23,18,-8,2,1,8
1537917269087984,-1,15,-8,12,72,32,-3,-8
1537917269096960,-7,-5,9,-5,-43,-55,0,0
1537917269096960,-5,11,9,5,-28,0,1,0
1537917269097958,6,2,6,-28,-14,-1,-8,6
1537917269097958,1,-13,-30,26,27,3,-2,-2
1537917269117904,3,30,9,14,67,24,0,-7
1537917269117904,-6,-36,5,3,-26,-6,1,-2
1537917269126880,-1,8,2,-1,-4,4,1,-11
1537917269126880,-8,3,7,-31,-4,-10,-5,-4
1537917269132864,-3,-8,-2,21,-28,0,-5,-1
1537917269132864,3,15,-5,16,24,-1,2,5
1537917269147824,-7,-11,1,-14,42,8,-4,-6
1537917269147824,-2,-10,-21,-26,-85,-22,0,5
1537917269156800,2,-6,2,11,48,7,-2,-2
1537917269156800,-3,0,-8,-60,-86,-9,-4,-3
1537917269157798,3,13,-7,19,-5,-9,-3,-1
1537917269157798,-14,-17,17,-5,5,-1,3,-4
1537917269178742,3,3,9,36,45,17,7,-2
1537917269178742,19,14,21,15,8,0,-2,13
1537917269180736,-1,25,6,9,25,7,2,-1
1537917269180736,-1,-32,-34,-26,-24,-12,-5,6
1537917269201680,-13,-12,15,23,7,11,6,-1
1537917269201680,-5,-2,-10,23,32,1,-3,-6
1537917269202678,5,0,-1,-38,19,2,-2,-7
1537917269202678,-1,13,-1,3,-79,-23,-9,-8
1537917269216640,5,-2,1,-32,34,3,-1,3
1537917269216640,-1,-4,-15,-18,-66,-11,-1,-3
1537917269218635,-6,-4,-2,12,-3,-4,-4,0
1537917269218635,8,5,8,9,30,10,4,9
1537917269238582,-4,-1,1,-3,-8,2,0,-7
1537917269238582,0,-5,-2,27,23,5,3,-2
1537917269245563,-2,6,8,19,15,6,2,-3
1537917269245563,3,-1,0,-6,25,1,1,2
1537917269252545,2,3,3,-8,-35,-4,0,-1
1537917269252545,-5,-7,3,-12,22,1,-5,-3
1537917269261520,2,-1,-21,-8,-17,-5,0,3
1537917269261520,-5,-11,-19,-7,-1,-1,1,-4
1537917269284459,-4,2,3,25,16,4,4,1
1537917269284459,-2,-8,-11,-14,16,-3,-4,-3
1537917269285457,-6,-7,10,-6,-44,-2,-1,2
1537917269285457,4,24,18,22,20,3,3,0
1537917269299419,4,-2,-10,-32,-14,0,-3,-1
1537917269299419,-4,-4,-4,-8,-17,-6,-3,-5
1537917269300417,0,5,5,1,2,-1,-1,-4
1537917269300417,0,0,2,7,11,0,-2,-2
1537917269312385,3,-5,5,9,3,0,-1,2
1537917269312385,-2,2,5,5,8,5,2,2
1537917269321361,1,-8,-5,11,12,1,-1,-1
1537917269321361,-8,-5,-3,-16,-4,-4,-1,-3
1537917269336321,2,2,1,5,-6,-2,-3,-1
1537917269336321,0,-5,-2,-5,-6,-2,0,-1
1537917269338315,0,2,-5,-3,-3,0,0,2
1537917269338315,1,5,12,-1,11,1,-1,0
1537917269359259,0,-10,-1,2,-5,-5,-4,0
1537917269359259,-1,3,-5,6,-1,1,2,-1
1537917269360257,-2,-4,-1,-1,6,0,0,-1
1537917269360257,-1,0,2,-6,-5,-3,-2,-3
1537917269382198,-2,0,-5,-3,-8,-2,0,1
1537917269382198,0,0,1,3,1,1,0,0
1537917269383195,-1,-4,-1,-1,3,-3,0,0
1537917269383195,-2,-2,0,-3,-3,-2,-1,-2
1537917269397158,0,0,-2,2,0,1,1,3
1537917269397158,0,-2,-1,-2,4,1,-1,-1
1537917269398155,1,1,-2,-2,-2,2,-1,0
1537917269398155,2,-1,1,-2,-1,0,-3,-1
1537917269419099,0,0,-4,-3,-3,-2,1,-1
1537917269419099,1,1,-2,-2,-1,-2,-1,-1
1537917269421094,1,-1,3,3,2,1,-1,1
1537917269421094,-4,-1,2,1,3,1,0,-3
1537917269442039,-2,-1,-3,0,4,0,0,-1
1537917269442039,-2,-1,-2,-3,-7,-2,0,-1
1537917269443036,-1,1,2,1,-3,-2,-1,0
1537917269443036,0,-3,-1,-2,0,1,-1,0
1537917269456001,0,1,-3,-2,-2,-2,0,-1
1537917269456001,-1,-2,0,0,0,-1,0,-1
1537917269462982,-2,-3,-1,0,-1,-1,-1,-3
1537917269462982,-1,-2,2,0,-2,-2,-1,0
1537917269478939,1,0,0,3,2,0,-2,-2
1537917269478939,2,-1,-3,-7,-6,-2,-3,-1
1537917269480934,-1,0,-1,-2,-2,-2,0,0
1537917269480934,-2,-1,-2,-1,2,-1,-1,-1
1537917269501878,0,0,-1,-1,-4,-3,-1,-1
1537917269501878,-2,-1,-2,0,1,-1,0,0
1537917269502875,0,0,2,0,0,2,-3,-2
1537917269502875,1,-3,1,-3,0,0,0,0
1537917269515841,-1,-2,0,-2,0,0,-1,-2
1537917269515841,0,-1,-3,0,-1,0,-2,-1
1537917269522822,-1,-1,-3,-2,-7,-2,0,1
1537917269522822,0,-1,1,2,-1,-2,0,0
1537917269538779,-2,0,-1,-1,0,0,-2,1
1537917269538779,0,-1,0,-1,1,1,-2,-1
1537917269540774,-1,0,-2,1,3,-1,-2,-1
1537917269540774,0,-1,-2,-2,-2,-2,-2,-1
1537917269561718,-1,0,1,0,0,0,1,0
1537917269561718,0,-1,1,1,0,0,-1,-2
1537917269562715,-3,-1,0,1,1,0,-1,-2
1537917269562715,0,1,-1,-1,-3,-2,-1,-2
1537917269575681,-1,-1,-2,0,-4,-2,-2,-1
1537917269575681,-3,0,-1,-2,12,0,0,0
1537917269584657,1,-1,-1,-1,-17,2,-1,0
1537917269584657,-2,-1,-3,-7,-3,-3,-1,-1
1537917269599617,-1,-1,-1,1,2,0,-1,-1
1537917269599617,0,0,0,1,1,-2,-1,2
1537917269600614,-3,-2,-1,-3,7,1,1,0
1537917269600614,2,0,-1,-2,-4,0,-1,-3
1537917269621558,2,-1,-2,-4,-4,0,0,0
1537917269621558,-4,-2,-3,-2,-8,-5,1,-3
1537917269623553,1,-1,-1,0,7,-1,1,-1
1537917269623553,-3,0,0,1,1,1,-2,-1
1537917269635521,0,0,0,-1,2,-1,0,-1
1537917269635521,0,-1,-1,-1,-4,-1,-1,-1
1537917269644497,-2,-2,-1,1,-3,-3,0,-1
1537917269644497,0,-1,1,0,5,-1,0,-1
1537917269659457,-3,-2,0,5,1,2,0,0
1537917269659457,0,-1,-3,-4,-2,-1,-2,-1
1537917269660454,0,-1,0,-2,-7,-1,-1,1
1537917269660454,-1,-2,1,0,3,0,0,-1
1537917269681398,-1,0,-2,-2,-2,-1,-1,-2
1537917269681398,0,0,-2,3,4,0,0,-2
1537917269683393,-1,0,-1,-8,-7,-3,-1,-1
1537917269683393,0,-1,1,1,1,0,-2,0
1537917269704337,-2,-1,-1,2,1,-1,-1,-2
1537917269704337,0,-1,-1,-2,0,0,0,-1
1537917269705334,0,0,0,3,0,-1,-1,0
1537917269705334,-1,0,-2,-1,-6,-4,-2,0
1537917269719297,0,-1,-2,-5,0,0,-1,0
1537917269719297,-1,-1,0,3,5,-1,-1,-1
1537917269720294,-1,-1,-1,-4,-6,-3,1,-1
1537917269720294,0,1,0,3,2,1,1,0
1537917269741238,-1,-1,0,0,0,-1,0,0
1537917269741238,-1,1,0,-2,-5,-1,-1,1
1537917269743233,-1,0,-1,1,4,-1,-1,-1
1537917269743233,-1,-2,-1,0,-1,1,0,0
1537917269755201,-3,-2,0,-2,-1,-2,0,-2
1537917269755201,2,0,2,4,-1,1,-1,-1
1537917269764177,0,1,1,3,5,1,0,-1
1537917269764177,-2,-3,-2,-3,0,-1,-1,0
1537917269779137,3,-3,-3,-4,3,-3,-3,-2
1537917269779137,-1,-1,-4,-12,-24,-5,1,-1
1537917269781132,-3,-2,0,2,7,2,-1,0
1537917269781132,0,1,2,9,10,3,2,-1
1537917269802075,-3,-1,3,8,-4,2,0,1
1537917269802075,-1,15,43,0,22,-1,-4,-1
1537917269803073,-1,-20,-51,-13,-9,-9,-3,-3
1537917269803073,3,-3,-11,-12,-30,-1,-7,-2
1537917269824017,-6,-5,-2,-14,-15,19,5,-4
1537917269824017,9,7,12,62,37,27,15,15
1537917269826012,-3,22,25,24,116,57,0,-5
1537917269826012,-9,-21,-15,-60,-53,-85,-6,-2
1537917269838977,-3,-16,-29,-51,-63,-32,-16,-8
1537917269838977,-5,-8,-14,30,20,-7,-2,-6
1537917269840972,13,13,18,35,53,78,9,11
1537917269840972,-5,9,-17,-22,-17,-38,-5,-17
1537917269861916,-6,-14,-2,-55,-55,-4,-12,-8
1537917269861916,-10,24,-19,-78,-109,-80,2,-6
1537917269862913,6,11,63,43,-1,21,-18,11
1537917269862913,12,26,-12,91,102,107,21,8
1537917269874881,4,-3,9,68,106,43,29,-4
1537917269874881,1,-10,-5,29,79,9,-6,2
1537917269883857,-15,-17,-35,-106,-96,-85,-13,-26
1537917269883857,7,5,18,-43,-128,-97,-1,6
1537917269898817,-2,5,13,-15,11,39,6,13
1537917269898817,0,7,6,41,12,25,3,-2
1537917269900812,9,5,-6,0,29,-13,-6,5
1537917269900812,-11,-17,12,2,13,32,3,-8
1537917269921756,1,-6,-7,14,-9,1,-5,1
1537917269921756,-2,20,23,4,-4,-13,-3,-4
1537917269922753,-15,-52,-33,2,-24,-31,2,0
1537917269922753,-3,-6,20,47,93,55,4,1
1537917269935718,-1,26,17,72,32,-47,-5,5
1537917269935718,5,-5,-8,-92,11,47,-10,-12
1537917269944695,-3,0,-39,-21,-108,-27,6,-1
1537917269944695,-12,-7,-3,14,55,25,-7,11
1537917269959655,5,-20,-7,-47,18,4,-3,-2
1537917269959655,-8,3,6,13,-87,-29,-3,-12
1537917269960652,9,-7,18,30,23,11,3,-2
1537917269960652,-9,-14,10,57,80,102,8,8
1537917269981596,8,19,6,-52,-75,-86,-11,-6
1537917269981596,9,-14,-30,18,54,-34,0,13
1537917269983590,3,13,-4,-57,-48,51,5,-7
1537917269983590,8,15,6,-22,-27,-22,-4,0
1537917269995559,-1,-3,-2,38,2,18,-4,11
1537917269995559,12,-8,-11,-31,17,15,-6,12
1537917270004535,-3,-7,23,61,0,-36,4,15
1537917270004535,-7,1,-4,30,96,-11,0,-9
1537917270019494,7,18,-15,-15,-33,-24,9,-6
1537917270019494,-7,-10,7,-60,-50,21,-7,-7
1537917270020492,-13,7,-17,-23,-45,-24,-4,8
1537917270020492,6,-13,-21,-20,-35,-10,-5,-8
1537917270041436,-2,5,22,70,62,9,8,3
1537917270041436,5,-6,5,73,109,33,6,9
1537917270043430,-18,9,-7,-77,-29,-8,-4,-31
1537917270043430,8,10,5,-32,-50,-26,0,13
1537917270055398,-10,-19,-8,0,18,6,-2,-2
1537917270055398,-4,1,7,30,7,8,0,-18
1537917270064374,8,10,6,23,45,4,2,1
1537917270064374,-1,-4,-8,-25,-37,-6,-2,-2
1537917270079334,-1,-12,4,10,9,-3,1,2
1537917270079334,-6,14,-10,-18,-27,-3,-2,-1
1537917270080332,-3,-4,0,8,27,-6,-1,-5
1537917270080332,4,-4,6,1,-30,-16,0,14
1537917270101276,7,8,5,9,19,44,1,5
1537917270101276,-5,-18,-19,-15,-16,-6,0,3
1537917270103270,5,-4,5,11,30,2,-2,0
1537917270103270,-1,4,-5,-36,-38,-15,-3,-7
1537917270115238,-4,1,-6,-11,-35,0,-3,-5
1537917270115238,0,-9,0,-8,11,2,2,5
1537917270124215,3,1,8,24,-2,0,2,2
1537917270124215,-1,1,-2,2,13,-1,-3,-7
1537917270138178,-5,1,-6,-5,4,-2,-4,-5
1537917270138178,-2,-8,-4,-7,-36,-11,-2,5
1537917270145159,0,0,6,18,21,2,1,3
1537917270145159,-1,1,1,5,4,2,0,-7
1537917270162115,2,-2,-3,-19,7,0,-4,2
1537917270162115,-4,-5,-4,1,-26,-7,-1,-4
1537917270163112,0,1,1,-4,11,4,1,-2
1537917270163112,1,-2,-1,1,-12,-6,-3,-1
1537917270175081,0,2,0,-7,-4,-10,-2,-1
1537917270175081,-1,-4,1,3,10,4,-1,-3
1537917270184055,1,-3,-1,-1,1,-3,3,2
1537917270184055,-2,0,1,0,-8,-9,-1,-4
1537917270199016,-3,0,-1,2,5,4,-2,-2
1537917270199016,-4,-5,-2,-5,-9,-4,0,-1
1537917270201011,1,-3,0,0,-10,-5,-4,1
1537917270201011,-1,1,-1,-4,-3,-3,-4,-3
1537917270221955,-2,-1,-3,-9,0,2,0,-4
1537917270221955,-2,-2,-2,4,-5,-2,-6,1
1537917270222952,1,1,-1,2,3,1,13,11
1537917270222952,-1,-2,-1,-1,4,-1,-11,-6
1537917270235917,-3,1,-1,0,0,2,-9,-21
1537917270235917,2,0,1,2,-5,-2,23,37
1537917270243896,4,0,-1,0,4,-1,-15,-4
1537917270243896,-7,-3,-2,-1,0,-1,-10,-44
1537917270259854,1,-1,-5,-5,-10,-2,-11,25
1537917270259854,-8,-3,-3,-1,-3,-1,16,-32
1537917270260852,-3,-2,-5,-7,-4,-8,-17,21
1537917270260852,11,3,5,7,6,10,6,40
1537917270281793,-4,-4,-4,-8,-9,-4,8,-12
1537917270281793,-7,-3,-2,-2,-2,-7,-43,-39
1537917270282791,-1,-5,1,3,3,3,42,66
1537917270282791,17,21,3,3,-1,-2,-13,-35
1537917270303735,-9,-3,-3,-5,-2,-2,-1,-39
1537917270303735,-14,-25,-2,2,3,5,-3,15
1537917270305730,21,11,-1,1,-2,-2,-21,8
1537917270305730,1,24,6,-5,-4,-3,23,34
1537917270317697,-3,11,-3,1,3,1,-6,7
1537917270317697,-6,-11,-3,-5,-3,-1,-2,-9
1537917270326674,-13,-10,-1,-1,-1,0,19,-22
1537917270326674,2,-15,-6,-3,-5,-1,28,13
1537917270341634,14,17,7,6,5,3,-7,-21
1537917270341634,4,21,1,0,-2,-3,-51,21
1537917270343628,-4,-25,0,0,2,1,24,-6
1537917270343628,4,-3,-4,-6,-7,-5,-35,-3
1537917270364572,-10,-11,-1,-1,0,1,-19,-17
1537917270364572,10,0,0,1,0,1,25,60
1537917270365571,4,12,2,2,-1,-2,-10,-80
1537917270365571,1,-3,-3,-1,1,0,22,82
1537917270378536,-12,-8,-1,0,1,0,-1,-21
1537917270378536,28,11,3,1,6,7,50,-6
1537917270385517,-10,3,-2,0,2,-1,-25,-4
1537917270385517,-7,-12,0,0,-1,5,2,-15
1537917270401474,7,-6,-3,-5,-4,2,20,26
1537917270401474,7,0,0,-2,-3,-4,-7,20
1537917270403469,-11,-3,-2,-3,0,-1,-3,-6
1537917270403469,-7,-7,-2,6,25,15,-7,-50
1537917270424413,8,2,1,2,-11,-21,-21,94
1537917270424413,-14,-4,-5,-8,-17,-4,-3,-34
1537917270425410,3,2,-3,-6,-8,-9,-9,10
1537917270425410,-1,-2,1,1,5,16,-9,-29
1537917270438375,0,-1,-1,4,19,-4,-4,5
1537917270438375,-7,-4,-2,-3,-9,-24,-26,-40
1537917270445357,5,0,0,2,12,44,54,5
1537917270445357,-4,-4,-4,-13,-43,-36,-11,-4
1537917270461315,-3,-6,-2,-3,0,-1,-3,-22
1537917270461315,0,1,-1,2,2,2,-28,-17
1537917270463309,1,1,-1,-1,8,-20,-1,-12
1537917270463309,-9,-2,0,3,13,6,6,-14
1537917270484252,4,-1,3,3,4,43,36,2
1537917270484252,-3,0,-3,-3,-14,-27,-9,-7
1537917270485250,-5,-1,2,3,6,-8,-34,-9
1537917270485250,-3,-3,-5,-8,-23,-15,9,7
1537917270498215,-2,-3,0,-3,-8,-16,-5,-9
1537917270498215,1,1,1,2,15,20,11,8
1537917270514173,0,-1,1,2,-1,5,0,12
1537917270514173,-4,-4,-2,-1,3,-9,-10,-70
1537917270522151,7,3,-2,-2,-8,-5,14,59
1537917270522151,-4,-1,1,0,3,11,1,-10
1537917270523149,1,-2,-2,0,-6,-13,-36,-13
1537917270523149,-6,-2,1,6,7,5,-6,4
1537917270544093,-3,-2,-3,-3,-6,-3,10,-13
1537917270544093,-1,-1,-2,-3,1,0,2,21
1537917270546088,1,1,0,-1,-7,-8,-8,5
1537917270546088,1,-1,1,1,4,4,4,8
1537917270558055,-3,-1,-2,-2,-1,0,-1,-13
1537917270558055,1,-1,-1,0,-3,-5,11,9
1537917270567032,-1,1,0,1,8,18,7,-12
1537917270567032,-1,-3,2,4,16,7,-6,12
1537917270581991,1,0,-4,-8,-22,-26,2,-5
1537917270581991,-3,-1,-1,-4,-12,9,4,-11
1537917270582989,1,0,0,1,-6,-3,-1,-1
1537917270582989,-3,-1,-5,-6,-1,-2,3,12
1537917270603933,5,1,4,9,14,0,-17,-7
1537917270603933,1,-1,-3,-5,-5,-6,4,-3
1537917270605928,-1,0,2,2,-2,-2,8,4
1537917270605928,-2,-2,-4,-6,-9,-3,-5,1
1537917270617896,-5,-2,-1,0,2,7,-1,-12
1537917270617896,-8,-1,-2,1,1,-1,5,3
1537917270626872,9,-1,-3,-4,-6,-7,-16,7
1537917270626872,1,1,1,3,3,0,-16,0
1537917270641832,-3,-1,0,4,2,1,-1,1
1537917270641832,-5,-3,-2,-4,8,14,5,-7
1537917270642829,-6,1,0,1,-5,-26,-9,-12
1537917270642829,1,-2,-3,-11,-28,8,21,14
1537917270663773,-3,-2,-1,0,1,3,-1,-10
1537917270663773,2,0,2,6,10,2,-3,-5
1537917270665767,0,1,-1,0,-1,-4,9,7
1537917270665767,0,-3,-4,-5,-1,10,-13,-1
1537917270677735,-3,-1,0,-1,-6,-16,-6,-9
1537917270677735,2,-1,-1,1,5,7,14,3
1537917270686712,-2,-2,1,6,15,15,-2,4
1537917270686712,-3,0,-1,-1,-5,-8,-1,0
1537917270701671,-4,-1,0,-1,-6,-26,-6,-11
1537917270701671,5,0,0,4,16,44,-4,10
1537917270702668,-2,-1,-2,-2,-12,-7,5,-8
1537917270702668,0,-3,-2,2,19,4,-4,-7
1537917270724610,-1,0,2,5,31,23,6,-1
1537917270724610,1,-1,-2,-8,-50,-44,-6,2
1537917270725607,0,-1,-1,-8,-17,-16,3,4
1537917270725607,-2,2,12,39,98,58,16,-1
1537917270737575,13,1,-4,-21,-91,-21,3,16
1537917270737575,-12,-5,-6,-5,82,11,-1,-27
1537917270754529,3,1,-2,-17,-107,-95,-17,3
1537917270754529,1,-2,-6,-33,-94,44,3,11
1537917270761511,-6,-1,8,45,112,127,-9,-14
1537917270761511,11,5,10,10,-71,-71,13,15
1537917270763505,-17,-7,-5,4,125,14,-3,-31
1537917270763505,20,3,0,5,-62,-128,-5,37
1537917270784450,-14,-10,-15,-32,35,100,18,-11
1537917270784450,9,8,8,9,-70,-36,-7,15
1537917270785447,-15,-11,-20,-48,-11,127,-15,-33
1537917270785447,0,3,9,16,30,-77,-16,-8
1537917270797415,-7,-9,-10,-29,-59,-90,-20,-17
1537917270797415,13,11,22,61,127,-91,13,21
1537917270806393,-11,-11,-18,-52,-106,15,-7,-14
1537917270806393,-1,-2,2,16,100,127,5,-10
1537917270821352,9,13,19,42,25,-94,18,9
1537917270821352,-24,-18,-20,-50,-38,-34,-39,-26
1537917270823347,11,12,19,43,99,-4,31,22
1537917270823347,4,-11,-27,-67,-128,-78,-5,7
1537917270844290,0,0,8,24,51,21,-3,6
1537917270844290,11,9,14,54,58,10,27,8
1537917270845287,-3,-6,-13,-34,-72,127,-6,3
1537917270845287,-9,0,6,28,66,-13,1,-11
1537917270858252,-4,-1,-5,-13,-23,11,-5,-2
1537917270858252,-12,-4,-6,-12,-13,1,9,-6
1537917270867228,11,3,4,13,4,-30,1,18
1537917270867228,-4,3,12,40,121,52,6,-5
1537917270882189,-2,-4,-13,-33,-77,111,-10,-1
1537917270882189,1,-2,-7,-19,30,-17,-4,-1
1537917270883186,-3,-1,5,11,-13,54,-2,3
1537917270883186,-3,0,-5,-23,-72,-22,1,-5
1537917270904130,3,0,0,0,3,-46,6,1
1537917270904130,-2,-1,4,14,83,10,-9,-7
1537917270906124,-1,0,5,18,64,34,2,0
1537917270906124,0,-7,-17,-51,-54,34,-10,0
1537917270918092,-3,-3,-5,-12,-4,81,4,-2
1537917270918092,0,-3,-3,-5,23,-46,-3,2
1537917270927068,2,2,5,14,-25,99,10,6
1537917270927068,-5,0,5,13,17,-19,8,-4
1537917270942028,0,2,1,13,16,-75,-3,1
1537917270942028,-4,-7,-9,-26,-60,57,-8,-9
1537917270943026,3,5,11,32,93,-43,8,4
1537917270943026,-4,-2,-8,-10,-34,-72,-4,-2
1537917270965964,-3,0,-6,-13,15,-91,-5,-4
1537917270965964,1,-3,-5,-10,-27,95,-3,-1
1537917270966961,0,1,-1,-2,-24,4,6,3
1537917270966961,1,3,3,10,-29,-44,10,3
1537917270977932,3,0,2,-9,-20,24,-4,4
1537917270977932,7,7,9,32,25,-5,16,9
1537917270986908,-1,-1,-1,7,24,13,4,3
1537917270986908,-1,-4,-8,-15,-9,36,-16,-4
1537917271001868,1,0,1,4,4,-24,13,4
1537917271001868,-3,-2,-2,-4,7,61,-3,-2
1537917271002866,6,1,0,-3,-5,-49,3,12
1537917271002866,-2,1,6,21,61,-14,5,0
1537917271023810,-2,-1,4,11,28,33,-7,-6
1537917271023810,-3,-3,-9,-24,-56,-34,-3,-2
1537917271025804,-1,0,2,9,37,-22,-9,-5
1537917271025804,-4,-1,-1,-8,-23,43,-2,-6
1537917271037772,-1,-1,3,11,40,13,-7,2
1537917271037772,-6,-6,-10,-35,-110,17,-5,-6
1537917271046748,1,-1,-4,-7,-8,-53,-4,-3
1537917271046748,-1,2,5,9,16,-6,3,-7
1537917271061708,2,-1,-3,-2,-6,14,0,1
1537917271061708,-1,1,3,8,37,-18,0,-2
1537917271062706,-1,-2,-4,-7,-22,-66,-3,0
1537917271062706,-4,-3,-1,-4,-18,28,-1,-3
1537917271091629,-2,0,-1,3,3,-25,0,0
1537917271091629,-5,-2,1,-2,2,37,1,-5
1537917271093623,2,-2,-2,-4,-9,-22,-6,2
1537917271093623,-2,0,0,3,13,-8,-2,-2
1537917271097612,-2,-1,-1,-6,-12,-6,1,0
1537917271097612,-1,0,0,1,5,6,0,-2
1537917271106589,-4,-2,-3,-5,-16,-19,-2,-5
1537917271106589,1,-2,1,4,15,6,-2,0
1537917271120551,2,-1,-2,-4,-11,-5,-1,-4
1537917271120551,0,-1,-1,-2,-1,10,0,0
1537917271127532,-4,-1,-2,-1,3,-24,-4,-2
1537917271127532,0,-1,0,-1,3,13,3,2
1537917271144487,1,1,0,-2,-9,-5,-4,-2
1537917271144487,-1,-3,-2,-1,1,-5,-5,2
1537917271145484,1,0,0,1,0,-5,2,-5
1537917271145484,-2,1,-1,2,3,-1,-7,-4
1537917271157452,-2,0,-3,-6,-12,-6,17,19
1537917271157452,1,-4,-3,-3,4,1,-11,-19
1537917271166428,-9,-5,-2,-2,-5,-11,-35,-26
1537917271166428,8,3,3,4,8,9,35,22
1537917271181388,-7,-3,-2,3,2,-8,-21,-7
1537917271181388,-3,4,-1,0,0,9,30,21
1537917271187372,18,-3,-2,-5,-6,-6,-5,-4
1537917271187372,6,17,-2,-6,-3,-4,-21,-28
1537917271204327,12,-31,2,-1,-3,-1,-8,12
1537917271204327,-10,15,-5,1,4,5,19,-24
1537917271205324,-4,15,5,3,1,4,49,39
1537917271205324,-7,-19,-4,-1,0,-1,16,-11
1537917271227266,18,17,2,1,-2,0,35,49
1537917271227266,-9,11,0,-3,-6,-9,-47,-51
1537917271228263,-25,-33,-5,-4,-5,-11,-25,15
1537917271228263,20,8,6,6,6,10,12,-27
1537917271241229,-10,-7,-8,-6,-11,-7,17,-11
1537917271241229,6,-7,0,1,-1,-2,-2,96
1537917271249207,-6,10,-1,5,2,-3,-5,-58
1537917271249207,-1,-5,4,-2,-4,1,33,37
1537917271264168,-11,6,1,0,-2,-5,-94,-110
1537917271264168,8,-2,1,1,1,-1,54,62
1537917271265165,-10,-2,-3,-4,-1,-1,26,-1
1537917271265165,-19,-12,-5,1,0,-4,-25,8
1537917271287106,0,6,1,2,3,-1,-2,-39
1537917271287106,9,-3,-1,-7,-6,-3,7,-6
1537917271288103,-1,-5,0,0,0,2,20,18
1537917271288103,-1,1,1,1,1,-6,-5,1
1537917271301069,-2,6,0,0,-2,5,13,12
1537917271301069,-9,-8,0,1,3,4,-57,-35
1537917271308050,11,2,3,2,1,-3,-18,15
1537917271308050,-4,4,-1,0,1,-1,29,12
1537917271324007,-1,1,1,2,5,13,24,29
1537917271324007,1,-9,-3,-5,-8,-19,-8,-6
1537917271326002,4,4,0,-3,-7,-4,14,3
1537917271326002,-5,-1,-3,-2,-6,-9,-22,-28
1537917271346946,-6,-4,0,3,4,15,-6,21
1537917271346946,-4,-2,1,5,10,21,14,-73
1537917271347944,6,3,-2,-2,-1,-10,-70,-12
1537917271347944,-7,-4,-6,-9,-10,-7,-1,-18
1537917271360908,9,-1,-3,-3,-2,-11,-13,6
1537917271360908,-1,1,3,3,12,3,-3,-2
1537917271367890,1,1,1,4,8,15,8,18
1537917271367890,7,-2,-1,-1,-18,-19,-18,3
1537917271383848,-8,0,-4,-6,-5,-7,-12,-13
1537917271383848,2,0,-1,-3,-4,-4,9,15
1537917271385843,5,-1,0,2,7,0,-3,-9
1537917271385843,-2,2,1,2,14,11,-1,18
1537917271406786,0,1,2,0,-4,-3,22,12
1537917271406786,5,-3,0,-1,-2,19,-2,11
1537917271407784,-3,-3,-2,-1,0,0,14,2
1537917271407784,-17,-2,-3,-6,-2,5,-11,10
1537917271420749,10,0,1,3,0,-12,1,2
1537917271420749,-1,-3,-1,-2,-1,-4,-6,-10
1537917271427731,-1,0,0,-2,-10,-6,-7,-13
1537917271427731,-4,-2,-1,-2,1,4,-13,-20
1537917271444685,-5,-2,0,0,0,-2,4,3
1537917271444685,-3,-1,1,-1,2,2,8,12
1537917271445683,-2,-2,-3,0,-2,3,25,-7
1537917271445683,8,1,2,2,5,2,-9,25
1537917271466627,0,-1,-2,-1,-1,-3,14,46
1537917271466627,1,-1,-3,-4,-9,-10,4,-9
1537917271468621,-2,0,0,-1,-1,-3,2,6
1537917271468621,1,0,1,0,-1,4,-5,-1
1537917271480589,-2,-1,2,1,1,4,-2,-8
1537917271480589,-3,-1,-3,-3,-3,-8,-19,-6
1537917271490563,1,-1,-3,-2,-2,0,23,12
1537917271490563,-2,-1,-1,-1,4,-15,-10,-32
1537917271503528,-1,0,-1,-2,6,38,8,2
1537917271503528,-2,-2,-1,0,-17,-17,-3,-2
1537917271504525,1,0,1,0,2,-3,-6,-6
1537917271504525,2,-2,-3,-3,-3,0,5,3
1537917271526466,-3,-3,-3,-4,-3,-13,-2,-11
1537917271526466,-1,2,-1,0,1,6,-2,10
1537917271526466,0,-1,-1,0,-3,5,-22,-6
1537917271526466,-1,0,-1,-2,-1,1,1,1
1537917271549405,-3,-1,-1,1,2,-7,1,-13
1537917271549405,0,-2,-1,0,1,6,-7,1
1537917271549405,1,-2,-1,-3,-1,-8,23,-11
1537917271549405,4,1,-2,0,0,9,3,0
1537917271563368,-2,1,0,0,4,2,-11,9
1537917271563368,-1,-1,-2,-1,0,-3,-6,-9
1537917271564365,-1,-2,1,-1,-3,-8,-7,-6
1537917271564365,-2,-2,0,-4,-6,1,-2,6
1537917271586306,-2,0,-1,-3,-6,-5,2,-6
1537917271586306,0,0,0,0,3,3,5,3
1537917271586306,-1,0,-1,-1,0,0,-6,7
1537917271586306,-3,-3,0,1,1,3,-1,-6
1537917271609245,-1,0,-1,-1,-1,-6,2,-4
1537917271609245,-2,-1,-1,-2,-7,-20,-1,-2
1537917271610243,-1,-3,-3,-3,-1,12,-2,-2
1537917271610243,1,0,1,4,6,20,0,8
1537917271623208,-1,-2,-1,-4,-5,-8,-4,-9
1537917271623208,0,0,1,3,1,0,8,6
1537917271624207,-1,0,0,0,-4,-19,-36,-5
1537917271624207,-2,-2,-1,-3,-6,-7,-10,-16
1537917271646147,3,0,1,5,7,15,71,11
1537917271646147,0,-1,-2,1,15,29,3,-5
1537917271647144,-1,0,1,0,-5,-19,-11,0
1537917271647144,-2,-2,-3,-7,-11,2,-10,-4
1537917271660109,-1,-1,-2,-2,-5,-19,-17,-3
1537917271660109,0,0,-1,-1,0,-3,3,-5
1537917271668088,7,3,0,0,12,20,11,8
1537917271668088,1,1,4,7,23,-35,-4,0
1537917271683048,-3,-3,-1,-1,-31,12,-5,-7
1537917271683048,-20,-4,0,5,30,16,-10,-7
1537917271684045,31,3,3,4,-14,46,20,9
1537917271684045,-14,1,1,8,29,-69,13,7
1537917271705986,23,7,-5,-31,-90,-58,-20,-4
1537917271705986,-14,-4,0,12,70,-13,-44,-6
1537917271706983,22,-8,-4,-5,-18,58,18,-6
1537917271706983,9,4,-9,-21,-54,34,40,7
1537917271719949,-26,5,2,30,81,-35,9,19
1537917271719949,53,-5,-13,-24,-79,90,22,45
1537917271728925,-43,-49,-37,-5,101,-97,-57,-2
1537917271728925,-7,53,59,27,-41,127,41,1
1537917271743885,-28,-37,-7,-30,-50,-48,-13,-29
1537917271743885,-27,34,-18,5,83,-35,-11,-14
1537917271743885,-32,-80,20,12,0,-56,5,1
1537917271743885,24,-30,-22,29,119,-10,-25,11
1537917271765826,-76,-47,-56,-84,-66,90,-12,-59
1537917271765826,113,86,110,50,86,7,-30,-9
1537917271766823,-1,31,42,-19,-101,-41,38,38
1537917271766823,-97,-66,-72,-21,-4,-108,-53,-89
1537917271781784,120,122,102,57,65,31,4,48
1537917271781784,-21,-48,2,-12,-70,-19,-2,-6
1537917271788765,-16,-42,-34,4,71,43,-18,-17
1537917271788765,26,-18,-9,24,18,44,28,24
1537917271803725,-13,-51,-54,-9,-22,-50,-19,12
1537917271803725,-25,-24,-30,-14,-37,-34,13,-12
1537917271804723,10,26,15,15,-22,0,22,24
1537917271804723,-12,-29,-21,-27,-22,9,-31,-31
1537917271825667,-2,12,-16,3,29,-10,3,-5
1537917271825667,-4,-13,15,5,-7,-3,14,21
1537917271826665,-14,26,-12,-10,-17,16,-7,-16
1537917271826665,29,25,5,-21,-36,-16,-4,17
1537917271840627,-5,-7,16,17,42,20,-10,14
1537917271840627,-18,-18,-11,-7,-24,-17,9,-5
1537917271848606,3,9,-15,-4,6,0,-5,-3
1537917271848606,16,15,14,2,22,3,-4,16
1537917271863565,8,2,18,23,7,21,1,-14
1537917271863565,-19,-19,-29,-13,-1,-18,17,-1
1537917271864563,10,20,-2,-14,-49,-34,-2,-20
1537917271864563,9,6,18,-1,-9,-7,-4,9
1537917271886504,-16,-17,-9,7,20,-20,-6,-12
1537917271886504,-10,-4,-14,-7,-29,25,24,-1
1537917271886504,4,9,8,5,43,21,-13,6
1537917271886504,3,-4,2,-10,-21,-16,7,24
1537917271900468,-24,-7,-8,4,14,-6,-32,-39
1537917271900468,3,0,-3,4,6,10,11,0
1537917271908446,11,11,9,7,4,4,9,-3
1537917271908446,-11,-13,0,2,0,-2,-22,-21
1537917271924403,1,14,1,1,0,3,22,17
1537917271924403,-10,-5,-2,-1,1,-9,-15,-4
1537917271924403,5,-1,-8,-3,-9,18,-7,-9
1537917271924403,-2,2,0,-4,-9,-16,-2,-2
1537917271946344,11,-4,4,4,7,21,19,18
1537917271946344,-7,-6,-5,-4,-11,-12,-9,-6
1537917271946344,-2,1,-5,-3,1,-1,-5,5
1537917271946344,0,4,5,1,3,-2,-11,-18
1537917271960307,13,-2,1,0,-1,8,43,29
1537917271960307,-2,-3,-8,-4,-4,-1,12,3
1537917271968286,-6,0,1,2,5,13,-9,-9
1537917271968286,1,4,5,1,1,0,9,0
1537917271983246,-2,-8,-3,-3,-4,-16,-53,-12
1537917271983246,-1,1,-1,2,-4,-12,16,6
1537917271984243,-1,2,0,-1,4,4,-12,-4
1537917271984243,0,-1,-1,-4,-17,-15,-15,-1
1537917272006184,0,-6,-4,-2,-4,-10,-1,4
1537917272006184,-1,1,-1,1,4,12,-8,0
1537917272007182,3,3,3,1,4,12,28,-4
1537917272007182,3,1,0,1,2,11,19,14
1537917272020147,-5,-4,-2,-4,-1,-5,-8,-11
1537917272020147,-4,-1,-2,-3,-4,-10,-35,-11
1537917272028126,-4,-1,-3,-1,-1,8,26,-4
1537917272028126,1,2,-1,-1,0,-3,9,8
1537917272043085,4,-3,0,3,2,3,-7,1
1537917272043085,-13,-3,-1,-2,-1,-2,-4,-4
1537917272044084,11,1,-2,-2,-4,-6,-5,6
1537917272044084,1,1,-1,-1,-1,-1,1,3
1537917272066024,1,-1,0,1,3,-5,-13,-7
1537917272066024,1,-2,-1,-3,-2,-3,33,4
1537917272067022,-5,1,0,-1,2,15,42,3
1537917272067022,3,1,1,-2,1,-8,-17,-1
1537917272079987,-3,-2,0,2,4,7,-11,-5
1537917272079987,3,-8,-7,-6,-5,3,-10,-3
1537917272088962,-9,-3,1,-1,-6,-17,-35,-5
1537917272088962,-3,-1,-1,-2,1,5,31,0
1537917272103923,3,3,1,6,42,40,-45,-8
1537917272103923,18,-3,-6,7,6,-42,12,1
1537917272103923,-46,2,1,-10,-31,6,-3,-1
1537917272103923,21,12,-1,-4,42,24,-17,-9
1537917272125864,-24,-62,-14,3,7,59,26,22
1537917272125864,-19,-9,-9,-8,-30,-71,-16,-26
1537917272126861,81,40,26,12,3,94,-15,20
1537917272126861,-76,54,10,-12,3,-41,-23,-20
1537917272148803,-12,4,-18,-28,-79,-22,40,7
1537917272148803,2,-109,-83,-16,41,-95,10,19
1537917272149801,24,66,48,10,-33,17,-13,-10
1537917272149801,-20,-12,10,-3,46,31,-21,-55
1537917272163763,-6,81,36,25,110,98,9,48
1537917272163763,31,-22,49,-2,-113,-58,-15,-16
1537917272163763,-27,57,-30,-15,39,-1,3,-11
1537917272163763,9,-55,24,25,-19,-59,7,73
1537917272185704,-1,10,14,-16,-6,-43,-46,-40
1537917272185704,-39,76,-7,49,127,127,17,-25
1537917272186702,31,-53,-43,-53,-76,11,22,-55
1537917272186702,-28,-41,-13,-14,27,66,-21,17
1537917272209640,7,17,48,23,36,-93,35,17
1537917272209640,9,-12,-4,-22,-28,72,-58,7
1537917272209640,-28,-37,2,33,71,-19,23,14
1537917272209640,-14,-46,-64,-4,2,38,-4,-26
1537917272223603,34,-72,-9,-6,-54,-39,-7,-26
1537917272223603,28,59,40,13,22,41,-1,11
1537917272224601,48,-8,-12,-2,-25,-58,2,14
1537917272224601,-7,-97,-60,-16,-44,-24,12,12
1537917272245545,-32,47,45,11,12,25,3,-21
1537917272245545,-1,59,25,-1,-20,-15,1,5
1537917272246542,-15,-50,-7,0,3,-26,-20,6
1537917272246542,18,28,25,10,-2,-8,20,6
1537917272269480,6,-20,-34,-1,0,-6,4,-7
1537917272269480,-15,-28,-17,-16,-18,2,9,15
1537917272269480,-11,-18,-10,-12,-4,-22,-9,6
1537917272269480,31,43,24,18,32,19,6,-8
1537917272283443,-4,-16,-23,-8,-28,-18,5,4
1537917272283443,2,-6,0,-6,11,-1,-2,-3
1537917272284440,-10,4,1,8,13,26,-13,-6
1537917272284440,15,29,10,-1,-28,-17,22,0
1537917272306381,1,-8,-16,-5,-4,-5,-1,-4
1537917272306381,-6,-6,-4,-5,6,13,11,-4
1537917272306381,-16,-4,11,15,25,-12,-7,-2
1537917272306381,1,8,4,-2,-7,1,2,8
1537917272329320,24,0,-12,-5,-3,9,3,3
1537917272329320,11,-1,4,5,3,7,0,-1
1537917272330317,-11,-8,-1,0,9,-4,2,3
1537917272330317,4,10,5,-4,-14,-10,-8,-2
1537917272343282,5,6,-13,-3,0,5,0,-3
1537917272343282,-22,-15,-12,-5,-2,-4,-7,-7
1537917272344280,-17,-3,-3,0,4,-8,0,2
1537917272344280,15,7,0,-2,-3,-2,1,2
1537917272366221,-2,-4,1,-4,-8,-4,-13,-5
1537917272366221,-1,2,2,0,2,9,11,7
1537917272366221,-11,-12,-5,-3,1,-4,7,-5
1537917272366221,3,14,8,2,-3,-3,14,-1
1537917272389160,0,-6,-6,-2,-5,-1,-7,0
1537917272389160,1,-7,0,0,-3,-2,-6,-6
1537917272390158,-1,12,2,1,4,-1,-4,1
1537917272390158,6,5,2,-1,-4,-1,-11,2
1537917272403123,0,-2,-6,-1,-5,1,-5,4
1537917272403123,-12,-9,-4,-1,1,-16,7,0
1537917272404121,16,0,1,0,1,-4,13,3
1537917272404121,7,4,-1,2,1,17,-14,2
1537917272426061,-5,-5,-6,-4,-3,4,9,-1
1537917272426061,-10,0,4,0,2,8,-1,-6
1537917272427059,-7,-5,0,2,2,-13,-15,0
1537917272427059,4,5,-3,-2,-7,-11,-3,3
1537917272449000,2,-4,-5,-2,-3,10,26,2
1537917272449000,1,2,1,-2,-4,0,-31,-5
1537917272449997,-7,-3,0,-2,1,-4,3,-4
1537917272449997,4,2,-1,-2,3,3,22,-3
1537917272463960,-7,0,-1,-6,-7,-15,-20,-11
1537917272463960,0,-3,2,0,1,2,5,1
1537917272463960,-3,2,-2,-1,-2,1,-19,-3
1537917272463960,-1,-5,1,1,-1,-1,-19,-2
1537917272485901,-2,-3,-3,-3,-5,-9,30,4
1537917272485901,1,2,0,-2,-5,-6,5,-2
1537917272486899,-6,-10,0,0,5,-1,-1,2
1537917272486899,7,8,1,0,0,4,-6,-4
1537917272508840,3,2,-2,1,3,1,-19,-7
1537917272508840,-2,-2,-4,-5,-4,-11,20,8
1537917272509837,-11,-3,-1,0,0,21,-24,-11
1537917272509837,2,3,-1,-1,-3,4,34,10
1537917272523801,-2,-8,14,4,3,1,0,-2
1537917272523801,1,-8,-18,-2,1,1,-2,-3
1537917272523801,20,2,-2,-3,-2,-22,-11,7
1537917272523801,-3,-1,0,0,0,-9,-2,-3
1537917272545741,4,2,-1,2,-1,-2,-9,-6
1537917272545741,-1,3,7,-1,-1,6,-9,12
1537917272546739,-13,-5,-1,-1,2,7,36,-2
1537917272546739,8,-2,-3,-4,-5,-16,-7,2
1537917272576659,-2,-1,-4,1,2,13,9,-2
1537917272576659,2,2,3,0,0,-6,-15,11
1537917272577656,-8,-13,-7,-1,-4,-7,-24,-9
1537917272577656,1,9,6,-1,-2,5,15,1
1537917272583640,-5,0,-3,1,-1,-7,-17,-2
1537917272583640,2,-1,1,1,4,13,43,-2
1537917272584637,2,1,1,0,3,-2,5,4
1537917272584637,-10,-9,-4,-1,2,14,-18,-6
1537917272605581,1,-1,-3,-4,-10,-9,0,4
1537917272605581,0,2,2,0,-10,-17,-14,-6
1537917272606579,-2,-1,3,3,4,19,6,1
1537917272606579,2,-2,-2,-3,-7,-6,1,-5
1537917272629517,-4,2,-2,-1,5,3,-2,2
1537917272629517,1,-3,1,-1,1,4,9,-2
1537917272629517,-3,2,1,1,-2,-10,8,0
1537917272629517,0,-1,-1,-2,2,-4,-19,-4
1537917272651459,0,1,-1,-2,-3,4,5,7
1537917272651459,-10,-2,0,-3,-2,-14,-10,-10
1537917272652456,14,2,0,1,0,13,9,1
1537917272652456,-8,-2,-3,1,0,5,-14,-4
1537917272666419,1,-2,0,1,0,-12,6,5
1537917272666419,4,-1,-3,-3,-2,1,5,-2
1537917272666419,-4,0,-3,1,-1,-5,-4,-1
1537917272666419,-4,-4,-4,-2,-3,-2,3,1
1537917272689357,-1,-1,-3,-3,-2,0,-9,-5
1537917272689357,1,0,1,0,0,5,-1,1
1537917272690355,-3,-1,-2,-4,-4,-3,0,0
1537917272690355,-2,-3,1,1,-1,-2,-1,-1
1537917272703320,0,-3,-3,1,0,-1,3,-1
1537917272703320,-1,-1,0,0,2,9,-1,-2
1537917272711299,1,-1,0,0,-4,-10,-3,0
1537917272711299,-4,1,1,1,1,-5,0,-2
1537917272726259,-3,-1,-1,-1,-3,-6,0,-2
1537917272726259,1,-1,0,-1,-3,-10,-10,-2
1537917272727257,-3,-1,0,-2,0,21,-4,0
1537917272727257,3,1,-1,-1,1,28,8,3
1537917272749197,1,-1,0,0,2,-7,-10,0
1537917272749197,0,-1,-3,-3,-4,-12,-10,-5
1537917272749197,-2,-2,-2,-4,-4,-31,-17,-1
1537917272749197,-3,-4,-1,-3,-3,0,-4,-5
1537917272774130,-2,-2,0,-2,1,9,17,0
1537917272774130,2,1,1,1,2,-3,-1,2
1537917272776126,-2,0,0,0,-2,0,6,-2
1537917272776126,0,-1,-2,-1,-2,-2,-2,-4
1537917272778120,-4,-1,-2,-2,0,4,8,-1
1537917272778120,2,-1,-4,-4,-3,0,-29,-2
1537917272788093,-3,1,0,1,2,18,64,5
1537917272788093,7,2,4,6,1,-23,-23,4
1537917272801059,-19,-3,11,0,-3,6,-10,-8
1537917272801059,36,-1,-39,-21,-1,0,4,-1
1537917272802056,-30,3,1,0,-1,-19,-55,-17
1537917272802056,10,2,-10,-7,1,3,-17,0
1537917272815021,7,23,-8,-2,27,49,31,-9
1537917272815021,-34,-45,13,21,52,15,-5,6
1537917272823000,-22,-79,-29,-19,-43,-82,-50,-14
1537917272823000,34,31,3,11,33,58,-8,-7
1537917272837961,-5,77,37,32,60,-105,22,52
1537917272837961,-25,-49,-35,-39,9,95,56,-28
1537917272845939,49,-13,-13,18,86,91,34,70
1537917272845939,-107,79,47,15,-35,55,33,-23
1537917272860899,94,-125,-89,-61,-86,-66,-8,65
1537917272860899,37,127,58,-13,-59,-10,49,19
1537917272861898,-45,30,49,9,64,1,-60,-55
1537917272861898,125,-32,40,-28,-77,-81,-13,16
1537917272874862,-50,49,4,16,67,70,-44,-68
1537917272874862,-109,73,7,19,68,50,-50,-36
1537917272882841,-8,-116,-108,-20,-34,-65,7,-19
1537917272882841,-36,57,23,17,55,9,18,23
1537917272897801,-17,-128,-32,-16,-53,-37,-17,14
1537917272897801,125,13,-22,0,-35,-31,-17,25
1537917272905779,-14,28,33,17,34,33,-12,-55
1537917272905779,-77,-71,-26,3,22,-27,2,-43
1537917272920740,15,103,57,2,-42,2,15,18
1537917272920740,27,-42,3,9,8,-12,-17,3
1537917272928718,31,93,15,3,-30,6,29,29
1537917272928718,4,-83,-39,-14,-32,-46,-13,8
1537917272935699,-31,-42,-16,-3,22,51,-7,-24
1537917272935699,-14,11,23,13,2,-28,10,2
1537917272942681,2,-9,12,-6,-31,-26,-15,-1
1537917272942681,-6,-31,-38,-14,0,15,2,7
1537917272957641,-8,38,22,14,28,8,-4,-16
1537917272957641,-16,-25,-7,2,-8,-17,-5,-10
1537917272973598,4,-8,1,-3,-26,2,11,23
1537917272973598,1,17,-3,1,25,14,-29,0
1537917272980579,7,24,-2,2,-1,15,46,-10
1537917272980579,-11,-35,-8,-4,-18,-17,16,5
1537917272981576,-5,4,1,-6,3,21,10,6
1537917272981576,8,22,-3,6,13,-12,-9,0
1537917272995539,-1,-10,4,0,-10,-12,-35,-12
1537917272995539,-17,-27,-11,-5,-9,-1,-9,2
1537917273002520,-9,25,13,5,12,14,18,-1
1537917273002520,-7,-4,-5,-2,2,-9,0,-8
1537917273017480,15,-11,-3,-1,-13,0,-7,7
1537917273017480,-9,0,-2,3,12,6,12,4
1537917273025459,5,17,5,-2,-13,-12,-3,0
1537917273025459,3,-10,-5,-4,-5,-12,5,2
1537917273041417,-10,-5,-5,-2,3,19,1,-10
1537917273041417,-7,7,10,10,5,-3,6,-2
1537917273041417,7,0,1,0,2,22,-40,3
1537917273041417,4,-5,-7,-6,-4,9,48,6
1537917273055379,-4,6,3,3,6,-12,-11,-8
1537917273055379,-1,-7,-3,0,-4,-18,-13,-6
1537917273063358,-1,-3,-1,-6,-11,-13,-11,2
1537917273063358,1,3,-12,0,8,19,28,2
1537917273078318,-6,3,10,1,-1,8,-2,-10
1537917273078318,-7,-11,-4,0,-7,-20,-66,2
1537917273085300,3,5,-6,0,3,3,23,0
1537917273085300,5,8,10,7,3,-1,37,10
1537917273101256,-5,-9,-10,-5,-1,-20,-26,-2
1537917273101256,-5,-6,0,-3,-4,13,23,-1
1537917273101256,-21,-5,6,-1,-3,-9,-48,-5
1537917273101256,30,1,7,6,1,14,55,5
1537917273115219,-13,10,-24,-12,-6,1,8,-1
1537917273115219,8,-11,-11,-5,2,-15,-17,-1
1537917273123197,-12,3,7,1,0,19,16,-2
1537917273123197,14,-3,12,-2,-3,4,10,-2
1537917273138158,9,5,6,8,4,-4,-5,1
1537917273138158,-17,2,-9,-4,-1,-1,20,-2
1537917273145139,4,7,9,5,5,-2,-7,10
1537917273145139,58,-26,-11,9,62,22,-93,-16
1537917273170072,-25,-25,-8,-1,2,-66,81,5
1537917273170072,-30,17,23,11,-31,59,1,-10
1537917273171070,81,-14,-30,-25,21,-61,10,4
1537917273171070,2,36,6,51,110,-61,-13,-29
1537917273175060,-3,-66,-21,-81,-105,36,32,9
1537917273175060,99,61,17,5,125,78,30,95
1537917273183038,-125,63,52,-9,-75,-21,25,-94
1537917273183038,-42,-93,-85,-51,-23,85,-94,-49
1537917273197998,-92,127,104,20,-51,-112,-32,4
1537917273197998,85,-28,-37,2,18,99,45,10
1537917273204979,-21,111,70,55,118,79,27,-2
1537917273204979,51,-67,-1,5,-68,31,6,-32
1537917273219939,45,-112,-86,3,55,31,-35,-20
1537917273219939,-97,2,13,-11,-36,-69,-55,-55
1537917273228915,45,-14,-41,6,12,42,-4,36
1537917273228915,-76,66,41,-12,-59,-24,39,57
1537917273234900,4,23,14,0,-34,-10,-24,2
1537917273234900,-13,-45,2,-8,-46,-26,-11,-22
1537917273242879,26,-7,-34,-5,2,-82,-6,17
1537917273242879,-17,9,12,-3,-22,-54,9,21
1537917273257839,31,11,-5,3,1,56,-11,0
1537917273257839,-27,2,-2,10,37,-49,-14,-6
1537917273264820,-16,-59,-4,-11,-34,30,11,-4
1537917273264820,5,5,1,-7,1,2,1,20
1537917273279779,1,8,12,7,33,-6,-16,0
1537917273279779,-19,-22,-6,-1,-14,9,32,-20
1537917273288755,11,-29,-7,-6,-2,-5,2,10
1537917273288755,7,27,13,-4,-17,-11,-5,-5
1537917273295736,6,-4,-9,12,40,28,-3,-7
1537917273295736,0,-2,3,-2,-13,-26,-7,2
1537917273310696,8,-6,-4,-9,-27,14,-3,5
1537917273310696,-16,14,4,0,21,-25,-31,5
1537917273317678,2,-9,4,16,13,42,35,1
1537917273317678,-4,-6,-8,-13,-11,-7,19,3
1537917273325656,-5,-12,-1,0,-3,-19,-5,8
1537917273325656,-28,-6,-6,-1,-2,8,0,-7
1537917273340617,16,-17,0,7,21,9,-16,-2
1537917273340617,9,17,13,0,-12,-9,-14,-5
1537917273348595,1,-10,-11,-5,1,1,3,3
1537917273348595,-1,3,4,-3,-5,-10,7,3
1537917273363555,-4,7,-1,-1,1,14,0,-5
1537917273363555,-7,-7,-5,1,9,-12,-8,1
1537917273364552,-4,-15,-3,-5,-10,9,17,-2
1537917273364552,2,2,1,1,7,5,0,4
1537917273377517,1,1,3,3,0,-13,-7,-1
1537917273377517,-2,-5,-2,2,1,-2,-6,-3
1537917273385496,2,-5,-2,-2,-7,-25,-17,0
1537917273385496,2,4,1,-3,-8,20,27,-1
1537917273400456,2,1,-5,0,-1,-10,-2,-1
1537917273400456,-6,0,1,-1,-2,20,-17,-5
1537917273408435,1,-3,-2,-5,-7,4,4,0
1537917273408435,-3,-1,0,5,10,-12,0,4
1537917273431374,-1,0,0,1,11,16,19,14
1537917273431374,-4,-2,-3,-2,-10,-16,7,-20
1537917273432371,-2,-10,-1,3,2,5,-29,-2
1537917273432371,2,-2,1,0,-3,-7,14,0
1537917273437358,-5,4,-1,0,6,-1,-12,-4
1537917273437358,14,-1,-1,1,-3,-9,-11,5
1537917273446335,-12,-6,-1,2,2,19,30,-1
1537917273446335,24,2,1,-3,-6,-12,-19,1
1537917273460297,-5,2,-1,-1,0,-16,16,0
1537917273460297,-6,-1,-1,-1,-2,-15,-14,2
1537917273468275,0,-3,-1,0,6,70,3,-3
1537917273468275,-11,-5,-1,-3,-2,-11,16,3
1537917273484233,7,5,0,1,4,5,-21,-4
1537917273484233,-2,-8,-4,2,-3,-15,34,2
1537917273484233,-6,1,0,-5,-8,-32,-15,6
1537917273484233,-6,0,-1,-1,1,5,-9,-6
1537917273498196,2,-2,0,2,3,24,28,1
1537917273498196,-1,1,-4,-1,1,0,-6,-3
1537917273506174,2,-2,-1,-1,-6,2,-13,-2
1537917273506174,-2,2,1,2,3,-32,-46,-2
1537917273520137,2,0,-1,2,3,-13,51,9
1537917273520137,-11,-2,0,-5,-5,30,-10,6
1537917273528116,21,2,2,0,5,14,69,-4
1537917273528116,2,0,-2,-2,-6,7,-8,12
1537917273543077,-4,-6,2,0,-3,-39,-34,-10
1537917273543077,-9,0,6,1,1,25,9,-8
1537917273544074,8,-5,-13,-2,-2,-36,-17,23
1537917273544074,-29,-5,1,-2,1,47,17,-32
1537917273558037,24,7,-1,1,5,14,13,21
1537917273558037,5,0,6,0,-5,-27,0,5
1537917273566015,-13,-18,-1,-3,-9,-57,-33,-11
1537917273566015,0,3,-2,2,6,56,-1,-6
1537917273588953,-14,-6,1,0,-2,-8,-41,-8
1537917273588953,2,0,-2,-2,0,-6,7,-4
1537917273589951,9,8,2,0,0,1,15,5
1537917273589951,3,-2,-2,-4,-8,-51,18,6
1537917273603913,-9,-3,-3,-3,-1,51,-25,-17
1537917273603913,7,-1,0,4,6,-14,6,8
1537917273603913,-2,7,-1,-2,-4,8,16,-2
1537917273603913,0,2,1,-2,-2,-4,-28,5
1537917273617876,-3,1,-1,-2,0,3,12,-1
1537917273617876,6,-3,-2,0,-6,-19,-25,3
1537917273625855,-9,-5,0,-3,3,25,16,-5
1537917273625855,3,1,1,-1,0,-13,-1,3
1537917273639817,0,-2,0,0,1,-7,-23,-5
1537917273639817,-5,-2,-5,-5,-5,7,9,-6
1537917273648793,0,2,2,2,1,-6,-24,-3
1537917273648793,4,0,-2,-2,0,-3,10,3
1537917273671732,-5,-1,-3,-2,0,-4,-3,-5
1537917273671732,-6,-1,-1,0,-1,6,1,0
1537917273672730,1,0,-1,0,-2,-6,-23,-3
1537917273672730,-2,-2,-2,-2,-1,-4,20,1
1537917273685695,-1,-3,0,-2,1,13,1,-1
1537917273685695,-1,-1,-1,0,-2,6,5,-3
1537917273694670,3,1,1,2,1,-11,-47,2
1537917273694670,2,-2,-1,0,-3,-6,3,-2
1537917273709630,-2,0,0,-2,0,-1,-4,-4
1537917273709630,0,0,-1,-2,2,10,-15,0
1537917273710628,-2,-2,-1,-1,0,-4,33,-3
1537917273710628,-1,-4,-1,2,0,4,3,1
1537917273731572,0,-17,-4,-1,-2,-8,7,0
1537917273731572,-1,23,2,1,-1,-6,-16,2
1537917273733566,-4,-8,-5,-2,-3,-2,-14,-3
1537917273733566,-1,-5,0,-1,-1,2,10,-4
1537917273745534,9,42,15,1,-3,-5,-1,-1
1537917273745534,0,-7,-7,1,2,-6,-35,-1
1537917273761492,3,6,9,-1,-1,5,2,-1
1537917273761492,-3,-10,-5,1,5,19,36,8
1537917273769470,-16,-25,-15,-7,-7,3,35,-8
1537917273769470,5,-8,-6,-3,-2,2,23,0
1537917273770467,-24,2,-6,-4,-3,2,-32,-9
1537917273770467,-10,-72,-10,9,51,-38,-28,-6
1537917273791412,9,41,12,8,3,33,31,6
1537917273791412,13,22,39,8,27,31,-14,10
1537917273793406,19,72,-1,-18,-34,10,21,14
1537917273793406,-86,43,45,43,48,35,79,7
1537917273805374,29,-65,-34,-9,37,48,-36,22
1537917273805374,-11,-112,-72,33,126,-101,-71,-18
1537917273814350,42,83,68,-22,-108,68,56,29
1537917273814350,-95,-77,-64,-76,-91,-68,-63,-4
1537917273829310,-51,-74,-3,6,63,-3,18,-51
1537917273829310,-27,112,110,-8,-128,-34,19,37
1537917273830307,0,-84,-43,20,114,25,-12,-2
1537917273830307,77,53,17,61,90,101,6,11
1537917273851251,36,-87,-78,-44,-116,-128,-28,4
1537917273851251,-93,26,16,19,30,30,0,-67
1537917273853246,-89,17,14,8,7,8,2,-10
1537917273853246,99,110,28,-14,-32,11,-6,4
1537917273865214,2,-9,-3,18,51,40,-4,-20
1537917273865214,42,-7,-21,-5,5,27,36,-12
1537917273874190,-7,-44,-27,-14,-31,-63,-22,-11
1537917273874190,2,-38,-24,-9,3,-11,-14,-7
1537917273888152,-10,36,25,8,-3,2,-14,23
1537917273888152,2,-30,-23,-23,-42,-37,-9,-5
1537917273895134,1,-6,2,9,15,-7,29,0
1537917273895134,-6,-37,-9,-5,-15,-14,-16,-15
1537917273911091,2,44,31,5,-10,-17,-20,4
1537917273911091,-2,4,-4,-9,-15,29,60,10
1537917273927049,6,-39,-23,-2,23,-19,-59,-14
1537917273927049,10,23,13,5,-5,4,18,7
1537917273928046,-10,29,-1,-11,-24,-3,60,11
1537917273928046,13,-15,-17,-3,16,14,-15,9
1537917273934030,7,-5,2,7,11,0,-3,5
1537917273934030,-8,-7,-4,-13,-23,-33,-31,-12
1537917273947993,-11,22,8,8,7,9,-39,-3
1537917273947993,3,-25,-17,-9,-1,20,48,10
1537917273962953,-4,-7,23,12,2,-15,-2,-7
1537917273962953,-5,4,-39,-30,-19,-17,-32,-7
1537917273971929,-3,1,3,4,11,15,10,-1
1537917273971929,13,4,-1,-2,5,12,64,20
1537917273972926,-15,-8,34,6,-5,-13,39,4
1537917273972926,5,-1,1,28,9,31,1,-8
1537917273984894,11,22,44,-10,9,-7,30,22
1537917273984894,-1,-10,-22,-6,-8,-20,-49,-11
1537917274001849,4,-6,-19,4,0,-5,-22,-4
1537917274001849,-6,-9,-13,-7,-5,-5,-14,1
1537917274008830,-11,-13,-24,-1,-9,10,2,-11
1537917274008830,-9,-4,34,12,-2,2,22,4
1537917274014814,15,-10,-98,-6,15,5,-3,-1
1537917274014814,9,14,61,-23,-4,1,81,14
1537917274038750,-7,7,49,17,-11,-10,-30,-7
1537917274038750,-2,-6,-46,-27,-2,2,-8,3
1537917274040745,-3,-5,-50,-5,-2,1,-19,-8
1537917274040745,-3,-6,5,8,-4,-8,-27,-6
1537917274053710,-17,-1,-39,-21,-4,-8,-2,-5
1537917274053710,26,-12,10,7,1,4,-30,7
1537917274055705,-17,-15,11,1,10,6,36,-6
1537917274055705,-38,3,-1,26,107,6,-28,-7
1537917274068670,88,66,25,-28,-91,-38,-30,17
1537917274068670,10,11,1,14,61,8,44,5
1537917274082633,-35,-95,-27,-8,9,17,-51,-6
1537917274082633,45,-12,-49,-29,-6,-72,27,-3
1537917274091609,-105,71,54,19,-31,-15,-19,14
1537917274091609,102,-29,-32,15,82,98,-33,-49
1537917274092606,52,127,62,-67,-103,-111,105,83
1537917274092606,-99,-118,-43,16,98,-14,0,-46
1537917274113550,41,20,11,25,12,-99,-27,-17
1537917274113550,26,71,24,3,24,4,-24,52
1537917274120531,61,5,37,5,-84,103,32,-1
1537917274120531,67,43,-3,-6,-44,-63,11,33
1537917274128510,76,-128,-88,-8,107,43,-3,44
1537917274128510,-81,-117,-100,-10,-18,9,-44,-28
1537917274135491,-88,77,105,83,127,46,-29,-46
1537917274135491,82,17,46,-68,-128,-76,13,-7
1537917274151449,7,-52,-41,-5,71,14,34,4
1537917274151449,-28,-109,-25,-2,49,64,-2,4
1537917274157433,-35,-92,-34,-12,-19,-81,-52,-10
1537917274157433,-84,-65,-59,23,22,65,-25,-19
1537917274174388,52,106,90,-4,-84,-17,15,20
1537917274174388,4,-12,26,-1,-31,-49,-11,-3
1537917274175385,2,-53,-29,-11,3,-2,4,-1
1537917274175385,-16,-9,20,15,4,34,-10,6
1537917274188350,-32,-75,-34,-8,-7,29,10,-24
1537917274188350,-17,61,27,-5,-42,-24,2,8
1537917274195331,35,-2,9,0,10,-13,-49,-15
1537917274195331,2,4,6,2,-17,40,42,17
1537917274211289,-31,-8,-23,9,31,23,9,-16
1537917274211289,-10,59,30,-2,-36,-36,12,-2
1537917274213284,-12,-11,-7,0,15,6,1,-2
1537917274213284,12,6,-2,10,16,0,-34,4
1537917274234228,-38,20,-3,-3,-6,-1,1,-15
1537917274234228,-6,0,9,-3,-17,-24,-27,-3
1537917274235225,18,-14,-20,-10,2,9,6,0
1537917274235225,2,29,6,2,0,25,7,9
1537917274248191,-9,-10,14,11,7,2,7,-10
1537917274248191,-11,-1,10,-4,-20,-9,9,2
1537917274257166,5,-1,-11,4,21,9,-14,0
1537917274257166,-4,18,12,0,-17,-18,-22,-5
1537917274271129,-25,-13,0,5,6,22,2,-5
1537917274271129,1,-1,-1,-3,-4,-26,1,-1
1537917274279108,-11,15,-7,-3,4,4,6,0
1537917274279108,11,-3,9,3,4,18,6,6
1537917274294068,-5,-14,-16,-11,-7,-9,-4,-5
1537917274294068,-2,14,3,0,-7,-2,6,2
1537917274295065,7,-2,-3,-2,3,-9,2,-4
1537917274295065,-9,-11,3,5,-1,9,3,0
1537917274308030,-3,13,-5,2,8,5,-28,-5
1537917274308030,-8,9,6,-5,-12,-7,24,-2
1537917274317006,2,-4,-1,5,18,12,10,0
1537917274317006,-3,-2,-3,-3,-9,-6,-7,-2
1537917274331967,-9,-5,-6,-3,-3,-5,-2,-3
1537917274331967,-3,0,3,-2,-7,-1,-1,2
1537917274332964,20,-2,-7,-6,-7,-1,4,-3
1537917274332964,1,7,1,2,12,6,1,2
1537917274361887,-7,-6,-2,1,2,5,-4,-3
1537917274361887,-3,0,1,-1,1,-5,-16,-1
1537917274362885,-1,-3,-5,-1,-5,-6,22,-1
1537917274362885,-2,6,1,0,-2,15,-6,-2
1537917274367872,-3,-4,-2,-1,-3,-4,4,-2
1537917274367872,0,0,-1,-2,2,-2,-2,-2
1537917274376847,-4,0,0,1,3,-8,-6,-2
1537917274376847,0,1,0,-3,-5,-7,0,0
1537917274391807,-6,-13,-5,-2,1,2,1,-2
1537917274391807,0,7,2,0,-2,-4,2,-1
1537917274392805,-3,1,-1,1,-1,6,4,2
1537917274392805,1,1,2,-1,-5,-15,-10,-1
1537917274413748,-4,-4,-1,4,9,6,-5,-3
1537917274413748,-11,-4,-3,-6,-6,-10,-6,-3
1537917274421727,20,-1,-2,-1,-1,2,-10,6
1537917274421727,0,1,-1,-1,-3,7,11,1
1537917274427711,-2,-1,-2,0,3,-9,-4,-1
1537917274427711,-3,-2,3,2,-1,14,14,-1
1537917274436687,-14,-3,-5,-4,-4,-10,-18,-2
1537917274436687,3,1,-1,1,3,0,16,1
1537917274451647,0,0,0,1,4,4,-8,-2
1537917274451647,2,-1,-3,-3,-16,-16,-3,0
1537917274452644,-11,-4,-1,0,4,3,-15,-5
1537917274452644,0,-2,0,0,0,7,15,2
1537917274481567,-2,-2,0,-3,0,8,10,-1
1537917274481567,-1,1,-1,0,6,3,-2,0
1537917274482565,0,-1,-1,-1,1,-4,-1,-2
1537917274482565,-3,-2,-2,-3,-5,-9,-28,-5
1537917274487551,-1,0,-1,-1,-6,5,0,-3
1537917274487551,2,-3,-3,-3,-2,-10,20,6
1537917274496527,4,2,4,5,3,2,-12,-1
1537917274496527,-2,-1,0,1,7,17,2,-2
1537917274510490,-1,-1,-3,-5,-5,-3,0,-1
1537917274510490,1,-1,-8,-4,-6,-10,-10,-2
1537917274519466,-4,-1,2,-4,-4,-22,6,0
1537917274519466,-3,-1,-2,0,6,27,-16,-3
1537917274534426,-1,-2,1,4,-2,-4,-1,0
1537917274534426,1,0,-2,2,0,1,-2,1
1537917274535423,1,3,-2,0,-1,0,21,2
1537917274535423,-2,-2,0,-2,-9,-21,-30,-1
1537917274547391,-1,0,-3,-2,-4,5,10,-2
1537917274547391,-2,0,7,3,1,-10,-3,-1
1537917274556367,-2,2,2,3,5,4,-1,-3
1537917274556367,-1,1,1,-2,-1,0,15,1
1537917274571327,-1,0,3,1,1,-2,1,2
1537917274571327,-1,-1,-4,-4,-4,-11,-20,-3
1537917274573323,-1,-2,12,0,0,0,16,1
1537917274573323,2,-1,-4,-3,-4,-7,-5,0
1537917274595264,0,-2,-2,-1,-1,-3,-4,0
1537917274595264,-1,0,3,3,3,-7,2,-2
1537917274597259,-2,-5,-16,-2,-4,-5,-6,-4
1537917274597259,-2,0,2,-5,-6,-2,3,-1
1537917274600250,0,0,1,-4,-2,4,2,2
1537917274600250,-1,0,7,1,4,17,-6,-3
1537917274609226,-3,-4,-3,-5,-5,0,-10,-3
1537917274609226,-1,14,-3,2,-1,-29,8,1
1537917274623189,-1,-20,-21,0,2,18,-7,-4
1537917274623189,-2,2,0,-4,-4,2,4,0
1537917274639147,2,-2,16,3,2,8,8,1
1537917274639147,0,-6,-17,-2,-6,-5,0,0
1537917274647124,-1,7,8,2,-3,-13,0,-1
1537917274647124,-1,-2,-4,2,3,31,10,-4
1537917274648122,-1,2,-5,-6,-7,-18,-48,-3
1537917274648122,-2,-2,-5,-1,1,19,27,0
1537917274660090,0,2,5,0,0,-22,5,6
1537917274660090,-1,-2,2,3,0,15,-5,-3
1537917274669067,1,3,-1,0,2,-8,7,1
1537917274669067,-1,-3,2,2,-2,-4,-26,-1
1537917274683029,-2,-5,-6,-5,-3,-4,-2,-3
1537917274683029,-2,2,1,-1,0,-4,12,0
1537917274697989,0,-1,-5,-2,-5,2,0,-1
1537917274697989,0,-3,-1,0,-1,1,-1,-1
1537917274713946,1,3,3,1,1,-1,4,-1
1537917274713946,-1,-2,1,-1,-1,-11,-3,1
1537917274715940,-2,-2,-4,1,4,16,8,-2
1537917274715940,0,-2,5,2,-1,-9,5,1
1537917274719929,-1,0,1,-1,-1,-2,-2,-2
1537917274719929,0,-3,-4,0,1,-7,-10,0
1537917274728905,-1,-2,-6,-2,-3,3,8,-2
1537917274728905,1,-1,4,-1,-2,-8,2,0
1537917274742868,-1,0,0,-2,-1,6,-10,-2
1537917274742868,2,-3,1,2,-1,-3,1,0
1537917274758826,0,-1,-5,-2,0,-8,7,0
1537917274758826,2,1,2,5,8,25,0,2
1537917274766804,-1,0,-2,-2,-4,-13,-16,-3
1537917274766804,-1,-1,-5,-6,-3,-2,12,0
1537917274767801,-2,-1,0,3,1,4,7,0
1537917274767801,-4,-3,-1,-3,-5,-18,-7,-5
1537917274779769,0,0,-5,-1,0,23,-30,-3
1537917274779769,-2,-1,0,-2,-2,-8,19,-3
1537917274788745,-1,0,2,2,0,12,-13,1
1537917274788745,0,-1,-3,-1,5,-12,18,5
1537917274802708,-3,-1,2,3,0,-12,-9,-3
1537917274802708,-1,-1,-2,-4,-4,1,-5,-3
1537917274811684,-1,-1,-2,0,-2,10,11,-1
1537917274811684,-4,-3,-1,1,-8,-23,-63,-8
1537917274827641,-4,-2,0,-2,-2,21,9,-3
1537917274827641,2,0,-1,1,-1,-33,-31,2
1537917274829636,2,1,4,1,1,-1,23,1
1537917274829636,-3,4,8,1,3,11,-24,-2
1537917274840607,-4,-8,-3,4,18,21,-21,-4
1537917274840607,11,6,4,18,63,60,66,16
1537917274849583,-16,5,-5,-5,9,-88,-81,-6
1537917274849583,20,15,15,17,55,57,98,30
1537917274862549,19,0,-12,-6,-48,-63,-57,-9
1537917274862549,-35,-18,3,31,38,-52,-4,-1
1537917274871525,7,-16,-18,-59,-95,96,52,10
1537917274871525,17,-12,2,7,91,-118,-38,-10
1537917274886485,-18,38,21,-10,-65,114,32,6
1537917274886485,-17,-16,12,-42,-104,-13,-16,7
1537917274888480,30,-42,-23,18,72,-55,-25,-48
1537917274888480,23,46,16,7,22,-66,36,8
1537917274900447,18,27,16,-4,-18,11,13,10
1537917274900447,-63,7,-11,47,83,-50,-42,-44
1537917274909424,-16,-41,22,-10,-124,65,28,38
1537917274909424,41,61,-40,-63,-123,-63,-15,-34
1537917274922389,-22,-94,-20,26,127,46,-24,-20
1537917274922389,15,90,36,-13,-36,-12,-8,-5
1537917274931365,3,14,26,13,60,-5,-2,-13
1537917274931365,-43,-48,-6,32,71,-14,-18,-17
1537917274946325,0,-52,-63,-34,-111,-38,21,22
1537917274946325,-52,20,-8,21,118,36,30,-11
1537917274948320,-29,67,50,6,-34,-74,-7,-11
1537917274948320,-22,14,22,-14,-126,-24,-28,-23
1537917274960288,-1,-34,-9,12,43,-73,39,-2
1537917274960288,49,-34,-33,-2,11,84,19,22
1537917274976246,10,12,-18,22,44,-32,-1,26
1537917274976246,-55,-99,0,-9,61,127,8,-12
1537917274993200,-25,66,9,-6,-77,-108,-2,-20
1537917274993200,60,-23,-11,-23,-35,25,-19,1
1537917274994197,-16,48,17,4,10,-39,7,3
1537917274994197,-7,-74,-20,10,51,104,-18,6
1537917275006164,18,43,10,-13,-23,-17,21,3
1537917275006164,-65,-79,-11,-25,-81,-75,-7,-15
1537917275013146,37,74,12,6,13,19,7,20
1537917275013146,16,-39,-28,18,77,-33,4,13
1537917275036084,-45,16,23,-11,-70,-66,-9,-7
1537917275036084,-17,17,3,-13,-21,10,-1,-4
1537917275038079,18,-40,-25,-1,0,-17,-10,-17
1537917275038079,19,27,11,6,-14,13,-2,7
1537917275043065,-8,-14,-1,0,47,2,-4,7
1537917275043065,19,1,-14,-8,-29,-19,-7,0
1537917275050047,-9,-24,-15,-5,20,38,7,-2
1537917275050047,-3,41,12,-2,-39,14,5,8
1537917275066004,18,-54,-13,13,65,23,18,2
1537917275066004,14,32,21,8,-4,-10,-9,5
1537917275072985,-4,-19,-2,3,0,9,-5,-2
1537917275072985,-14,14,14,-10,-41,-14,6,4
1537917275079967,14,6,-16,0,35,34,3,-2
1537917275079967,13,-2,1,5,50,1,-7,6
1537917275088943,-3,-13,-10,-15,-61,1,-4,-5
1537917275088943,12,8,-8,-12,-32,-44,5,2
1537917275111882,-13,0,11,9,28,49,-5,-4
1537917275111882,19,4,3,-1,7,43,0,6
1537917275112879,-16,-7,-5,-5,-21,-40,-14,-9
1537917275112879,-2,-5,-4,0,-9,8,26,4
1537917275125845,14,13,7,-4,-6,-21,-11,1
1537917275125845,6,1,6,-3,-17,3,-4,0
1537917275132826,-7,-24,-19,5,35,31,0,-2
1537917275132826,2,4,5,1,-9,5,-3,1
1537917275139808,6,18,21,6,11,8,5,3
1537917275139808,4,-11,-3,0,-10,-12,-5,-1
1537917275148785,1,-9,-7,0,14,7,6,2
1537917275148785,-7,5,-4,-3,-13,-11,-5,-1
1537917275163744,2,9,-2,-2,1,5,1,0
1537917275163744,4,-11,0,2,-6,-13,-4,0
1537917275170725,-6,-2,-1,-1,12,7,2,4
1537917275170725,-4,5,2,-4,-11,5,-2,-3
1537917275185686,18,-1,-3,0,5,0,0,6
1537917275185686,6,-4,-6,-3,-8,-7,-2,3
1537917275192666,-2,2,16,8,13,11,1,-1
1537917275192666,-3,-1,-5,-3,-7,0,-2,-2
1537917275208624,0,0,-2,-2,-1,-2,2,-4
1537917275208624,2,3,2,-1,-6,-11,0,-3
1537917275210619,-4,-5,-2,0,5,7,2,-2
1537917275210619,-2,-1,-4,0,1,-1,-2,-2
1537917275231561,0,1,2,-1,-1,-2,1,-2
1537917275231561,3,1,1,1,-6,2,3,-1
1537917275232559,-3,-5,-5,0,3,-4,1,-2
1537917275232559,1,2,-2,2,0,-13,-7,1
1537917275245524,-1,0,0,2,7,26,18,1
1537917275245524,1,-5,-8,-9,-6,0,-7,0
1537917275252506,2,0,1,8,17,1,-36,-4
1537917275252506,0,3,-4,5,-1,7,36,5
1537917275269460,0,0,1,2,-2,-18,-11,0
1537917275269460,-2,-4,-6,-1,-5,-1,6,-2
1537917275270457,-3,-5,-9,-3,-1,-1,-5,0
1537917275270457,-1,1,3,-6,-8,10,24,1
1537917275283423,-3,-4,-3,-3,-2,-8,-16,1
1537917275283423,3,1,2,-3,0,8,27,5
1537917275290404,-1,1,2,-5,-3,-10,-5,1
1537917275290404,0,1,-6,-2,-1,-8,-25,-4
1537917275314340,0,-1,2,0,1,20,-4,-1
1537917275314340,0,-1,-2,-5,1,13,-13,-1
1537917275315337,-1,1,-3,-2,-1,7,9,3
1537917275315337,-1,1,2,4,3,-8,-7,-2
1537917275329300,-1,1,5,0,-1,-23,2,2
1537917275329300,1,-2,-5,-1,-7,-5,5,3
1537917275330298,1,0,4,-5,-1,10,16,1
1537917275330298,-4,-2,4,-3,-1,2,-9,-2
1537917275343263,0,0,-6,-3,-1,1,-10,0
1537917275343263,-1,-2,-6,-1,-1,-3,-3,-1
1537917275350244,-1,-2,-8,0,-3,2,-4,0
1537917275350244,1,-1,2,1,-4,-11,-23,-4
1537917275365204,0,1,5,3,4,1,-7,-6
1537917275365204,-1,0,5,3,2,-1,11,-1
1537917275374180,-1,-1,5,-1,-2,6,9,-2
1537917275374180,-1,0,2,3,2,-5,-21,-2
1537917275389140,-1,-3,1,0,-4,2,9,-5
1537917275389140,0,-1,3,-1,-1,-4,-9,-1
1537917275390138,-2,-2,-7,-2,1,4,0,-4
1537917275390138,0,-3,-4,-3,0,9,7,2
1537917275403103,-1,-2,-2,-3,-1,-1,10,4
1537917275403103,0,-1,1,-2,2,-12,-17,-2
1537917275418063,-2,-2,-3,-2,1,-2,-6,-3
1537917275418063,-1,-1,3,-4,-3,5,25,1
1537917275426041,-2,1,7,-3,-1,-9,-3,-1
1537917275426041,0,0,2,0,2,-1,-3,-3
1537917275433023,-1,-1,3,0,2,6,4,-1
1537917275433023,0,1,2,2,1,-9,-17,-4
1537917275448980,0,-1,-3,-3,0,-3,8,-3
1537917275448980,-1,-2,-4,-4,-5,-7,-2,-3
1537917275450975,-1,-2,-6,-1,2,6,3,-5
1537917275450975,0,-1,-5,-3,-3,-1,-7,0
1537917275462943,-2,-1,-3,1,0,15,8,-1
1537917275462943,-2,-1,-3,2,2,-10,-14,-3
1537917275471919,2,3,3,-2,1,-9,2,1
1537917275471919,-2,-1,-5,-2,1,1,-1,-1
1537917275493860,0,0,-2,2,1,-7,-4,-1
1537917275493860,-1,-1,-5,2,0,6,12,-1
1537917275495855,-1,-4,-4,-2,-6,-11,-11,-3
1537917275495855,1,2,-3,0,2,-2,-4,-1
1537917275516799,-2,-1,-8,-1,-1,-2,1,0
1537917275516799,-2,-1,2,1,2,2,-3,1
1537917275517796,-3,-1,0,3,6,-1,4,1
1537917275517796,-3,-3,0,0,12,2,4,3
1537917275529764,-2,-3,-4,-3,18,-5,-17,-1
1537917275529764,1,1,-1,-3,10,-11,18,3
1537917275546719,-1,0,3,-2,1,5,0,-2
1537917275546719,-2,-1,-6,-6,-12,-3,4,-2
1537917275553700,-2,-2,1,-2,-13,6,5,0
1537917275553700,-2,-2,-1,-2,-16,2,-18,0
1537917275555695,0,-2,-3,-1,-12,3,35,4
1537917275555695,1,1,5,8,-5,-4,-10,-1
1537917275576639,-2,-1,1,2,-8,-4,-13,1
1537917275576639,-2,-2,-6,-9,-13,3,-4,-3
1537917275577636,1,1,11,4,0,-5,12,0
1537917275577636,0,-3,-2,-4,-9,-9,-9,0
1537917275590602,2,-1,-2,-1,-2,3,6,-2
1537917275590602,-2,-1,2,-3,-4,1,-19,-3
1537917275599578,-2,-2,-6,-3,-5,4,-7,-1
1537917275599578,-2,-1,-3,-3,-2,5,13,-3
1537917275614538,1,1,1,-2,-3,-10,-16,-4
1537917275614538,-2,-1,-4,-2,-1,12,-14,-3
1537917275615535,-2,-1,0,3,4,-13,-7,3
1537917275615535,0,-1,-4,-1,-3,9,-26,1
1537917275636479,0,2,3,1,-1,5,40,3
1537917275636479,-2,0,-1,-3,-1,-3,0,-3
1537917275638474,6,-1,-4,-7,-7,-8,-19,-6
1537917275638474,-16,-2,-1,-3,0,4,-10,-7
1537917275650442,28,5,-1,0,-1,2,-26,-2
1537917275650442,-37,4,9,20,60,32,27,-2
1537917275659418,21,-5,-5,1,16,-23,-15,19
1537917275659418,23,0,-5,-7,-17,-28,-14,5
1537917275674378,11,27,8,12,72,67,96,21
1537917275674378,-63,-38,-5,8,-3,-94,-93,-23
1537917275675375,39,-12,-4,5,48,67,11,-3
1537917275675375,-17,21,-20,-31,-77,-113,-84,-14
1537917275704298,-50,-61,-2,-15,-105,-1,79,50
1537917275704298,37,9,-8,-17,28,91,-2,-9
1537917275705295,-27,5,-20,17,49,-8,16,5
1537917275705295,-21,38,71,0,-62,38,17,-30
1537917275710282,-1,-18,-17,-10,-25,-49,-38,23
1537917275710282,60,42,-31,-16,13,5,32,23
1537917275719258,-47,45,62,77,93,91,-13,-8
1537917275719258,-35,-99,-31,-57,-33,-55,27,0
1537917275733220,-14,-36,-9,5,63,-11,-58,-83
1537917275733220,-7,-59,-5,8,52,67,-18,15
1537917275749178,-42,79,-38,-38,-28,-95,1,-17
1537917275749178,89,82,39,49,38,25,32,11
1537917275756159,-5,-44,-7,-14,-58,17,-24,-3
1537917275756159,56,49,3,16,31,-109,-8,0
1537917275758154,-23,-40,-16,-46,-79,90,2,-24
1537917275758154,-62,-30,-24,7,26,-49,30,25
1537917275770122,58,16,0,-10,-19,18,-24,-20
1537917275770122,-27,-1,37,15,-9,51,19,-8
1537917275779098,46,-50,24,3,-60,-53,-6,23
1537917275779098,10,-27,-28,-1,2,-27,-4,12
1537917275793061,-28,65,6,16,59,47,-24,7
1537917275793061,6,16,2,-7,-16,-18,4,-16
1537917275800042,-2,-28,-3,-11,-45,30,4,2
1537917275800042,-9,-8,-20,-7,-47,-51,-8,-1
1537917275816997,-12,17,-6,9,52,102,-3,-25
1537917275816997,16,33,38,3,-73,-73,21,20
1537917275817995,-41,-16,11,-2,-18,-6,-13,-4
1537917275817995,6,-21,-1,17,69,28,2,-10
1537917275829962,0,44,16,-3,-53,-83,2,14
1537917275829962,8,-25,-30,-16,-7,-4,8,-1
1537917275838939,-10,-2,12,7,27,0,0,6
1537917275838939,35,20,21,11,20,77,7,5
1537917275853898,1,-24,-21,-5,18,-14,-9,-20
1537917275853898,-20,-27,-6,-2,-6,-15,14,28
1537917275867861,22,25,-2,2,15,-34,-3,4
1537917275867861,-3,15,1,6,19,70,5,-15
1537917275876837,-2,-19,-11,-13,-6,-68,-12,12
1537917275876837,5,-21,-9,-4,0,69,6,1
1537917275877835,-14,-3,-5,-6,-9,-2,-7,2
1537917275877835,-5,3,-1,1,11,-2,2,-1
1537917275898778,5,3,3,10,14,3,3,9
1537917275898778,-21,14,0,-3,-10,-14,-2,-14
1537917275900773,9,3,16,-1,-5,-30,-12,-3
1537917275900773,-9,-12,-14,-4,12,31,-5,-4
1537917275913739,-4,7,10,7,10,-14,7,-2
1537917275913739,-15,2,4,-2,-18,2,-1,-4
1537917275927701,6,-12,-17,-7,0,-4,-3,-9
1537917275927701,5,2,-4,3,20,15,-1,6
1537917275936678,-9,-3,6,-1,-9,0,-5,-3
1537917275936678,1,-3,-2,-4,-15,-14,6,-4
1537917275944657,12,-3,-11,-5,4,-3,-16,-3
1537917275944657,-6,4,1,1,9,8,21,-1
1537917275959617,2,0,4,-5,-13,-15,2,1
1537917275959617,2,-6,0,3,-4,-7,-29,-5
1537917275960614,10,2,-10,-4,3,-17,-8,-3
1537917275960614,-4,0,4,0,-1,10,21,0
1537917275973579,1,-4,-5,-2,-6,4,14,-1
1537917275973579,4,-1,2,1,-2,-5,11,0
1537917275980560,7,-3,-6,-4,-6,-3,-12,-3
1537917275980560,4,-1,-1,-1,2,7,-14,-1
1537917275996518,4,-1,-4,-1,-1,-4,2,-1
