timestamp,emg1,emg2,emg3,emg4,emg5,emg6,emg7,emg8
1537909756796824,1,-2,4,-3,2,1,-2,0
1537909756796824,-2,6,1,7,0,-1,-1,-2
1537909756802808,0,-29,-7,0,0,-1,0,-17
1537909756802808,3,3,-2,11,1,2,2,32
1537909756802808,-4,6,13,-2,-2,-1,-3,1
1537909756802808,1,-1,2,-12,-3,-1,-1,-2
1537909756804802,-5,-11,-2,2,0,0,-3,-2
1537909756804802,1,-6,1,-2,0,-2,0,-11
1537909756815773,0,-2,-4,1,-4,-3,0,-3
1537909756815773,3,6,1,3,1,0,0,4
1537909756826744,-1,9,-17,-5,-1,0,-1,1
1537909756826744,2,13,17,1,0,-2,-2,-6
1537909756830733,-4,-8,10,6,3,0,1,1
1537909756830733,0,3,16,2,1,0,0,-3
1537909756846690,-1,18,-27,-4,-4,-2,0,2
1537909756846690,-9,-34,-9,-9,-6,-2,-3,-7
1537909756855666,6,0,2,3,4,3,1,1
1537909756855666,-5,3,-25,2,1,1,-2,-3
1537909756870627,1,-25,9,-8,-3,-1,0,1
1537909756870627,0,2,9,4,1,-1,-2,-2
1537909756875613,-3,6,-29,-2,-2,0,-2,-3
1537909756875613,-3,-13,5,-6,-2,-1,0,-1
1537909756890573,-2,-5,21,5,1,0,-3,3
1537909756890573,3,13,-20,-24,-8,-2,-1,-6
1537909756931464,3,2,-15,3,0,0,-1,2
1537909756931464,-2,-7,1,-3,-1,1,-3,-3
1537909756931464,1,-4,-17,-4,-1,0,1,-1
1537909756931464,1,3,2,-2,-1,-1,0,-1
1537909756932461,-2,-5,-14,-1,0,-1,0,-3
1537909756932461,6,10,22,4,2,0,2,3
1537909756935453,1,3,-1,0,-1,-1,0,2
1537909756935453,-2,-2,2,-4,-1,0,-1,1
1537909756944429,-3,-8,27,-3,-2,0,-2,-1
1537909756944429,1,6,-41,-3,-2,-3,-3,-1
1537909756950413,-2,-1,22,3,0,0,0,1
1537909756950413,3,10,-16,-3,0,0,-2,-2
1537909756967368,-5,-9,40,7,0,-1,-2,-2
1537909756967368,-3,5,-40,-15,-3,-2,0,-2
1537909756972354,0,-15,25,-1,-3,0,1,-1
1537909756972354,-2,1,-3,0,0,-1,0,-1
1537909756981330,2,6,2,-1,-3,-1,-1,-1
1537909756981330,-4,-13,15,3,0,0,-2,-2
1537909757004269,1,2,-33,-7,-1,-1,-1,-1
1537909757004269,0,0,28,10,-3,-4,1,-1
1537909757005267,2,-6,-27,-4,0,-1,1,0
1537909757005267,2,7,30,8,-1,1,0,0
1537909757018232,-3,8,7,19,4,0,-2,-3
1537909757018232,-2,-11,-14,-14,0,0,-2,-1
1537909757025213,3,8,-6,-13,-4,-2,-1,1
1537909757025213,-2,-3,-14,0,-3,-3,1,1
1537909757041171,0,5,25,-5,-1,0,-2,-2
1537909757041171,-3,-23,-10,2,1,0,0,-1
1537909757043166,-2,11,-16,10,1,-2,-2,-1
1537909757043166,-1,-5,29,0,0,1,1,1
1537909757064111,-2,-16,-9,-1,-1,-1,-2,0
1537909757064111,0,6,-9,-10,-2,-1,-2,-2
1537909757066105,-5,-19,-14,-9,-2,-1,-1,-2
1537909757066105,-1,3,-7,3,-2,-2,-1,0
1537909757079070,-2,-7,-12,-6,-2,-1,-3,-3
1537909757079070,1,12,30,4,-2,-2,-2,-1
1537909757085054,-2,-3,-42,-3,2,2,2,1
1537909757085054,-1,-2,8,8,2,0,0,-2
1537909757102009,-2,3,-13,-10,-4,-2,0,0
1537909757102009,1,0,-6,3,-4,-3,-1,-1
1537909757103007,-5,-2,-24,-10,-1,-1,-2,-4
1537909757103007,0,7,70,5,4,1,0,1
1537909757123950,2,13,-16,-3,0,0,-2,0
1537909757123950,0,-13,-4,0,0,-1,-1,-1
1537909757125946,-2,-8,12,4,-1,-1,0,-1
1537909757125946,-1,-5,-35,-9,-3,-2,-2,-5
1537909757138910,-1,2,23,1,-1,-1,0,-1
1537909757138910,-2,5,-4,5,0,2,-1,-1
1537909757144894,1,6,-38,-7,-2,-1,-2,-2
1537909757144894,-3,-13,16,1,0,-1,0,-1
1537909757161849,1,7,13,5,2,0,1,1
1537909757161849,-2,-2,-15,-2,-1,-2,-1,-1
1537909757162846,-1,1,25,4,-1,0,0,-1
1537909757162846,-2,3,-9,-4,-1,-1,-3,0
1537909757183789,0,-2,-15,1,1,-3,-2,-2
1537909757183789,-2,-1,11,5,-2,0,-2,1
1537909757185785,3,12,37,1,-1,-2,0,-1
1537909757185785,-6,-15,-79,-13,0,0,0,-4
1537909757198749,5,8,37,5,0,1,2,1
1537909757198749,0,2,2,-1,1,-1,0,0
1537909757205731,2,5,-15,7,3,-1,0,-1
1537909757205731,-6,-7,62,22,7,5,-3,-5
1537909757221688,-5,-21,-106,-8,9,1,-4,-6
1537909757221688,-6,18,-14,-43,-26,-15,-5,-5
1537909757222686,1,14,109,22,-11,-4,1,0
1537909757222686,2,2,-118,-14,-15,-17,-3,2
1537909757245625,-16,-14,126,10,13,10,-6,-8
1537909757245625,18,27,-71,8,16,6,14,12
1537909757246623,-9,-92,8,-6,-11,1,2,1
1537909757246623,-1,57,22,-27,-24,-15,-10,-5
1537909757257592,-17,-24,91,44,5,1,-9,-10
1537909757257592,7,82,-80,-13,2,7,1,1
1537909757266568,17,8,72,29,22,7,13,13
1537909757266568,-9,-43,33,24,22,13,5,-2
1537909757281528,10,-8,-78,-21,-24,-15,-1,2
1537909757281528,1,34,127,62,23,12,-3,-2
1537909757283523,3,11,-128,-30,-2,-3,-1,3
1537909757283523,3,24,113,53,-9,-4,-2,-1
1537909757304466,6,13,-49,-128,-12,3,5,7
1537909757304466,-12,-41,-4,112,14,4,-2,-8
1537909757305464,-23,-34,-98,-96,-3,-9,-15,-15
1537909757305464,15,42,73,21,13,11,18,12
1537909757317432,8,33,45,-32,-8,-9,-15,-7
1537909757317432,-2,-72,89,36,16,11,13,11
1537909757326408,-18,-46,45,-40,-32,-12,-7,-9
1537909757326408,10,43,-39,36,16,7,3,6
1537909757341368,-2,-21,-78,-5,-3,1,8,5
1537909757341368,-12,4,94,-54,-25,-26,-25,-14
1537909757343363,10,66,-91,44,27,9,8,4
1537909757343363,8,23,111,-13,-19,-1,0,3
1537909757364307,-8,-28,-95,-28,0,4,-1,-3
1537909757364307,6,-17,10,-4,-5,-3,8,6
1537909757365305,-10,17,100,59,-19,-9,-16,-10
1537909757365305,-6,-92,-128,-43,9,2,-2,-3
1537909757378269,-11,13,102,-18,-4,5,0,-3
1537909757378269,5,-38,-128,-64,-26,-3,-4,0
1537909757386249,7,51,43,-5,20,6,6,6
1537909757386249,-12,-26,23,60,21,-4,-7,-6
1537909757401208,1,19,-69,-33,-12,-4,3,1
1537909757401208,-16,-32,46,29,-18,-18,-13,-12
1537909757403203,14,22,19,25,34,21,7,8
1537909757403203,-30,-39,-64,-124,-50,-24,-25,-23
1537909757424147,3,-19,67,99,30,11,11,7
1537909757424147,8,83,126,6,5,-3,-4,-5
1537909757425144,6,-7,-128,-74,-42,-9,2,5
1537909757425144,-3,-28,86,27,6,4,7,3
1537909757438109,12,43,101,86,14,8,6,6
1537909757438109,-15,-44,11,-32,-7,-5,-6,-9
1537909757447085,12,78,-9,8,13,3,3,6
1537909757447085,10,-45,-41,-16,5,4,4,7
1537909757462045,-3,11,-79,-52,-19,-11,-4,-4
1537909757462045,10,-19,-50,80,39,18,12,10
1537909757468029,-20,-49,78,-30,-21,-6,-14,-14
1537909757468029,12,31,-33,22,2,2,9,9
1537909757483987,5,0,-79,36,17,1,3,1
1537909757483987,-9,-23,-72,-71,-21,-11,-6,-6
1537909757485982,-4,-22,15,11,5,-1,-2,-4
1537909757485982,7,33,-30,-22,5,9,4,3
1537909757497950,-9,-28,-8,-40,-23,-10,-10,-8
1537909757497950,-1,13,-8,6,4,6,3,2
1537909757506926,5,11,38,23,-1,-2,4,3
1537909757506926,-5,-3,25,-3,2,2,-3,-5
1537909757520889,1,9,12,23,2,-3,-1,2
1537909757520889,5,15,-27,-29,-5,0,2,2
1537909757527871,1,-11,-8,16,9,0,0,-2
1537909757527871,-4,-1,-5,-9,-5,-3,-5,-2
1537909757543828,2,4,6,0,-6,-5,0,2
1537909757543828,0,6,-22,-12,2,2,7,5
1537909757545825,-7,-19,17,6,-2,0,0,0
1537909757545825,-4,9,-6,-6,-5,-5,-16,-46
1537909757557791,3,12,22,9,-3,-5,-2,27
1537909757557791,-4,2,-7,-13,0,2,2,6
1537909757566768,7,-7,0,8,2,1,2,0
1537909757566768,-7,9,6,-5,0,-1,6,-13
1537909757580730,7,7,4,10,6,-4,-5,-4
1537909757580730,-5,9,-2,-22,-7,-3,-3,-13
1537909757587711,-3,1,-11,11,2,0,3,23
1537909757587711,2,13,-59,-10,0,1,-3,1
1537909757604664,-3,1,24,12,0,0,1,-9
1537909757604664,2,-1,-8,-7,0,-2,0,8
1537909757605663,-1,-3,9,-2,-4,-3,-1,-9
1537909757605663,-4,-14,-13,0,-2,-4,-3,2
1537909757626605,-6,-4,16,-19,4,2,1,-3
1537909757626605,7,-3,-82,17,-7,-1,3,2
1537909757628601,-4,4,16,9,3,0,-2,-11
1537909757628601,-1,-16,0,10,-1,1,2,13
1537909757640568,-2,-20,13,8,-2,-1,-1,2
1537909757640568,0,21,71,-7,8,8,-3,-7
1537909757647550,-3,-52,-94,-26,-8,-5,-3,-4
1537909757647550,6,11,62,16,-1,-2,3,13
1537909757664504,-1,-11,10,-1,-5,0,-1,-6
1537909757664504,-3,-20,0,-6,1,0,-3,-5
1537909757665502,-4,-1,19,10,2,1,-1,-2
1537909757665502,0,-4,2,-13,-3,-4,0,5
1537909757686446,-2,-4,-58,-8,-2,-3,-3,-9
1537909757686446,1,14,-21,6,5,-2,1,1
1537909757688440,5,19,60,16,-1,1,1,3
1537909757688440,1,3,-4,-8,0,1,2,2
1537909757701406,0,13,3,14,1,0,1,-2
1537909757701406,-6,-20,-37,-16,-7,-4,-3,0
1537909757707390,-3,6,43,2,-2,-2,-5,-5
1537909757707390,0,6,-66,-15,-2,-1,-2,1
1537909757724346,2,-4,7,9,0,0,3,1
1537909757724346,0,-2,10,-6,1,-1,0,2
1537909757725344,0,-13,15,4,-2,0,-1,-3
1537909757725344,0,-1,15,-2,-2,-1,-1,1
1537909757746286,-2,-4,1,-3,-1,-2,-1,-1
1537909757746286,1,-17,-11,-9,-6,-1,-1,-3
1537909757748282,2,37,41,2,0,-1,-2,-1
1537909757748282,0,15,-22,1,0,1,2,4
1537909757761246,0,-4,10,-3,1,-1,-1,-1
1537909757761246,-2,8,8,11,2,0,-1,1
1537909757768227,-1,-5,-9,-6,-4,-1,-4,-3
1537909757768227,-1,-13,49,1,-2,-3,-2,1
1537909757784184,-4,-5,-32,-12,-5,-2,-1,-4
1537909757784184,2,7,14,-6,0,-1,0,0
1537909757785183,-3,-26,-26,5,-1,0,-1,0
1537909757785183,-1,-3,16,9,0,2,1,0
1537909757807123,-1,-10,-2,0,-2,-1,-1,0
1537909757807123,-3,-4,8,-7,-2,-2,-2,-1
1537909757808120,0,15,-22,-5,0,0,1,-1
1537909757808120,-1,-9,10,4,3,0,1,1
1537909757820088,-1,8,9,1,1,-1,-2,-1
1537909757820088,-1,1,-8,-2,0,0,1,-2
1537909757829064,2,7,-4,-3,-2,-2,1,0
1537909757829064,2,2,-10,-2,2,-2,-1,0
1537909757844024,-8,-23,5,-5,-1,1,-1,-3
1537909757844024,1,13,5,13,0,0,-2,1
1537909757846019,1,1,9,-2,0,1,-1,0
1537909757846019,-2,0,4,-6,-3,1,-3,-3
1537909757866963,0,-7,16,0,1,3,-2,-2
1537909757866963,-4,13,23,14,1,-2,-3,-4
1537909757867960,3,11,-96,-24,-15,-8,1,1
1537909757867960,2,-7,-4,14,2,3,1,3
1537909757879928,1,8,2,-5,-4,-3,-1,0
1537909757879928,1,-8,18,-4,-2,2,0,0
1537909757888904,-1,-7,17,6,3,1,-2,-1
1537909757888904,-1,-8,-10,-7,-3,-4,0,0
1537909757902867,3,17,-1,1,-1,-2,-2,-1
1537909757902867,-1,-11,-6,-3,-1,-2,-2,0
1537909757911843,-3,-4,4,-2,1,0,-1,-1
1537909757911843,1,0,-3,-5,-4,-2,1,-10
1537909757925806,-4,-4,9,7,4,1,-3,-3
1537909757925806,0,-2,-11,-2,0,0,-2,1
1537909757932787,-1,-6,-1,1,2,1,-1,4
1537909757932787,1,2,8,-4,2,30,23,-22
1537909757948745,4,9,-9,3,-3,-16,21,87
1537909757948745,-5,0,-12,-2,1,-12,-3,-74
1537909757950740,-5,-1,9,2,-1,-14,-43,-19
1537909757950740,0,3,6,3,2,-1,-17,1
1537909757962708,-7,-20,-16,-3,4,103,51,4
1537909757962708,6,-4,-2,6,0,-46,78,-2
1537909757971684,25,11,13,2,-7,-54,-69,83
1537909757971684,-1,18,7,3,2,-13,32,-27
1537909757987641,-2,-2,2,7,-1,30,-11,25
1537909757987641,1,-14,-7,-6,8,127,106,68
1537909757992627,34,26,11,8,-5,-80,50,-38
1537909757992627,-60,-25,-6,-15,-9,7,-88,18
1537909758009582,-5,5,-17,-15,-12,-12,-27,-98
1537909758009582,46,12,5,-1,1,36,-21,66
1537909758010580,42,0,15,17,12,94,127,99
1537909758010580,-11,-14,-1,5,-3,-72,-2,-73
1537909758022547,-83,-22,-7,-13,-23,-127,-53,-128
1537909758022547,-12,-12,-15,-14,-7,-32,-128,16
1537909758031523,-1,-8,-4,-10,4,27,87,10
1537909758031523,3,4,23,24,26,115,108,-72
1537909758045486,30,6,-9,-31,-30,-65,-52,68
1537909758045486,-19,-17,-17,-5,11,58,-4,-30
1537909758054462,26,-2,1,2,7,-89,5,76
1537909758054462,-54,-17,-13,-14,-5,-7,-56,-53
1537909758069422,20,36,6,18,26,61,40,-57
1537909758069422,23,24,16,5,3,16,31,-83
1537909758070420,1,-15,-4,4,0,69,-38,76
1537909758070420,-6,-19,-10,-7,-6,34,17,-18
1537909758082387,33,-1,-1,2,-4,-53,-40,-3
1537909758082387,-18,-7,6,1,0,-16,-4,5
1537909758091363,12,2,-7,-11,5,86,22,-36
1537909758091363,26,17,3,-5,0,-35,8,-11
1537909758106323,-12,-5,5,8,5,34,0,15
1537909758106323,-7,-5,-7,-2,0,14,2,-33
1537909758112307,-17,-8,-3,-1,-4,-12,2,-27
1537909758112307,13,5,-7,-5,-10,-41,-28,73
1537909758129262,1,-6,0,4,10,65,44,1
1537909758129262,6,15,8,7,-10,-84,2,63
1537909758130259,-71,-16,-8,-9,-13,-39,-79,-128
1537909758130259,9,-2,-14,-6,-8,-1,-11,66
1537909758151203,8,19,12,8,4,12,19,2
1537909758151203,-13,-9,-5,-3,-10,-20,4,8
1537909758153198,-10,0,-1,-6,-3,12,-26,-10
1537909758153198,14,-3,3,2,-2,-15,2,-2
1537909758166163,8,-11,2,5,0,-12,21,21
1537909758166163,-3,-9,-1,0,-9,-25,-22,-5
1537909758173144,-11,-3,-1,1,3,19,-5,-31
1537909758173144,16,9,6,3,-2,1,14,23
1537909758189102,2,0,2,4,0,-18,-4,26
1537909758189102,-5,2,1,0,-1,-9,-9,-7
1537909758190099,-12,-3,-2,0,2,6,4,-27
1537909758190099,6,4,2,3,1,-5,7,27
1537909758212041,-2,-5,-2,6,5,-5,-7,8
1537909758212041,0,1,-4,-11,-2,5,1,-11
1537909758213038,-6,-3,0,-10,-6,-13,1,-7
1537909758213038,3,0,0,1,-1,-8,-8,15
1537909758226004,0,-4,-8,61,19,8,0,-1
1537909758226004,-3,-4,-9,-74,-8,-3,0,-4
1537909758232985,-8,1,9,-1,-18,-23,-10,-3
1537909758232985,8,6,-2,-7,-7,-4,-1,12
1537909758248942,1,2,11,-4,-5,2,4,-1
1537909758248942,-6,-9,-17,87,36,2,1,2
1537909758250937,-2,-2,2,-101,-31,-6,-10,-5
1537909758250937,2,8,39,-17,-2,0,0,-1
1537909758271881,1,1,-13,8,-6,-8,6,6
1537909758271881,2,7,-16,-3,-11,-12,-3,2
1537909758272878,-1,1,17,46,21,9,0,-2
1537909758272878,6,-5,-16,33,11,5,2,7
1537909758286841,-3,-6,18,-56,-6,-3,-4,5
1537909758286841,-4,-10,-29,31,8,0,-4,-4
1537909758294819,-7,-5,15,-18,-5,0,-3,-9
1537909758294819,-2,-2,3,71,13,0,-3,1
1537909758308782,3,12,-15,-57,-4,-1,1,2
1537909758308782,5,9,5,-17,-10,-8,6,0
1537909758310777,1,-6,-25,27,7,-1,3,1
1537909758310777,4,-2,6,7,0,-1,-1,7
1537909758331721,-3,-6,12,33,7,4,-4,-3
1537909758331721,-3,-3,18,-17,-5,-1,-4,-5
1537909758332718,-3,-4,-60,7,8,-1,0,0
1537909758332718,-2,-10,-49,-36,-7,0,-5,0
1537909758345684,-4,3,7,2,-5,-9,0,-5
1537909758345684,4,18,57,14,-1,0,4,2
1537909758354661,2,3,28,27,2,-2,-2,1
1537909758354661,2,-2,1,-26,-4,2,2,3
1537909758369621,-2,-8,-21,-15,-6,-3,-1,0
1537909758369621,-3,-7,-9,4,-4,-5,-4,-2
1537909758370620,-1,0,4,-1,5,3,-1,-4
1537909758370620,1,3,-11,-13,-3,-2,2,2
1537909758391561,0,-1,9,4,-4,-4,-2,1
1537909758391561,-3,-3,-5,3,-1,-3,-2,-1
1537909758393555,-1,1,-7,11,2,0,2,-3
1537909758393555,1,1,11,-11,-2,-1,0,1
1537909758405523,-1,-3,-6,4,-5,0,0,1
1537909758405523,-2,-4,-4,-16,-6,-1,-3,-1
1537909758414500,0,0,-2,-6,-3,-3,-1,0
1537909758414500,-1,1,0,-7,-1,-3,-2,-2
1537909758429459,0,3,17,4,0,0,2,-1
1537909758429459,0,-2,-5,10,3,0,0,0
1537909758430457,-3,-1,4,5,0,-1,-1,-2
1537909758430457,-1,1,1,6,0,0,0,1
1537909758451401,-1,-3,-10,5,2,0,1,-1
1537909758451401,-1,-2,2,-13,-6,-2,0,-2
1537909758453396,-2,-2,-2,9,3,1,0,-2
1537909758453396,0,2,-2,-16,-3,2,0,0
1537909758465364,0,0,-2,0,-2,-1,1,1
1537909758465364,-2,-2,1,1,-1,-2,-2,-1
1537909758474340,0,2,1,-1,-1,-4,-1,-1
1537909758474340,0,0,0,5,0,-2,0,-1
1537909758489301,-3,-3,-8,-6,2,0,0,1
1537909758489301,0,-1,4,6,5,0,-2,1
1537909758490299,-1,-2,-24,-7,-1,0,-1,0
1537909758490299,-2,2,21,-18,-12,-4,-2,-1
1537909758512240,1,0,-6,-7,2,-2,0,0
1537909758512240,-1,-2,3,12,1,1,1,-1
1537909758513238,-1,-3,-1,4,-1,1,-1,-1
1537909758513238,0,1,-2,9,1,-2,0,0
1537909758525205,0,0,-3,3,0,1,-1,0
1537909758525205,-2,-1,-4,-3,-1,-1,-2,-2
1537909758534181,-1,1,5,-2,-2,-2,-1,-2
1537909758534181,-2,0,-5,2,2,0,0,0
1537909758548144,-1,-1,4,1,-2,0,-2,-3
1537909758548144,-1,-1,-4,-9,-5,-2,-2,-1
1537909758555125,-1,0,5,-1,-2,0,0,-2
1537909758555125,0,-1,-2,-5,0,0,-1,0
1537909758572079,1,-1,-2,2,0,-1,-1,1
1537909758572079,-1,1,-3,-6,-2,-2,0,0
1537909758573077,-2,-1,1,-4,-1,-1,-1,-1
1537909758573077,0,-1,-1,1,2,-1,0,-2
1537909758594021,-1,0,0,0,-2,-1,-1,-2
1537909758594021,0,-1,-4,-3,-3,-3,-1,0
1537909758596016,0,-1,3,0,0,0,-2,1
1537909758596016,0,1,-4,0,-1,0,0,1
1537909758608980,-2,-1,0,-1,1,0,0,-1
1537909758608980,1,-1,-4,-11,-6,-1,0,-4
1537909758614964,-1,-2,3,2,-1,-2,-2,-1
1537909758614964,0,0,1,-1,-2,1,0,0
1537909758631919,0,-1,-3,0,0,-1,-2,0
1537909758631919,-2,-1,-4,0,1,1,1,-2
1537909758632916,-1,-1,-2,-3,-2,-3,0,-2
1537909758632916,-2,1,-1,4,0,0,1,-1
1537909758655855,-1,-1,-1,0,-1,-1,1,-1
1537909758655855,0,-2,2,2,1,-1,-2,-1
1537909758656852,-2,-5,-3,-1,-2,14,15,-24
1537909758656852,13,-2,-2,2,3,14,25,72
1537909758667822,-23,-10,-4,-2,5,55,0,-88
1537909758667822,5,21,19,11,-1,-67,-17,42
1537909758676799,25,-7,0,7,9,91,12,91
1537909758676799,-10,5,4,-3,-16,-114,37,-69
1537909758691759,21,-8,0,10,8,105,-15,114
1537909758691759,-2,-10,-1,-9,-13,-86,50,-39
1537909758692756,15,35,14,-2,-2,-34,-93,18
1537909758692756,-29,5,11,1,5,-20,41,51
1537909758713700,-18,4,-5,-16,-31,-120,-63,-105
1537909758713700,-19,-3,-13,-8,9,29,-71,-11
1537909758715695,-7,-2,-8,-1,6,26,52,33
1537909758715695,31,1,-2,3,11,127,16,69
1537909758727664,-12,-10,-8,1,-1,-51,82,59
1537909758727664,22,0,-11,-11,-9,29,35,-16
1537909758736639,-4,-6,0,-5,-19,-128,-53,-64
1537909758736639,29,14,-6,2,16,88,-6,62
1537909758751599,-25,-8,2,-7,-13,-92,-34,-84
1537909758751599,-7,-11,-1,1,7,25,6,97
1537909758753594,1,-4,-5,-3,7,65,20,-33
1537909758753594,-11,-18,0,-1,2,20,1,-65
1537909758765562,31,3,1,1,3,17,7,111
1537909758765562,-12,-7,-3,-1,-3,22,9,-29
1537909758774538,7,1,3,1,-2,-18,-1,22
1537909758774538,-17,-9,-4,-3,-6,-43,-19,-24
1537909758789497,-5,5,3,-1,3,24,2,-33
1537909758789497,5,5,1,2,-2,-6,-24,-21
1537909758791492,-22,-11,-5,-3,1,8,31,-10
1537909758791492,2,-2,-3,-3,-6,-28,-33,-25
1537909758811439,9,5,-1,3,3,9,-3,1
1537909758811439,1,0,1,5,1,19,9,8
1537909758813434,-1,-1,1,27,2,-13,3,4
1537909758813434,-9,-1,-5,-10,-6,-17,-16,-26
1537909758825403,12,5,-1,32,0,8,-3,22
1537909758825403,-5,-4,-7,-48,1,15,6,4
1537909758834379,-7,6,12,-39,-18,-1,2,-16
1537909758834379,1,0,0,13,-3,-24,-22,-12
1537909758849338,-4,-5,-5,11,0,20,16,4
1537909758849338,3,1,0,14,-1,7,-6,-3
1537909758850335,-5,-10,-22,-23,3,3,-4,-5
1537909758850335,-4,-2,15,-49,-17,-11,-5,-2
1537909758873274,5,10,25,29,-6,-6,3,9
1537909758873274,-1,0,-12,14,5,10,3,-6
1537909758874271,-1,-3,10,42,9,1,-2,6
1537909758874271,-1,-5,-25,-26,5,-2,-4,-2
1537909758885241,-3,-2,7,-64,-10,5,-2,-5
1537909758885241,2,1,1,10,4,-2,-4,-4
1537909758894217,-5,-3,-1,14,1,2,9,0
1537909758894217,-3,-2,-4,12,-5,-8,-10,-7
1537909758908180,2,1,-13,0,7,5,1,4
1537909758908180,0,-1,4,-2,-2,3,1,2
1537909758915161,-1,0,3,30,9,-2,0,1
1537909758915161,0,-3,-3,28,9,3,-2,-4
1537909758932115,2,2,-2,-90,-17,-2,0,2
1537909758932115,-2,-3,1,2,-2,-3,0,0
1537909758933113,-1,0,-4,-25,-6,-1,0,-5
1537909758933113,2,2,6,30,-1,-5,-3,0
1537909758945081,-1,-2,-9,20,10,6,2,-1
1537909758945081,0,-1,2,3,-2,1,-2,-1
1537909758954057,-1,1,5,-3,-4,-3,0,-1
1537909758954057,-2,0,1,-4,2,-1,-1,0
1537909758968020,-2,-3,-4,16,6,2,0,1
1537909758968020,-2,-1,0,-5,-4,-1,-1,-1
1537909758975001,-1,-2,-5,-4,-1,-2,-1,1
1537909758975001,-2,-1,0,18,2,-2,-2,-2
1537909758992953,-2,0,-5,-26,-4,1,0,-2
1537909758992953,-1,1,7,14,-1,1,-1,-1
1537909758993950,-2,0,-3,-2,2,2,1,-3
1537909758993950,2,1,-3,-15,-9,-4,-2,-2
1537909759004921,-2,0,6,20,3,-1,0,0
1537909759004921,-2,-2,-3,-9,0,0,-2,-2
1537909759013897,0,1,-4,-5,0,-2,0,-1
1537909759013897,-2,1,0,2,-1,0,-1,-3
1537909759028857,0,-2,-1,19,5,0,0,1
1537909759028857,-3,-2,0,-10,-4,-2,0,-1
1537909759034842,0,0,-1,-10,-1,-1,0,-1
1537909759034842,-2,-1,2,22,4,0,1,0
1537909759051797,-1,-2,-4,-47,-7,-1,-2,0
1537909759051797,-1,-1,-2,13,2,-1,-1,-3
1537909759052794,-1,-1,1,15,-2,-1,-2,-1
1537909759052794,-1,-1,-5,-28,-5,-1,-2,0
1537909759073737,-1,0,3,26,8,1,-1,1
1537909759073737,-2,-2,-1,-2,-2,-2,0,-1
1537909759075733,-1,-2,-3,-1,0,-1,0,1
1537909759075733,0,0,1,5,1,-1,-1,0
1537909759088697,-1,-1,-4,21,4,0,-2,-2
1537909759088697,-1,-2,3,-25,-7,-2,-3,-3
1537909759095679,-1,0,0,7,0,-2,1,0
1537909759095679,1,-1,-3,3,0,1,0,-1
1537909759111636,1,-4,0,5,0,0,0,0
1537909759111636,-2,-1,-4,1,-5,-3,-2,0
1537909759112634,-1,-2,-3,-9,-4,-2,-2,1
1537909759112634,-1,0,1,0,1,-1,0,-1
1537909759134575,-2,1,1,10,3,2,-2,0
1537909759134575,0,-2,-1,4,1,2,0,-3
1537909759135572,-2,0,-1,-7,-4,0,0,-2
1537909759135572,0,-1,-1,-7,0,-2,-2,-1
1537909759148537,-1,-1,-1,7,-2,-1,-2,-2
1537909759148537,-1,-2,-2,-8,0,-1,-2,1
1537909759155518,-3,-2,-2,-6,-2,-1,-3,-2
1537909759155518,0,-1,-1,-2,-2,-1,-2,-1
1537909759171476,1,1,-1,1,-1,0,0,-1
1537909759171476,1,-1,-1,2,-1,-2,-1,-1
1537909759173470,0,0,0,-1,-1,-1,-1,-3
1537909759173470,-1,0,-1,-2,-3,-1,-2,1
1537909759193417,1,-1,1,-1,-2,-1,0,1
1537909759193417,0,-1,-2,6,1,0,0,1
1537909759194414,0,-1,-2,-5,-2,0,0,0
1537909759194414,0,2,2,4,0,0,0,0
1537909759207380,-1,-1,-3,-7,0,-1,-1,-2
1537909759207380,-1,-1,-2,3,2,0,2,0
1537909759216356,-1,-1,-3,-2,-1,-1,-1,0
1537909759216356,0,0,0,-4,-1,-2,-1,-1
1537909759231316,-1,-1,0,3,-4,-2,-1,0
1537909759231316,-1,0,1,-1,2,0,0,0
1537909759231316,0,0,-3,-5,0,0,-1,1
1537909759231316,-1,-2,-1,2,-2,1,-1,1
1537909759253257,-9,-13,-5,0,7,57,20,-23
1537909759253257,0,-2,1,6,8,0,41,62
1537909759254254,3,4,2,-3,-3,21,-29,-80
1537909759254254,-6,-8,9,17,17,65,55,64
1537909759268217,-13,-3,-11,-21,-39,-89,-27,-36
1537909759268217,7,0,4,15,14,84,45,18
1537909759269215,40,18,0,-9,-18,-92,53,122
1537909759269215,-13,4,-2,-5,16,104,-98,52
1537909759291156,-17,-5,4,3,-30,-94,30,53
1537909759291156,50,9,-1,-7,1,49,-91,-14
1537909759292153,0,-12,-7,1,22,121,104,39
1537909759292153,-11,15,-2,-13,-27,-128,-87,-96
1537909759313097,3,3,-2,1,18,12,-25,-19
1537909759313097,-9,4,-4,-4,1,47,47,31
1537909759314095,-12,-10,0,6,7,81,11,-79
1537909759314095,-16,-23,-12,-14,-16,-59,-5,-74
1537909759344014,-24,-14,-5,-2,-3,-56,-48,-49
1537909759344014,-15,-5,-2,0,3,32,25,-65
1537909759345012,16,1,-2,-9,-14,-53,-45,-77
1537909759345012,11,-6,-6,-2,5,41,43,-1
1537909759350996,19,7,5,2,5,6,-25,25
1537909759350996,-14,-5,-7,-9,-10,-46,-1,-72
1537909759351993,-36,-13,5,7,11,28,-5,127
1537909759351993,22,6,4,-4,-6,-43,2,32
1537909759373934,3,3,5,5,5,44,-3,-25
1537909759373934,7,0,2,2,2,-53,-5,31
1537909759373934,7,2,2,3,4,16,-4,-22
1537909759373934,2,0,3,1,-2,-59,-20,-9
1537909759387897,-15,-9,-5,0,9,62,29,-14
1537909759387897,-1,6,-1,3,-11,-37,-7,0
1537909759395876,-18,3,-1,-3,-14,-87,-45,0
1537909759395876,-17,-8,-11,-9,-2,54,20,-27
1537909759410836,17,11,4,7,10,80,46,45
1537909759410836,-16,-9,-5,-6,-31,-128,-53,90
1537909759411833,0,1,-3,-2,0,-23,-30,20
1537909759411833,12,4,3,1,1,32,29,24
1537909759433775,8,-1,-1,2,2,3,18,16
1537909759433775,-6,3,2,3,4,32,-2,-47
1537909759433775,2,-3,-1,-1,-2,0,4,-3
1537909759433775,5,1,1,4,-10,-40,11,16
1537909759447738,-1,4,4,3,4,-12,-32,-24
1537909759447738,-5,-7,0,0,5,17,29,-5
1537909759463695,-3,1,1,-3,-4,-18,-8,-21
1537909759463695,1,0,-1,1,3,12,9,-13
1537909759472671,2,-2,-1,-3,-2,-7,-7,10
1537909759472671,-3,-1,0,0,2,8,-10,-8
1537909759472671,0,-1,1,-3,-1,0,1,-8
1537909759472671,-3,-2,-2,-2,0,2,5,-3
1537909759493615,4,3,-1,9,6,6,5,18
1537909759493615,-4,-7,-8,-9,7,-9,-5,-3
1537909759494612,-8,-8,-7,-19,-9,1,-6,-22
1537909759494612,3,6,8,-37,-14,2,3,12
1537909759507577,3,3,7,34,4,-12,0,2
1537909759507577,1,-1,-5,1,6,10,-5,-13
1537909759515556,-2,1,0,-35,-3,-2,-7,-9
1537909759515556,-5,-7,-15,25,6,4,3,1
1537909759530516,3,1,4,-36,-13,0,3,7
1537909759530516,-5,2,8,18,-4,-3,-6,-12
1537909759531514,2,1,-6,15,7,7,1,3
1537909759531514,1,1,5,-10,-4,-5,3,4
1537909759553455,1,-3,-6,38,14,4,3,-2
1537909759553455,-1,-3,-5,-3,3,3,-6,0
1537909759554452,-1,-4,1,-8,-6,-5,-2,-5
1537909759554452,0,1,9,-20,-4,4,5,-4
1537909759567418,-2,-1,-6,-39,-11,-8,-3,0
1537909759567418,1,3,4,9,-1,1,0,-2
1537909759576394,-1,1,0,23,2,0,0,-1
1537909759576394,1,1,1,14,2,2,1,0
1537909759591354,0,-1,-3,3,4,2,0,4
1537909759591354,0,-2,-4,-8,-5,-3,-4,-1
1537909759591354,0,0,-4,5,4,2,-1,-6
1537909759591354,0,-3,-2,11,8,2,-1,2
1537909759614292,-2,1,1,1,-1,-6,0,0
1537909759614292,-1,-2,-5,-26,-8,-4,-3,-6
1537909759621273,-1,1,2,11,1,-1,-1,-3
1537909759621273,-1,-1,-2,-5,1,-1,-1,1
1537909759627257,1,-1,-1,2,-1,-1,1,0
1537909759627257,0,1,2,2,0,1,0,-1
1537909759636233,-2,-1,1,0,-1,1,-2,0
1537909759636233,-1,0,-4,1,-1,-1,-1,-1
1537909759651194,0,-1,0,-1,0,-1,0,-1
1537909759651194,0,1,1,2,-1,-2,-1,-1
1537909759651194,0,0,1,-5,-2,-3,-3,-1
1537909759651194,0,-2,-2,9,3,1,2,-1
1537909759673135,-2,0,-2,-4,-2,-3,-1,0
1537909759673135,0,1,-1,-5,-1,-2,0,-1
1537909759674132,0,0,0,1,1,-1,0,-1
1537909759674132,-1,0,-2,0,1,1,-2,0
1537909759688095,1,0,1,-3,-1,-1,0,1
1537909759688095,-2,-3,0,1,-1,2,-1,-1
1537909759696073,-2,-1,1,2,0,-3,0,-2
1537909759696073,-2,-1,0,3,-1,-2,0,0
1537909759711033,-1,-2,-3,-6,-1,0,-2,-4
1537909759711033,0,0,-1,5,1,0,0,1
1537909759712031,1,1,-1,3,2,0,0,-1
1537909759712031,-2,-1,-1,-6,-4,-3,0,-1
1537909759732975,0,-1,-1,-2,0,-2,-1,-1
1537909759732975,-2,-3,-1,-2,-3,-2,-1,-3
1537909759733972,-1,-2,0,-2,-1,-2,-2,-2
1537909759733972,0,-1,-2,3,2,1,0,0
1537909759747935,-1,-2,-1,0,1,0,0,0
1537909759747935,-1,0,0,1,0,0,-1,0
1537909759755913,-2,-2,1,0,-3,-2,-2,-2
1537909759755913,-1,2,0,3,1,-1,1,-1
1537909759770874,-1,0,-1,-1,-2,0,-2,-1
1537909759770874,0,0,1,-1,0,1,0,-2
1537909759771871,0,-1,-2,-1,-3,-1,-1,1
1537909759771871,-1,1,-3,2,0,0,0,-1
1537909759793812,-2,-1,-1,-2,-1,0,1,0
1537909759793812,-1,0,1,-1,-2,0,2,-2
1537909759793812,1,-1,-3,-3,-1,10,9,30
1537909759793812,-3,-2,0,1,9,84,11,-50
1537909759816751,11,1,-1,3,3,-9,35,36
1537909759816751,7,-1,-2,-1,-8,-16,-86,78
1537909759817749,-3,9,4,5,14,55,78,-16
1537909759817749,13,2,-3,-14,-28,-128,-81,-58
1537909759830713,-67,-23,-20,-22,11,114,42,-104
1537909759830713,61,24,9,3,3,-55,88,29
1537909759831711,-49,-14,-12,-19,-29,-20,-60,-100
1537909759831711,24,13,4,10,16,127,71,116
1537909759853652,8,12,5,-3,-12,-128,-37,-125
1537909759853652,-10,-3,-2,0,5,29,-21,-47
1537909759853652,4,-6,0,2,12,100,26,-42
1537909759853652,1,-4,-4,-4,-11,-128,10,61
1537909759867615,-46,-24,-5,-5,-23,-46,-57,46
1537909759867615,21,15,2,-3,-2,28,8,-68
1537909759875594,8,10,9,8,6,-31,7,94
1537909759875594,0,0,2,3,11,80,10,-5
1537909759890553,13,-17,2,3,16,115,27,113
1537909759890553,-32,-13,0,-2,-1,-108,10,-74
1537909759891551,1,-3,1,0,-9,20,14,7
1537909759891551,-6,0,1,1,6,22,-25,-36
1537909759913492,31,18,6,6,8,-21,-4,67
1537909759913492,-5,-15,-5,-3,-7,52,27,-1
1537909759914490,-6,-2,-4,-3,9,12,-11,-75
1537909759914490,-26,-7,-8,-5,-12,-102,1,-13
1537909759927455,12,9,4,4,-1,-10,-15,-33
1537909759927455,-27,-9,-6,0,4,43,-27,-17
1537909759936431,20,4,0,5,-2,-54,-8,8
1537909759936431,-4,-7,-2,2,0,22,-11,-85
1537909759951391,-2,5,2,3,-4,6,8,13
1537909759951391,1,2,0,2,-1,18,4,19
1537909759951391,8,-4,0,1,-9,-60,-27,17
1537909759951391,-10,0,-3,-5,-1,7,1,-25
1537909759973333,9,2,0,1,-3,3,12,4
1537909759973333,5,6,2,3,1,-3,10,35
1537909759974330,-20,-2,2,0,2,-4,-35,-75
1537909759974330,-3,-6,1,0,-4,8,-3,12
1537909759996271,8,6,-1,-2,-8,-29,3,-20
1537909759996271,-14,-14,-4,-4,0,23,-4,9
1537909759997268,6,2,-4,-1,1,4,-7,15
1537909759997268,6,7,7,3,1,-8,4,13
1537909760012228,4,-3,0,-1,1,-2,4,-3
1537909760012228,-9,-4,-1,1,1,0,-9,-13
1537909760013226,8,-2,-2,-3,1,3,12,40
1537909760013226,0,-2,-1,-4,1,2,7,11
1537909760033172,0,1,-2,1,5,3,-9,-16
1537909760033172,-3,1,-2,-4,-4,0,0,8
1537909760034170,2,-2,0,2,0,-6,5,12
1537909760034170,-1,-3,-2,2,5,4,0,3
1537909760057108,0,-2,-1,-12,-8,-3,-8,-10
1537909760057108,0,-1,-3,2,0,0,7,5
1537909760057108,0,-1,1,0,-5,-11,0,14
1537909760057108,-2,-1,-2,16,6,6,-2,-6
1537909760071072,3,-1,-7,-9,2,5,2,3
1537909760071072,-3,3,9,-9,-11,-11,-1,3
1537909760072069,0,-1,-7,22,5,-2,-1,4
1537909760072069,1,-1,3,-67,-17,3,-1,6
1537909760093012,3,1,-15,55,8,-1,1,-5
1537909760093012,-5,-2,50,-30,1,0,-4,-2
1537909760094010,-1,-1,-41,-15,-12,-8,-5,4
1537909760094010,-1,-7,-10,31,9,7,5,3
1537909760116948,2,5,7,-21,-9,0,2,1
1537909760116948,0,-1,-6,-4,0,-3,-3,-3
1537909760116948,3,3,24,13,6,1,1,8
1537909760116948,-1,-2,-1,0,0,-1,1,2
1537909760130911,-2,-3,-1,3,0,0,-2,-5
1537909760130911,-1,1,-6,18,3,1,-1,1
1537909760131908,0,-1,3,-18,-2,-2,-1,2
1537909760131908,0,-1,-7,5,-2,-1,-2,-2
1537909760154847,-2,0,6,-3,0,-1,-1,-4
1537909760154847,1,1,-11,0,0,0,3,1
1537909760155844,-1,-2,-4,-6,-1,-3,0,2
1537909760155844,-2,2,5,2,-2,-4,-3,-1
1537909760176789,2,1,5,-3,0,1,0,0
1537909760176789,-1,-3,-14,1,0,-2,1,0
1537909760177786,-1,-1,3,-1,0,-2,-2,1
1537909760177786,0,1,5,5,-1,0,0,1
1537909760190751,0,0,0,-9,-2,-1,1,-2
1537909760190751,0,-3,-10,25,7,3,-2,0
1537909760191748,0,-3,3,-9,0,-1,-1,-2
1537909760191748,-1,-1,4,-8,-9,-4,-1,-2
1537909760213690,-1,2,-3,5,3,0,-1,-1
1537909760213690,0,-1,-6,-3,0,-2,-3,-3
1537909760213690,0,0,2,9,-1,-2,1,3
1537909760213690,-1,-1,-2,3,2,-1,0,-1
1537909760236628,-2,-3,1,-3,-2,-2,-2,-1
1537909760236628,-1,-1,-1,11,1,2,0,2
1537909760237626,-1,-1,0,-4,1,0,0,0
1537909760237626,-1,-1,-1,-4,0,0,1,0
1537909760250591,-1,-2,0,1,-2,-1,-4,-1
1537909760250591,3,2,-7,-7,0,0,4,2
1537909760251589,1,-1,1,-5,-2,-2,-4,-1
1537909760251589,-3,-5,-1,2,0,0,0,0
1537909760273530,-1,0,2,0,2,1,2,0
1537909760273530,-2,-2,-5,-5,-3,-1,-2,-1
1537909760274528,-1,-1,-1,-4,-1,1,-1,-2
1537909760274528,0,1,1,5,3,1,-2,-1
1537909760296468,-1,0,-1,-7,-3,-2,-3,-1
1537909760296468,-3,-3,-2,-4,-3,-1,-1,-2
1537909760297466,-2,-12,-1,17,6,3,2,0
1537909760297466,-7,-18,-34,41,12,0,-2,-2
1537909760310431,4,31,24,-73,-32,-15,-9,-7
1537909760310431,1,-19,49,37,7,9,6,2
1537909760311428,-9,-17,-5,-39,0,2,-7,-7
1537909760311428,8,4,-94,-21,-16,-12,-1,2
1537909760333370,-6,-9,23,-104,-36,-7,-3,-3
1537909760333370,10,17,41,70,50,24,19,11
1537909760334367,-13,45,-24,-23,-30,-24,-22,-15
1537909760334367,6,-63,119,2,-10,-6,11,8
1537909760356308,16,87,62,105,15,7,12,14
1537909760356308,-25,-86,89,75,38,2,-16,-11
1537909760357306,0,-67,-63,108,29,17,0,3
1537909760357306,5,114,88,-101,-8,-2,3,-1
1537909760371268,-9,-116,-101,9,6,-6,-5,-2
1537909760371268,12,109,127,34,-12,-5,-4,2
1537909760371268,1,-15,33,127,28,9,1,2
1537909760371268,-22,-116,-74,-85,-28,-11,-27,-21
1537909760393210,12,-128,-86,-49,5,9,16,9
1537909760393210,-9,-44,-110,-85,-30,-17,-12,-10
1537909760394207,10,-63,-50,-36,-13,1,6,7
1537909760394207,-2,2,127,127,22,9,1,-1
1537909760416148,-7,99,63,-31,-21,-10,-20,-14
1537909760416148,-16,47,-128,-113,-32,-12,-16,-17
1537909760417147,29,120,73,40,15,6,40,28
1537909760417147,-16,35,-125,-55,6,0,-6,-5
1537909760431109,25,109,117,68,29,-4,6,12
1537909760431109,-7,-21,-128,-27,-14,-2,-2,-2
1537909760432106,-9,24,12,-28,-28,-19,-14,-12
1537909760432106,-4,-17,61,-6,3,13,10,6
1537909760453050,-31,-124,-97,9,-11,-4,-6,-13
1537909760453050,2,61,76,30,3,-1,9,5
1537909760454047,-8,8,-23,-24,18,1,4,0
1537909760454047,-1,70,-45,3,-6,-5,-1,-1
1537909760476986,-5,51,44,50,22,9,1,-6
1537909760476986,9,-43,69,17,1,2,-2,3
1537909760476986,2,-110,-67,-79,-11,-3,-4,-2
1537909760476986,8,-103,1,32,8,0,-5,-1
1537909760490948,7,-113,59,6,15,14,7,6
1537909760490948,17,-40,-66,3,-10,-4,7,8
1537909760491946,-11,32,72,-17,-23,-5,-13,-11
1537909760491946,7,67,22,-18,-6,-2,-4,-1
1537909760513887,-11,41,12,5,-8,-6,-2,-3
1537909760513887,7,62,41,22,11,2,4,6
1537909760513887,-5,35,-3,-29,-1,2,2,1
1537909760513887,-1,12,24,6,-6,-4,-3,-1
1537909760537823,-3,6,22,21,9,6,3,1
1537909760537823,-6,-1,-21,-14,-4,-1,-2,-4
1537909760538821,0,-16,-40,-26,-10,-3,-1,2
1537909760538821,8,18,-3,40,17,9,7,5
1537909760550789,-3,33,-49,-17,-5,-3,-7,-6
1537909760550789,-6,-3,-68,-36,-15,-5,-4,-6
1537909760551786,3,27,34,30,9,4,1,3
1537909760551786,-1,12,-15,-4,-1,0,0,-1
1537909760573727,-3,4,-24,3,-1,0,2,0
1537909760573727,-4,-9,-11,-9,-6,-4,-2,0
1537909760574725,-1,-7,28,8,3,1,2,-1
1537909760574725,0,-17,10,2,-3,0,0,-2
1537909760596666,0,-18,-33,-8,-2,0,-2,-2
1537909760596666,0,-15,22,9,2,2,1,1
1537909760597663,-3,-12,1,-7,-2,-2,-3,-2
1537909760597663,-1,-12,-28,1,-2,-3,1,0
1537909760610629,0,0,-19,1,2,0,-2,-24
1537909760610629,2,-12,2,-9,-3,-3,0,24
1537909760618607,6,2,12,-1,1,1,0,3
1537909760618607,0,-9,-25,-4,-4,-3,0,-6
1537909760633567,-4,8,1,4,2,3,5,-4
1537909760633567,0,0,17,-2,-1,-3,-7,-18
1537909760634565,3,3,-6,-7,-4,-3,0,17
1537909760634565,-2,11,-5,9,4,1,-1,-13
1537909760656506,-1,10,-8,-2,-1,-3,-3,-1
1537909760656506,-4,-5,-4,-2,-3,0,2,-3
1537909760657504,-4,2,-1,-2,0,0,-1,-1
1537909760657504,2,-7,-6,4,17,11,6,9
1537909760670469,1,25,36,6,-5,-2,-5,8
1537909760670469,-8,-29,-20,-17,-14,-10,-5,-6
1537909760678448,6,13,-65,-7,2,-2,3,2
1537909760678448,1,6,41,21,-8,-4,0,4
1537909760694405,3,-22,-17,-9,7,4,1,4
1537909760694405,-2,8,-20,9,7,7,-3,-1
1537909760694405,-9,-9,116,19,-5,-2,-7,-14
1537909760694405,-1,-26,-88,-46,9,4,3,2
1537909760716346,7,0,-66,27,-7,-5,-2,6
1537909760716346,-4,-24,-4,31,-3,-4,1,-3
1537909760717343,-5,-18,-28,-70,-19,-5,-3,-6
1537909760717343,-3,8,68,22,-11,-7,-4,1
1537909760730309,-4,-8,-16,-19,-1,-6,-5,-1
1537909760730309,0,-2,5,6,4,1,2,1
1537909760739285,2,11,-12,5,5,2,0,-3
1537909760739285,1,7,10,6,4,0,-1,1
1537909760752250,-5,-3,-27,-24,-5,-2,-1,-1
1537909760752250,0,8,8,7,4,-1,1,-3
1537909760761226,-4,4,4,13,6,3,0,-2
1537909760761226,0,-5,-26,-11,-5,-2,-2,-1
1537909760776186,-6,-4,33,18,2,0,-1,-1
1537909760776186,2,6,-30,-26,-1,1,1,0
1537909760778181,2,-4,-7,7,-1,-1,-1,1
1537909760778181,-1,-2,6,0,-4,1,1,2
1537909760790149,1,6,17,-6,-4,-1,-1,1
1537909760790149,1,3,30,-2,-2,0,-4,0
1537909760799125,-1,-9,-53,-8,-7,-3,-2,-5
1537909760799125,2,3,-15,1,0,2,-1,0
1537909760813087,2,4,10,1,0,2,0,1
1537909760813087,1,-3,14,-7,-2,-2,-1,-2
1537909760822063,-3,-4,12,12,2,0,-1,0
1537909760822063,-2,0,-4,-1,-1,-2,-2,-1
1537909760837023,3,1,5,-1,-2,8,15,-18
1537909760837023,2,-2,0,-1,5,15,56,64
1537909760838021,-25,-2,3,-2,-4,-13,-56,-87
1537909760838021,-2,3,-9,0,4,47,35,35
1537909760859962,31,13,8,20,3,-30,-1,85
1537909760859962,-11,2,-4,-6,-7,-27,52,-39
1537909760861957,-9,-5,8,10,7,76,-89,5
1537909760861957,-42,-36,-19,-6,-4,-48,41,-51
1537909760872928,-2,-6,-9,-10,-3,-44,-65,-23
1537909760872928,19,19,12,-1,4,44,-96,-95
1537909760881904,5,-4,8,8,1,-44,103,2
1537909760881904,-11,5,-11,-10,-12,-8,-19,-29
1537909760896864,-15,-3,2,-4,4,7,71,5
1537909760896864,36,6,-6,-13,-7,-21,-68,108
1537909760897861,24,5,0,7,8,37,64,-33
1537909760897861,22,-16,-2,-7,8,14,-21,-42
1537909760918805,9,27,-2,-15,-16,14,50,-4
1537909760918805,-24,-5,6,9,5,45,-3,-52
1537909760920800,-16,8,1,4,-13,-70,-21,105
1537909760920800,13,-27,-4,28,8,-3,16,57
1537909760932767,28,-7,8,-23,-13,-15,-32,-11
1537909760932767,-27,-33,-8,3,1,10,4,8
1537909760941744,13,-5,2,-17,-1,0,11,-11
1537909760941744,-12,10,7,9,-1,12,-22,10
1537909760956703,-25,-10,-12,-1,1,-29,-36,-81
1537909760956703,5,13,3,0,-4,-1,25,52
1537909760957701,1,10,4,8,9,-6,15,-2
1537909760957701,7,14,4,-8,-5,-2,-18,-16
1537909760978645,0,-4,0,3,7,43,-4,16
1537909760978645,-1,1,5,3,0,-17,38,-6
1537909760980639,-9,-5,-2,-1,0,-14,-18,5
1537909760980639,8,7,0,-7,0,10,-13,4
1537909760993605,-6,-4,0,7,1,4,5,12
1537909760993605,-14,-1,0,1,0,-26,-3,-23
1537909761007568,-2,1,-3,-3,-2,19,-15,-76
1537909761007568,7,9,-1,-2,-6,-3,6,32
1537909761016543,-10,-3,-2,5,2,6,12,1
1537909761016543,5,-1,-4,-6,-3,-3,-11,-9
1537909761018538,7,1,-1,0,-3,9,0,6
1537909761018538,1,8,1,2,-4,-10,0,0
1537909761039482,-7,0,-2,2,0,7,-13,-1
1537909761039482,0,-1,-1,-2,-3,-4,-4,-14
1537909761040480,2,-2,0,3,-5,-3,0,20
1537909761040480,-4,0,1,-2,0,-6,0,-5
1537909761053445,-5,-6,-2,-2,-1,9,-4,8
1537909761053445,1,1,-1,2,-3,-4,2,-2
1537909761060427,-1,2,2,9,1,-2,7,16
1537909761060427,0,-1,-4,14,5,0,-8,1
1537909761076384,-4,-3,-1,-29,-5,4,-3,-8
1537909761076384,2,0,6,30,1,-8,5,1
1537909761078378,0,0,4,-42,-10,2,-6,9
1537909761078378,1,4,0,9,0,-2,-4,-5
1537909761099323,-2,-5,-2,11,5,3,0,2
1537909761099323,-3,-3,-2,7,6,0,3,-2
1537909761100320,0,-6,-12,-16,-5,1,-3,9
1537909761100320,0,0,4,1,-5,-4,-3,-2
1537909761112288,-3,0,3,7,2,1,2,-1
1537909761112288,-1,-2,-4,-18,-8,-3,-5,-1
1537909761121264,1,0,2,8,4,1,0,1
1537909761121264,0,1,-4,-19,-2,-3,0,-1
1537909761137221,-2,0,5,17,0,-3,-3,0
1537909761137221,-2,-5,-10,-11,-1,1,0,-3
1537909761138218,0,-3,-8,-4,5,1,1,4
1537909761138218,-1,2,3,-16,-13,-6,0,-1
1537909761159163,0,-2,-1,4,0,2,-1,1
1537909761159163,1,1,4,-1,2,-3,-1,-1
1537909761160160,-2,-2,0,7,-1,-1,1,2
1537909761160160,0,-2,0,4,3,1,-1,-2
1537909761173125,-1,0,-1,-2,-2,1,-2,-2
1537909761173125,0,-2,0,-7,-4,-5,2,-1
1537909761182101,0,1,1,4,-1,0,-1,2
1537909761182101,-1,2,3,8,1,1,-1,-1
1537909761197061,-2,-2,-7,-10,0,2,-1,0
1537909761197061,-2,-1,-2,-12,-1,-1,-1,-3
1537909761198059,-1,0,2,-1,-3,0,0,0
1537909761198059,-1,2,0,-16,-10,-5,-2,0
1537909761219002,0,0,-3,12,2,0,0,1
1537909761219002,1,-1,-1,-1,2,0,-1,0
1537909761220997,-2,0,-3,7,2,0,-1,2
1537909761220997,-1,-1,2,6,2,-1,-1,-2
1537909761232965,-1,-1,-1,-7,-1,1,-1,-2
1537909761232965,-1,1,0,4,1,-2,0,-1
1537909761241941,1,-1,1,4,-3,0,0,0
1537909761241941,-2,-3,-4,0,3,1,0,0
1537909761256901,-1,-2,0,-6,-3,0,0,-2
1537909761256901,-1,-2,-1,3,-1,-1,-2,-1
1537909761257899,-1,-2,0,-4,2,-1,0,1
1537909761257899,0,0,1,1,-2,0,-1,-1
1537909761278842,-1,0,0,4,2,0,0,0
1537909761278842,-1,-1,-1,-2,-2,-1,0,-1
1537909761280837,-2,0,0,1,1,-1,0,-2
1537909761280837,-2,1,-2,4,3,2,-3,0
1537909761292806,-1,0,-1,-2,-2,-1,0,-1
1537909761292806,-3,0,0,-3,0,0,1,-3
1537909761301781,0,-1,1,4,-1,0,0,0
1537909761301781,0,-1,0,-2,0,-1,-1,-1
1537909761316741,-2,-2,0,-1,-3,0,-3,-1
1537909761316741,0,0,-1,-3,-1,0,0,0
1537909761317739,-1,-1,-1,2,-2,-1,-1,-1
1537909761317739,-3,-1,1,-1,2,12,29,-26
1537909761338682,7,1,-1,0,1,4,-38,38
1537909761338682,-12,-9,1,0,-7,-8,21,-101
1537909761340677,-16,-12,-7,-7,-11,-49,-50,0
1537909761340677,-1,-18,-6,1,2,61,17,9
1537909761353642,-41,-5,-1,-8,-20,-90,12,-105
1537909761353642,37,1,-1,3,4,56,-70,110
1537909761360624,12,18,13,16,6,-46,74,69
1537909761360624,-35,-2,-7,-19,4,87,-79,-104
1537909761376581,17,6,7,14,4,-39,54,111
1537909761376581,-23,8,-1,-11,-15,-46,-62,-66
1537909761377579,7,-9,-8,0,5,112,-8,25
1537909761377579,5,0,0,4,3,-10,46,127
1537909761399520,43,13,-3,-6,5,49,-15,-92
1537909761399520,21,13,7,12,10,16,58,83
1537909761400517,12,-13,-10,-10,-16,-68,-84,-25
1537909761400517,-3,-1,4,0,2,-2,-3,-14
1537909761412485,-7,-5,-3,-2,-4,-11,16,-43
1537909761412485,11,2,-1,-1,2,12,40,6
1537909761421461,-16,-6,-2,-1,4,78,38,-62
1537909761421461,22,8,9,13,-7,-60,5,81
1537909761436421,-3,-3,-4,-7,0,19,-14,52
1537909761436421,-28,-12,-6,-6,-7,-43,-34,-52
1537909761438416,3,14,10,5,10,22,36,1
1537909761438416,18,8,2,1,2,12,-13,-68
1537909761459360,-3,-3,-1,-3,-1,24,4,24
1537909761459360,-15,-9,-5,-6,-4,-29,-3,-30
1537909761460357,-12,-5,-4,-2,-2,-12,-22,-23
1537909761460357,11,2,-1,3,5,-21,31,0
1537909761472325,-9,0,-4,2,2,32,-8,-14
1537909761472325,-3,-4,-2,-1,3,17,12,-51
1537909761481301,-5,1,-1,-3,-5,-13,-3,8
1537909761481301,0,0,-3,-3,-5,-4,-12,-13
1537909761496261,-5,-2,0,2,1,17,17,33
1537909761496261,-2,-3,-2,0,-1,-4,9,7
1537909761498256,16,5,-1,-1,-4,5,16,13
1537909761498256,-2,1,-4,-1,-2,-27,-8,-14
1537909761519200,-9,-6,-3,-1,0,-2,-15,-22
1537909761519200,2,1,1,0,0,3,3,-11
1537909761520197,-17,-7,0,-1,-3,0,-6,-11
1537909761520197,-3,-1,-2,-6,-4,-10,-4,-7
1537909761533163,2,2,0,-2,-3,-8,-4,0
1537909761533163,6,0,0,-1,1,11,0,16
1537909761541141,-1,0,0,-1,2,3,10,8
1537909761541141,-4,0,-1,-3,-2,-6,-4,3
1537909761565077,1,-1,1,0,1,5,-3,-11
1537909761565077,0,2,-2,-1,1,13,10,24
1537909761567072,-1,-2,-1,-4,-1,-12,-5,-11
1537909761567072,-4,-2,-3,-4,-5,-10,-4,-14
1537909761579040,-1,-3,-2,2,1,2,-6,0
1537909761579040,-2,0,-1,2,0,0,4,10
1537909761580037,1,0,-1,-6,-4,-7,-1,-4
1537909761580037,1,1,-2,-6,-5,-5,-5,-4
1537909761593003,-3,0,1,12,3,4,1,5
1537909761593003,-2,-1,0,15,3,3,0,10
1537909761601979,1,2,4,-8,-4,-2,0,-8
1537909761601979,-3,1,1,-16,-4,-1,4,4
1537909761615941,0,-1,-1,-4,-4,-3,-5,-4
1537909761615941,0,0,-3,-8,-1,-1,1,1
1537909761622922,2,0,0,15,4,-2,-2,0
1537909761622922,-4,-4,1,16,1,-2,-1,-2
1537909761638880,2,-2,0,-7,-2,-2,-1,-1
1537909761638880,0,-4,-9,2,9,5,0,3
1537909761640875,-1,0,-2,-5,-1,1,3,-1
1537909761640875,-4,2,10,-13,-13,-10,0,-2
1537909761661819,-1,-1,-1,8,2,1,0,-1
1537909761661819,0,0,2,16,1,3,2,4
1537909761662816,-1,-2,-8,-11,1,-3,-2,-4
1537909761662816,-2,-4,-12,-18,3,-2,-3,-4
1537909761675782,-3,-3,-4,2,-1,-2,-1,0
1537909761675782,-1,2,11,4,-5,-5,-1,1
1537909761682763,1,1,0,9,2,-2,1,0
1537909761682763,0,-1,-1,-4,-3,-1,-2,-3
1537909761698720,-2,-1,-5,-10,0,1,0,0
1537909761698720,-1,-1,-5,-11,-3,-1,0,2
1537909761700715,-2,-1,3,5,1,0,-1,-3
1537909761700715,-1,-2,-3,7,4,0,0,1
1537909761712683,0,-1,-2,-1,1,0,-1,-2
1537909761712683,0,0,0,-4,-4,-3,-1,-1
1537909761721659,2,0,-1,-1,-3,-1,-2,1
1537909761721659,-8,-5,-4,5,3,7,0,-20
1537909761735622,18,4,4,2,-1,36,44,32
1537909761735622,27,1,2,-6,-6,-18,-20,104
1537909761742603,-30,-4,-6,-7,1,49,16,-90
1537909761742603,26,7,-1,-1,-5,-28,-2,76
1537909761759557,-54,-5,-2,-3,0,67,-71,-106
1537909761759557,-18,-2,-3,-3,-4,-71,40,-71
1537909761760555,43,2,-12,-10,-5,3,-51,-79
1537909761760555,-37,-1,1,11,15,85,87,18
1537909761772523,47,23,7,0,-4,-69,-68,45
1537909761772523,-21,3,-1,-7,3,35,-15,-97
1537909761781499,16,4,8,11,6,15,26,127
1537909761781499,-74,-16,-9,-14,-25,-92,-57,-112
1537909761795461,16,-9,-4,-1,18,91,71,98
1537909761795461,-16,1,7,8,10,18,57,-45
1537909761802443,17,7,4,5,-3,7,-16,2
1537909761802443,6,-11,-4,0,2,3,-13,-20
1537909761819398,-1,1,0,-1,0,-27,17,8
1537909761819398,8,-8,-7,-11,-9,-3,-8,35
1537909761820395,-24,-2,0,-1,-1,-25,12,2
1537909761820395,16,3,4,5,3,7,-1,10
1537909761832363,-3,-7,-3,-5,-5,-12,-9,-37
1537909761832363,-1,-9,-7,-5,-2,10,6,17
1537909761841339,-12,-4,0,0,-1,-17,-16,-4
1537909761841339,11,-3,-2,1,-1,-17,-28,3
1537909761856299,1,3,4,3,-2,-13,19,3
1537909761856299,1,0,1,1,-1,8,-31,6
1537909761862283,-8,-3,-1,0,0,-15,6,0
1537909761862283,18,6,1,5,5,30,7,10
1537909761879237,-14,-4,-3,-3,-7,-23,-3,-22
1537909761879237,3,0,0,1,-4,4,-9,12
1537909761880235,4,3,-3,-1,-2,-1,0,-2
1537909761880235,10,5,2,4,1,6,11,9
1537909761901179,-6,-3,1,0,-3,-13,-10,-9
1537909761901179,1,-1,-3,-2,-3,-3,-16,9
1537909761903174,0,-2,0,-1,-4,1,12,13
1537909761903174,4,1,-1,1,1,5,-10,-1
1537909761916139,-4,-5,-2,-3,-4,-9,-1,-4
1537909761916139,6,2,-2,-1,0,21,-2,10
1537909761923120,-8,-4,-2,-1,-2,-6,-2,-5
1537909761923120,6,3,0,-1,1,2,0,4
1537909761939077,-5,-4,-2,-2,1,-4,-5,-9
1537909761939077,1,0,2,-2,-3,2,2,7
1537909761940075,-4,-2,-1,-1,1,-4,-3,2
1537909761940075,2,-2,-2,-3,-4,-5,-6,3
1537909761962016,0,-1,-2,-2,-1,-1,6,2
1537909761962016,-2,-1,1,1,2,2,-8,0
1537909761963013,-1,-2,-1,0,1,-1,2,2
1537909761963013,4,1,-1,1,1,5,1,3
1537909761975979,-4,-3,-2,-2,-2,-6,-1,-4
1537909761975979,1,2,-1,1,0,-2,-2,2
1537909761982960,1,0,1,-6,-2,-2,0,0
1537909761982960,0,-1,1,30,8,3,2,2
1537909761998917,-2,-2,-5,5,4,-2,-1,-3
1537909761998917,-1,-1,-2,-27,-17,-7,-7,0
1537909762000912,0,-1,-4,-17,-2,-1,2,0
1537909762000912,0,1,-1,3,-5,-5,-3,-1
1537909762021856,1,0,-3,2,0,-3,-1,-1
1537909762021856,2,1,6,18,4,2,0,0
1537909762022853,-1,-2,-5,8,3,0,1,0
1537909762022853,0,-1,-1,1,0,0,-1,0
1537909762034822,1,0,-1,1,3,-3,0,-3
1537909762034822,-2,-2,-3,7,4,1,0,1
1537909762043798,-2,0,2,-4,-3,-2,-3,-1
1537909762043798,1,-2,-1,-3,2,0,-1,-1
1537909762058758,-1,1,0,-3,-8,0,1,0
1537909762058758,2,2,-1,-4,6,39,3,1
1537909762060752,-2,-4,0,10,1,5,26,18
1537909762060752,14,12,4,-7,6,76,28,-9
1537909762081696,1,1,4,-1,-12,-60,7,30
1537909762081696,1,-9,-2,0,-15,-82,-2,-37
1537909762082694,21,18,3,3,20,110,85,115
1537909762082694,-11,-2,6,-5,-7,-35,-88,-89
1537909762095659,-52,-15,-12,-25,-24,56,-78,-84
1537909762095659,21,31,15,22,8,-36,51,113
1537909762103638,21,10,0,-11,-42,-128,-115,16
1537909762103638,-12,-7,-2,-11,30,127,57,-22
1537909762119595,24,13,6,5,27,103,54,-9
1537909762119595,-8,-10,-12,-7,8,61,11,-19
1537909762120593,-26,-13,-3,3,14,36,11,-19
1537909762120593,52,12,-3,-1,-17,-23,4,99
1537909762141536,-3,-14,-4,-4,-8,-75,-12,70
1537909762141536,1,1,1,-3,-3,-15,-12,-28
1537909762142534,-9,-7,2,6,8,45,26,-31
1537909762142534,-19,-12,-8,-14,-33,-127,-38,-19
1537909762155499,-3,-4,5,3,1,-8,-8,-40
1537909762155499,1,-8,-6,-6,5,26,-2,6
1537909762164475,-5,-5,-3,-3,-5,-26,-31,-35
1537909762164475,-14,-4,0,0,5,10,9,13
1537909762179435,6,-1,-1,1,3,4,21,5
1537909762179435,-12,-3,-4,-4,-8,-31,-25,-17
1537909762180432,-6,-4,-4,1,4,19,6,-10
1537909762180432,-1,0,-4,1,1,-4,8,-5
1537909762201376,5,3,1,5,-1,-19,1,14
1537909762201376,-3,-1,-5,-3,0,27,-12,-6
1537909762203371,-2,0,0,0,-2,-9,-8,-28
1537909762203371,-1,-1,0,1,3,4,11,20
1537909762215339,4,5,-3,-4,-7,-10,-11,3
1537909762215339,-2,-3,0,12,4,12,-4,2
1537909762224315,2,-3,-4,-12,-2,1,7,-5
1537909762224315,-4,3,1,-5,-8,-20,-5,3
1537909762239275,0,1,1,1,4,18,10,6
1537909762239275,-1,-4,-1,-4,-2,7,-3,-7
1537909762241270,0,-1,1,9,-1,-10,-2,-1
1537909762241270,-1,-2,1,0,0,10,-1,3
1537909762261216,-1,-2,0,-2,1,0,1,-4
1537909762261216,-1,-3,1,8,3,7,1,3
1537909762263211,-2,-3,-2,-35,-11,-9,-8,-6
1537909762263211,-3,-3,2,10,5,3,3,6
1537909762275179,2,2,1,14,1,0,4,1
1537909762275179,-4,-2,0,-3,-2,-8,-6,-3
1537909762284156,-2,-1,-3,-2,-4,5,3,-1
1537909762284156,-3,-4,-10,-11,-3,-1,1,-2
1537909762299117,2,3,6,-34,-9,-5,1,3
1537909762299117,-2,0,4,17,6,4,-2,-2
1537909762300115,0,1,1,7,2,-3,-2,-6
1537909762300115,1,-1,2,10,4,0,4,5
1537909762322056,0,-4,-3,11,4,0,-2,0
1537909762322056,-3,-1,-2,-16,-3,1,-1,-1
1537909762323054,-2,-2,-1,8,1,-1,0,-2
1537909762323054,-2,0,-1,0,0,-3,-2,-1
1537909762335019,-1,2,-1,1,0,2,1,2
1537909762335019,-3,-3,0,-12,-4,1,-4,-2
1537909762343996,2,1,1,11,3,-4,-2,-2
1537909762343996,-1,1,-3,-11,-5,1,-2,-1
1537909762358955,-1,-2,-6,14,3,0,-2,-2
1537909762358955,-1,-1,0,-34,-6,0,-2,0
1537909762360950,-2,-1,0,38,5,-1,-3,-2
1537909762360950,-2,-1,-1,-53,-12,-2,0,2
1537909762381894,1,1,2,-18,-8,-3,0,0
1537909762381894,-1,-2,-7,12,3,0,0,-1
1537909762382891,-2,2,-3,-13,-1,0,-1,0
1537909762382891,-1,0,-2,21,3,0,0,-1
1537909762394859,0,-1,2,-1,3,1,-1,0
1537909762394859,-1,-1,0,2,-3,0,-2,-1
1537909762403835,-3,-2,1,9,2,1,0,-2
1537909762403835,-1,-2,0,9,3,-3,-1,0
1537909762418795,-1,-1,-4,-6,-2,1,1,1
1537909762418795,0,-2,-2,5,-1,0,-1,-1
1537909762420790,1,-1,0,-15,-2,-1,0,-1
1537909762420790,0,-1,0,9,1,0,0,-1
1537909762441734,-1,-2,-3,-13,-1,0,0,0
1537909762441734,-1,0,0,0,0,-2,-1,0
1537909762442733,1,-2,-2,-3,-3,-2,-1,0
1537909762442733,-2,1,0,1,1,-2,0,0
1537909762455697,0,0,0,10,0,0,-2,-1
1537909762455697,-3,-1,-2,1,-5,-3,-1,0
1537909762463677,-1,0,0,-14,-3,-3,0,-1
1537909762463677,0,-1,0,3,-1,-1,-1,0
1537909762478637,1,-1,-1,4,0,-2,1,-2
1537909762478637,0,-2,-2,1,1,1,0,-1
1537909762480632,0,-1,2,0,0,1,0,0
1537909762480632,-1,-2,0,-1,-1,-1,-1,-1
1537909762501576,-1,0,-2,4,-1,-1,-3,-2
1537909762501576,-2,-5,1,0,-1,2,-2,-4
1537909762502573,0,0,-3,1,-1,-4,3,-1
1537909762502573,-5,-6,-1,6,11,59,23,-6
1537909762515538,9,1,0,2,1,33,4,6
1537909762515538,20,2,9,14,5,30,55,79
1537909762531496,-7,-7,-7,-11,-12,-76,-27,-70
1537909762531496,1,-3,-1,2,-3,-88,18,52
1537909762539475,-47,-10,-7,-14,-9,36,-61,-35
1537909762539475,18,-6,-8,-5,30,116,20,3
1537909762540472,-4,2,10,4,-31,-102,64,19
1537909762540472,2,23,2,-4,-5,14,-55,-69
1537909762561414,-13,-17,-6,-8,-7,27,40,-29
1537909762561414,-25,-2,-12,-15,-11,5,-101,-34
1537909762563409,5,3,2,7,29,76,91,-32
1537909762563409,0,-8,-10,-17,-10,-28,-17,0
1537909762575377,17,11,10,16,15,82,13,32
1537909762575377,17,8,3,-3,-13,-77,23,21
1537909762584353,-7,-5,-1,-2,-3,36,-75,-94
1537909762584353,15,2,6,7,-2,21,28,34
1537909762599313,1,-1,-1,-1,2,-38,-14,9
1537909762599313,-4,-9,-1,-1,0,22,30,7
1537909762600311,-1,3,-3,-2,4,9,2,43
1537909762600311,-3,-4,2,-2,-4,-22,-12,0
1537909762621254,8,0,-1,-1,2,-4,6,10
1537909762621254,-14,0,0,-1,-8,-46,-2,-52
1537909762623249,-3,-5,-2,0,-3,-2,-21,26
1537909762623249,-7,-4,-2,3,6,28,-11,-15
1537909762635218,4,0,-1,2,-2,-37,5,-10
1537909762635218,-4,4,2,4,-6,-27,-4,-10
1537909762644194,2,-1,-3,0,-1,8,-25,17
1537909762644194,-3,-1,-1,2,1,23,15,2
1537909762658157,3,5,4,5,-5,-30,7,-3
1537909762658157,0,-1,-2,-2,-6,-16,-10,-3
1537909762665139,3,-1,-4,-3,2,35,-3,22
1537909762665139,-4,0,0,0,-2,-4,6,-19
1537909762681095,-1,1,1,1,-1,-18,-2,0
1537909762681095,-3,-1,1,0,-1,8,-10,-7
1537909762683090,1,1,2,2,-2,5,-2,8
1537909762683090,-3,-3,0,8,0,-2,3,-4
1537909762695057,2,-1,-7,-26,-8,-15,-6,1
1537909762695057,-2,0,7,15,2,7,5,0
1537909762704033,-3,-3,-10,31,14,8,2,9
1537909762704033,-3,-5,-4,-85,-14,-3,-6,-2
1537909762717995,1,1,11,28,-6,-7,1,1
1537909762717995,-1,2,-3,-15,-9,-10,1,-7
1537909762724977,0,0,2,18,5,3,-4,7
1537909762724977,-2,-4,-8,29,10,11,-2,1
1537909762742930,0,-3,-9,-19,3,-7,1,-2
1537909762742930,-3,1,8,-11,-3,-7,-2,-4
1537909762743927,1,-2,-6,-2,-1,1,-4,4
1537909762743927,1,-1,1,-12,0,3,3,0
1537909762754897,2,3,2,-9,-2,-8,3,1
1537909762754897,0,-1,-4,15,2,-3,-2,0
1537909762763873,1,-1,-4,-18,-3,8,0,3
1537909762763873,-4,-4,0,6,1,-2,-1,-5
1537909762778833,-1,-1,0,-1,-9,-7,0,-2
1537909762778833,0,-2,-3,-1,4,2,-2,0
1537909762792796,0,0,1,-5,1,2,-1,2
1537909762792796,0,-2,0,17,0,-2,0,-1
1537909762801772,-1,-3,-3,28,7,-1,-2,1
1537909762801772,-1,0,-5,-43,-5,0,0,-1
1537909762802769,-1,1,3,-3,-7,-5,-1,1
1537909762802769,0,1,2,11,-2,-2,0,-2
1537909762825708,0,-2,0,-2,1,1,0,0
1537909762825708,-3,-2,-4,11,4,-1,-1,-2
1537909762826705,-1,0,2,-9,-5,-1,-3,0
1537909762826705,0,1,2,1,0,2,-1,-3
1537909762838673,2,0,-2,3,-1,-4,-1,-1
1537909762838673,-1,0,0,5,1,-1,0,-4
1537909762845654,-1,-1,-1,-9,-4,-1,-3,0
1537909762845654,-1,1,-1,8,-1,0,0,0
1537909762861612,-2,1,-3,-4,0,0,0,-2
1537909762861612,-1,0,-1,3,-1,-3,-2,-1
1537909762862609,0,-1,2,-5,1,3,0,1
1537909762862609,-1,-2,-2,4,-1,-1,0,-1
1537909762883553,-2,-3,-2,-3,1,4,1,0
1537909762883553,-3,-2,-2,-3,-2,3,-5,-3
1537909762885548,5,2,2,7,18,112,34,10
1537909762885548,0,1,5,7,-9,-92,9,20
1537909762898514,-11,-23,-13,-11,-5,36,3,-17
1537909762898514,1,-1,3,9,-1,-49,47,61
1537909762905494,29,-4,-12,-16,-42,-33,-73,114
1537909762905494,-28,19,7,4,0,74,-44,-111
1537909762921452,-18,-6,-1,-4,-8,-51,-103,59
1537909762921452,9,17,-2,-10,-15,-78,-35,60
1537909762923447,71,17,13,15,32,86,-28,30
1537909762923447,-34,-14,-8,-9,-4,-63,54,-32
1537909762943394,-10,-1,3,9,26,127,92,31
1537909762943394,-15,-8,1,5,28,127,17,-128
1537909762950374,-32,-5,0,-7,-25,-128,-35,11
1537909762950374,37,-1,-1,6,12,127,72,38
1537909762958354,-4,7,0,-2,-3,-25,-12,-29
1537909762958354,5,-14,-7,4,-6,-81,38,-28
1537909762965335,-9,-2,2,-2,-1,-18,2,-33
1537909762965335,-14,-9,-7,-8,-6,-60,-47,17
1537909762989271,6,6,0,4,16,75,19,-22
1537909762989271,4,-5,-2,2,-1,66,-12,67
1537909762990268,-33,-10,-4,-7,-6,-62,-10,-55
1537909762990268,11,2,4,-1,-12,-90,-45,1
1537909763004231,10,-1,5,1,-3,-16,10,3
1537909763004231,-5,2,0,3,4,22,-18,-59
1537909763005228,-7,-5,-2,-1,7,18,44,-15
1537909763005228,3,-4,-7,-2,1,37,-3,36
1537909763018193,9,3,-1,-1,-7,-47,-17,-28
1537909763018193,-9,0,-3,-1,-3,-4,-11,10
1537909763026173,-10,0,-4,-1,0,-1,8,-9
1537909763026173,6,3,-1,1,-1,6,-1,11
1537909763041133,-2,3,0,0,-3,-17,-5,-4
1537909763041133,1,0,-1,-3,-7,-10,-2,5
1537909763043127,-3,-1,0,0,0,19,20,-13
1537909763043127,3,1,1,1,3,22,-4,-17
1537909763072049,7,4,2,0,-3,-35,7,8
1537909763072049,-1,0,0,-4,-6,4,-10,13
1537909763073046,-4,0,-1,-3,-4,-1,2,-24
1537909763073046,0,-3,0,1,3,11,1,13
1537909763078033,2,-1,-1,-1,-2,-9,-5,8
1537909763078033,0,0,0,-1,-3,-6,-6,1
1537909763087009,-7,0,2,-1,3,12,5,-8
1537909763087009,3,-2,-2,0,0,8,3,9
1537909763101969,2,-1,2,2,-1,-3,3,2
1537909763101969,-1,1,1,0,0,2,-6,-13
1537909763102966,-2,-2,-1,-1,5,5,8,-4
1537909763102966,0,-3,0,-3,-4,3,-2,6
1537909763123910,1,0,-2,-3,-6,-14,-8,-5
1537909763123910,-1,0,-2,0,1,-2,-2,3
1537909763125905,-1,1,-1,0,0,2,4,-2
1537909763125905,1,0,-2,6,5,4,-1,2
1537909763137874,0,-1,-1,-1,-2,-4,0,-1
1537909763137874,0,-3,-5,-19,-8,-3,-2,-1
1537909763146850,-3,-1,-4,-2,3,5,1,-5
1537909763146850,-1,0,2,-13,-4,1,-3,-4
1537909763161809,1,-1,-2,26,5,-4,0,1
1537909763161809,-1,-1,-4,-35,-7,0,-3,2
1537909763162807,-3,-1,4,13,3,-3,0,-8
1537909763162807,-1,0,1,18,2,4,0,2
1537909763183751,-1,0,-1,-31,-8,-8,-3,2
1537909763183751,0,0,0,16,3,-2,-1,0
1537909763185746,-3,-1,-4,-1,3,3,2,-1
1537909763185746,0,-1,-2,2,1,3,-1,2
1537909763197713,1,-2,-2,-31,-12,-3,0,-1
1537909763197713,0,1,2,12,3,0,0,-4
1537909763206690,-1,1,-2,-6,-3,-1,2,0
1537909763206690,0,-2,0,11,2,1,-1,2
1537909763221649,-2,1,-1,5,0,-2,-1,-3
1537909763221649,0,0,-1,-6,-2,-1,-2,2
1537909763227633,0,0,2,5,-1,-1,-2,0
1537909763227633,-1,-1,-2,-7,0,-1,-1,-2
1537909763243591,-1,-3,-3,-1,1,-2,-2,0
1537909763243591,0,0,1,7,2,10,3,-2
1537909763245585,-1,-3,4,9,11,40,16,3
1537909763245585,-4,-6,-4,-5,14,97,3,-8
1537909763258550,-13,-9,-3,-2,-15,-8,-9,-41
1537909763258550,4,1,1,8,-1,19,4,25
1537909763265532,2,-3,-7,-15,-13,-68,-40,-19
1537909763265532,25,12,7,4,8,63,56,70
1537909763281489,-43,-21,-10,-3,-28,17,-13,-26
1537909763281489,3,10,3,5,2,-80,-92,-72
1537909763282486,-7,-1,-3,-12,-9,-8,103,25
1537909763282486,-78,-4,-7,-13,-1,-19,-113,-106
1537909763304427,13,-7,-3,4,17,105,22,42
1537909763304427,27,20,25,37,24,-18,106,98
1537909763305425,-40,-10,-4,-10,-3,2,-100,-54
1537909763305425,-44,-16,-13,-17,-29,-121,-26,-3
1537909763326369,-11,20,11,12,14,-40,51,-31
1537909763326369,-1,-12,-9,-8,3,107,9,30
1537909763328364,18,6,0,2,-9,21,29,-55
1537909763328364,46,11,6,-2,-22,-120,-84,7
1537909763340332,-11,-1,-3,-4,4,52,22,-14
1537909763340332,26,-1,-4,-8,-12,-60,0,8
1537909763349308,-4,-7,-1,3,2,-29,-19,-31
1537909763349308,10,1,3,3,10,71,57,-33
1537909763364268,16,-1,0,1,-2,-28,-9,31
1537909763364268,-26,-7,-4,-5,-8,-18,-33,-43
1537909763365265,5,0,0,-1,0,-10,-2,29
1537909763365265,4,-4,-2,-1,3,12,26,3
1537909763377234,14,5,3,7,7,-37,-13,22
1537909763377234,-7,-5,-5,-1,0,23,16,9
1537909763386209,1,3,-1,0,7,38,-9,1
1537909763386209,18,2,0,3,1,14,30,41
1537909763401169,5,4,-2,1,1,-18,-18,-8
1537909763401169,-14,-4,-3,-5,-4,28,-10,-39
1537909763403164,6,1,0,1,0,10,13,30
1537909763403164,0,0,-1,-2,-2,-6,5,-1
1537909763424108,4,3,0,1,-2,-11,-13,3
1537909763424108,-9,-3,-5,-5,-6,-6,-3,-15
1537909763425105,4,4,1,3,3,-1,2,22
1537909763425105,5,-3,-1,1,0,0,18,18
1537909763438070,3,-3,0,-2,4,11,-11,-8
1537909763438070,1,-2,1,-3,-1,7,3,7
1537909763447046,0,1,1,-1,-2,4,-1,6
1537909763447046,0,-1,2,3,5,13,3,-8
1537909763462006,5,1,-1,9,4,-3,0,10
1537909763462006,-8,-8,-8,3,-3,-8,-10,-11
1537909763463004,-1,-1,2,-47,-10,-4,-1,6
1537909763463004,2,0,6,33,-1,-2,4,0
1537909763483948,3,0,-6,-36,-7,-9,-1,4
1537909763483948,-1,0,1,10,-6,-3,3,1
1537909763485944,-1,-2,-2,19,6,11,-2,0
1537909763485944,4,0,-5,-38,1,3,6,9
1537909763497911,-2,0,-1,20,0,-7,-5,-3
1537909763497911,-2,-1,-1,6,5,8,-4,-11
1537909763506888,3,0,0,5,-2,0,3,7
1537909763506888,0,1,2,10,1,-3,1,-2
1537909763521848,0,0,-2,6,3,-5,-2,0
1537909763521848,-1,1,0,-11,0,2,-1,-3
1537909763522846,0,-2,3,11,-1,-4,-2,4
1537909763522846,0,0,-1,-16,-4,-2,3,4
1537909763543790,2,1,-4,-2,2,1,-3,-2
1537909763543790,-3,0,9,21,1,0,1,0
1537909763545784,0,0,-3,-1,-3,0,0,0
1537909763545784,0,-2,-2,-8,-1,4,1,0
1537909763557753,0,0,3,-3,-8,-7,0,0
1537909763557753,-1,-2,-13,1,-1,-1,-3,-3
1537909763566728,1,0,3,14,2,0,0,1
1537909763566728,-1,-3,-5,3,1,1,1,-2
1537909763580689,0,-1,3,6,4,-2,-1,2
1537909763580689,-1,0,4,-6,-1,-1,-1,-1
1537909763587671,-1,-1,-2,-3,-1,0,-2,-2
1537909763587671,2,0,-2,-4,-3,0,-1,1
1537909763603628,0,0,2,-4,-2,-4,-3,-1
1537909763603628,-2,0,1,-8,-2,0,1,-3
1537909763605623,-1,-3,-5,-9,-2,1,-1,0
1537909763605623,-2,-1,1,3,0,-2,1,-1
1537909763617591,-1,-2,0,1,-1,1,0,-1
1537909763617591,-2,-3,-4,-9,2,30,5,-6
1537909763626567,9,3,4,5,5,7,33,52
1537909763626567,17,3,4,12,9,56,36,17
1537909763640529,-59,-20,-13,-17,-26,-5,-86,-77
1537909763640529,26,-4,-6,-8,-4,54,9,86
1537909763647511,-5,0,4,2,1,-31,-53,-81
1537909763647511,-13,-14,-11,3,17,127,87,18
1537909763664466,10,-1,7,8,-4,-81,5,17
1537909763664466,10,-2,-3,-13,-18,-76,-102,-5
1537909763665464,2,9,-1,-5,-1,-37,16,-42
1537909763665464,48,13,4,5,-3,-26,18,60
1537909763677433,-68,-8,2,7,31,127,71,-107
1537909763677433,86,34,17,16,3,-96,17,95
1537909763686408,-14,1,4,-1,-3,35,40,-96
1537909763686408,28,3,-2,-8,-3,-43,-46,89
1537909763701367,16,7,0,-7,-10,-67,9,55
1537909763701367,1,-2,-1,2,5,42,28,-20
1537909763707351,-13,0,-2,1,3,59,7,34
1537909763707351,-15,-5,0,0,-3,-13,31,-20
1537909763724306,30,1,-2,-5,-9,-30,-36,-6
1537909763724306,-40,-13,-5,-8,-3,-4,8,-47
1537909763725304,5,-8,-6,-1,-3,-10,-20,12
1537909763725304,-22,-6,0,-1,0,19,-17,-24
1537909763737271,22,2,0,0,5,12,18,34
1537909763737271,-24,-4,-3,-5,-2,-5,4,-37
1537909763746247,-5,-4,-3,-3,1,5,-12,16
1537909763746247,-3,1,1,0,-6,-20,-21,-27
1537909763761207,9,2,1,0,1,-12,6,21
1537909763761207,-18,-4,-3,-3,0,11,-9,-42
1537909763767192,5,0,-4,0,-1,13,-5,36
1537909763767192,-16,-1,0,0,-5,-36,-23,-36
1537909763784146,7,1,-1,1,-3,4,-5,-3
1537909763784146,-13,-2,-1,1,3,33,14,-3
1537909763785144,4,-1,-2,0,-1,-6,-1,18
1537909763785144,-9,0,0,-2,-3,-21,-21,-27
1537909763806087,5,3,-3,-3,-2,-11,0,9
1537909763806087,-5,0,-1,0,3,16,7,-3
1537909763808082,0,-3,0,-1,-5,-14,-4,12
1537909763808082,-7,-1,-1,-2,-6,-13,-18,-26
1537909763821048,6,1,-1,0,2,20,2,16
1537909763821048,-9,-3,-1,-1,0,-1,2,-10
1537909763828029,1,-2,-1,-2,-3,-7,-4,1
1537909763828029,-7,-3,-3,-2,0,5,-3,-7
1537909763844984,3,0,-1,-1,1,7,3,7
1537909763844984,-5,-4,-2,-1,-2,-4,2,-8
1537909763846979,-2,-2,-2,-1,0,6,-1,5
1537909763846979,-2,-1,-1,-2,-3,-5,-4,-5
1537909763866925,3,0,0,-1,0,1,1,6
1537909763866925,-3,-1,0,-3,-3,0,-3,-11
1537909763867922,1,-2,-2,0,0,2,-1,7
1537909763867922,-3,0,-1,-2,-1,-10,-7,-9
1537909763880887,0,-2,-2,1,1,5,-2,-1
1537909763880887,-5,-2,0,-2,-2,5,2,-1
1537909763887868,1,0,1,1,-1,-3,-2,5
1537909763887868,-2,-1,0,-2,-4,-8,-5,-6
1537909763903826,-1,-1,0,-1,0,5,1,0
1537909763903826,0,-2,-2,-2,0,4,4,-2
1537909763905821,-1,-1,-3,10,0,-4,0,2
1537909763905821,-3,-1,-3,-9,-1,-5,-5,-6
1537909763926765,3,-2,-2,1,-1,2,0,3
1537909763926765,-2,-2,-3,0,-1,1,0,-2
1537909763927762,2,0,3,-20,-7,-3,-1,-2
1537909763927762,-2,-2,3,-10,-9,-2,-1,-2
1537909763939730,4,2,2,40,8,-3,-1,1
1537909763939730,-4,-4,-7,-54,-7,-4,-6,-4
1537909763948706,-1,-4,-11,33,6,3,0,0
1537909763948706,-2,0,10,-54,-23,-7,-6,-5
1537909763965661,-1,-2,-1,10,5,1,2,2
1537909763965661,0,4,4,22,3,-2,0,-1
1537909763966659,-2,-2,-2,0,6,5,0,0
1537909763966659,1,1,-7,16,0,-5,-3,1
1537909763986605,-1,-1,-1,-10,-4,-1,0,1
1537909763986605,-3,-2,-1,5,1,1,0,-2
1537909763987602,0,2,0,-8,0,2,1,1
1537909763987602,-2,-1,-2,18,6,1,1,-4
1537909764009544,2,2,-1,-17,-4,0,-1,0
1537909764009544,-2,-1,-2,8,-1,0,3,1
1537909764009544,-2,-2,2,-5,-3,-3,0,-5
1537909764009544,25,5,2,17,25,111,53,72
1537909764023506,-38,-16,-11,-23,-34,-92,-36,-88
1537909764023506,6,3,2,9,13,102,23,-11
1537909764024503,4,-10,1,4,4,79,37,104
1537909764024503,-16,-6,-14,-17,-38,-79,-104,-101
1537909764045447,31,10,7,6,24,127,75,61
1537909764045447,-29,1,3,11,-5,-53,25,19
1537909764046445,-19,-22,-18,-31,-29,-69,-59,-45
1537909764046445,16,21,16,28,37,96,24,14
1537909764068386,-27,-12,-6,-11,-17,-78,-33,48
1537909764068386,-5,3,3,-1,0,3,-53,-101
1537909764069384,-5,2,6,5,14,20,29,7
1537909764069384,-1,-8,-5,2,-6,-45,16,83
1537909764083345,29,8,5,4,10,19,41,22
1537909764083345,-8,-13,-5,-2,1,5,5,7
1537909764084343,-6,3,1,-2,-5,-28,0,-29
1537909764084343,-8,-7,-4,-4,-5,-19,1,-25
1537909764106284,5,2,1,0,4,26,-5,19
1537909764106284,7,-3,-4,-4,-7,-38,-4,12
1537909764106284,9,6,1,0,-3,-11,-5,-10
1537909764106284,-9,-3,-2,0,3,-8,-13,-12
1537909764129224,2,-1,-3,-3,1,-5,-12,-23
1537909764129224,8,2,-1,-1,-3,-8,8,17
1537909764129224,-2,4,2,3,4,11,-8,-20
1537909764129224,-2,-3,-1,-1,-1,-5,9,-5
1537909764143186,-5,-1,-2,-2,-4,-8,-11,-22
1537909764143186,2,-3,1,0,-1,2,-3,3
1537909764144184,4,2,-1,6,8,14,3,4
1537909764144184,-5,-3,-6,-5,-4,-18,1,-16
1537909764166126,1,1,-3,-22,-7,2,-6,-6
1537909764166126,0,2,5,2,-1,4,-5,9
1537909764166126,2,5,1,4,1,-3,1,-8
1537909764166126,1,-3,1,11,2,-6,5,-5
1537909764180087,-3,-3,-4,7,5,8,-6,-8
1537909764180087,3,-1,-2,-19,-7,0,2,9
1537909764188066,-1,1,1,2,-2,-5,-2,-10
1537909764188066,-4,-2,-3,-5,-2,-3,-1,-9
1537909764203026,0,1,-1,7,1,8,-2,3
1537909764203026,-1,-1,0,4,0,-7,-2,0
1537909764204024,2,0,1,-1,-2,0,-1,-1
1537909764204024,-4,-2,-1,0,1,1,-2,-4
1537909764225965,0,0,-1,0,-1,-2,-3,-5
1537909764225965,2,-2,-4,1,-1,0,3,2
1537909764226962,0,0,-3,-6,-3,1,-2,-4
1537909764226962,0,0,2,3,3,0,3,-1
1537909764239927,-3,-3,-3,-1,-1,-1,-3,-3
1537909764239927,1,-2,-1,0,-1,-1,-3,3
1537909764247905,1,1,-1,-1,-1,2,-1,1
1537909764247905,-1,-1,-1,-3,-2,-5,0,-3
1537909764262865,-1,1,1,1,2,0,-2,-1
1537909764262865,2,0,-2,0,-1,-1,-1,2
1537909764263863,1,-1,0,-2,1,-2,0,-3
1537909764263863,-1,0,-1,-1,-2,-3,1,-1
1537909764285804,-1,1,0,-2,-2,-1,-2,-3
1537909764285804,-1,-1,0,5,3,1,2,1
1537909764286802,0,0,-1,-3,-3,-3,-1,-3
1537909764286802,-1,1,-2,-2,0,0,0,-2
1537909764299767,0,-2,0,-1,-2,0,0,-2
1537909764299767,-2,-2,-1,1,1,-1,-2,-1
1537909764308743,-1,1,-1,-1,-2,0,-1,-2
1537909764308743,-1,-2,-2,0,0,0,-1,0
1537909764325698,-2,-1,2,1,-2,-1,0,0
1537909764325698,0,0,-1,-1,1,0,1,0
1537909764330684,-3,-2,-2,-2,1,0,-2,-2
1537909764330684,-1,-1,0,0,-2,-2,-2,-1
1537909764339660,-1,1,-1,0,-1,0,-2,-1
1537909764339660,0,-1,-2,1,-1,-1,-2,0
1537909764341655,1,-3,0,-1,0,-1,-2,0
1537909764341655,0,0,-1,-1,-2,-2,-3,-2
1537909764353623,-1,-1,-5,-1,-1,-3,-1,-1
1537909764353623,-2,0,-2,0,-2,-1,-3,-2
1537909764360604,-2,-1,-2,-1,0,-1,-1,-1
1537909764360604,-3,1,0,-2,-4,-4,-3,-1
1537909764375564,-2,-2,0,0,0,1,-2,-1
1537909764375564,-1,0,-3,0,-2,-2,-3,0
1537909764382546,0,2,-1,-2,0,-1,-1,-1
1537909764382546,-2,-3,0,0,1,0,0,-2
1537909764398504,-2,-1,0,1,0,0,-2,-1
1537909764398504,-4,-3,0,-1,-1,0,1,0
1537909764399501,0,0,0,-2,-6,-4,-2,-1
1537909764399501,1,-1,-1,0,-1,-2,-1,-1
1537909764414460,-1,0,-2,1,-2,0,-3,-2
1537909764414460,1,2,1,3,-1,-2,-1,-2
1537909764420444,-1,-3,-1,0,0,-2,-1,1
1537909764420444,-3,-2,-1,-3,-1,1,-2,-2
1537909764435404,1,-2,1,1,-3,-5,0,1
1537909764435404,-2,-4,2,19,7,0,0,-1
1537909764442386,-1,-5,-7,86,21,7,0,1
1537909764442386,0,-3,-9,-97,-24,-4,-6,-4
1537909764458343,-4,6,7,64,2,-9,-4,-5
1537909764458343,-2,0,-20,-51,-9,-1,-2,0
1537909764459340,-8,-12,11,5,-27,-10,-5,-7
1537909764459340,5,50,82,106,63,24,1,0
1537909764474301,0,-63,-80,-123,-41,-7,-3,-1
1537909764474301,-12,6,-89,64,-5,-13,-3,-6
1537909764480285,10,47,67,-113,-8,-3,9,8
1537909764480285,2,-1,-33,104,-18,-13,9,9
1537909764495245,-1,-15,127,113,87,28,9,6
1537909764495245,9,42,-82,-72,-13,13,-8,2
1537909764502227,-21,-104,-44,-80,-54,-27,-11,-18
1537909764502227,-3,-48,-58,50,-12,-4,4,1
1537909764518185,9,83,95,69,-14,-16,-10,-5
1537909764518185,7,-42,-36,127,91,35,28,18
1537909764519183,2,29,112,11,1,9,-8,-1
1537909764519183,-1,5,-121,-128,-48,-16,-10,-9
1537909764534143,-22,-63,-1,-8,-5,-2,-2,-9
1537909764534143,-1,-8,-46,-46,-13,-6,-2,-4
1537909764540126,6,-7,46,43,28,8,2,2
1537909764540126,-2,-22,127,26,14,7,0,1
1537909764555087,10,8,-124,-39,-16,0,4,5
1537909764555087,1,16,39,-24,-16,-10,-2,-3
1537909764563064,1,12,-92,17,-2,0,2,0
1537909764563064,-4,22,-4,-24,-3,-4,-6,-3
1537909764578025,-3,48,3,-28,-14,-4,-5,-3
1537909764578025,-2,5,47,-16,-14,-7,-2,-1
1537909764579023,-2,1,21,27,7,-1,0,0
1537909764579023,-6,0,-58,-23,3,-2,-3,-4
1537909764593983,-2,-10,-31,-14,5,4,4,4
1537909764593983,-5,-25,31,7,-6,-3,0,-3
1537909764599965,-6,2,-33,6,12,2,1,-1
1537909764599965,-5,5,30,7,12,2,4,-1
1537909764614926,-4,7,-14,-4,2,4,3,0
1537909764614926,-3,3,25,-12,-6,-4,-2,-1
1537909764622903,1,-1,-9,0,6,4,-1,-1
1537909764622903,4,-59,-9,-2,-1,-4,0,1
1537909764637863,4,-62,-14,-5,-1,1,0,1
1537909764637863,5,-24,32,-8,-10,-3,-5,-3
1537909764638861,6,-2,-19,3,2,4,0,3
1537909764638861,4,3,-7,6,-2,-1,0,2
1537909764653820,3,32,-6,-5,-4,-1,-2,-1
1537909764653820,2,42,24,-5,-9,-2,-1,-1
1537909764659805,0,46,-25,2,0,-1,1,1
1537909764659805,-2,33,-1,-4,-6,1,0,-3
1537909764674765,-4,18,9,-6,-3,0,-3,-2
1537909764674765,-4,-4,10,-3,-4,-3,-3,-1
1537909764682744,-2,-13,-18,0,0,-1,1,0
1537909764682744,-4,-6,6,0,2,-1,0,-2
1537909764698702,-1,-8,-1,-4,0,0,-1,-1
1537909764698702,-3,-17,4,2,2,0,0,-2
1537909764698702,1,-6,-13,-3,-2,-4,1,2
1537909764698702,0,0,6,5,3,-1,0,0
1537909764720643,2,-3,-4,-1,0,-1,2,3
1537909764720643,-1,-5,4,-4,-1,0,-1,0
1537909764721640,-1,-3,-3,3,1,0,0,-1
1537909764721640,-1,1,2,11,3,4,-1,-1
1537909764735602,1,0,-2,9,3,1,0,2
1537909764735602,-4,-6,3,-4,-13,-8,-5,-4
1537909764742584,-2,-3,-5,-1,0,-1,-1,-3
1537909764742584,0,-2,-5,-4,-2,-2,-1,1
1537909764757543,-1,0,-1,11,4,1,0,-2
1537909764757543,0,0,0,3,7,1,-1,1
1537909764765522,-1,-2,1,-12,-14,-7,-2,-3
1537909764765522,-1,-1,2,23,5,1,1,1
1537909764774498,0,-1,-9,-49,-9,-2,0,-2
1537909764774498,0,0,10,8,1,0,-2,1
1537909764780482,-1,-1,-9,-10,-4,-3,-2,0
1537909764780482,0,1,3,3,0,0,-1,-1
1537909764795443,-1,-2,1,5,-2,-1,-2,-2
1537909764795443,-1,-2,-1,-8,1,0,-1,0
1537909764802423,2,1,-3,6,3,2,0,0
1537909764802423,-1,0,1,-8,-1,-2,0,-1
1537909764817384,0,-1,-4,0,-1,-1,-1,-1
1537909764817384,-1,-2,0,-3,1,-1,-1,-3
1537909764825363,0,1,1,9,3,1,-1,1
1537909764825363,1,-1,-6,-10,-2,-2,-1,-2
1537909764834338,0,-1,0,0,-4,-1,-3,-1
1537909764834338,0,-1,2,1,-2,-3,0,0
1537909764840322,-2,-1,-4,0,3,1,2,-1
1537909764840322,-1,0,-3,-9,-4,-3,-1,-2
1537909764855282,-1,-2,0,5,-2,-1,-1,0
1537909764855282,0,1,3,2,0,1,-1,-1
1537909764862263,1,0,-5,-2,1,0,0,0
1537909764862263,0,-2,-1,-2,1,1,-1,0
1537909764877223,0,0,1,6,0,-1,1,0
1537909764877223,-2,-2,-3,-8,-3,-1,-1,-2
1537909764885202,-2,0,-2,1,0,-1,-2,-1
1537909764885202,-2,-2,0,-1,1,1,-2,-2
1537909764894178,1,3,1,3,-1,-3,-2,1
1537909764894178,0,-1,-2,12,4,1,3,-1
1537909764900162,-2,-2,-3,-18,-7,-2,-4,-1
1537909764900162,0,0,3,4,-7,-5,-1,0
1537909764915122,-1,1,-1,-26,-6,-2,-2,-2
1537909764915122,-1,2,-1,4,-1,-1,-1,-1
1537909764923101,-1,3,-2,23,8,3,1,0
1537909764923101,-1,-6,-8,-3,2,1,0,-2
1537909764938061,-2,0,-22,16,12,4,1,-2
1537909764938061,-6,-14,39,41,7,3,-2,-4
1537909764945043,-1,-9,-10,-22,11,-1,-4,-2
1537909764945043,-4,19,33,-22,-47,-15,-11,-10
1537909764961001,-1,27,-70,-5,10,-5,6,2
1537909764961001,-6,-13,60,62,11,6,0,-2
1537909764961998,21,24,-95,-81,-40,-7,2,7
1537909764961998,7,10,105,121,64,8,11,9
1537909764974965,-16,-62,-42,-77,-3,5,-10,-8
1537909764974965,8,82,-32,59,-25,-26,-6,-2
1537909764982942,1,19,71,61,35,21,3,4
1537909764982942,-12,-32,-128,-65,-84,-33,-4,-5
1537909764997901,13,-67,73,62,29,7,13,12
1537909764997901,13,51,75,18,34,16,7,9
1537909765004882,4,-34,21,72,24,7,6,6
1537909765004882,-11,-21,-22,13,27,12,-3,-2
1537909765020839,-21,-81,63,17,0,0,-16,-16
1537909765020839,-3,26,-41,-127,-48,-13,1,-1
1537909765021837,5,45,119,76,-4,-8,-1,-3
1537909765021837,-1,-41,-19,-69,3,5,-2,0
1537909765034802,12,50,28,30,-8,-3,2,3
1537909765034802,0,-60,-108,-15,-5,-4,-3,0
1537909765042781,-9,12,61,-25,-19,-6,-8,-8
1537909765042781,1,56,89,-14,-2,-3,-8,-4
1537909765057741,1,46,3,-25,-10,-4,-4,-1
1537909765057741,4,44,-32,-9,9,7,6,4
1537909765064722,5,-12,-100,4,6,4,16,11
1537909765064722,-7,-27,-30,27,11,6,-1,-2
1537909765080679,-2,28,18,1,-3,-1,1,-1
1537909765080679,-9,-38,70,-10,-5,-4,-4,-5
1537909765081677,-17,-36,-80,-49,-6,-7,-8,-9
1537909765081677,5,17,-29,-2,14,4,5,1
1537909765094642,-3,22,-23,9,-2,0,3,-1
1537909765094642,-4,-8,-9,-16,3,0,-2,-3
1537909765102621,-8,-34,1,-6,-2,-2,-7,-8
1537909765102621,8,-30,5,0,0,2,2,2
1537909765117582,7,-29,-2,1,-11,-4,-1,2
1537909765117582,1,-56,-21,-4,-1,1,-4,-3
1537909765125563,2,-7,3,-2,-3,-3,0,1
1537909765125563,7,4,6,-1,-6,-2,-1,0
1537909765140521,1,19,-14,-7,-9,-5,-1,-1
1537909765140521,2,19,0,1,3,1,-2,1
1537909765141520,-3,33,-1,-8,-6,-2,-2,-1
1537909765141520,0,40,-2,-1,1,2,1,-1
1537909765155481,-3,22,-4,2,-6,-3,-1,-3
1537909765155481,-3,-2,2,-2,2,0,1,0
1537909765170441,-5,-2,6,-4,0,0,0,-2
1537909765170441,-1,-6,-9,-8,2,-2,-2,0
1537909765177423,0,-3,-2,19,-5,-7,-1,-1
1537909765177423,-4,-20,-1,-1,-6,-1,-2,-2
1537909765185401,-3,-13,-6,-9,-5,-3,-2,-3
1537909765185401,-1,-2,2,2,5,3,0,2
1537909765201359,-2,2,-2,-3,-1,2,0,0
1537909765201359,0,-3,-1,-3,4,0,-1,1
1537909765201359,-1,-6,2,10,4,1,0,-1
1537909765201359,0,0,1,-3,-9,-4,-1,1
1537909765222302,-1,1,-2,-7,-5,-2,-2,0
1537909765222302,0,-11,-3,4,1,1,0,1
1537909765231277,0,-1,-4,-12,-1,0,0,-2
1537909765231277,2,3,8,11,8,2,3,0
1537909765246237,1,0,-3,9,6,2,2,1
1537909765246237,-1,-1,2,-13,-4,1,-2,0
1537909765246237,-2,-4,-3,1,-2,-5,-2,-3
1537909765246237,-1,-1,-2,9,3,1,0,-1
1537909765269176,-2,-2,-10,-10,-4,-1,-2,-3
1537909765269176,1,-3,6,12,1,-1,1,-1
1537909765270173,0,-3,-2,-4,-2,-1,-1,-1
1537909765270173,0,-4,-2,-5,-7,-1,-2,-2
1537909765283138,1,3,0,2,4,0,1,0
1537909765283138,-2,-4,-3,-8,-2,-2,0,-2
1537909765284136,-3,-2,2,-1,1,1,0,-1
1537909765284136,-2,-1,-3,-5,-1,-2,-2,-1
1537909765306077,1,2,4,3,7,6,0,0
1537909765306077,2,0,-6,-4,-6,-2,-1,1
1537909765306077,-2,-4,-1,-16,-18,-9,-4,-3
1537909765306077,1,1,5,12,3,2,1,0
1537909765329016,-2,2,3,-7,-4,-3,-3,-1
1537909765329016,0,-5,-3,6,5,2,-1,1
1537909765330013,0,2,-3,-11,3,3,1,-1
1537909765330013,-1,-3,-3,-4,0,1,-3,-1
1537909765342978,0,-2,-2,-5,-7,-4,0,3
1537909765342978,-2,-2,1,0,-2,0,-1,-1
1537909765350957,1,0,0,5,1,-1,0,1
1537909765350957,0,0,-2,-4,-2,-2,-1,0
1537909765365917,0,1,-2,-2,1,1,-1,0
1537909765365917,0,-17,-11,-8,-4,-1,-4,-3
1537909765366915,-8,7,39,42,18,7,-1,-1
1537909765366915,10,58,-77,-84,-29,-8,0,-2
1537909765388856,0,-14,-4,57,26,5,0,-2
1537909765388856,-9,-61,-58,-43,-27,-5,-2,-2
1537909765389855,-1,-17,22,65,18,-5,-3,-2
1537909765389855,-1,69,21,15,-7,5,2,3
1537909765402820,5,63,41,26,16,-2,9,4
1537909765402820,-3,23,-57,49,27,3,-2,-2
1537909765410798,-2,-106,-40,-71,-32,2,-2,2
1537909765410798,1,-2,13,108,32,13,23,14
1537909765425757,14,0,-20,4,-7,-2,-6,-2
1537909765425757,-10,12,-40,-84,-24,-8,-12,-8
1537909765426755,15,38,12,-56,1,2,-1,2
1537909765426755,-4,-14,-9,62,14,-2,-12,-12
1537909765448696,-22,-90,34,-31,-11,2,-3,-8
1537909765448696,-2,-40,-63,-15,-10,-9,-1,-2
1537909765449693,-9,37,-21,25,-11,-14,-9,-9
1537909765449693,6,3,-41,-40,-4,-4,1,4
1537909765462658,2,39,20,-9,-9,-5,-4,-2
1537909765462658,5,36,7,29,11,6,5,3
1537909765470637,-13,11,39,-12,-2,-3,-6,-11
1537909765470637,-8,-10,1,-25,-11,-7,-6,-7
1537909765486594,-1,6,-45,-6,4,2,4,1
1537909765486594,-6,-9,76,9,-1,-4,-3,-3
1537909765494573,4,10,-26,7,1,4,6,6
1537909765494573,-5,-29,18,-12,5,3,-1,-2
1537909765500557,-3,-13,-31,-20,-7,-1,1,0
1537909765500557,2,1,64,8,5,3,2,1
1537909765501554,2,-15,-14,2,3,1,0,2
1537909765501554,1,-37,-13,2,4,2,-2,0
1537909765515517,-3,-25,7,-18,-15,-8,-6,-4
1537909765515517,5,10,18,12,-1,-2,0,0
1537909765522498,6,7,-22,14,6,4,3,4
1537909765522498,-2,-16,8,-10,-5,10,1,-2
1537909765537458,4,21,-4,-8,-9,-21,1,3
1537909765537458,-1,17,11,13,0,-13,-6,-1
1537909765545437,-1,11,-16,-2,1,22,5,1
1537909765545437,-3,3,37,-18,-11,-26,-13,-4
1537909765560398,-5,8,-37,3,3,21,3,-3
1537909765560398,2,12,-15,5,1,-31,-9,-1
1537909765561395,0,9,9,5,-3,-9,-7,-2
1537909765561395,-4,0,24,-16,-4,-13,-3,-1
1537909765575357,0,0,-32,-4,1,8,-7,-4
1537909765575357,-2,0,11,-2,-4,21,9,2
1537909765582339,-2,1,-5,8,1,-8,4,0
1537909765582339,-4,-17,-4,-1,0,10,1,5
1537909765597299,-4,-8,3,-9,-4,-5,3,-8
1537909765597299,1,-1,19,20,7,21,4,-7
1537909765605278,0,-4,25,-20,-5,1,9,5
1537909765605278,5,-1,-46,-2,-2,-7,-3,-5
1537909765621236,-1,-2,14,2,1,-8,-4,-2
1537909765621236,4,4,26,4,-1,4,2,3
1537909765621236,3,4,-18,-15,-5,-4,-3,-5
1537909765621236,-8,-12,9,18,5,4,0,-24
1537909765635198,-1,-7,-26,-10,-2,23,12,24
1537909765635198,8,5,27,8,2,-35,-3,12
1537909765643177,-7,0,3,0,1,4,-9,-22
1537909765643177,3,0,27,-2,4,7,2,0
1537909765658137,0,1,-25,1,-6,1,-2,-13
1537909765658137,0,2,0,-4,-1,9,6,6
1537909765665118,2,-8,-17,3,-1,-5,2,8
1537909765665118,-1,-3,-11,-29,-10,-4,-3,0
1537909765680077,-2,1,36,22,9,-2,-3,1
1537909765680077,-2,-2,12,-7,-2,3,-1,1
1537909765688056,6,4,-21,-2,0,-4,-1,4
1537909765688056,4,5,0,6,3,8,0,2
1537909765695037,0,3,16,2,-7,-20,-6,4
1537909765695037,-4,-6,-19,-8,-1,4,0,-8
1537909765703016,-4,-3,1,1,0,3,-2,-5
1537909765703016,0,5,30,6,1,0,2,7
1537909765726952,-1,-1,0,-23,-5,-7,-5,-4
1537909765726952,-2,-5,-37,12,-2,0,-1,-4
1537909765726952,-1,-4,12,-2,2,0,0,4
1537909765726952,2,-1,-28,5,3,1,1,7
1537909765739917,0,6,25,7,2,-3,-2,-4
1537909765739917,0,-2,-9,-18,-7,5,0,-1
1537909765747896,0,2,-12,-25,-5,-5,-2,3
1537909765747896,-5,-5,8,1,-9,-7,-5,-5
1537909765754877,2,5,20,-8,-1,1,0,-2
1537909765754877,-3,0,-5,0,4,3,1,0
1537909765762856,0,2,0,5,0,-2,0,3
1537909765762856,-3,0,-1,-1,-1,-2,0,0
1537909765777817,-1,-6,-12,-3,2,13,3,0
1537909765777817,2,3,4,0,3,-15,-1,2
1537909765785795,-3,-5,-7,7,-2,-2,-3,-4
1537909765785795,-7,-6,6,3,5,5,0,-2
1537909765799758,9,8,-9,1,-5,-13,-3,5
1537909765799758,-4,-10,-7,-4,-4,4,-4,-7
1537909765808735,-1,-7,-9,11,3,8,4,1
1537909765808735,-2,3,3,2,-2,-10,-1,1
1537909765815718,-4,-7,4,1,-2,-5,-3,-4
1537909765815718,3,9,18,-5,-1,4,-1,1
1537909765822698,2,7,11,6,2,5,2,-1
1537909765822698,0,-5,-16,-4,2,4,-1,1
1537909765837658,1,3,5,-3,-5,-2,-1,-1
1537909765837658,-3,-1,0,3,4,1,-1,-4
1537909765845638,0,-1,-9,-1,-1,2,-2,2
1537909765845638,2,-1,-2,-2,-1,-6,-3,0
1537909765860598,-3,-5,-10,2,2,5,-1,-3
1537909765860598,-1,0,0,0,-3,-4,-4,0
1537909765868576,-2,1,2,2,-3,-11,-3,-1
1537909765868576,0,0,4,-5,-4,11,1,-1
1537909765884531,1,2,-6,2,2,-12,-2,1
1537909765884531,-9,-16,-34,4,-1,7,1,-4
1537909765885528,3,13,9,-8,-7,-5,-4,-2
1537909765885528,-1,-4,18,2,-2,-2,-3,-1
1537909765897496,-2,4,-4,5,2,10,2,-1
1537909765897496,0,8,38,-6,-1,1,2,0
1537909765905475,1,-12,-53,-3,-8,-26,-6,-2
1537909765905475,-2,-6,-10,-1,-3,-1,-5,0
1537909765920435,-4,-4,-14,1,3,8,1,-2
1537909765920435,-5,-2,2,-6,-7,-7,-6,-4
1537909765928413,4,7,19,7,7,16,8,3
1537909765928413,0,1,-7,1,2,0,0,0
1537909765943373,-3,-2,3,0,-4,-7,-2,-1
1537909765943373,-2,-1,-6,3,-2,6,-1,-2
1537909765944371,-3,-7,5,-6,-3,-4,-3,1
1537909765944371,-1,5,1,2,2,-3,-3,0
1537909765957336,-1,-3,3,1,-2,-1,-3,-2
1537909765957336,2,2,-5,-9,-6,-6,-1,2
1537909765965315,-3,1,2,10,9,11,2,-2
1537909765965315,0,0,-2,0,-6,-12,-3,0
1537909765980275,0,3,-2,-2,1,16,1,0
1537909765980275,-2,-11,-22,3,-4,-30,-7,-2
1537909765988254,-6,-8,6,-8,-1,9,1,-4
1537909765988254,1,17,15,3,-1,1,0,1
1537909766003214,-2,-4,4,-2,-5,-23,-4,0
1537909766003214,0,1,-5,-2,-2,3,-4,-1
1537909766004212,-2,-9,2,1,-3,-2,0,0
1537909766004212,1,-3,-17,2,13,44,16,4
1537909766017177,0,-2,-6,-9,-14,-45,-17,-4
1537909766017177,4,9,10,1,1,0,3,2
1537909766026153,-5,-5,2,2,-1,-6,-3,-2
1537909766026153,-2,0,-3,-2,-3,0,-2,-3
1537909766040116,-1,-4,0,4,10,18,8,1
1537909766040116,1,-3,-7,-3,-3,7,1,0
1537909766048094,-3,2,6,5,-2,-7,-3,-4
1537909766048094,-1,-5,-6,-7,-9,-7,0,1
1537909766063055,1,1,0,3,3,8,2,2
1537909766063055,-4,-4,4,-1,-1,-1,-2,-1
1537909766064052,1,12,54,-1,1,11,0,2
1537909766064052,-5,-11,-49,-8,-8,-19,-8,-4
1537909766078014,0,-7,-38,1,-1,19,6,2
1537909766078014,0,0,20,13,0,-18,-2,-2
1537909766085993,3,5,9,-5,-1,28,7,3
1537909766085993,-1,20,127,11,2,18,-4,-6
1537909766099955,-5,-54,-85,-45,-15,-77,-16,-1
1537909766099955,3,16,89,13,9,40,6,2
1537909766107933,-11,-21,-58,-24,-10,8,-6,-7
1537909766107933,-1,-1,-49,2,-7,-79,-20,-6
1537909766122893,-3,28,116,23,2,33,6,-3
1537909766122893,5,-3,-128,2,12,17,9,6
1537909766123891,-1,-25,36,0,1,15,13,5
1537909766123891,7,6,40,18,8,30,17,8
1537909766137854,-13,-3,78,-20,-10,-27,-23,-14
1537909766137854,-4,28,127,35,-4,-43,-22,-8
1537909766145832,4,7,-6,-41,-5,-13,-2,5
1537909766145832,7,-33,-128,23,17,47,31,38
1537909766159795,0,5,75,-2,7,38,16,-3
1537909766159795,-1,-9,-40,-7,-5,1,-11,-7
1537909766167773,1,10,-21,-9,-9,-28,-13,-19
1537909766167773,-3,16,102,5,1,2,-11,-11
1537909766183731,11,9,-104,-2,2,6,12,4
1537909766183731,-4,0,23,-22,2,24,16,5
1537909766183731,-4,-11,-18,34,12,-20,-7,3
1537909766183731,-5,4,-11,-29,-8,-20,-10,-15
1537909766197695,-4,7,30,21,-3,24,3,2
1537909766197695,0,-5,20,-12,3,16,12,6
1537909766205674,9,21,30,28,-5,-44,-15,3
1537909766205674,-5,-17,-59,-13,-1,1,-2,-5
1537909766220634,0,4,6,8,5,21,8,4
1537909766220634,-6,-16,-33,-13,-4,-14,-7,-6
1537909766228611,-6,-2,10,-2,-5,2,0,-6
1537909766228611,-2,7,39,-8,-5,-5,-7,-5
1537909766243571,-5,-7,36,11,5,12,-1,-2
1537909766243571,-3,-18,-88,-1,7,18,10,-1
1537909766243571,-1,-2,-8,-2,-7,-9,-5,1
1537909766243571,-2,-7,-14,-14,-5,-4,1,0
1537909766257533,1,1,18,7,0,-6,-6,-1
1537909766257533,3,4,-3,-4,-4,-7,-3,-1
1537909766265512,-1,0,13,1,0,9,5,2
1537909766265512,-3,-7,-12,8,6,2,-1,-2
1537909766280472,0,0,-22,9,-1,-8,-3,-1
1537909766280472,-2,4,41,-5,-5,-10,-6,-1
1537909766288451,1,0,-44,8,4,7,2,1
1537909766288451,-2,-3,7,-13,-11,-5,-2,-3
1537909766303411,0,-1,-7,-3,4,-5,-2,2
1537909766303411,-2,-2,-20,-3,-5,-8,-2,-1
1537909766304408,0,1,28,-1,-1,5,1,-1
1537909766304408,0,3,7,10,3,-3,-2,0
1537909766317373,1,-1,-16,-3,2,-3,0,1
1537909766317373,-3,-8,-25,-8,-4,-2,-3,-2
1537909766325352,-2,-1,56,4,-4,0,-4,-2
1537909766325352,1,-2,4,-7,-8,-3,-1,-2
1537909766340312,7,9,-59,-2,-1,-3,3,2
1537909766340312,0,0,10,-2,0,2,1,1
1537909766348291,-1,-2,-17,-6,4,12,2,1
1537909766348291,2,1,6,2,-2,-26,-7,-3
1537909766363251,1,0,12,-4,-4,-3,-4,-2
1537909766363251,-2,0,33,2,0,-1,-2,-2
1537909766364248,2,3,-40,5,6,7,6,1
1537909766364248,-1,-3,4,0,-2,2,3,0
1537909766385193,-1,0,-39,-5,-2,-17,-3,-1
1537909766385193,1,5,42,2,-1,-4,-3,-2
1537909766394170,-3,-1,10,-2,-3,0,-2,-1
1537909766394170,-2,3,8,-4,1,6,0,-1
1537909766408132,-3,-3,-18,-7,-3,0,-2,-2
1537909766408132,2,1,31,-7,0,1,1,0
1537909766415114,4,-2,-65,5,0,-1,2,1
1537909766415114,0,3,17,3,5,3,0,1
1537909766431072,-4,0,32,9,-4,-1,-3,-2
1537909766431072,-6,-7,-11,-3,1,-2,-3,-3
1537909766433066,1,0,-3,-3,0,2,-1,-1
1537909766433066,1,-1,5,7,3,0,-1,2
1537909766445034,0,5,47,-10,-4,2,-2,-1
1537909766445034,2,-3,-57,-3,-2,1,1,0
1537909766454010,1,0,29,3,0,-6,-1,0
1537909766454010,-1,-6,-25,-10,-6,-1,-2,0
1537909766468970,-2,-2,-4,8,5,4,1,-1
1537909766468970,1,1,4,-4,-5,-2,-4,0
1537909766469968,-2,0,4,-4,0,-1,0,0
1537909766469968,-3,-7,-13,-2,-3,1,-1,-1
1537909766491908,1,3,1,-3,-1,-1,-3,-1
1537909766491908,-1,-3,-39,8,6,-1,0,1
1537909766492908,-1,7,31,-16,-14,-7,-4,-1
1537909766492908,0,-3,9,2,2,3,4,-1
1537909766504872,1,3,13,6,1,2,0,-1
1537909766504872,-1,-4,-29,-2,-1,-1,-1,1
1537909766513849,-2,-2,4,3,3,-1,0,0
1537909766513849,-5,-6,-5,-4,-3,-3,-4,-3
1537909766527811,-1,-4,-8,-6,-4,-2,0,-1
1537909766527811,3,9,48,6,3,1,0,-2
1537909766534792,-2,-8,-44,-2,-2,-4,-4,-2
1537909766534792,-1,9,24,8,1,-1,-1,-1
1537909766551747,-2,-4,-19,-18,-8,-3,-1,0
1537909766551747,0,1,7,5,2,0,0,0
1537909766552744,-5,-6,0,-10,-10,-5,-4,-4
1537909766552744,1,1,-21,2,4,3,0,-1
1537909766564712,-2,-7,-30,-5,-2,-6,-3,-2
1537909766564712,-2,2,20,1,-4,0,2,-1
1537909766573688,1,-1,-9,3,5,1,-3,-1
1537909766573688,-3,-8,-11,-5,-3,0,0,-2
1537909766588648,3,4,4,0,2,7,2,3
1537909766588648,-1,0,6,-2,-8,-11,-5,-2
1537909766590643,-1,-4,30,5,8,5,4,-1
1537909766590643,0,-5,-89,-12,-1,3,3,1
1537909766611587,4,11,24,8,3,1,-1,2
1537909766611587,0,1,13,-1,-2,-1,-1,0
1537909766612584,-2,-5,5,1,0,0,0,-1
1537909766612584,0,0,24,-1,-2,-2,-2,0
1537909766633528,-4,-6,-20,-2,0,1,-1,-2
1537909766633528,-1,-2,-9,-1,1,1,-1,0
1537909766635523,-2,1,9,0,2,1,0,-1
1537909766635523,-2,0,9,-2,-3,-5,-4,-1
1537909766648488,0,2,0,6,3,-1,0,-1
1537909766648488,0,4,0,-6,-7,-5,-2,0
1537909766650483,-1,-4,-10,3,0,0,2,1
1537909766650483,1,6,25,4,0,0,-1,0
1537909766671428,-8,-13,2,-2,0,0,-2,-5
1537909766671428,2,0,-31,1,-5,-1,0,1
1537909766672425,1,3,-6,-6,-1,0,0,-1
1537909766672425,3,9,46,9,1,0,0,-1
1537909766694367,0,-9,-56,-11,-4,0,-1,2
1537909766694367,-3,-3,2,1,6,5,2,-2
1537909766695366,-3,0,2,0,-3,-7,-5,-4
1537909766695366,0,1,14,0,-1,-2,0,0
1537909766709328,-2,1,20,-4,-2,3,1,0
1537909766709328,-1,-3,-37,-1,2,5,3,1
1537909766710325,3,5,9,3,0,-2,-1,-1
1537909766710325,1,4,0,-1,2,6,0,1
1537909766731268,1,0,0,0,-3,-7,-2,-1
1537909766731268,-3,-4,4,0,-1,-2,-4,-3
1537909766733263,-1,2,11,-1,1,2,1,-1
1537909766733263,0,1,-18,-2,-2,-2,-1,0
1537909766754206,0,0,10,2,2,-3,-2,-1
1537909766754206,-1,-5,6,-2,-5,0,-4,-4
1537909766755203,-4,-6,-22,-9,-2,-3,-3,-3
1537909766755203,-2,-7,-3,-1,2,3,0,-1
1537909766776148,0,1,-50,-5,-5,-7,-2,-1
1537909766776148,-6,-10,24,-2,0,2,0,-3
1537909766778142,7,10,18,10,1,-5,-2,2
1537909766778142,-3,-10,7,-2,-2,-2,-2,-5
1537909766791107,4,7,13,2,1,13,8,3
1537909766791107,0,0,-3,-2,-1,-14,-6,-2
1537909766793102,-4,-3,-7,-2,-1,2,1,-1
1537909766793102,-1,4,7,0,0,2,-3,-1
1537909766814046,-3,-6,-16,2,0,-5,-1,-1
1537909766814046,-2,-2,-25,-7,-2,-3,0,-3
1537909766815043,-3,-4,12,2,2,2,0,-1
1537909766815043,0,2,-18,2,-1,-4,-1,0
1537909766828009,0,0,22,0,-3,-2,-2,-3
1537909766828009,-2,-4,43,1,3,2,-2,0
1537909766834990,3,2,-56,-13,-7,-2,-1,0
1537909766834990,-4,-4,8,0,0,-1,-1,-4
1537909766851946,-2,-3,24,1,2,0,-1,-1
1537909766851946,0,0,-43,-2,-3,-4,-2,-1
1537909766852944,-3,-3,36,0,-2,4,0,-2
1537909766852944,1,1,-48,-4,1,-3,1,1
1537909766873887,-1,-1,-2,0,-2,-4,-1,-2
1537909766873887,2,2,15,-3,-3,2,1,0
1537909766875882,0,1,10,6,2,0,0,1
1537909766875882,-1,-2,0,-9,-8,-5,-5,-2
1537909766887850,-3,-5,-3,-3,0,-6,-2,-4
1537909766887850,0,0,3,-2,-1,5,1,0
1537909766894832,0,-1,-11,-1,0,-6,-1,1
1537909766894832,0,1,23,4,0,-1,-3,-2
1537909766911787,-2,-2,-6,-7,-4,-15,-5,0
1537909766911787,-1,-2,-5,-1,0,2,-4,-2
1537909766912784,0,1,3,2,1,5,1,-1
1537909766912784,-1,2,-1,2,-1,-3,-1,-2
1537909766933727,-1,-2,0,-1,2,7,1,1
1537909766933727,2,4,-28,0,3,2,4,2
1537909766935721,-3,-7,-8,3,1,-4,-2,-2
1537909766935721,0,3,26,2,1,5,3,0
1537909766947689,7,12,30,4,-7,-9,-3,0
1537909766947689,-1,-7,-28,-1,1,-1,2,2
1537909766956665,0,1,-1,-9,-5,1,-3,1
1537909766956665,-2,-4,-15,0,0,-9,-5,-5
1537909766971625,-1,1,34,1,0,5,-1,-1
1537909766971625,-1,-2,-19,-3,-2,4,1,0
1537909766972622,1,5,3,7,5,-9,-1,1
1537909766972622,-1,0,0,-6,-6,-4,1,0
1537909766993566,-2,0,-6,-3,-1,4,-3,-1
1537909766993566,-3,-6,26,1,0,-7,0,0
1537909766995561,-1,1,-14,-2,-2,3,1,-1
1537909766995561,0,1,23,4,3,5,-3,-2
1537909767008526,-4,-9,-49,-7,0,5,1,1
1537909767008526,0,5,18,-1,-1,-9,-2,2
1537909767015508,-3,-2,-3,-5,-4,0,-1,-4
1537909767015508,-3,-3,-12,2,3,-1,-2,-1
1537909767031466,-3,-1,40,7,0,4,4,-2
1537909767031466,1,0,-27,-3,0,2,-5,-1
1537909767032464,-2,-6,-12,-10,-5,-28,0,-1
1537909767032464,0,-2,-6,-10,-3,-3,-1,1
1537909767054405,0,3,12,9,2,8,1,0
1537909767054405,-2,1,16,5,2,-6,-1,-2
1537909767055403,-4,-10,-27,-13,-3,1,-2,-2
1537909767055403,2,3,7,11,2,6,2,0
1537909767068368,-2,-5,-17,-4,1,-1,-1,-3
1537909767068368,1,2,23,-8,-13,0,2,1
1537909767075349,-3,-1,3,1,1,-6,-5,-3
1537909767075349,-3,-4,-14,-6,1,-8,-2,-1
1537909767091306,0,1,9,-1,-4,-2,-5,-2
1537909767091306,0,-1,-23,7,8,-4,5,0
1537909767093302,-1,-2,-4,-3,-3,18,-4,-2
1537909767093302,1,-3,-14,-7,-4,-10,-1,2
1537909767114246,0,2,7,3,-1,-1,1,1
1537909767114246,-3,-2,23,-1,0,10,-2,-5
1537909767115244,0,0,-20,-1,-1,1,-5,0
1537909767115244,0,3,18,5,-3,-9,3,0
1537909767127210,-1,0,37,-1,0,-4,-7,-3
1537909767127210,-2,-13,-94,-13,-5,-13,2,1
1537909767136186,1,4,38,13,9,46,10,-1
1537909767136186,0,0,20,-10,-9,3,-6,-1
1537909767151145,0,-4,-34,-3,-2,-10,-5,-2
1537909767151145,-4,0,31,8,-2,-32,-13,-4
1537909767153140,-1,-2,10,-3,-3,3,0,1
1537909767153140,-2,-4,6,-5,1,14,0,-2
1537909767174083,0,-1,-59,-9,1,12,6,1
1537909767174083,4,6,45,22,5,17,9,4
1537909767175081,1,-1,-24,5,-3,-21,-5,-1
1537909767175081,-2,-2,27,8,0,5,1,-1
1537909767188046,2,2,-1,0,4,3,4,4
1537909767188046,-6,-2,21,-6,2,11,-7,-8
1537909767196025,4,4,-18,-4,-5,-3,3,2
1537909767196025,1,-2,-32,-5,-4,-23,-5,1
1537909767210985,-2,-2,2,10,5,19,6,-3
1537909767210985,4,8,7,-8,-1,-15,-6,4
1537909767212981,-1,-4,0,1,3,19,-5,-4
1537909767212981,-5,0,24,-5,-4,-30,-15,-10
1537909767233925,-3,-10,-11,-7,-8,-32,-5,-1
1537909767233925,-1,3,-31,-11,-6,-9,-3,-2
1537909767235920,-3,-6,0,6,6,27,12,3
1537909767235920,1,1,-26,5,10,8,5,2
1537909767247888,-2,1,34,1,2,4,-5,-2
1537909767247888,-4,-4,20,7,-6,-1,0,-4
1537909767256863,2,3,29,-7,-11,-17,-3,2
1537909767256863,-2,-5,-32,0,2,-1,3,2
1537909767271822,-2,-1,17,-2,-1,-2,-3,0
1537909767271822,1,-2,-24,-8,2,39,10,0
1537909767272820,-3,-2,0,1,1,-29,-8,-2
1537909767272820,0,-4,-14,-6,-4,18,2,0
1537909767293763,5,10,0,3,2,9,4,3
1537909767293763,-2,-2,14,-4,-5,-26,-13,-5
1537909767295758,-3,-6,-38,0,3,5,3,-2
1537909767295758,0,-3,29,-3,0,3,11,3
1537909767307726,1,0,-18,1,2,-3,-9,-3
1537909767307726,1,-2,3,-5,-11,6,-1,-1
1537909767316703,3,7,18,4,1,-9,1,0
1537909767316703,-1,-1,1,-2,0,19,6,2
1537909767331662,-1,-1,-2,5,0,-18,-2,1
1537909767331662,-2,-2,-4,-12,-9,-27,-9,-4
1537909767332660,-4,2,38,-8,-6,14,-2,-6
1537909767332660,0,-14,-100,-6,0,-25,-5,-1
1537909767353603,-5,-10,-2,-1,0,16,4,-1
1537909767353603,0,0,-8,5,4,3,4,1
1537909767355598,1,1,16,2,-3,-12,-4,-1
1537909767355598,0,7,37,6,1,22,3,1
1537909767367566,-2,-2,-13,-7,-5,-19,-2,-1
1537909767367566,-1,4,10,2,6,15,-3,1
1537909767376542,-2,-2,2,-8,-6,-17,-4,-3
1537909767376542,0,0,-2,3,-2,6,-2,-1
1537909767390505,3,2,-3,2,-2,1,1,4
1537909767390505,-2,0,-5,3,5,30,1,-2
1537909767397487,-2,0,-2,3,-1,-31,-6,-1
1537909767397487,0,3,-21,-4,1,15,7,0
1537909767414442,-1,5,43,8,-3,-16,-5,-3
1537909767414442,0,0,19,4,-1,-1,2,-2
1537909767415441,-3,-11,-43,-4,6,-2,-5,0
1537909767415441,-1,1,4,-1,-4,-5,-11,-3
1537909767427409,-1,-5,-37,-6,1,18,-4,0
1537909767427409,-1,-4,27,-3,-9,-35,5,3
1537909767436385,-2,-1,-19,-7,-1,27,4,-4
1537909767436385,-1,1,21,6,-3,-29,-9,-2
1537909767451344,-1,4,7,-3,0,19,4,-1
1537909767451344,1,-5,-14,4,9,34,8,0
1537909767453339,5,11,17,-5,-3,-32,-3,4
1537909767453339,-1,1,4,5,1,-1,-1,-1
1537909767474282,-4,-4,0,3,1,9,2,-2
1537909767474282,5,2,-7,2,2,22,18,6
1537909767475282,-4,-8,-3,-6,-11,-45,-16,-4
1537909767475282,0,3,27,-4,1,14,-4,-2
1537909767487248,1,4,-23,-3,-2,-23,2,-1
1537909767487248,-6,-6,-29,-10,-4,-11,-9,-4
1537909767496224,4,7,42,6,-3,13,4,2
1537909767496224,-2,-2,13,0,-1,7,3,-1
1537909767511183,-1,-2,24,2,3,14,3,-1
1537909767511183,-1,-10,-48,-10,-4,9,-1,1
1537909767513179,2,-3,-63,7,9,10,10,3
1537909767513179,1,11,34,3,0,-23,-10,-2
1537909767534123,-2,-5,-9,-13,-10,-6,-7,-4
1537909767534123,3,5,41,5,5,0,2,3
1537909767535120,-2,-3,11,5,3,14,-1,-2
1537909767535120,0,-3,-15,0,2,7,4,0
1537909767556064,-3,-5,-24,-9,1,27,7,-2
1537909767556064,-4,-2,23,9,-2,-12,-4,-5
1537909767558058,-3,1,-13,-2,-1,-36,-14,-3
1537909767558058,-2,-3,-13,-9,-7,-10,-8,-2
1537909767571023,0,-1,2,-4,-3,-6,0,0
1537909767571023,1,-3,-15,-2,-2,2,0,0
1537909767573017,-1,4,34,0,4,22,9,2
1537909767573017,2,-1,-18,0,-3,-1,1,-2
1537909767593962,1,-1,-13,-3,-3,-10,-2,4
1537909767593962,-1,2,6,0,2,0,-1,-1
1537909767594959,1,3,18,7,0,6,3,-1
1537909767594959,-1,-4,-32,-5,-1,1,1,-2
1537909767616900,-1,-7,-20,-5,-3,-3,-1,0
1537909767616900,0,7,39,14,2,-10,-3,-3
1537909767617897,0,-1,-3,-4,-4,6,0,-1
1537909767617897,-2,-4,15,5,2,5,3,0
1537909767631859,2,0,-14,-8,-2,-13,-1,-1
1537909767631859,0,-2,-13,-6,-4,-9,-6,-2
1537909767633854,-4,-5,-2,2,4,11,3,1
1537909767633854,-2,-2,9,2,-2,-4,0,-1
1537909767653801,-2,1,10,7,7,-2,-2,-1
1537909767653801,1,0,-12,-4,-5,-11,-3,-2
1537909767655796,-2,-4,-14,-4,-3,19,1,0
1537909767655796,1,4,12,3,0,-9,-2,-1
1537909767675743,-1,0,12,1,-2,-14,-4,0
1537909767675743,-3,-6,-20,-1,5,2,1,-1
1537909767682724,1,-1,-2,-4,-4,-13,0,-2
1537909767682724,-1,-6,-7,-5,1,19,2,1
1537909767690702,3,6,7,2,-3,-3,0,-1
1537909767690702,0,1,3,1,2,-2,-2,1
1537909767697683,-3,-4,-1,1,0,8,3,-1
1537909767697683,-2,0,-7,0,1,0,0,0
1537909767713641,3,0,0,-2,-4,-4,-1,0
1537909767713641,-2,1,4,-3,0,-1,-3,-2
1537909767715636,3,5,2,0,-1,2,0,1
1537909767715636,-4,-6,2,2,0,-8,-1,-3
1537909767736580,0,-1,3,3,4,5,0,1
1537909767736580,-1,-2,-7,-6,-7,-7,-2,-3
1537909767737577,-2,-2,18,-1,2,2,-3,-2
1537909767737577,2,1,-16,-4,-2,-9,-3,0
1537909767750542,-2,-4,1,6,1,3,-1,-1
1537909767750542,0,-3,4,-2,-1,7,3,1
1537909767758521,0,3,0,0,0,-13,-4,-2
1537909767758521,-2,-8,-25,-5,-4,1,1,-3
1537909767773481,-2,1,3,-6,-4,-3,-2,-1
1537909767773481,-1,0,-15,1,0,3,-2,-1
1537909767775476,2,1,10,0,-1,2,1,2
1537909767775476,1,8,21,7,4,-1,1,0
1537909767796420,-2,-2,-12,0,-2,-3,-1,-1
1537909767796420,-1,-1,10,0,-1,-5,-4,-2
1537909767797417,1,-1,-8,-2,-1,5,3,-2
1537909767797417,-3,-2,-5,-6,-5,-14,-6,-3
1537909767810382,-3,-2,21,6,1,4,0,-3
1537909767810382,-2,-5,-16,-4,-1,-6,-2,-2
1537909767819358,1,5,-5,0,-1,0,-1,0
1537909767819358,-1,-3,4,3,2,10,2,-1
1537909767834318,-1,-1,4,0,-4,-8,-3,0
1537909767834318,0,2,3,4,0,4,-1,-1
1537909767835316,-4,-6,-16,-10,-8,-11,-3,-1
1537909767835316,-2,1,5,-2,1,6,1,-1
1537909767856260,-1,0,12,-4,-1,-9,-3,-2
1537909767856260,-2,1,-9,4,6,2,2,-1
1537909767858255,1,-2,-5,-5,-3,3,1,0
1537909767858255,-1,-3,-3,-1,3,8,2,0
1537909767870223,-3,-3,-7,-2,-3,-5,-5,-3
1537909767870223,0,2,6,-2,0,2,-1,1
1537909767879199,-3,-3,-1,1,2,4,1,-3
1537909767879199,2,3,-8,-7,-8,-3,-2,0
1537909767894159,-6,-7,-1,7,3,3,-3,-4
1537909767894159,1,1,7,-8,-7,-9,-3,-1
1537909767895157,-3,-4,-3,1,-3,-9,-4,-1
1537909767895157,0,-4,-12,-6,3,12,3,2
1537909767916102,2,4,8,0,-2,-3,1,1
1537909767916102,0,4,16,2,0,-3,0,0
1537909767923082,-2,-9,-36,-1,2,3,-2,0
1537909767923082,0,-1,2,-1,-2,-2,1,0
1537909767931061,1,2,-16,-3,-3,-9,-2,2
1537909767931061,1,-1,-12,-1,4,4,1,0
1537909767938041,-2,3,36,4,2,15,0,-2
1537909767938041,1,2,-5,-1,-5,-22,-6,-2
1537909767953999,-2,-4,-6,-1,0,14,1,-3
1537909767953999,-6,-4,1,0,-2,-11,-5,-5
1537909767954997,2,4,-3,-6,-2,4,0,-1
1537909767954997,-1,0,5,3,1,-1,1,0
1537909767976938,-1,-2,-4,-6,1,7,1,-1
1537909767976938,-2,0,-1,0,-4,-7,-2,-1
1537909767977936,-1,0,11,2,2,4,2,-1
1537909767977936,-2,-2,-2,-1,-2,-2,-6,-2
1537909767998879,-1,-3,-9,0,2,2,0,-1
1537909767998879,2,3,12,-1,-1,6,4,2
1537909768000873,0,-4,-14,2,3,2,-1,0
1537909768000873,-1,0,10,-1,-2,6,1,-1
1537909768013839,-1,-1,0,0,-1,-9,-2,-2
1537909768013839,1,1,-5,-1,0,9,1,-1
1537909768015833,-2,3,6,0,-2,-12,-4,0
1537909768015833,-2,-3,0,4,4,2,1,0
1537909768035780,0,0,-3,-3,-3,-1,-2,-1
1537909768035780,-4,-6,-12,-2,-1,3,-1,-2
1537909768043759,3,3,9,3,-2,-2,1,1
1537909768043759,-2,-5,-5,-1,-3,-1,1,-2
1537909768049743,-1,0,9,1,2,7,2,0
1537909768049743,1,0,-5,-2,-2,8,1,0
1537909768058720,-2,-5,-1,0,-1,-17,1,1
1537909768058720,-2,-3,-13,-3,-1,3,-3,-2
1537909768073680,1,2,25,-1,0,2,3,0
1537909768073680,-1,-3,-10,1,4,1,0,-2
1537909768075674,0,-1,-9,-2,3,11,4,0
1537909768075674,1,0,3,-2,-5,-15,-6,-1
1537909768096618,-2,-3,-8,1,-1,-2,-3,-3
1537909768096618,3,2,8,-5,-5,-9,-3,0
1537909768097616,-2,-1,2,0,-3,-4,-6,-2
1537909768097616,-1,1,-12,-2,1,-1,2,1
1537909768109584,0,0,-2,2,2,9,1,-1
1537909768109584,-2,-4,-1,-2,-4,-8,-1,-2
1537909768118560,0,-1,-1,2,4,13,3,1
1537909768118560,-1,2,11,0,0,1,-1,0
1537909768133520,-3,-3,-7,-1,-2,-2,5,1
1537909768133520,1,2,-1,-1,-4,-7,-9,-5
1537909768135515,-1,-1,0,-3,-3,-6,-2,-1
1537909768135515,-2,1,4,3,0,-6,-3,-2
1537909768156458,-1,0,-4,0,3,6,3,0
1537909768156458,0,-3,0,-1,1,1,5,2
1537909768157457,-4,-3,-2,-2,-3,-11,-7,-3
1537909768157457,0,-4,-3,2,3,16,3,-1
1537909768170423,2,3,-3,-1,-3,-3,-2,1
1537909768170423,-1,4,12,-6,-6,-14,-6,-2
1537909768179397,-2,-2,-6,3,1,-4,-4,-3
1537909768179397,2,1,2,-1,-1,-5,1,2
1537909768194356,3,2,0,1,-1,-8,1,2
1537909768194356,-1,-2,-13,4,3,16,1,0
1537909768195354,1,-1,-1,-3,-1,-1,0,1
1537909768195354,-1,0,2,0,0,1,1,-3
1537909768224276,-1,-1,5,-2,-4,-21,-8,0
1537909768224276,-2,-1,1,-1,1,-2,-2,-1
1537909768225274,2,3,2,2,1,6,2,0
1537909768225274,-2,-5,-14,-3,-1,12,3,0
1537909768230260,-1,0,4,-6,-6,-18,-7,-1
1537909768230260,-1,1,-13,1,-1,1,2,1
1537909768239237,-2,-4,1,0,0,-7,-4,-3
1537909768239237,2,1,12,-2,0,16,5,0
1537909768254197,-3,1,-8,0,-2,-12,-4,-3
1537909768254197,0,-1,6,0,-1,-5,-1,0
1537909768255194,0,1,1,-2,-6,-7,0,0
1537909768255194,-1,-1,-2,3,8,17,3,1
1537909768276138,-2,0,-4,-5,-5,-18,-7,-3
1537909768276138,-3,0,8,4,4,8,0,-4
1537909768278133,1,4,-4,-4,-3,35,9,2
1537909768278133,-1,-1,-13,-1,-3,-23,-2,0
1537909768290100,0,-5,-9,-2,0,-19,-4,2
1537909768290100,0,7,14,2,2,-1,-1,1
1537909768299078,-1,1,-7,1,1,10,0,-2
1537909768299078,-4,1,25,-2,-6,-20,-8,-3
1537909768314037,-3,-2,-11,2,3,19,7,-3
1537909768314037,2,-5,-6,-5,-7,-15,-7,6
1537909768315034,-1,-3,4,1,2,-7,-1,-3
1537909768315034,0,0,-1,-2,-3,-11,-6,2
1537909768335978,-1,-3,0,3,7,33,11,1
1537909768335978,0,-1,-4,-7,-7,-34,-6,1
1537909768342959,-2,-3,-3,0,1,27,-3,-6
1537909768342959,-3,5,-4,-4,-8,-41,-5,-3
1537909768349940,6,-1,10,1,-6,-1,-4,5
1537909768349940,0,-7,-19,1,5,14,5,2
1537909768358917,4,-1,3,-1,0,-9,-1,4
1537909768358917,-2,0,-1,1,-1,20,0,0
1537909768373876,-4,-1,-4,1,3,2,-1,-4
1537909768373876,0,4,-11,-3,-1,4,2,-2
1537909768375871,-1,-3,14,-3,-7,-13,-5,2
1537909768375871,-4,-16,-2,2,1,16,4,-2
1537909768396815,3,21,4,-3,-5,-6,-2,2
1537909768396815,-6,-9,1,4,2,6,1,-7
1537909768397813,3,-8,-2,-2,0,-6,-3,1
1537909768397813,0,-4,-4,0,2,6,-1,0
1537909768409781,-4,-7,-5,-4,0,9,-1,-1
1537909768409781,-1,4,3,-1,3,41,6,-1
1537909768418756,-3,2,-4,0,-2,-35,-6,-4
1537909768418756,-1,-2,0,-4,-8,-48,-16,-7
1537909768433717,-1,-1,-2,-1,0,-1,-3,-2
1537909768433717,0,1,0,-1,0,3,-2,-1
1537909768435711,-2,-6,-10,-1,3,14,4,-2
1537909768435711,0,-1,-6,-3,-2,1,3,1
1537909768456655,-4,-1,-1,-1,1,-2,-5,-6
1537909768456655,2,-2,13,-2,-7,-18,1,3
1537909768457652,-1,-3,-26,0,6,19,5,5
1537909768457652,-1,6,18,1,-2,-8,-4,-4
1537909768478596,-1,-2,-3,-3,-1,11,-3,-3
1537909768478596,0,2,18,-4,-4,-24,-2,-4
1537909768480591,-2,-7,-16,-5,-5,-14,-5,0
1537909768480591,-6,-5,-29,0,6,25,4,-1
1537909768493557,-2,-2,21,5,2,6,3,5
1537909768493557,9,3,-4,3,4,12,8,11
1537909768495552,0,8,10,-4,-4,-11,-5,-3
1537909768495552,-1,-2,0,1,1,3,0,3
1537909768516495,0,-4,-8,1,0,4,4,-4
1537909768516495,-3,4,-3,-5,-7,-11,-5,-5
1537909768517493,-1,-4,1,2,-2,2,-1,1
1537909768517493,-1,-2,5,-3,-4,-6,0,-5
1537909768539434,-1,-6,-5,4,4,4,-1,0
1537909768539434,1,0,-16,-3,3,23,8,2
1537909768540433,-2,2,6,-2,-10,-28,-6,-5
1537909768540433,2,6,2,-2,-1,-24,-7,2
1537909768554395,-1,0,8,1,1,12,4,-2
1537909768554395,-3,-6,5,0,3,-5,-6,1
1537909768555392,-1,6,-4,2,3,14,6,-3
1537909768555392,2,-3,2,-1,-2,19,6,4
1537909768576337,-2,1,-4,-1,0,-13,-2,-4
1537909768576337,-3,-3,1,3,1,-1,-1,-5
1537909768578331,-4,-4,1,0,3,14,6,1
1537909768578331,7,6,33,4,-1,-8,-3,3
1537909768599274,2,-1,-25,-5,-3,5,-2,0
1537909768599274,-2,-3,-5,2,1,-2,-1,-3
1537909768600271,-4,0,5,-1,0,-6,-8,-2
1537909768600271,-2,0,-6,-5,-4,10,4,-4
1537909768613237,1,-6,-1,-2,-4,-24,-1,4
1537909768613237,-1,-1,1,0,0,-2,-3,-2
1537909768620218,3,7,33,4,4,9,5,1
1537909768620218,-3,-4,-20,-1,-1,3,-7,-4
1537909768636175,-3,1,10,2,1,9,3,-17
1537909768636175,1,-6,-26,-8,-8,-14,-6,3
1537909768638170,1,3,3,0,0,-1,-3,2
1537909768638170,-2,-12,3,2,3,-4,1,0
1537909768659115,0,7,-5,-3,-5,-6,-5,0
1537909768659115,-3,-10,-3,-2,-3,-9,1,-4
1537909768660112,-1,-4,-6,-2,1,11,1,-2
1537909768660112,-1,1,-1,2,3,4,1,-4
1537909768673077,0,-1,21,-2,-2,0,0,4
1537909768673077,-5,-3,-15,3,6,22,6,0
1537909768680059,-3,4,-4,0,-2,-6,-9,-4
1537909768680059,4,-2,-10,-2,-2,22,8,8
1537909768696015,-1,-1,2,-4,-2,-37,-11,0
1537909768696015,0,3,19,3,5,19,4,1
1537909768698010,-2,-7,-11,-9,-5,-21,-2,-6
1537909768698010,-2,2,0,2,1,-3,-3,-1
1537909768718954,1,-2,-2,-1,0,11,3,2
1537909768718954,-1,1,16,2,1,4,-1,-2
1537909768719951,0,-3,-29,-7,-4,-4,0,2
1537909768719951,1,2,6,2,0,-3,2,1
1537909768732916,0,-2,-5,-3,-2,9,-2,1
1537909768732916,-1,0,-1,0,-3,-25,-4,-2
1537909768739898,1,-3,4,2,-1,5,7,3
1537909768739898,-1,5,17,-5,-2,19,-3,-1
1537909768756852,-1,-5,-18,4,1,-3,0,0
1537909768756852,-4,-1,-8,-2,-2,-12,-8,-4
1537909768757850,2,6,21,4,3,7,5,2
1537909768757850,0,-3,-11,-5,-3,-13,-4,-1
1537909768778794,-1,2,0,-3,-1,12,-1,-2
1537909768778794,1,0,4,-2,-3,-13,-3,2
1537909768780788,-1,0,-4,3,6,20,5,1
1537909768780788,-6,-8,8,-6,-3,-23,-8,-5
1537909768801732,-2,-6,-30,-1,-4,-17,-5,-2
1537909768801732,3,6,10,1,-1,-2,0,0
1537909768803727,2,3,-4,-1,0,4,-2,-1
1537909768803727,0,2,0,3,4,10,6,0
1537909768815695,-3,-6,2,0,1,-3,0,-1
1537909768815695,1,-2,-10,-7,-6,1,-2,-1
1537909768816693,-3,-6,-10,0,-1,-1,1,-1
1537909768816693,-1,5,8,-1,-4,4,-8,-2
1537909768838634,-1,-3,-9,-5,-3,-12,-1,0
1537909768838634,-1,1,9,0,3,8,-2,-1
1537909768838634,-2,-3,4,-1,-4,-16,-4,-2
1537909768838634,1,-1,-14,-2,-2,1,2,-1
1537909768852596,1,2,4,-1,-1,3,-2,0
1537909768852596,-4,0,14,1,-2,-10,-2,-2
1537909768860575,1,-4,6,-1,-2,0,1,0
1537909768860575,-3,-4,-23,-1,2,3,2,-2
1537909768875536,-2,3,23,5,2,4,2,0
1537909768875536,-1,-1,-3,-3,-2,4,3,-1
1537909768876533,0,0,-3,-1,0,-7,-3,1
1537909768876533,-2,-3,4,-3,-6,-4,-1,-3
1537909768898475,-1,-1,-2,-4,1,-18,-2,-1
1537909768898475,0,2,-23,6,3,13,1,-1
1537909768899473,0,0,5,-3,2,22,4,1
1537909768899473,-1,-1,-2,-7,-15,-63,-18,-6
1537909768912438,1,-1,2,0,2,17,4,1
1537909768912438,-5,-4,-3,-3,0,-6,1,-5
1537909768920416,1,1,0,-1,-2,-6,-1,2
1537909768920416,2,0,-3,0,5,22,6,2
1537909768935377,-1,-3,2,-3,-4,3,2,-1
1537909768935377,0,-2,-3,1,2,-5,-2,1
1537909768936375,-4,-1,-1,-4,-7,-7,-4,-5
1537909768936375,0,-1,0,-2,0,3,3,1
1537909768958315,1,1,0,1,-2,-1,-1,0
1537909768958315,-2,-1,0,-1,-1,5,-1,1
1537909768959314,0,-2,-2,0,0,-9,-3,1
1537909768959314,-3,-1,-2,0,2,12,2,0
1537909768972278,0,-1,9,0,2,5,3,1
1537909768972278,0,-4,-22,-2,-6,-18,-6,-1
1537909768981254,-2,0,10,2,4,4,-2,-3
1537909768981254,-1,0,-6,2,2,7,2,0
1537909768996214,3,0,-4,1,0,16,6,1
1537909768996214,-1,-5,3,-2,-5,-29,-8,-2
1537909768996214,0,1,5,-1,0,-1,-3,1
1537909768996214,-3,-3,-3,2,3,-6,-3,-2
1537909769018154,-3,-3,-3,-2,0,15,2,-3
1537909769018154,3,3,5,0,2,6,3,1
1537909769019152,-2,-2,-14,-7,-7,-8,-3,-1
1537909769019152,-2,0,6,3,1,5,0,-2
1537909769041093,-1,-2,-4,0,-2,-10,-4,0
1537909769041093,-3,-1,-2,-5,-4,-3,-2,-2
1537909769042090,0,-3,0,-1,-1,-5,0,0
1537909769042090,0,0,-1,-1,1,9,2,2
1537909769056053,-1,-1,-4,0,-3,-13,-4,-3
1537909769056053,-1,0,8,1,2,14,-1,0
1537909769056053,-2,-2,-3,-5,-3,-6,0,-2
1537909769056053,0,0,-5,0,-1,14,1,0
1537909769077994,-2,-3,5,0,2,-2,1,-3
1537909769077994,-3,-1,6,-3,-7,-44,-17,-8
1537909769078992,2,0,-19,-1,-5,-18,-4,-2
1537909769078992,0,-1,1,1,5,11,3,0
1537909769092956,-1,-1,3,0,3,2,-2,-1
1537909769092956,-1,-2,2,-1,1,14,6,1
1537909769100933,0,2,9,-1,-1,-1,-3,1
1537909769100933,-1,-2,-4,0,1,-5,1,-2
1537909769115894,2,1,1,-3,-5,-5,-3,1
1537909769115894,2,1,0,-3,-3,9,4,2
1537909769116892,-3,-4,-2,2,1,1,1,-2
1537909769116892,1,-2,0,-1,0,3,2,1
1537909769137835,-1,-1,-2,-1,0,7,0,-1
1537909769137835,-2,-2,-4,1,0,-5,-4,-2
1537909769138832,0,0,0,-1,-2,6,1,1
1537909769138832,1,2,6,0,-2,-8,-5,-1
1537909769152794,-2,-1,-4,-5,-7,-10,-1,-1
1537909769152794,0,-2,-2,0,2,8,2,-1
1537909769160772,0,-1,-10,-1,0,14,0,-3
1537909769160772,1,3,18,2,-4,-1,2,0
1537909769175734,-1,3,-4,-1,0,-27,-10,-2
1537909769175734,0,-3,-7,-3,1,14,5,0
1537909769176730,-1,-1,0,4,4,3,-2,-1
1537909769176730,1,0,4,-4,-6,12,0,1
1537909769198672,-1,1,-10,3,1,3,2,-1
1537909769198672,-1,-2,1,-4,-4,-4,-3,1
1537909769198672,-1,-3,-4,4,5,15,3,-1
1537909769198672,-4,-1,-4,-4,-5,-14,-8,-8
1537909769221610,2,2,7,-5,-7,-18,1,6
1537909769221610,-2,-1,-6,0,2,15,3,-2
1537909769222607,0,0,4,0,2,-3,-2,1
1537909769222607,0,2,2,-2,0,1,-4,0
1537909769235572,-4,-2,-2,-1,0,-3,-3,-6
1537909769235572,2,1,-2,-2,-3,4,4,1
1537909769236570,-1,-4,5,-1,-1,-10,-1,1
1537909769236570,-1,6,-4,-1,2,-4,2,-1
