timestamp,emg1,emg2,emg3,emg4,emg5,emg6,emg7,emg8
1537907992142552,2,6,3,-19,-11,-3,-1,0
1537907992142552,-2,0,-11,3,0,1,0,-2
1537907992143550,0,0,12,-12,0,0,1,-1
1537907992143550,1,-2,-20,4,2,-1,0,0
1537907992143550,-3,-3,1,4,1,-2,-2,-2
1537907992143550,1,-4,2,-1,0,0,-2,0
1537907992144547,0,-1,5,2,0,-1,-1,1
1537907992144547,-2,-7,5,-2,0,0,-1,-2
1537907992155518,-2,11,-9,0,-3,-1,0,-2
1537907992155518,-1,16,9,1,0,0,0,0
1537907992164494,-4,-18,39,6,-2,-3,-2,-3
1537907992164494,4,26,-52,-13,-4,-2,2,4
1537907992171476,-4,-8,-25,2,4,1,-5,-9
1537907992171476,-5,-2,-7,0,-8,-6,-4,-32
1537907992185438,3,-5,12,2,-1,0,1,31
1537907992185438,-1,-1,25,-1,0,0,1,1
1537907992197406,0,6,29,15,2,1,1,2
1537907992197406,-2,-6,-43,-16,-2,-3,0,-4
1537907992209375,-1,6,-2,-6,-4,-1,-2,-13
1537907992209375,-2,-15,-6,7,-1,0,0,-2
1537907992217354,-1,5,11,-3,3,-1,0,5
1537907992217354,-5,-27,22,-12,-3,0,-2,4
1537907992230318,-2,26,-35,-2,-1,-1,-1,-4
1537907992230318,3,0,13,-2,1,1,-1,6
1537907992271210,-1,-2,-28,-2,-2,0,0,0
1537907992271210,3,5,23,4,1,1,1,1
1537907992272207,-3,-16,9,-1,-2,-3,-1,-2
1537907992272207,0,18,7,-1,3,-1,1,-1
1537907992272207,0,-13,3,-11,-5,-3,0,3
1537907992272207,-2,5,18,5,0,-1,-1,-2
1537907992283177,-2,-4,-34,4,1,0,-1,-1
1537907992283177,2,-4,15,-5,-4,-1,-1,0
1537907992284174,-1,-5,16,4,3,0,-2,-1
1537907992284174,1,1,-23,-9,0,2,0,0
1537907992292152,-2,-19,-8,-4,-2,-3,-1,-1
1537907992292152,-2,-1,-6,9,0,-1,-1,-1
1537907992298136,-2,4,1,-4,1,-1,1,-1
1537907992298136,0,2,7,10,-2,-1,0,-1
1537907992314094,-4,-22,7,-13,3,2,0,-1
1537907992314094,-5,-8,-15,9,-5,-2,0,-1
1537907992320077,0,1,-15,-11,-4,-3,-1,-3
1537907992320077,-10,-24,11,0,0,-1,-1,-2
1537907992343016,5,29,20,20,4,2,0,0
1537907992343016,-5,-12,-2,-27,-4,-4,0,-2
1537907992344014,1,-2,-4,7,2,2,-1,-2
1537907992344014,2,-10,-34,-11,-3,0,-2,0
1537907992357976,-1,22,11,-4,-3,-1,0,-2
1537907992357976,2,-10,8,4,4,-1,0,0
1537907992358974,1,0,4,7,-2,-1,0,-2
1537907992358974,-1,2,-1,-7,-2,-2,0,-1
1537907992380917,0,-8,-32,4,0,1,0,0
1537907992380917,3,13,8,2,0,-1,0,1
1537907992381914,-2,-11,-18,3,0,-1,-1,-2
1537907992381914,-2,-10,33,-1,1,-1,-1,-1
1537907992403855,0,2,-7,3,1,-1,0,-1
1537907992403855,-3,-3,-9,-11,-3,1,-1,-2
1537907992403855,1,5,12,3,-4,-2,-2,-1
1537907992403855,-2,-1,-20,-9,-3,-1,0,-1
1537907992418815,0,10,8,-4,-1,-2,-2,-1
1537907992418815,0,-8,5,6,6,2,-1,0
1537907992418815,-1,18,9,-3,-1,-2,0,-1
1537907992418815,1,4,-12,13,0,-1,-2,0
1537907992440756,0,3,-6,-23,-3,-1,0,-1
1537907992440756,-2,-11,-8,-1,-2,0,-2,-1
1537907992441755,-2,7,19,3,-1,-1,-3,-2
1537907992441755,0,16,3,-3,0,-1,-1,1
1537907992463695,0,-1,3,4,-1,-1,-1,2
1537907992463695,2,20,-28,-2,-2,-2,-1,-2
1537907992464692,-4,-56,27,1,2,1,1,1
1537907992464692,3,41,-12,2,2,-1,-1,-2
1537907992478658,-1,-3,17,5,-1,1,-2,-2
1537907992478658,0,2,-3,-8,-3,-1,-1,-2
1537907992479653,-1,-1,-21,6,2,-1,-1,-1
1537907992479653,-2,-7,16,-7,-4,-2,0,0
1537907992500595,-1,-3,-1,-9,-1,-2,0,2
1537907992500595,-1,4,12,14,2,-1,-1,-1
1537907992501592,-1,10,-12,7,2,0,1,0
1537907992501592,0,-6,-2,-21,-7,-3,-3,-3
1537907992523533,-1,4,13,0,-1,-2,-1,-2
1537907992523533,-1,-15,-25,0,2,0,-1,0
1537907992524531,0,15,13,-9,0,2,0,0
1537907992524531,-2,-20,-6,1,2,1,1,1
1537907992538494,-3,-16,-7,1,-2,-1,-1,-1
1537907992538494,0,9,3,8,-1,0,0,0
1537907992539491,1,10,-5,-7,4,0,0,1
1537907992539491,-1,-8,-2,2,-14,-5,-2,-1
1537907992561433,1,-1,-10,6,2,1,0,-2
1537907992561433,-1,4,-10,-13,-2,0,1,1
1537907992561433,-3,-9,-4,-5,-2,-2,-1,-2
1537907992561433,1,2,2,-3,4,1,-1,1
1537907992583375,-2,1,4,5,0,-1,-3,-3
1537907992583375,-4,-20,-18,-1,-1,-3,-1,-2
1537907992584373,0,3,17,-1,-2,-1,-1,-1
1537907992584373,1,7,13,7,3,-1,-1,1
1537907992598334,-1,-4,20,0,-3,-2,-1,0
1537907992598334,1,-2,-18,-2,1,0,-2,-2
1537907992599332,-3,-7,-16,-4,-4,-1,-1,-1
1537907992599332,-1,4,-8,5,1,-1,-1,-1
1537907992621272,-1,7,16,-2,1,0,0,0
1537907992621272,2,5,12,-5,-1,-1,0,0
1537907992621272,-5,-15,-7,13,2,0,-1,-2
1537907992621272,2,-5,-9,-4,0,0,-2,-1
1537907992643213,-4,6,-4,-6,-3,-1,-1,-2
1537907992643213,1,4,11,7,0,-3,-1,0
1537907992644211,-1,-14,-9,-2,-4,0,0,-1
1537907992644211,-1,2,-12,-5,2,0,-1,-1
1537907992658173,0,3,31,2,0,0,-2,-3
1537907992658173,-2,-16,-19,6,1,-3,-2,-1
1537907992665155,2,13,-8,1,-1,1,0,1
1537907992665155,-2,-3,1,15,1,-2,0,-1
1537907992681112,1,8,-18,-20,-4,0,0,1
1537907992681112,-3,-7,9,-2,0,0,0,-1
1537907992682110,2,18,31,-9,-4,-3,-2,-2
1537907992682110,-2,-5,-14,2,1,1,-1,0
1537907992703054,-2,-10,9,9,0,-2,-2,-1
1537907992703054,3,37,2,1,2,0,-1,1
1537907992704051,-2,-33,-21,-8,-1,-2,-1,-2
1537907992704051,1,18,18,0,2,1,1,1
1537907992718013,-1,-3,4,7,0,-1,-1,-1
1537907992718013,-2,-2,-8,-3,-1,-1,-1,-3
1537907992732973,1,8,0,-1,-2,-1,-1,1
1537907992732973,-1,-3,9,-1,-2,0,-2,-1
1537907992748931,0,-4,-15,-7,-1,-1,1,1
1537907992748931,-3,-5,16,3,-1,-1,-1,0
1537907992749928,0,17,2,5,0,0,-1,-1
1537907992749928,-3,-38,-15,-6,-3,-1,-2,-3
1537907992763891,1,-5,-22,-4,0,1,0,1
1537907992763891,0,0,15,-1,-1,0,-2,0
1537907992763891,-2,6,0,5,1,-1,-1,-2
1537907992763891,-4,-4,-14,-2,-1,-4,-2,0
1537907992777854,1,-3,-15,2,-1,-1,-1,-1
1537907992777854,-2,-2,14,-4,-3,0,0,0
1537907992784835,-1,0,-3,-3,-3,-1,0,0
1537907992784835,4,19,7,6,2,0,1,-2
1537907992800793,-4,-5,-6,17,6,-1,0,-2
1537907992800793,2,5,-33,-47,-15,-4,-2,-1
1537907992801791,1,9,10,3,1,-2,-1,2
1537907992801791,0,16,11,-2,1,1,-2,-1
1537907992823732,-4,4,-3,-16,-12,-4,-2,0
1537907992823732,-1,-9,1,4,3,2,-1,0
1537907992823732,0,-2,-12,7,-4,0,-2,-2
1537907992823732,-2,-9,-5,0,1,0,-1,0
1537907992837695,3,17,43,10,3,1,-1,-1
1537907992837695,-4,-31,-34,-6,-2,0,-1,-2
1537907992845674,0,7,0,-9,0,-1,0,-1
1537907992845674,-3,-17,-6,5,0,-3,1,-1
1537907992860633,1,2,7,-8,-2,0,0,1
1537907992860633,0,5,12,8,1,-1,-1,-3
1537907992861632,-2,3,4,1,1,0,-2,0
1537907992861632,-3,-4,-12,-7,-4,-1,-2,-1
1537907992883573,-1,-4,-13,-4,0,-1,-1,1
1537907992883573,-1,-6,32,7,-1,0,1,0
1537907992884571,1,-1,-19,-1,1,-1,0,-1
1537907992884571,0,3,-4,-5,-3,-1,-1,-2
1537907992897534,-1,-7,21,1,-1,-3,-1,-1
1537907992897534,-4,-11,-20,7,3,0,-1,-1
1537907992905512,2,20,27,1,-1,0,0,0
1537907992905512,1,-11,-31,-8,-2,1,0,1
1537907992920473,-2,-5,-16,11,2,0,1,-1
1537907992920473,3,27,14,-8,2,0,-1,-1
1537907992921470,0,2,3,-3,-4,-3,-2,-2
1537907992921470,-3,-12,21,1,1,0,0,-3
1537907992943411,-1,-5,-27,-12,-4,2,-1,-1
1537907992943411,-2,7,6,7,1,-1,0,-1
1537907992944408,4,7,4,2,-1,0,-1,-1
1537907992944408,-1,-1,10,-4,-5,-2,0,0
1537907992957373,0,2,-14,0,0,-2,-2,-1
1537907992957373,-6,-19,9,4,-2,-1,-2,-1
1537907992965352,3,-13,-12,-6,-2,0,-2,8
1537907992965352,1,9,17,4,0,0,-1,-1
1537907992981310,3,4,-22,-7,0,0,0,6
1537907992981310,0,10,4,2,-1,-2,0,-4
1537907992981310,-6,-20,-15,-1,1,-2,-3,-13
1537907992981310,2,20,30,12,0,-2,0,3
1537907993003251,-4,-5,-23,-14,-4,-2,-3,-11
1537907993003251,4,4,-8,-4,0,0,0,1
1537907993004249,-6,-9,5,1,1,2,-1,0
1537907993004249,0,2,-9,3,-4,-1,-3,-1
1537907993026190,-1,-2,10,-10,3,0,0,-1
1537907993026190,-2,-7,3,-5,-8,-1,-1,1
1537907993026190,0,3,-22,-8,-1,-1,0,5
1537907993026190,-2,1,-29,-5,0,0,-1,-5
1537907993041150,-1,1,17,23,2,0,-1,1
1537907993041150,1,-8,12,-1,0,0,-2,2
1537907993041150,-1,-4,10,6,1,-1,0,-2
1537907993041150,-1,-8,-31,-8,0,-1,0,-1
1537907993063091,-1,5,1,-3,-2,-1,0,0
1537907993063091,2,6,4,5,0,0,2,0
1537907993064088,-1,-7,-1,-2,-2,-2,-2,-1
1537907993064088,0,-2,2,-3,-3,-1,0,0
1537907993086030,0,-17,-23,-3,-3,0,-1,0
1537907993086030,-2,5,9,2,-3,-1,-1,-2
1537907993087027,-2,-10,16,-3,-1,0,1,-2
1537907993087027,-1,3,2,8,2,-1,-2,0
1537907993100990,-3,-2,7,-5,0,-1,1,-4
1537907993100990,-1,-7,-11,-3,-2,-1,-3,0
1537907993107971,-2,5,-14,1,-1,-2,2,-1
1537907993107971,-1,-3,-1,4,4,1,1,0
1537907993122931,1,3,-5,-19,-8,-1,1,1
1537907993122931,-4,18,0,-4,1,-1,-2,-32
1537907993123928,3,8,19,-1,-1,1,0,13
1537907993123928,-1,-11,8,-7,-2,0,-1,-1
1537907993145870,3,13,-15,15,4,0,-1,4
1537907993145870,1,11,1,1,2,0,0,-1
1537907993146867,-4,-5,-6,-3,-5,-1,-3,-12
1537907993146867,-2,7,7,-2,-1,-1,1,-1
1537907993160829,1,-8,5,0,-2,-2,-2,-4
1537907993160829,-3,-11,0,5,2,2,-2,6
1537907993161827,1,6,-7,-2,1,-1,0,-1
1537907993161827,-1,12,3,0,-2,0,0,4
1537907993183769,-4,-15,0,-8,-3,-2,-2,-3
1537907993183769,4,7,-11,-2,3,-1,0,7
1537907993183769,-6,-14,7,3,-1,0,-1,2
1537907993183769,0,0,-1,-2,0,2,-2,-5
1537907993206708,0,-7,-8,-3,-3,-2,1,-2
1537907993206708,-3,-10,17,-1,-1,-1,-1,3
1537907993207706,1,3,-7,1,2,0,-1,-4
1537907993207706,1,-9,-6,0,-3,-2,-2,-2
1537907993220671,1,10,11,-13,1,1,0,0
1537907993220671,-2,1,-11,-4,-1,-1,-2,3
1537907993221668,1,3,1,-3,0,-1,0,-2
1537907993221668,-3,-8,1,6,1,0,-1,2
1537907993242612,1,2,-3,6,-1,-2,-2,0
1537907993242612,1,5,5,-4,-2,-2,0,-1
1537907993250591,-2,-15,-19,6,0,0,-1,-2
1537907993250591,-3,-19,13,-3,-3,-2,0,-3
1537907993266548,0,7,4,0,-2,0,-1,1
1537907993266548,0,-5,-4,3,-1,-1,-2,1
1537907993267546,-5,6,-9,-4,-2,-1,-2,-23
1537907993267546,1,2,-7,-6,-1,-2,-1,9
1537907993289487,-2,3,39,7,0,-2,-1,-2
1537907993289487,-6,-24,-24,-1,-3,-1,0,5
1537907993289487,1,5,15,2,-1,-1,-1,-5
1537907993289487,2,12,-15,-2,0,1,-1,-6
1537907993302453,0,1,-7,-5,0,0,0,4
1537907993302453,-2,-9,17,7,1,-1,-3,-9
1537907993311428,1,2,-2,-3,0,-1,0,5
1537907993311428,-1,1,12,2,-3,-2,-1,-2
1537907993326387,1,6,5,14,1,0,-1,3
1537907993326387,0,-2,-5,-14,-3,1,1,2
1537907993327385,1,2,-5,-4,-2,0,-4,5
1537907993327385,0,6,1,3,3,0,0,2
1537907993349326,-4,-18,-19,0,0,1,-2,-8
1537907993349326,3,14,3,-3,0,0,1,2
1537907993349326,-1,-12,-6,2,-6,-2,0,2
1537907993349326,-2,7,-7,-5,1,-1,-1,-3
1537907993362292,-1,5,-6,1,0,0,-3,-1
1537907993362292,0,-24,17,3,-2,-2,-1,-1
1537907993371267,-2,3,-8,-6,1,-2,-1,3
1537907993371267,-1,-7,8,-1,-6,-1,-2,-3
1537907993386227,-2,-22,-40,0,-1,-1,0,-1
1537907993386227,2,21,11,3,0,-1,0,2
1537907993387225,1,0,-3,-3,0,1,-1,0
1537907993387225,-4,-20,10,1,-1,-1,-1,-2
1537907993409166,1,27,14,3,-1,-2,0,-1
1537907993409166,-1,5,-6,0,-2,0,1,-8
1537907993410164,-1,-8,-4,-3,-4,-2,-1,31
1537907993410164,4,15,10,-6,-2,-1,-2,4
1537907993423129,0,2,3,0,0,-2,-1,1
1537907993423129,0,9,3,4,1,-1,-1,0
1537907993431107,-4,-13,0,1,1,0,1,-10
1537907993431107,1,-4,-13,-2,0,-1,-2,-3
1537907993447065,-3,-6,6,7,0,0,-1,2
1537907993447065,-1,2,-9,-15,-7,-3,-1,-4
1537907993447065,-1,4,1,-5,0,-1,0,-5
1537907993447065,1,-2,-11,0,-1,-1,1,0
1537907993469006,-1,-1,8,4,3,-2,-1,-8
1537907993469006,2,9,-4,-13,-1,0,2,6
1537907993470004,-1,-20,2,9,-2,-2,-2,-5
1537907993470004,1,4,-1,-4,-1,0,-1,0
1537907993482969,0,10,-7,-1,0,1,1,-1
1537907993482969,-3,-12,-6,6,1,-1,-1,1
1537907993490948,2,12,3,-6,-1,0,1,1
1537907993490948,-6,-12,-12,-2,0,-1,-2,-4
1537907993506905,-6,-3,19,-2,-6,-2,-3,-36
1537907993506905,1,-5,-8,7,1,-1,-2,17
1537907993506905,3,18,-7,-6,0,-2,0,-3
1537907993506905,-4,-11,-4,8,4,-1,-1,0
1537907993528846,2,11,9,-10,-4,0,0,0
1537907993528846,-1,-1,0,4,-3,-2,0,-6
1537907993529843,-2,-19,4,3,2,1,0,-4
1537907993529843,-1,12,-5,-12,0,1,0,-2
1537907993551785,1,1,-24,10,-4,-3,-2,9
1537907993551785,-4,1,11,-17,2,0,0,-4
1537907993552782,0,1,10,-8,-4,-1,-1,4
1537907993552782,1,6,-1,-1,-2,-2,-1,-1
1537907993565747,-3,-13,7,-9,1,0,-1,6
1537907993565747,0,-1,-23,13,1,0,-2,0
1537907993573726,0,8,6,1,2,1,0,-7
1537907993573726,0,4,9,-1,-3,0,-1,-4
1537907993588686,1,0,13,3,1,0,-1,4
1537907993588686,-4,-5,-8,4,4,2,-1,-3
1537907993590681,-2,5,2,-5,-1,-2,0,-2
1537907993590681,-2,-10,2,4,-4,-3,-1,-1
1537907993611624,3,-3,-4,2,3,1,0,8
1537907993611624,0,0,8,-10,-5,-1,0,-3
1537907993612622,-1,6,-17,3,-4,-2,-2,-4
1537907993612622,1,8,-6,-4,0,0,0,1
1537907993625587,0,0,-2,13,4,1,2,2
1537907993625587,-1,-6,5,-17,-3,-2,-3,3
1537907993632568,0,-1,-1,2,3,1,0,-2
1537907993632568,0,6,1,7,-1,0,0,4
1537907993649523,-3,-37,-15,-5,-1,-1,0,-6
1537907993649523,1,9,-2,9,2,1,-2,-4
1537907993650521,-2,-12,-2,2,0,0,-2,3
1537907993650521,0,6,6,-2,0,0,-1,-8
1537907993672462,-3,-14,-4,-1,-1,0,-1,2
1537907993672462,0,-2,-9,2,-1,0,-1,3
1537907993673459,-3,-8,-2,-7,0,1,-1,-4
1537907993673459,-3,-8,-12,2,-1,0,-1,-1
1537907993685427,-1,4,17,-7,-4,-1,-2,1
1537907993685427,0,-12,-14,7,1,-3,0,3
1537907993692409,0,12,33,2,-1,-1,-1,0
1537907993692409,0,-18,-10,2,0,-1,-1,0
1537907993709363,3,20,-1,-6,-1,0,2,5
1537907993709363,-4,-13,11,4,-1,0,-3,-11
1537907993710361,3,11,-9,8,2,1,1,1
1537907993710361,-1,-2,-22,-4,-6,-3,0,-1
1537907993731305,-4,0,3,-3,-4,-3,-3,-31
1537907993731305,4,2,-5,3,1,0,-1,14
1537907993733299,-2,-3,-19,4,1,-1,-1,-2
1537907993733299,1,-2,19,-11,1,-1,1,5
1537907993746264,-1,7,-4,-11,0,0,-1,-4
1537907993746264,-1,-3,-1,1,-1,0,0,-6
1537907993753246,3,8,5,4,-1,-1,0,2
1537907993753246,-4,-8,1,-5,-3,0,-1,-6
1537907993769203,0,0,-6,4,1,0,0,9
1537907993769203,-3,3,15,-2,-2,-2,1,-2
1537907993770201,-2,-16,-4,0,-2,0,2,4
1537907993770201,1,10,-5,6,1,-1,0,-4
1537907993791145,0,1,12,-6,-2,1,-2,5
1537907993791145,1,2,-8,0,1,-1,1,2
1537907993793140,-5,-13,-4,-3,-2,0,-3,-10
1537907993793140,0,3,-1,-2,-1,0,-2,-1
1537907993806105,0,9,1,-1,1,-1,-1,-15
1537907993806105,1,-13,0,0,-1,0,-2,21
1537907993813087,2,24,4,2,2,0,2,4
1537907993813087,0,1,-1,-19,-3,-3,-1,-2
1537907993829044,0,-9,0,3,0,0,1,5
1537907993829044,-3,-1,-17,2,-1,-2,-1,-12
1537907993831039,0,0,21,-4,-2,-1,0,0
1537907993831039,-1,-5,5,4,-2,-1,-1,8
1537907993851985,0,-2,-14,7,1,-2,0,3
1537907993851985,0,3,4,-14,-5,-1,1,-5
1537907993852982,1,-2,-10,-3,-4,-3,-2,1
1537907993852982,-4,-4,4,5,4,-1,-1,-5
1537907993865946,2,1,-13,-5,-1,-1,1,5
1537907993865946,-2,3,13,5,4,1,-1,-5
1537907993872927,1,-4,-22,-3,-1,-2,0,-2
1537907993872927,-3,-10,3,1,0,2,2,9
1537907993888884,-2,-16,3,-1,-2,-1,-1,7
1537907993888884,5,56,4,-1,-1,0,-1,-2
1537907993894868,0,-20,9,-9,-1,-2,0,3
1537907993894868,-4,-2,-8,6,1,0,-1,-12
1537907993911822,3,-2,-14,-5,-5,-2,0,8
1537907993911822,0,-5,15,5,-2,-1,1,-2
1537907993912821,-3,2,7,-2,-3,-2,-1,-10
1537907993912821,1,3,-15,6,1,0,-2,-1
1537907993925785,1,13,2,-8,0,-1,0,0
1537907993925785,-1,-11,-5,-2,0,0,-1,-4
1537907993932766,2,14,1,0,-1,0,-2,1
1537907993932766,-3,-17,0,-3,-1,-1,-2,0
1537907993948724,1,5,-1,3,0,0,0,7
1537907993948724,-1,-16,2,-1,1,0,1,-4
1537907993950718,-2,0,4,-4,1,1,-1,1
1537907993950718,0,2,-20,2,1,-1,0,-2
1537907993971663,-3,-4,4,-13,-11,-4,-5,-6
1537907993971663,-1,2,19,2,0,0,1,1
1537907993972660,-1,15,-17,1,0,0,-4,-25
1537907993972660,6,10,20,-4,-2,0,2,34
1537907993985625,-2,7,-7,3,3,2,0,0
1537907993985625,-3,-26,-14,-1,-2,-1,-1,-6
1537907993992606,0,3,0,-1,0,-2,0,3
1537907993992606,-2,14,3,2,0,-2,0,-9
1537907994009561,-3,-4,-10,2,1,0,0,-2
1537907994009561,1,7,9,-1,-1,-1,-2,6
1537907994010558,-1,-4,4,1,-1,-1,-2,0
1537907994010558,0,4,-15,-3,2,-1,-1,-7
1537907994031502,-2,-10,8,-1,-2,-1,-1,3
1537907994031502,-1,4,-12,7,1,-1,-2,-7
1537907994033497,1,-1,1,-6,-4,-2,0,3
1537907994033497,-1,-12,8,-6,-1,-1,-2,-4
1537907994045466,2,18,6,4,2,0,-1,-4
1537907994045466,-3,-22,-18,-2,-1,0,-1,-1
1537907994054442,-3,0,-4,3,0,-2,-1,4
1537907994054442,0,1,6,2,-2,0,-1,-2
1537907994069401,-2,-11,7,-8,1,-2,0,0
1537907994069401,-2,-2,-14,17,2,-2,0,12
1537907994070398,-3,-7,12,-12,0,0,-1,8
1537907994070398,0,10,3,-1,-3,-1,-2,-8
1537907994091342,-3,-26,-2,3,0,0,0,4
1537907994091342,-2,-5,1,-12,-6,-2,-3,-9
1537907994093337,1,2,-18,9,2,0,-1,-1
1537907994093337,-1,5,5,7,2,-1,0,2
1537907994105305,0,4,2,-1,-3,-1,-2,-8
1537907994105305,-1,0,4,-4,-1,-1,0,-1
1537907994114281,-1,-9,-1,-1,-1,1,1,-1
1537907994114281,1,-6,4,-5,-2,0,-1,-2
1537907994129242,-2,14,-22,14,5,0,0,-1
1537907994129242,-1,-2,11,-13,-4,-2,-3,-3
1537907994135226,2,7,10,-8,-1,0,-1,3
1537907994135226,0,0,4,10,-4,-4,-1,-4
1537907994151182,-3,-1,-10,0,-1,-1,-3,0
1537907994151182,-1,-13,-15,-3,0,0,-1,-2
1537907994153177,-2,1,-16,9,0,-2,-2,-5
1537907994153177,1,2,21,-21,-3,1,0,-1
1537907994165145,-1,-16,4,-1,-1,-1,-1,1
1537907994165145,-1,10,22,3,1,-1,-1,-4
1537907994174121,-3,-11,-32,2,-1,-1,-1,0
1537907994174121,-2,-7,-8,-1,2,2,-1,-3
1537907994189081,0,1,5,-8,-3,-2,-1,2
1537907994189081,1,4,4,10,-2,0,-2,4
1537907994190078,0,4,5,-4,-3,-1,-1,-2
1537907994190078,-2,-7,-18,5,0,-2,1,5
1537907994212019,-2,5,8,-5,-1,0,-4,-8
1537907994212019,-1,4,12,-3,-1,-1,0,-2
1537907994213017,3,-1,-26,2,0,-1,2,2
1537907994213017,0,9,3,-7,-2,-1,-2,-8
1537907994224985,0,5,7,4,0,0,1,0
1537907994224985,-2,-6,-14,6,0,-2,-1,0
1537907994233961,-3,-6,13,-7,-3,-1,-2,-3
1537907994233961,-1,-9,-5,-7,-1,0,0,-1
1537907994248921,-2,1,0,9,2,0,1,-1
1537907994248921,3,5,-4,-5,-1,-1,-1,6
1537907994250916,0,-7,-1,4,0,-2,-1,-4
1537907994250916,-4,-3,7,2,-1,0,0,-2
1537907994271860,2,-3,-5,-5,0,-1,-2,1
1537907994271860,-1,2,-5,-1,0,-1,-1,-7
1537907994272858,-2,-7,1,-3,-1,-1,-1,-1
1537907994272858,-2,3,-18,0,1,1,-3,-1
1537907994284826,2,18,23,3,-1,-1,1,-1
1537907994284826,0,-13,-26,-2,-1,-1,1,0
1537907994293802,-2,-6,-13,-1,-1,-1,0,0
1537907994293802,2,13,35,6,0,-2,-2,0
1537907994308763,-4,-25,-5,0,2,-1,-3,-2
1537907994308763,2,6,3,-7,-5,1,-1,-2
1537907994310758,-2,2,3,13,-3,-4,-4,1
1537907994310758,-2,-14,-15,8,1,0,-1,-3
1537907994331701,0,2,-6,-21,-3,-1,-1,0
1537907994331701,-1,3,1,-6,0,0,0,-1
1537907994332698,-2,1,1,-6,0,0,-2,-26
1537907994332698,5,16,3,1,-1,0,3,34
1537907994345663,0,-1,-1,7,1,0,1,3
1537907994345663,-1,4,-9,-3,-4,0,0,-3
1537907994354638,-3,-9,-4,-5,-2,-3,-1,-1
1537907994354638,0,3,28,16,2,1,-2,-11
1537907994368601,1,6,7,1,0,0,0,-1
1537907994368601,-1,2,-20,-5,0,-1,0,3
1537907994370596,1,-10,13,0,0,1,0,4
1537907994370596,-3,-19,-11,-8,-3,-1,-3,-6
1537907994391540,1,12,-12,-5,-1,0,-2,4
1537907994391540,-1,12,24,0,0,-1,-2,-6
1537907994393535,-3,-31,1,2,3,1,0,4
1537907994393535,-4,5,-3,-6,-8,-3,0,-6
1537907994405503,-1,-3,-1,-3,-3,0,-1,-3
1537907994405503,-5,-11,-11,6,1,-3,-1,-3
1537907994414481,1,21,5,1,0,0,1,2
1537907994414481,-3,-7,-4,-6,0,-1,-1,-4
1537907994429440,-4,-14,-13,-1,-3,-1,0,-3
1537907994429440,1,3,7,-1,0,0,1,1
1537907994430438,-3,-1,-6,-3,-2,0,-2,2
1537907994430438,0,-3,-5,3,0,-2,-1,-5
1537907994451380,-2,-1,13,5,1,-1,0,-2
1537907994451380,-1,-4,-9,-4,0,0,0,1
1537907994453375,-1,11,12,0,1,0,-1,-1
1537907994453375,-1,-5,-13,-6,1,0,1,-3
1537907994465343,0,-2,-3,2,-1,0,-1,-2
1537907994465343,2,13,0,10,2,-1,0,2
1537907994474319,-1,1,4,1,-1,-1,1,2
1537907994474319,-1,-10,3,-5,-1,0,0,-1
1537907994489279,0,1,-9,-5,-2,-3,-2,0
1537907994489279,-5,-9,8,0,-2,0,-2,-3
1537907994490276,3,3,-23,-4,0,1,-2,1
1537907994490276,-3,9,18,-3,-3,-2,-3,-3
1537907994511220,1,-10,1,3,0,-1,0,0
1537907994511220,0,0,-3,-2,-1,-2,-3,-2
1537907994513215,-1,1,-21,-5,-1,-1,-1,1
1537907994513215,0,-15,18,-2,2,0,1,-1
1537907994534158,1,25,8,0,-1,-1,0,-1
1537907994534158,-2,-20,4,1,-1,-1,1,-1
1537907994535156,-1,2,-5,-8,-2,-3,0,0
1537907994535156,-1,-1,-5,2,-3,0,0,-2
1537907994549119,0,-3,3,6,-2,0,-1,-2
1537907994549119,1,-1,-8,-9,2,2,2,0
1537907994550116,-1,-2,10,5,-2,-3,-1,-2
1537907994550116,-2,0,-13,-5,-4,0,-3,-1
1537907994571060,-2,-9,-6,1,1,-1,-1,0
1537907994571060,3,16,26,13,2,-1,-2,0
1537907994573054,-2,3,-5,-15,-4,-2,-1,0
1537907994573054,-6,-22,2,6,0,-1,-3,-3
1537907994593999,2,20,-14,-3,0,0,-3,0
1537907994593999,0,-3,-10,-1,0,-2,-1,-1
1537907994595993,-2,-1,15,4,2,-1,0,-1
1537907994595993,2,14,-8,1,1,-2,0,-2
1537907994608958,-4,-22,-4,-4,0,0,0,-3
1537907994608958,2,2,3,-4,-5,-2,0,-1
1537907994610953,-1,-10,-6,3,0,-1,0,0
1537907994610953,4,8,-5,-6,-2,-2,0,2
1537907994631897,0,-1,1,3,0,0,0,-1
1537907994631897,-1,2,-2,-2,-2,0,-1,-2
1537907994632895,-1,-7,3,-2,-2,-1,0,-2
1537907994632895,-1,11,-17,2,1,-1,-1,-1
1537907994653838,1,-7,5,-2,0,0,-2,0
1537907994653838,-5,-15,-9,-14,-3,0,-2,-1
1537907994655833,1,6,3,8,-2,-1,-1,-1
1537907994655833,-2,0,7,5,2,-3,-2,-1
1537907994676777,-1,5,-1,2,-4,-3,0,-1
1537907994676777,-3,-17,-4,4,0,-2,0,-1
1537907994677774,3,14,-4,-8,0,1,1,1
1537907994677774,0,14,12,1,-1,0,0,3
1537907994691737,-3,-23,1,-8,-1,-2,-2,-2
1537907994691737,1,10,-7,9,2,1,0,-1
1537907994692735,-2,-1,6,-24,-6,-3,-2,-1
1537907994692735,-5,-20,-7,5,0,1,1,-1
1537907994713678,2,22,2,-3,-1,-1,-1,-2
1537907994713678,-1,1,-5,6,-1,-1,0,-1
1537907994715673,1,5,18,9,1,-1,-1,-1
1537907994715673,1,-1,-6,-13,-1,-2,1,0
1537907994728639,-4,-1,-24,0,-6,-1,-1,1
1537907994728639,-3,-7,2,0,0,-1,-1,-1
1537907994735620,0,1,15,3,1,0,-1,0
1537907994735620,-1,-5,-2,-5,-2,0,-2,-2
1537907994751577,-1,2,-3,0,2,0,-1,-1
1537907994751577,-2,-8,4,-4,-1,-1,-1,0
1537907994752575,-1,-7,-15,2,-1,0,0,0
1537907994752575,-1,3,6,0,0,1,0,-1
1537907994773519,1,4,6,3,1,0,1,-1
1537907994773519,1,-5,-6,-5,-3,-1,-2,-1
1537907994780500,-1,-9,-7,1,-1,-1,-1,-2
1537907994780500,1,6,-3,-2,-2,-1,-1,0
1537907994788478,-1,1,-16,1,1,0,0,1
1537907994788478,-2,-14,7,-5,-1,-2,-2,-1
1537907994795460,-2,1,-1,15,3,0,-1,-1
1537907994795460,-2,-11,-14,-18,-9,-2,0,-2
1537907994811417,-1,-2,10,-1,-2,-2,-1,-1
1537907994811417,2,13,-6,-6,0,1,1,0
1537907994813412,0,3,5,4,-6,-2,-1,-1
1537907994813412,-4,-6,-4,7,3,1,-2,-3
1537907994834356,-1,10,9,4,1,-2,-1,-1
1537907994834356,3,2,17,-11,-2,-1,-2,1
1537907994835354,-5,-16,-49,-3,1,0,-1,-1
1537907994835354,-2,-6,53,1,0,-1,-1,0
1537907994848319,0,12,-10,0,0,1,0,1
1537907994848319,-2,1,-4,3,0,-2,-1,-1
1537907994855300,0,-7,8,-5,-1,-1,0,1
1537907994855300,1,1,-16,-1,0,-1,-2,-1
1537907994871257,-4,-29,3,-2,1,1,0,-3
1537907994871257,0,8,1,-2,1,-2,-1,-1
1537907994873252,0,14,4,2,-5,-2,0,-2
1537907994873252,2,2,-9,1,-1,-2,-1,0
1537907994894196,-1,-4,8,0,-2,-2,-1,-1
1537907994894196,0,3,-26,-9,1,0,-1,-1
1537907994895194,1,3,20,12,-1,-3,-3,-2
1537907994895194,-1,7,-3,0,0,1,-1,0
1537907994908158,-3,-11,2,-5,-1,-2,-1,-1
1537907994908158,-1,8,-4,12,1,0,1,-1
1537907994915140,1,0,0,-30,-3,-2,1,1
1537907994915140,0,-10,5,5,1,-1,1,-2
1537907994931097,-3,-4,-2,-4,-1,-1,-1,0
1537907994931097,-4,-2,-25,2,-2,-1,0,-2
1537907994933092,2,6,29,9,4,0,-2,-1
1537907994933092,0,-10,-5,-2,-3,-2,-1,-2
1537907994954036,-2,-3,-4,-4,-2,-1,-1,-1
1537907994954036,-3,-1,8,0,0,-1,-1,-3
1537907994955033,-1,2,5,9,1,-1,-1,-1
1537907994955033,2,2,-26,-4,-2,0,-1,1
1537907994967999,3,15,2,5,4,1,-2,-2
1537907994967999,-1,-4,-4,-3,-3,0,0,-1
1537907994974980,0,4,-1,-5,-2,-1,-1,-1
1537907994974980,1,7,-3,3,1,0,0,0
1537907994991935,-1,-7,32,1,-2,-2,-1,-1
1537907994991935,1,9,-19,1,0,1,0,0
1537907994992932,-2,-1,-10,-6,0,1,0,0
1537907994992932,-2,0,-1,5,0,-1,-1,0
1537907995013876,-2,-1,-2,-3,-4,0,-2,-1
1537907995013876,0,-3,15,-2,-2,-1,-1,0
1537907995015871,-2,-3,35,3,2,0,0,1
1537907995015871,-2,-3,-42,-3,-1,-1,0,-1
1537907995027839,2,8,3,-1,0,0,-1,-1
1537907995027839,-3,-1,-17,-2,-2,-2,-2,-3
1537907995036815,1,-10,22,-2,1,0,0,1
1537907995036815,-1,2,-12,-2,0,0,-1,1
1537907995051775,-2,-1,-4,-4,-2,-1,-1,-2
1537907995051775,0,2,33,6,-1,-2,-1,-1
1537907995057759,-1,13,-29,0,0,-2,0,-2
1537907995057759,-3,-8,35,-9,-4,-1,-2,-2
1537907995073716,-1,-5,-23,0,-1,0,0,0
1537907995073716,-3,-5,38,2,-2,-1,-1,-1
1537907995075711,-2,-7,-59,-7,0,0,-2,0
1537907995075711,2,14,15,-1,-2,-1,1,-1
1537907995087679,0,-8,3,0,-1,0,1,0
1537907995087679,0,7,2,1,-1,-2,1,0
1537907995096655,-1,-3,26,20,3,0,1,-1
1537907995096655,1,5,-21,-22,-1,0,-1,0
1537907995111615,-2,-4,-8,1,-2,-4,-1,-2
1537907995111615,3,1,5,-5,2,2,0,2
1537907995112612,-1,7,8,-3,-4,-1,-2,1
1537907995112612,-3,-6,2,11,2,0,0,-1
1537907995133556,-2,-12,-16,3,0,-2,0,0
1537907995133556,-3,-4,13,-6,-2,-1,-3,-2
1537907995135551,-1,0,-17,1,2,1,-1,-1
1537907995135551,1,-6,-6,2,-2,-2,-2,-2
1537907995147519,1,11,17,2,-3,-3,-1,0
1537907995147519,-1,-13,-2,4,0,-1,0,-3
1537907995156495,0,-11,-22,-4,-2,0,0,0
1537907995156495,-2,-2,2,-7,-2,-1,-1,-3
1537907995171455,0,-3,-10,-4,4,2,-1,-1
1537907995171455,-3,-9,-6,-3,0,-1,-3,-2
1537907995173450,-2,4,3,-4,-3,-2,-2,-1
1537907995173450,-2,-6,-11,1,0,-1,0,0
1537907995194393,1,7,20,4,1,0,0,4
1537907995194393,1,11,-16,-4,-3,-1,-2,-1
1537907995195391,-3,-14,-23,-8,-2,0,-1,-2
1537907995195391,1,16,13,14,-1,-1,-1,-1
1537907995207359,-3,-14,-4,-11,-2,0,0,-1
1537907995207359,0,8,-4,2,0,-1,1,0
1537907995216335,-1,6,-4,-1,0,-3,0,-1
1537907995216335,-3,-19,6,6,3,0,-1,-2
1537907995231295,-1,4,-6,-7,-7,-2,-1,-3
1537907995231295,-2,-7,-15,-5,-3,0,0,1
1537907995233290,0,5,16,-3,-2,0,1,-1
1537907995233290,0,-1,2,1,1,-2,-1,1
1537907995254234,0,-3,-2,4,1,0,-1,0
1537907995254234,0,-2,-3,0,-1,1,-1,0
1537907995255231,0,4,4,-1,-1,-1,-2,-3
1537907995255231,-2,-9,16,0,-1,-2,0,-1
1537907995267199,0,-2,-14,-4,0,1,-1,0
1537907995267199,1,5,4,14,4,0,0,2
1537907995276175,-2,-2,35,9,3,-1,-1,-1
1537907995276175,0,-3,-79,8,4,3,0,1
1537907995291135,0,1,-21,-4,-19,-7,-1,-2
1537907995291135,-3,3,41,-35,-10,-4,-4,-2
1537907995293130,7,-6,-35,88,45,12,3,4
1537907995293130,-1,14,27,34,8,-1,-4,-4
1537907995314074,-6,14,29,5,-9,-6,-5,-4
1537907995314074,-2,-6,-8,-89,-28,-4,2,1
1537907995315071,-3,8,-19,-21,-15,-9,-7,-5
1537907995315071,1,2,-60,-67,4,10,8,3
1537907995328036,3,-11,36,80,13,8,8,4
1537907995328036,-6,4,-5,-51,-35,-14,-8,-7
1537907995337012,2,-7,-9,-8,0,2,0,3
1537907995337012,-4,-10,13,12,-19,-7,-3,-2
1537907995350975,3,25,67,-25,18,3,-3,1
1537907995350975,0,-12,-10,62,35,6,2,1
1537907995357957,2,5,34,-47,-2,6,3,1
1537907995357957,-5,1,110,67,38,7,-5,-6
1537907995373914,-11,-47,-87,-49,-59,-36,-17,-11
1537907995373914,3,-5,-108,-16,-9,-3,0,2
1537907995375909,-5,6,91,16,22,9,0,-2
1537907995375909,-1,-9,-95,-24,-23,-7,1,0
1537907995387877,-1,-9,79,27,21,10,5,2
1537907995387877,0,35,-38,-91,-91,-26,-8,-5
1537907995396853,-6,-29,65,20,-25,-11,-1,-4
1537907995396853,12,30,33,121,68,18,6,7
1537907995410815,-2,-7,-118,-125,-11,2,1,-2
1537907995410815,5,-1,81,97,53,6,5,6
1537907995417797,-1,3,-86,-82,-4,5,-1,-2
1537907995417797,-2,-4,-10,50,-103,-41,-12,-5
1537907995433754,2,26,24,48,19,6,-1,-2
1537907995433754,-7,-59,73,120,75,22,3,-2
1537907995435749,8,81,-13,-59,-49,-12,-1,1
1537907995435749,0,4,20,-49,31,14,6,4
1537907995456692,1,-7,-75,-39,-21,-9,2,3
1537907995456692,0,16,16,42,9,4,3,1
1537907995457690,-11,-45,34,-38,20,4,-2,-5
1537907995457690,2,4,-91,-65,-5,3,-1,-4
1537907995470655,1,10,81,109,73,12,5,3
1537907995470655,-3,-15,-36,-45,-32,-18,-9,-4
1537907995477636,-6,-38,-53,-1,12,1,1,1
1537907995477636,0,14,46,-17,11,0,-3,1
1537907995495589,1,24,-26,-33,-5,3,-3,-3
1537907995495589,-11,-53,11,7,15,6,1,0
1537907995496586,9,39,-8,103,25,6,0,4
1537907995496586,-7,6,-24,-98,-5,3,-4,-3
1537907995516532,-4,2,121,-52,-63,-27,-10,-6
1537907995516532,6,30,-85,15,16,13,3,1
1537907995517530,-10,-73,-9,13,-22,-14,-4,-4
1537907995517530,-4,-17,60,-38,16,9,1,-1
1537907995530495,2,-39,-47,-6,-29,-3,-1,1
1537907995530495,3,48,84,4,-21,-7,-2,-4
1537907995537476,-1,-2,7,26,52,19,7,2
1537907995537476,-3,-35,9,-34,-73,-32,-6,-2
1537907995554432,-1,23,-21,42,26,12,0,-1
1537907995554432,1,6,-9,-24,-2,-3,0,0
1537907995555429,1,-5,-5,-38,-30,-12,-6,-3
1537907995555429,10,59,8,72,55,18,6,7
1537907995576373,0,2,-30,-43,-43,-12,-3,0
1537907995576373,-1,-36,53,26,19,5,1,-2
1537907995578367,-4,21,-61,-25,-4,-6,-3,-3
1537907995578367,-5,-11,-13,-4,-6,-1,-1,-2
1537907995590335,-2,0,31,31,23,6,-1,-3
1537907995590335,8,10,-35,6,22,6,5,6
1537907995599311,-4,-5,6,1,-12,-4,-5,-3
1537907995599311,-2,-4,-14,-12,-15,-11,-1,-2
1537907995614271,-1,-29,-25,54,6,2,3,2
1537907995614271,-6,-20,37,-50,-17,-6,-4,-3
1537907995616266,8,54,77,17,36,10,3,3
1537907995616266,-15,-59,-39,-8,-58,-16,-8,-7
1537907995636212,9,18,40,24,21,9,4,5
1537907995636212,-5,-9,-28,35,2,3,-3,-5
1537907995638207,1,-9,-17,3,-8,-5,0,0
1537907995638207,-4,-13,29,-17,-3,-2,-2,-3
1537907995650175,-3,0,17,-24,2,4,-1,-3
1537907995650175,0,9,-5,30,-3,-5,-3,-3
1537907995659151,-3,-11,40,24,-10,1,-2,0
1537907995659151,7,38,36,43,0,-6,0,4
1537907995674111,-5,-35,-12,-17,13,5,3,2
1537907995674111,7,33,44,5,-7,-2,-1,-1
1537907995675108,-3,-27,-25,-76,-26,-3,0,0
1537907995675108,0,-5,-21,-5,15,3,-1,-2
1537907995696052,4,11,7,-22,3,2,1,0
1537907995696052,-6,-12,-3,-9,4,0,-1,-1
1537907995698047,-1,3,-3,-8,-12,-3,-1,0
1537907995698047,0,-9,13,13,1,3,-1,2
1537907995710015,-3,-2,-36,-15,14,4,-1,0
1537907995710015,-1,-8,-27,-15,0,-2,0,0
1537907995718991,-2,5,94,27,0,-1,-2,-6
1537907995718991,5,0,-102,-9,13,3,1,3
1537907995733951,-1,9,26,15,15,1,-1,0
1537907995733951,0,1,-57,-6,-19,-9,-1,-2
1537907995735946,-3,-8,12,19,-6,-5,-3,0
1537907995735946,-3,0,64,-13,19,13,3,-2
1537907995756890,-2,-9,-46,29,-26,-9,-3,-1
1537907995756890,-2,-6,-10,-22,-5,2,0,1
1537907995757887,-1,-16,-8,10,9,-3,-1,-3
1537907995757887,3,21,-52,-6,-4,-3,-1,-2
1537907995770852,-1,-1,-31,-15,-1,1,-1,-2
1537907995770852,0,8,53,-6,3,0,0,0
1537907995777834,0,-5,-34,15,2,0,-1,-2
1537907995777834,-3,1,71,20,6,-1,-1,-3
1537907995793791,2,6,-62,-9,-4,-2,1,0
1537907995793791,1,-10,-41,-8,-3,-1,-1,2
1537907995795786,0,8,-12,-1,-7,-4,-2,0
1537907995795786,-3,-9,38,13,2,-1,1,0
1537907995816730,-3,1,16,-7,-4,-5,-2,-4
1537907995816730,1,-1,12,-4,-1,0,0,0
1537907995817727,0,3,-29,-1,-3,0,1,0
1537907995817727,-1,-7,4,-4,-3,-2,-4,-2
1537907995830693,0,0,18,2,1,-2,-1,-1
1537907995830693,1,4,-16,4,4,0,0,1
1537907995837674,1,0,-6,3,-5,-2,-2,0
1537907995837674,-1,-6,-9,-1,-2,-1,0,2
1537907995853631,-1,0,4,2,5,1,-1,-2
1537907995853631,-4,5,6,0,-1,-1,-3,-19
1537907995855626,4,-28,-17,-5,-6,-1,1,20
1537907995855626,-2,-47,4,3,3,2,-2,-2
1537907995876570,3,-62,8,2,-1,-1,-4,-4
1537907995876570,-3,-79,3,-3,-4,-2,-3,-8
1537907995877567,-3,-38,-11,2,1,9,2,-29
1537907995877567,-1,-43,-1,7,9,8,15,11
1537907995890533,-16,1,12,3,-4,-22,-15,-40
1537907995890533,2,39,-11,-8,-5,-6,-14,20
1537907995899509,2,53,7,-4,-1,-6,-4,-19
1537907995899509,-6,48,-30,-2,-1,9,-1,0
1537907995914469,8,60,1,2,4,10,12,19
1537907995914469,-3,26,28,4,5,2,8,-7
1537907995915466,5,29,-3,-3,-4,-1,0,31
1537907995915466,1,23,48,-1,-3,-4,-2,-15
1537907995936410,4,17,-10,4,6,4,2,8
1537907995936410,-7,-35,-51,-11,-2,-2,0,-1
1537907995938405,4,22,15,24,4,1,1,4
1537907995938405,-2,9,4,-2,-4,-5,-4,2
1537907995950373,-3,8,25,-4,-5,-3,-6,-10
1537907995950373,-1,8,-11,-9,2,5,2,4
1537907995959349,-8,2,1,-8,-8,-6,-2,-6
1537907995959349,7,5,-48,-5,8,-1,-2,0
1537907995974308,0,8,8,11,-7,2,1,12
1537907995974308,1,22,2,7,3,1,1,-6
1537907995975306,-4,-7,-2,2,2,-2,-3,-2
1537907995975306,1,9,7,-10,-8,-8,-4,-2
1537907995996250,-4,-2,-4,-4,2,2,0,-28
1537907995996250,8,7,0,4,1,0,1,26
1537907995998245,-4,0,-3,-3,-1,-5,-2,-2
1537907995998245,2,15,4,9,2,3,0,1
1537907996010213,-4,-23,-8,-16,10,4,4,-1
1537907996010213,3,33,46,24,-10,-6,-3,-7
1537907996019189,-6,-24,-69,-24,-10,-4,-3,-4
1537907996019189,1,0,22,-6,5,3,1,1
1537907996034149,-2,-16,19,50,-8,-7,-2,9
1537907996034149,1,9,-9,-60,-1,-1,-2,-5
1537907996035146,1,0,-9,3,-3,-2,1,4
1537907996035146,-5,-9,17,11,4,0,-1,-2
1537907996056090,4,0,-10,-10,-6,-2,-2,7
1537907996056090,0,-7,44,14,4,1,2,1
1537907996058085,1,3,-9,1,-3,-4,-1,-5
1537907996058085,-2,-18,-21,-16,-7,-3,-2,-2
1537907996070053,0,41,17,3,8,6,1,5
1537907996070053,-1,-19,-13,5,-6,-3,-2,-2
1537907996079029,0,-2,2,-7,0,0,0,0
1537907996079029,-4,-3,45,13,-1,-2,-1,-2
1537907996092991,2,-5,-50,-14,-2,-2,2,6
1537907996092991,-7,-23,-28,-11,-8,-2,0,-6
1537907996099973,-3,3,11,3,2,0,-1,-2
1537907996099973,0,1,27,0,-3,-2,-3,1
1537907996116927,0,-4,-14,-1,2,-2,0,3
1537907996116927,-3,-6,7,0,5,3,1,-3
1537907996117925,0,-2,-9,9,0,-1,-1,2
1537907996117925,-2,-3,-7,-7,-6,-2,-1,-2
1537907996129893,-2,-7,11,-8,0,0,-1,0
1537907996129893,0,0,3,13,2,-1,-1,0
1537907996138869,4,11,22,12,6,2,1,1
1537907996138869,-2,0,-23,-30,-12,-6,-2,-2
1537907996153829,-1,-7,4,-3,-1,0,-1,2
1537907996153829,1,9,-6,9,4,2,0,0
1537907996159813,-6,-21,-2,6,3,3,1,-4
1537907996159813,3,12,37,7,-3,-4,-3,-1
1537907996176767,0,5,-46,-9,0,1,-1,0
1537907996176767,1,9,-9,5,2,0,1,2
1537907996177765,1,-8,24,-5,-1,-1,-2,-1
1537907996177765,-2,11,-36,2,4,2,0,-1
1537907996189733,-4,-9,39,-9,-8,-2,-1,1
1537907996189733,-1,8,6,0,1,-2,-1,-2
1537907996198709,-2,-12,-27,-4,-1,-1,-2,-1
1537907996198709,2,-24,4,17,-1,-2,-1,-1
1537907996213669,2,23,0,-36,-8,-1,-1,0
1537907996213669,-1,2,3,7,-8,-4,-2,-1
1537907996215664,1,-4,23,1,13,3,2,0
1537907996215664,-1,9,-45,-12,-20,-8,-5,0
1537907996236608,-2,-9,19,25,8,2,-1,-1
1537907996236608,-1,-11,-21,-26,-10,-2,-1,0
1537907996237605,3,23,16,-13,-2,1,-2,-1
1537907996237605,-4,-28,3,23,7,1,0,0
1537907996250570,0,-2,2,-16,-2,0,0,1
1537907996250570,-2,8,0,-5,1,0,0,-1
1537907996259546,-4,-15,-29,3,1,-2,-1,0
1537907996259546,4,10,6,-6,1,-1,1,-1
1537907996274506,-4,-18,4,7,-2,-1,-3,-2
1537907996274506,1,18,3,6,1,0,0,-1
1537907996275504,0,-2,-18,-10,-13,-7,-4,-1
1537907996275504,-1,-1,-5,3,6,3,0,-2
1537907996296448,-4,-24,8,22,4,0,0,0
1537907996296448,1,-6,-8,-16,4,1,-1,0
1537907996298442,1,10,-12,-30,3,4,2,3
1537907996298442,1,20,18,50,0,-3,-4,-2
1537907996310411,0,6,-4,-38,-20,-6,-3,-1
1537907996310411,-2,-16,-31,7,-7,1,-2,-3
1537907996319386,-4,-4,-12,1,-5,-5,-2,-4
1537907996319386,0,-2,-5,-17,7,3,2,1
1537907996334346,8,6,11,23,19,8,4,4
1537907996334346,5,-1,-23,-38,-12,-6,-4,0
1537907996335344,-18,-19,39,12,-9,-5,-3,-9
1537907996335344,6,11,3,-4,5,1,1,-4
1537907996356288,-4,4,-1,9,2,-1,1,4
1537907996356288,7,0,28,7,7,1,4,5
1537907996358282,7,3,7,19,4,1,1,1
1537907996358282,-20,-6,9,-8,11,6,-3,-9
1537907996379227,-6,-26,-48,10,-22,-9,-5,-8
1537907996379227,-3,1,-52,4,-5,-2,1,4
1537907996380224,28,11,12,-21,-2,0,3,12
1537907996380224,-21,-5,-9,-10,-10,-4,2,9
1537907996394186,16,6,33,10,15,2,-4,-14
1537907996394186,-25,-1,20,3,2,-2,-6,-20
1537907996395185,-19,-12,-24,6,3,0,-4,-14
1537907996395185,22,3,18,-4,0,2,5,11
1537907996416127,18,5,-1,-8,-7,0,6,24
1537907996416127,7,-8,-5,10,0,0,-2,1
1537907996418122,-1,10,13,-1,-5,-3,-7,-10
1537907996418122,-36,-20,-12,-5,-4,-2,-5,-22
1537907996439066,0,9,-13,-3,-2,1,6,12
1537907996439066,9,11,11,13,7,4,2,8
1537907996440064,-14,-9,0,-6,-7,-5,-10,-14
1537907996440064,12,-1,-19,-10,-2,-1,0,5
1537907996454026,7,-9,-12,2,-2,-2,0,7
1537907996454026,-11,6,23,0,12,5,2,2
1537907996455024,-24,-5,-2,4,-7,-6,-8,-17
1537907996455024,25,40,-20,-22,-21,-8,-1,5
1537907996476965,-9,2,80,0,4,3,0,-5
1537907996476965,-11,-12,-56,-3,-1,0,-2,-2
1537907996477963,9,9,34,8,7,6,12,23
1537907996477963,47,-21,-8,0,2,4,24,35
1537907996498906,-36,1,6,-5,2,-4,-18,-29
1537907996498906,13,6,19,4,-7,-10,-40,-13
1537907996500901,-51,11,-14,-7,6,0,18,-25
1537907996500901,2,1,-2,9,-3,-1,-14,9
1537907996512869,25,16,5,43,20,14,31,26
1537907996512869,15,-19,-9,-14,7,4,25,2
1537907996521845,-6,12,-9,-16,-22,-7,-4,16
1537907996521845,-43,-65,-24,-45,-22,-8,-7,-26
1537907996536805,27,-22,-77,-17,11,-3,-20,-5
1537907996536805,-6,10,72,17,-28,-7,20,12
1537907996537803,42,4,-86,-26,12,8,-17,3
1537907996537803,-36,-6,36,45,-4,-12,-10,-15
1537907996558746,-47,-3,-35,17,19,2,-14,-35
1537907996558746,46,5,21,-3,-13,1,13,61
1537907996560741,62,13,52,-17,8,9,50,56
1537907996560741,-96,-29,5,-46,-29,-28,-87,-83
1537907996573706,15,11,24,1,-17,-7,-6,-8
1537907996573706,-74,-2,21,0,5,-1,-16,-52
1537907996581685,29,10,4,34,8,11,39,47
1537907996581685,37,7,-17,45,24,8,20,-14
1537907996596645,5,23,10,14,8,-1,24,45
1537907996596645,63,-22,0,-8,-13,5,16,4
1537907996597642,-56,-23,-41,1,2,-21,-117,-93
1537907996597642,-4,-13,-20,-60,-8,14,37,42
1537907996618586,-73,-4,-74,4,0,0,-16,-18
1537907996618586,95,37,94,41,5,14,53,66
1537907996620581,-5,-21,-52,-1,41,16,36,-5
1537907996620581,7,4,-66,-35,-24,-18,-28,-26
1537907996632549,10,40,117,45,-5,14,51,45
1537907996632549,-6,19,-101,7,11,9,-41,2
1537907996641525,-32,-44,-34,21,7,-20,11,15
1537907996641525,43,67,116,51,38,38,98,60
1537907996656485,-18,-53,-127,-87,-53,-30,-63,-68
1537907996656485,-53,13,108,22,12,-20,-40,-47
1537907996657482,-10,30,21,-65,-37,1,1,-23
1537907996657482,72,6,-20,38,24,6,-3,64
1537907996679424,-8,-6,34,20,-22,8,75,15
1537907996679424,13,-45,-54,-4,-12,5,16,1
1537907996680421,-58,-34,77,-11,-36,-32,-77,-62
1537907996680421,21,30,-64,9,26,12,-55,11
1537907996692389,46,8,106,3,27,19,69,13
1537907996692389,-37,21,-58,0,-11,1,46,-4
1537907996701365,36,15,13,-48,-24,6,24,47
1537907996701365,-35,-22,-35,44,22,4,-23,-20
1537907996715328,41,23,12,-29,2,2,-25,23
1537907996715328,-58,-49,-61,-16,4,-22,-39,-28
1537907996724304,7,6,14,66,9,1,-57,-38
1537907996724304,-6,12,24,-35,-20,-9,-1,-51
1537907996739264,-1,-9,-40,-4,6,0,-11,7
1537907996739264,5,-6,-4,-6,6,-1,20,15
1537907996740261,7,8,21,19,1,5,14,31
1537907996740261,3,-3,-6,-4,3,-2,1,20
1537907996752229,-12,-15,-2,-2,-6,-7,0,-25
1537907996752229,-11,3,-12,-12,1,1,-4,-4
1537907996761205,14,6,-6,14,8,3,13,9
1537907996761205,-9,-15,0,-6,-10,-6,-8,-18
1537907996776165,3,-8,-16,-12,0,-4,-10,1
1537907996776165,-2,4,18,-3,-2,-4,-22,-8
1537907996778160,13,-4,-29,2,1,2,14,6
1537907996778160,-5,-6,21,-5,-12,-8,16,-3
1537907996799104,-11,-1,1,3,0,-4,-35,-6
1537907996799104,0,-3,-14,-11,4,1,-6,-6
1537907996800101,3,-2,6,7,-3,-2,7,-1
1537907996800101,-4,-4,0,-2,2,4,12,5
1537907996813066,0,-6,-9,-1,2,-5,-12,-3
1537907996813066,-3,-14,-5,-5,-1,-1,-11,-9
1537907996820048,9,-9,-5,2,3,3,18,10
1537907996820048,-6,-19,12,0,-5,-3,-2,-4
1537907996837003,1,-16,-15,-5,-1,-4,-14,-7
1537907996837003,-1,-5,8,-3,-1,-1,1,-4
1537907996838000,-3,3,0,4,0,1,2,4
1537907996838000,0,15,-2,-2,0,-3,0,-2
1537907996858944,-5,12,-2,-3,-2,-2,-12,-6
1537907996858944,4,14,-3,0,3,1,1,3
1537907996860939,3,14,-2,4,2,1,9,5
1537907996860939,-4,3,2,0,0,-1,0,-2
1537907996880885,-1,3,-5,-7,-4,-3,-3,0
1537907996880885,-1,7,4,-3,-4,0,-6,-2
1537907996881883,5,3,-8,-1,-2,-3,1,3
1537907996881883,-5,-2,5,3,-2,-1,2,-4
1537907996895846,-9,-2,-4,-7,1,-2,-9,-2
1537907996895846,0,1,3,10,3,-1,-2,0
1537907996896843,1,-1,0,13,-1,0,-1,-2
1537907996896843,2,0,-6,-20,-5,-1,3,1
1537907996918784,0,-1,7,-1,-1,-1,-4,-1
1537907996918784,-9,-5,-16,-1,2,1,-2,-4
1537907996918784,3,1,13,0,-1,0,3,1
1537907996918784,-2,0,2,11,-1,-2,0,-2
1537907996940726,-1,0,-7,2,3,0,-3,-4
1537907996940726,0,-2,-9,-14,-5,-1,-1,-1
1537907996941723,1,-4,0,4,5,1,0,3
1537907996941723,2,0,0,-5,2,1,-1,2
1537907996955686,-2,-4,-16,1,-1,-1,-4,-1
1537907996955686,-3,-2,5,-12,-3,0,-3,-4
1537907996956683,1,5,-11,15,-2,-1,2,2
1537907996956683,0,-4,10,-1,-5,-2,-1,0
1537907996978624,2,-1,-31,-4,-1,-2,2,1
1537907996978624,0,2,9,-1,3,1,-1,1
1537907996978624,-3,-10,16,-7,0,-2,-1,-2
1537907996978624,-3,-7,-42,1,1,-2,-1,-4
1537907997001563,5,3,28,-8,-9,-4,-1,1
1537907997001563,-3,-8,-38,-2,-5,-2,-1,-1
1537907997001563,0,6,18,-9,-3,-2,0,-2
1537907997001563,6,5,28,10,3,2,2,7
1537907997015525,-2,-2,-2,-2,-1,-1,1,2
1537907997015525,-2,-2,7,13,5,1,-5,-9
1537907997016523,-10,-3,-5,-12,-5,-3,-2,-7
1537907997016523,18,6,-12,-2,1,1,5,15
1537907997038464,2,4,-1,-2,4,4,4,5
1537907997038464,-13,-16,11,4,-7,-8,-4,-9
1537907997039461,-13,-2,-11,-6,-6,-4,-2,-9
1537907997039461,-29,-8,1,1,3,-6,-25,-27
1537907997060405,9,8,12,18,-9,2,-4,13
1537907997060405,-2,-9,-8,-6,7,14,71,10
1537907997061403,46,16,-8,4,11,2,17,32
1537907997061403,-71,-25,1,-19,-12,-14,-91,-56
1537907997075365,35,-11,5,5,4,4,71,31
1537907997075365,-78,-36,-9,-6,-6,-11,-77,-104
1537907997076363,5,9,-18,-19,-11,-11,-10,41
1537907997076363,-23,-8,12,-8,36,20,34,2
1537907997098304,-35,-7,28,18,-21,-1,-17,30
1537907997098304,55,21,21,112,64,5,-61,56
1537907997099301,-13,-9,-2,-53,-59,-21,-53,-115
1537907997099301,14,-29,-43,77,10,-13,90,26
1537907997121243,-42,30,70,15,38,43,56,11
1537907997121243,1,19,-25,-105,-76,-35,65,59
1537907997121243,104,50,-22,69,78,32,-23,101
1537907997121243,-2,8,18,86,-4,12,-67,-72
1537907997136203,-46,33,-85,-104,-78,-43,21,-89
1537907997136203,44,18,30,47,41,42,75,87
1537907997136203,-57,44,13,-23,-10,-25,-41,-2
1537907997136203,19,49,24,92,35,4,-4,49
1537907997158144,39,-30,-17,-32,17,5,-22,-2
1537907997158144,-31,-36,-10,-57,-31,10,35,-32
1537907997159142,0,13,4,-5,-20,1,0,-6
1537907997159142,-30,-66,-19,-73,-32,-15,29,5
1537907997181083,43,68,22,48,7,3,-51,-19
1537907997181083,-26,-15,-15,7,32,1,-14,20
1537907997181083,66,2,17,-13,12,10,56,66
1537907997181083,-42,-2,4,23,-22,-17,-72,-77
1537907997196043,17,-29,-25,-23,-2,-7,6,35
1537907997196043,25,27,6,9,-5,-16,-99,-97
1537907997196043,-55,-38,-3,11,6,3,51,-62
1537907997196043,22,8,-2,-18,21,16,21,42
1537907997217984,-7,-23,-10,-8,-23,-13,16,18
1537907997217984,-6,23,4,2,0,-4,-9,22
1537907997218982,10,-13,21,27,-3,7,-14,30
1537907997218982,1,6,-12,-45,-6,-1,-4,-5
1537907997240923,-11,-22,-2,5,17,4,-5,-6
1537907997240923,-6,0,14,17,-9,-12,-46,-34
1537907997241920,-31,-29,-24,-4,1,-6,-33,-37
1537907997241920,37,16,10,-24,-4,8,40,53
1537907997255883,-8,-11,2,37,16,-1,-27,-7
1537907997255883,7,2,-5,-8,-13,-10,-24,-13
1537907997256880,-14,-13,-8,5,0,0,23,8
1537907997256880,26,10,4,-18,-6,2,16,16
1537907997277824,0,2,5,14,3,-3,-27,-14
1537907997277824,4,-10,-6,-2,1,0,19,11
1537907997278822,-5,-13,-1,0,3,8,18,-1
1537907997278822,10,7,8,-8,-8,0,-1,1
1537907997300763,-7,-20,-21,-3,3,-8,-25,-14
1537907997300763,10,-18,9,-4,0,5,19,16
1537907997301760,-16,-29,-10,18,1,0,-6,-14
1537907997301760,15,-9,24,-11,-9,-8,-11,5
1537907997315723,-1,-9,-7,12,7,2,0,8
1537907997315723,2,10,11,1,-2,1,10,0
1537907997316720,-4,16,-26,-4,-4,0,-4,-11
1537907997316720,3,20,-16,-16,-5,-1,6,4
1537907997338661,1,6,-16,1,7,1,-1,0
1537907997338661,5,24,-1,11,-3,-1,6,22
1537907997338661,-10,5,36,0,0,-1,-9,0
1537907997338661,5,7,-18,-3,-1,0,5,5
1537907997360603,-3,2,54,8,2,-1,-10,1
1537907997360603,-2,-2,-35,-6,-5,-3,-4,-16
1537907997361600,-3,-3,-29,2,2,0,4,-1
1537907997361600,7,3,4,-14,-5,0,3,10
1537907997375563,-2,2,21,4,0,-2,-8,-11
1537907997375563,2,1,11,3,5,2,4,1
1537907997376560,-2,-2,-5,8,1,0,3,2
1537907997376560,1,-4,-8,-16,-4,0,-2,-3
1537907997398502,-2,-5,-19,1,1,-2,-9,-7
1537907997398502,1,2,52,-2,-3,1,5,2
1537907997399499,-7,-2,-21,6,-1,-1,-3,-3
1537907997399499,1,2,35,6,1,-1,-1,-4
1537907997421440,0,-3,-32,-3,-3,-2,0,4
1537907997421440,3,-7,-40,-9,-3,-2,2,4
1537907997428422,0,-4,10,-3,0,1,0,-6
1537907997428422,-6,3,20,1,-2,-3,0,-3
1537907997435403,0,-1,7,4,3,2,-1,0
1537907997435403,0,-3,-14,2,-2,-4,-2,-3
1537907997436400,0,-4,2,-10,-2,-2,-2,-3
1537907997436400,5,2,-38,0,-1,1,1,5
1537907997458342,0,-3,-2,1,3,0,-2,2
1537907997458342,-3,-1,2,1,-2,1,-1,-3
1537907997459339,-3,-2,17,5,-1,-4,0,-5
1537907997459339,1,0,1,-10,-5,0,-1,2
1537907997482279,24,5,-14,1,1,1,6,15
1537907997482279,0,1,5,0,8,4,5,5
1537907997483277,-12,-2,2,11,2,-1,-10,-5
1537907997483277,2,-7,2,4,-3,-2,24,5
1537907997496242,-30,4,-3,-8,-13,-9,-39,-37
1537907997496242,21,0,4,8,5,4,16,34
1537907997496242,6,-19,7,27,15,11,29,22
1537907997496242,-18,-23,-20,-9,-1,-14,-40,-28
1537907997518183,17,5,1,14,-1,3,12,11
1537907997518183,-66,12,-32,-14,-8,-11,-27,-40
1537907997519181,56,5,43,12,31,7,-74,14
1537907997519181,13,2,22,-2,-5,13,100,-35
1537907997541122,10,5,21,13,-5,10,40,19
1537907997541122,23,-19,-57,28,6,5,14,7
1537907997542119,37,53,43,-2,10,11,23,63
1537907997542119,-44,-66,-52,-28,-1,-4,-36,-29
1537907997556082,51,53,1,-23,4,-3,2,31
1537907997556082,1,12,-14,-36,-27,-15,-37,94
1537907997557079,0,-79,19,14,8,11,51,52
1537907997557079,-71,22,-24,3,-30,-4,7,-64
1537907997578023,24,12,-27,-13,5,-6,-6,36
1537907997578023,-36,-44,58,-2,-21,-14,22,-46
1537907997579021,-15,18,-31,36,10,-7,27,74
1537907997579021,-30,-27,8,-29,-25,-34,-85,-61
1537907997602958,-46,-45,-6,-30,-9,7,27,-15
1537907997602958,7,19,-35,-30,-5,-6,3,-6
1537907997604953,-45,6,20,10,3,12,-11,-42
1537907997604953,90,46,-1,62,11,24,99,113
1537907997607943,4,12,-8,-42,2,1,-7,-16
1537907997607943,14,-32,32,22,24,7,3,27
1537907997616919,-10,23,-30,-34,-30,-41,-102,-128
1537907997616919,-21,0,0,20,14,-3,-70,-3
1537907997629883,-16,9,11,50,9,-7,48,36
1537907997629883,27,6,10,-5,11,24,32,-33
1537907997637862,-11,-13,-36,-20,-33,-15,-8,-48
1537907997637862,-19,14,5,-14,8,4,12,28
1537907997652822,22,-10,15,11,-4,4,26,54
1537907997652822,7,17,19,17,16,12,45,-6
1537907997653820,-13,-39,-37,-35,-14,-11,-9,-19
1537907997653820,37,6,17,4,8,7,10,27
1537907997667782,-29,-17,5,2,1,-2,-36,-32
1537907997667782,9,12,-1,9,-1,-4,-20,6
1537907997674763,1,5,-3,-11,-8,4,19,-3
1537907997674763,4,7,15,-4,2,-1,-12,6
1537907997689724,-3,-9,-4,13,6,2,-24,-13
1537907997689724,-8,-1,-10,-8,-4,-5,-21,-19
1537907997697702,-5,7,3,-8,-6,4,16,8
1537907997697702,10,-2,8,-3,5,1,-15,14
1537907997713660,-12,-14,-8,0,2,0,-20,-25
1537907997713660,6,-10,-1,-4,-10,-3,-2,-3
1537907997713660,-5,-4,14,-6,-1,2,8,8
1537907997713660,14,-7,-3,6,8,6,1,11
1537907997727623,-2,-21,-6,1,-3,0,-7,-17
1537907997727623,-9,-7,-4,2,2,-1,-12,-5
1537907997735601,6,12,9,1,-3,0,5,12
1537907997735601,7,13,1,-3,2,-3,-4,2
1537907997750562,-9,9,-14,0,-3,-3,-9,-14
1537907997750562,-1,13,-14,-2,4,0,-11,4
1537907997757544,-1,14,21,-5,-1,-1,2,2
1537907997757544,5,6,19,6,2,2,1,2
1537907997782475,-5,-5,-42,-25,-10,-3,-8,-5
1537907997782475,2,1,-9,-3,0,-1,-5,1
1537907997783473,-2,1,-14,-5,2,3,4,0
1537907997783473,1,3,24,10,1,-2,-3,0
1537907997787462,-1,3,14,1,-8,-1,-6,-4
1537907997787462,-1,4,43,3,0,-2,-5,-4
1537907997795441,0,-1,-49,-6,0,1,2,1
1537907997795441,4,1,9,3,4,0,-4,6
1537907997810401,-5,-10,-44,-6,-3,-4,-7,-7
1537907997810401,1,4,57,-6,-6,-2,-3,-4
1537907997817382,-3,1,-28,4,-1,-1,1,2
1537907997817382,2,-2,-6,-6,4,2,1,1
1537907997833340,-2,0,8,5,-1,-2,-3,-6
1537907997833340,-3,-1,-15,5,-1,0,-3,-4
1537907997834337,-2,-3,15,-1,1,0,-1,-1
1537907997834337,1,-1,-33,-10,-3,-1,0,1
1537907997847302,-1,1,50,7,1,-1,-3,-2
1537907997847302,0,-3,-14,-1,-3,0,-4,-1
1537907997855281,-3,-2,-5,-2,-1,-1,0,-1
1537907997855281,0,-1,-8,-6,-5,-1,-1,-1
1537907997886199,-1,-1,-5,-1,-1,-1,-1,-3
1537907997886199,1,2,-6,8,3,0,-1,1
1537907997887198,2,-1,-10,-2,0,1,1,0
1537907997887198,-1,2,27,0,-3,-2,0,-1
1537907997893181,1,-4,9,7,2,1,0,-1
1537907997893181,-8,-3,-10,-3,0,-2,-3,-5
1537907997894178,-1,-3,-29,1,1,1,0,1
1537907997894178,0,-2,33,-19,-10,-6,-2,-1
1537907997908140,-3,1,-19,11,-1,-1,-3,-3
1537907997908140,-1,-2,12,-11,-4,-1,-1,-2
1537907997915122,-6,-5,-26,4,0,0,0,-1
1537907997915122,3,1,-13,-4,-4,-3,-1,2
1537907997930083,-7,-3,10,-2,0,-1,-3,-5
1537907997930083,7,2,1,4,0,-2,-1,7
1537907997938061,-6,2,20,-2,-2,-1,-3,-6
1537907997938061,6,-2,-9,0,7,3,0,5
1537907997953021,-1,2,-6,15,-5,-3,-2,-7
1537907997953021,-3,-5,-6,1,1,1,6,-3
1537907997954019,-11,2,38,9,5,1,-11,13
1537907997954019,20,13,-31,2,0,-4,-12,-12
1537907997967981,-2,-29,21,-7,-4,1,48,12
1537907997967981,13,-19,-32,8,9,-3,-22,6
1537907997974962,-29,24,21,-14,-14,4,70,-11
1537907997974962,50,-31,3,14,23,12,-25,17
1537907997991918,-70,-32,1,-15,-6,-13,-38,11
1537907997991918,-13,10,-6,33,-16,-5,-64,-71
1537907998005880,11,-3,-21,-53,-7,-19,-19,30
1537907998005880,21,65,94,2,-5,25,98,43
1537907998012860,-26,-22,-20,14,15,-4,-43,18
1537907998012860,-39,31,-45,13,17,12,102,-39
1537907998013858,29,-22,-11,-2,1,-10,-75,-7
1537907998013858,35,-4,-38,-59,-31,-41,-52,79
1537907998027819,49,20,52,59,33,47,-27,-22
1537907998027819,-85,-41,-35,-71,-29,-50,-69,-84
1537907998034801,33,8,-11,40,46,21,-3,35
1537907998034801,-17,4,-7,20,-65,-14,69,23
1537907998049760,37,8,-21,-40,-24,-14,0,34
1537907998049760,52,8,67,39,22,20,4,107
1537907998057739,28,19,3,-9,3,5,57,-11
1537907998057739,-45,-60,-14,36,32,8,51,50
1537907998073696,-28,21,5,54,45,19,-54,-54
1537907998073696,-24,-23,-42,-95,-94,-26,-21,-78
1537907998073696,9,-17,12,-20,-17,-19,-39,-27
1537907998073696,-34,12,-17,7,5,7,-32,-50
1537907998088657,1,-4,-14,-4,-6,-8,22,6
1537907998088657,27,8,25,23,34,13,38,53
1537907998095638,-15,-3,9,28,-2,9,10,11
1537907998095638,-4,-7,-21,-13,-2,-10,-46,-42
1537907998110598,7,14,7,-26,-11,-12,21,-12
1537907998110598,29,3,7,13,16,13,-1,44
1537907998117580,-15,1,7,-3,-16,-6,4,-13
1537907998117580,-21,-5,-6,4,16,5,-18,-41
1537907998133538,19,-1,0,-19,-9,-6,27,16
1537907998133538,0,7,7,13,5,6,13,9
1537907998133538,-22,-15,-3,5,-4,-1,-13,-41
1537907998133538,2,-2,-2,-5,7,0,-1,51
1537907998147502,7,-2,-5,-2,-7,7,10,8
1537907998147502,11,1,1,1,1,0,2,30
1537907998155480,-17,-7,0,-7,-8,-18,-23,-48
1537907998155480,-6,-11,-2,3,8,0,2,-30
1537907998170440,4,-9,0,-9,-12,-16,-8,-11
1537907998170440,-1,2,3,5,6,10,6,11
1537907998177421,16,-7,0,2,-2,6,20,77
1537907998177421,-11,7,-5,2,3,3,-10,-66
1537907998193378,-4,2,-10,-2,-2,1,10,9
1537907998193378,4,11,17,-4,0,-6,-3,3
1537907998194376,0,13,21,17,6,8,11,-6
1537907998194376,-4,-1,-6,-3,-3,-5,-14,-14
1537907998207342,10,24,-25,-5,-6,-3,11,9
1537907998207342,10,2,-35,-7,1,0,-5,2
1537907998215321,-7,-8,12,-5,-3,-2,2,-6
1537907998215321,2,29,1,9,4,4,-3,8
1537907998230281,-9,-20,38,1,1,-2,0,-7
1537907998230281,5,8,13,2,-3,-3,4,-6
1537907998237260,-6,-5,-9,-3,-1,1,-4,5
1537907998237260,3,-1,-10,-8,-1,-1,-5,-3
1537907998253217,-5,-5,-9,1,0,-2,4,-11
1537907998253217,0,9,13,0,2,-2,-5,-2
1537907998254214,3,-3,-5,1,-1,3,3,8
1537907998254214,0,-5,-1,-4,-1,1,-6,-5
1537907998267179,4,11,8,-7,-3,-4,3,-2
1537907998267179,-2,-9,10,7,3,3,1,4
1537907998275158,-1,8,5,-1,-5,-2,-1,-3
1537907998275158,-6,-6,-9,-1,-2,-3,-2,-10
1537907998290118,5,5,-5,3,-2,-1,3,7
1537907998290118,4,-3,12,-2,3,0,-2,2
1537907998298097,-9,-4,-27,2,-3,0,0,-9
1537907998298097,1,-1,20,-5,-2,-1,-4,-5
1537907998313057,2,1,-23,-8,-4,-1,4,2
1537907998313057,-3,-4,-8,2,-2,-2,-3,-1
1537907998321035,3,6,23,-4,0,1,2,0
1537907998321035,-4,-11,-10,4,-4,-2,-3,-1
1537907998328017,3,5,-6,-1,1,1,2,0
1537907998328017,-5,-6,-4,3,1,0,1,-3
1537907998334999,0,2,2,0,0,-2,-2,-1
1537907998334999,-4,-4,6,-2,-3,-2,-1,-5
1537907998349958,-1,-2,3,-2,0,0,0,-4
1537907998349958,-5,-5,-12,12,2,-1,-3,-4
1537907998357937,-1,1,34,4,-1,0,1,0
1537907998357937,1,0,-30,-14,-1,0,0,1
1537907998372897,-2,-4,-13,-4,0,-1,-1,-3
1537907998372897,-3,-5,4,-1,0,0,0,0
1537907998380876,0,-3,-18,7,2,0,-1,-3
1537907998380876,6,4,12,0,-3,0,1,2
1537907998388854,-2,-1,9,-3,-1,-1,-1,-1
1537907998388854,-3,-2,1,2,2,0,-2,-2
1537907998394838,-1,4,-15,-2,0,0,0,1
1537907998394838,-1,1,36,3,1,1,-2,0
1537907998409798,-2,1,-34,-4,-3,-2,-1,-4
1537907998409798,3,-2,16,-1,-1,-3,2,2
1537907998417777,0,-4,-20,-5,-2,-2,-3,1
1537907998417777,-1,-5,-13,3,3,0,0,1
1537907998432737,-4,-3,18,2,0,-2,-1,-3
1537907998432737,-1,-1,0,-9,-3,1,2,4
1537907998440716,7,7,1,-2,-1,-1,5,11
1537907998440716,14,6,-1,6,0,-3,3,6
1537907998447697,-3,-10,4,-10,-1,-4,-22,-31
1537907998447697,-34,2,-14,-6,-7,-1,23,4
1537907998455675,45,3,4,5,3,2,10,46
1537907998455675,-11,5,8,14,8,13,34,10
1537907998470635,-49,-30,-22,-11,-8,-7,-65,-60
1537907998470635,35,8,-27,-17,-2,-5,-39,-44
1537907998477617,2,-11,-8,-8,-13,-18,57,56
1537907998477617,41,48,3,70,45,42,-24,13
1537907998508534,18,-13,-3,-98,-44,-25,64,0
1537907998508534,-51,10,9,26,6,8,97,80
1537907998510529,41,-12,8,12,5,29,-119,-68
1537907998510529,-29,-9,-23,-51,-35,-49,1,-45
1537907998523494,65,6,-7,25,9,-5,81,87
1537907998523494,-29,16,12,11,25,67,34,-21
1537907998525489,-97,-33,-16,-32,-16,-47,26,-36
1537907998525489,-96,-23,6,13,22,24,-109,7
1537907998537457,83,-4,-3,1,-19,-10,-29,2
1537907998537457,92,-2,12,4,5,-9,73,64
1537907998546434,-54,19,9,19,1,-21,13,-81
1537907998546434,-82,-27,0,-5,-2,10,-24,41
1537907998561393,-15,14,-8,-2,-9,-8,28,-54
1537907998561393,14,-9,-7,5,6,17,-40,77
1537907998563389,4,6,6,8,7,10,-124,-98
1537907998563389,17,-2,-5,-9,-7,-19,127,5
1537907998584333,-98,-11,12,14,7,14,-106,-42
1537907998584333,3,15,-5,2,-3,-3,60,-10
1537907998585332,10,-3,-8,-12,-8,3,-37,18
1537907998585332,76,7,-10,-17,-5,34,80,105
1537907998597299,-36,8,26,43,40,44,-49,-63
1537907998597299,-97,-42,-15,-26,-62,-99,-124,-63
1537907998614254,95,25,1,-5,-8,15,-2,75
1537907998614254,3,-8,-6,-5,-10,-18,-36,-64
1537907998621235,18,11,3,9,17,44,43,55
1537907998621235,-4,-2,-3,0,9,-1,-20,-27
1537907998623229,-18,-6,-1,0,-2,-17,66,35
1537907998623229,29,1,-1,0,-2,4,-24,-21
1537907998644172,3,5,6,4,2,-16,4,0
1537907998644172,10,1,-2,-2,0,-1,-5,-27
1537907998645170,-14,-5,-3,4,3,12,8,33
1537907998645170,29,7,3,0,4,2,3,-38
1537907998657137,-15,-1,2,2,-4,-13,6,22
1537907998657137,11,-3,-1,0,3,3,-21,-1
1537907998666113,-8,2,-4,-1,3,16,20,7
1537907998666113,-7,-4,-2,0,-3,-11,-11,-8
1537907998681073,8,3,1,-1,-8,-11,14,25
1537907998681073,17,2,3,-1,3,9,-19,-9
1537907998683068,-6,0,1,4,8,7,28,-6
1537907998683068,-3,-8,1,2,-3,-11,-10,-4
1537907998704012,2,4,5,13,4,2,9,21
1537907998704012,6,-3,-10,5,8,7,3,-8
1537907998705009,-11,-3,2,23,14,4,10,0
1537907998705009,4,1,-2,-63,-34,-20,-14,-3
1537907998717975,1,-1,-2,5,-8,-1,2,9
1537907998717975,9,4,3,-35,-9,1,-4,-2
1537907998732934,1,-3,-10,-1,1,-1,9,1
1537907998732934,8,0,8,-4,8,5,-4,-3
1537907998741911,3,7,10,-38,-7,-5,6,4
1537907998741911,-4,-5,-18,41,8,2,-5,-5
1537907998742908,-7,1,-7,-37,-5,3,7,3
1537907998742908,-4,-1,19,15,-3,1,0,-4
1537907998763854,-5,-1,8,-2,1,-5,0,3
1537907998763854,0,-2,-3,5,1,2,-6,-2
1537907998765849,-5,-2,3,25,2,3,3,0
1537907998765849,-3,-3,-12,10,1,-3,-3,-2
1537907998777816,-1,-1,-2,18,9,2,7,5
1537907998777816,4,-3,3,10,0,0,-5,-3
1537907998786792,-1,-1,3,-14,-7,-2,5,-2
1537907998786792,0,-3,-8,6,0,-3,-2,-2
1537907998801751,3,-1,-2,9,0,0,-1,3
1537907998801751,3,0,2,-17,-3,-1,-1,-3
1537907998802748,-4,-3,-1,-3,-5,-1,1,-1
1537907998802748,-4,-3,-4,4,1,-2,-2,-1
1537907998823692,-2,-2,-6,6,4,0,1,2
1537907998823692,-4,-1,4,-9,-4,0,-3,-2
1537907998825687,-3,-1,3,-3,-1,-3,2,1
1537907998825687,-1,-2,-7,6,-2,-1,-2,-2
1537907998837655,-2,0,-1,-3,0,-1,2,0
1537907998837655,0,0,3,-1,4,10,8,2
1537907998846631,1,0,2,2,0,17,24,-8
1537907998846631,5,-1,-3,2,-2,-25,-2,46
1537907998861591,-24,-12,-9,-3,1,6,-29,-50
1537907998861591,-5,2,0,-4,4,77,37,-39
1537907998862589,13,7,-1,2,-21,-89,33,79
1537907998862589,7,-15,-6,-7,-7,10,-66,-15
1537907998883532,-32,-7,-11,-6,-6,-9,-51,-45
1537907998883532,17,16,16,12,-1,-77,34,32
1537907998885527,5,-16,-16,-16,13,127,-85,-8
1537907998885527,30,5,7,8,-4,-110,60,-18
1537907998897496,35,3,6,4,-7,-53,-95,-48
1537907998897496,-4,-12,-10,-11,14,96,30,20
1537907998906472,12,16,21,23,6,-113,97,30
1537907998906472,1,-1,-9,-13,-25,36,-69,20
1537907998920435,-89,-14,-2,7,27,106,16,-12
1537907998920435,62,4,2,3,-22,-128,-23,43
1537907998927416,-4,2,-7,-8,-7,-65,25,55
1537907998927416,-9,2,-1,3,11,29,-46,-55
1537907998944371,11,3,8,5,-4,8,68,29
1537907998944371,-6,-6,0,2,18,109,-12,-23
1537907998945369,-39,-23,-14,-8,-8,-37,17,22
1537907998945369,48,9,1,0,2,1,8,8
1537907998957336,-15,-3,-2,-5,-5,-24,-7,3
1537907998957336,-22,7,6,2,2,-6,-3,5
1537907998966311,-8,1,0,-2,1,40,-39,-43
1537907998966311,-36,-7,0,-2,0,-4,23,-36
1537907998981271,23,6,0,-1,4,19,39,33
1537907998981271,-27,-8,-6,-6,-15,-58,-23,-30
1537907998987256,-10,5,4,3,1,4,-13,-67
1537907998987256,31,3,-2,-2,-1,17,-31,33
1537907999004211,45,18,10,12,9,1,78,53
1537907999004211,-32,-20,-15,-14,-27,-69,-66,-62
1537907999005209,-1,-2,-4,-1,4,22,-21,-21
1537907999005209,-26,-1,4,7,11,15,8,21
1537907999026153,12,7,-3,-4,-5,0,10,16
1537907999026153,31,16,9,6,14,31,25,37
1537907999028147,1,-11,-3,0,1,4,-2,-3
1537907999028147,-11,0,-4,-4,-6,-9,8,3
1537907999041112,-2,-10,-8,-9,-13,-28,1,-20
1537907999041112,-19,-4,1,0,2,0,-35,-2
1537907999048092,10,0,-2,-3,-3,9,0,5
1537907999048092,-5,-1,-1,-1,6,12,27,-9
1537907999064049,-3,-4,-2,-2,-3,-7,-7,-1
1537907999064049,19,0,-3,1,4,-1,21,7
1537907999065047,-10,3,2,1,1,12,-27,-48
1537907999065047,-13,-3,-1,-1,-4,-5,13,8
1537907999078012,4,1,0,0,-5,-12,1,2
1537907999078012,-10,-4,-1,1,4,8,-4,1
1537907999086988,12,2,-1,-1,1,7,-5,14
1537907999086988,-15,-3,-2,0,1,0,16,-17
1537907999100951,9,-2,-4,-2,-4,-12,-6,14
1537907999100951,2,8,3,2,0,0,0,-1
1537907999107932,-1,-2,1,-1,-1,6,-7,-11
1537907999107932,-5,-2,0,1,2,-3,16,-7
1537907999123889,7,0,0,4,0,-1,-10,-2
1537907999123889,-3,-3,-3,-5,0,-4,-4,1
1537907999125884,-3,1,3,0,-4,2,1,-6
1537907999125884,-6,-2,-3,0,-2,5,5,-1
1537907999137852,7,-1,-1,-8,-2,-5,-6,5
1537907999137852,-9,-4,-5,2,-3,-6,-1,-10
1537907999146828,2,-1,-2,0,1,4,-1,4
1537907999146828,-1,-1,5,12,2,2,4,-3
1537907999160791,-2,-1,-6,-5,1,-3,-2,-4
1537907999160791,0,-2,-3,-20,-6,-4,1,-1
1537907999167772,1,2,-2,-25,-5,5,-4,-6
1537907999167772,0,-1,-4,1,1,-1,3,3
1537907999183730,-2,1,3,12,5,-1,0,1
1537907999183730,-2,-2,2,11,-2,0,-2,0
1537907999185725,1,-3,-1,9,5,6,1,2
1537907999185725,-1,2,-2,-9,-9,-7,1,-2
1537907999205672,2,0,0,5,-2,-4,-4,2
1537907999205672,-2,-4,0,-2,1,0,-1,-3
1537907999213651,1,1,1,5,-1,0,0,-3
1537907999213651,-4,-2,-1,-1,2,2,4,-4
1537907999220632,1,0,-2,-2,-4,-1,-2,-3
1537907999220632,-1,0,0,-1,-1,-1,0,0
1537907999227615,-2,-1,1,2,0,0,-1,-3
1537907999227615,-1,-1,-1,0,3,1,1,0
1537907999243573,3,-2,-1,-5,-3,-2,-2,1
1537907999243573,0,-1,1,1,1,1,1,-3
1537907999250554,2,1,-2,-1,-5,-4,-1,0
1537907999250554,2,0,-2,-3,-1,1,0,-1
1537907999266508,0,-2,0,-1,-1,-2,-1,1
1537907999266508,-3,0,0,2,-1,-1,-1,-2
1537907999267506,-1,1,-1,2,-2,0,0,-1
1537907999267506,-4,-2,-1,-2,0,1,0,0
1537907999281469,0,0,-2,-2,0,-3,0,-1
1537907999281469,-3,0,-1,1,1,1,-1,-2
1537907999289447,-1,-1,-1,0,1,1,-1,-1
1537907999289447,-2,0,0,-2,-1,-1,1,-3
1537907999295431,-3,-2,2,1,1,-1,-1,0
1537907999295431,4,-1,-3,-3,-3,0,0,1
1537907999303410,5,2,-1,0,-1,0,-2,2
1537907999303410,-7,-2,1,0,2,2,0,-2
1537907999310391,-6,0,-1,-1,-2,-1,-1,-4
1537907999310391,-5,-3,-1,-1,-2,-2,-1,0
1537907999326356,-5,-1,-1,0,0,0,0,-4
1537907999326356,2,-3,-2,1,2,1,1,-1
1537907999332333,3,1,-6,-6,-2,7,1,0
1537907999332333,4,3,6,5,12,34,47,48
1537907999341308,16,3,7,4,-10,-63,-17,43
1537907999341308,-23,-1,-3,-6,-8,-8,-29,-55
1537907999355271,-7,-3,-1,-4,-4,-11,-7,-11
1537907999355271,3,1,-4,-3,1,25,4,-32
1537907999364247,12,2,2,4,17,54,46,86
1537907999364247,-3,3,7,8,11,-7,-1,46
1537907999370231,-9,-16,-9,-7,-7,83,8,-47
1537907999370231,7,14,12,11,-8,-85,-37,-81
1537907999393170,-31,0,-3,-8,-19,-55,-9,-93
1537907999393170,11,0,-3,-3,8,73,68,94
1537907999394167,19,2,3,6,9,5,-17,-16
1537907999394167,-23,-20,-19,-18,-3,62,-15,35
1537907999401148,16,1,-2,6,12,-39,57,7
1537907999401148,-60,-12,-9,-17,-52,-110,-126,-92
1537907999415111,39,19,8,8,19,39,51,112
1537907999415111,-5,-5,-2,-6,-3,-5,10,-24
1537907999424087,-19,-5,1,0,22,127,6,15
1537907999424087,44,8,11,13,16,-59,93,65
1537907999438049,15,4,4,3,-19,-48,-66,49
1537907999438049,-32,-20,-12,-9,-22,-56,-61,-92
1537907999447026,-11,-2,-4,0,-4,20,-9,50
1537907999447026,30,9,4,5,9,2,17,-28
1537907999453009,-2,0,4,-4,-4,-6,-5,44
1537907999453009,3,6,5,5,9,-13,18,-28
1537907999460988,14,-4,-1,0,6,-5,-3,28
1537907999460988,-9,-4,-13,-13,-4,62,13,49
1537907999474951,-4,4,3,5,16,22,20,-11
1537907999474951,-6,9,3,2,-6,-27,-10,17
1537907999483927,4,0,1,1,-4,-9,-16,-53
1537907999483927,8,-4,4,1,8,12,3,10
1537907999497890,-35,-15,-7,-8,-16,-52,-55,-105
1537907999497890,14,3,7,7,0,-2,14,72
1537907999506866,-8,0,1,-2,-8,-12,-17,-19
1537907999506866,-1,-4,-3,-2,2,26,-13,-18
1537907999512850,-14,-1,-5,-2,5,23,37,-4
1537907999512850,18,3,1,4,5,5,6,25
1537907999521826,11,2,-1,-3,-10,-24,-23,-15
1537907999521826,-6,-2,-2,-1,2,27,-3,-6
1537907999534792,5,2,0,1,-2,-19,15,-7
1537907999534792,2,-1,-4,-2,-4,-11,-16,-5
1537907999543768,-1,-1,-3,-3,-2,12,3,-3
1537907999543768,1,-2,0,0,-1,1,5,-21
1537907999558728,-2,-2,-2,-3,-6,-17,-4,-15
1537907999558728,2,-1,-1,0,4,20,5,22
1537907999564712,-5,-5,-3,-2,0,9,-1,-6
1537907999564712,0,1,-1,0,-2,-8,-7,-15
1537907999572691,-7,-4,-1,-3,-6,-20,-5,2
1537907999572691,-2,-1,-1,-2,2,20,6,16
1537907999581668,-1,0,2,2,1,-5,-3,-12
1537907999581668,-3,2,0,-2,-2,-13,-13,-13
1537907999594632,-3,0,1,-4,-3,1,8,7
1537907999594632,0,-1,0,0,1,9,10,5
1537907999603609,-4,-1,-4,1,-5,-9,-11,-15
1537907999603609,1,-2,-2,-5,-4,-1,-5,-2
1537907999618568,-3,-3,-2,-2,-2,2,6,3
1537907999618568,0,-1,2,2,-1,5,2,4
1537907999625550,-4,-1,4,19,3,-6,-8,-3
1537907999625550,0,-3,-2,-20,1,3,-1,-3
1537907999632531,-1,1,-6,-4,-2,-5,3,-3
1537907999632531,-2,-3,1,-4,-5,-6,-2,-3
1537907999641506,-2,-1,-1,-7,-7,-1,-4,-1
1537907999641506,1,-1,1,7,0,1,-1,-4
1537907999656465,0,0,-2,1,2,-3,-1,-4
1537907999656465,2,0,-2,0,3,5,0,4
1537907999664445,-1,-2,-2,2,4,7,1,-2
1537907999664445,2,-1,-1,3,-5,-7,-4,-5
1537907999680402,1,-2,-1,-2,-1,-4,-2,-1
1537907999680402,2,-2,0,1,0,5,1,2
1537907999681399,-1,-1,-1,-7,-3,-3,0,-3
1537907999681399,-2,0,0,0,0,-1,0,-1
1537907999692369,-1,0,-2,0,0,1,3,3
1537907999692369,1,-1,-2,-2,-1,2,2,2
1537907999701345,2,3,0,-7,-1,-2,-3,-3
1537907999701345,5,2,1,2,3,2,0,-1
1537907999715308,3,1,2,3,1,2,1,0
1537907999715308,3,-1,0,-3,-1,1,1,1
1537907999730268,1,-1,-2,-4,0,-1,-2,0
1537907999730268,-1,0,0,3,0,0,-1,-3
1537907999739244,-2,1,0,-1,1,-1,0,-1
1537907999739244,-1,2,-2,-2,2,1,-2,-2
1537907999740242,-2,0,-4,-3,-3,-2,0,0
1537907999740242,-3,-1,1,3,3,2,0,-2
1537907999752210,0,-1,0,-5,-4,-5,-4,-1
1537907999752210,2,2,0,-3,-1,-1,-1,1
1537907999761186,-1,-2,1,0,0,1,-1,-3
1537907999761186,0,-2,-4,0,1,-1,-2,1
1537907999775149,-2,-2,-1,-1,-5,-5,-3,-2
1537907999775149,-3,0,-2,-1,-1,-1,-1,1
1537907999784126,-4,-1,-1,-3,-1,-2,-2,-2
1537907999784126,-2,0,-1,-1,-1,-2,-1,-1
1537907999799086,-1,2,0,1,3,0,-1,0
1537907999799086,1,-1,-2,-1,-2,0,1,0
1537907999800083,-1,-4,-1,0,-2,-2,-2,-2
1537907999800083,0,-1,-1,-1,-3,-1,-3,-3
1537907999813048,-1,-1,0,0,-1,-2,0,0
1537907999813048,-1,-1,0,1,0,0,0,0
1537907999822023,-2,-1,-1,-3,0,0,0,-1
1537907999822023,1,1,-1,-2,-5,-4,-2,0
1537907999834989,-1,-2,-2,0,2,1,0,-1
1537907999834989,-4,-2,-2,0,-1,-2,-1,-1
1537907999843965,0,-1,0,-1,-1,1,1,1
1537907999843965,-3,-3,0,2,1,1,-1,-1
1537907999858925,0,0,-1,-2,-5,-2,0,1
1537907999858925,-1,0,0,-1,-2,0,-2,-2
1537907999859922,-1,-1,-2,0,0,1,-1,-1
1537907999859922,-1,-2,-1,-2,-2,-4,0,-1
1537907999872888,-2,-1,1,1,2,0,-1,-2
1537907999872888,0,-2,-1,0,-2,-2,-1,-1
1537907999881863,0,-1,-1,-1,-1,-2,1,-1
1537907999881863,-1,-1,-1,-2,-1,1,-1,0
1537907999894829,-1,0,-1,-2,-1,-1,-2,0
1537907999894829,-1,2,-1,-2,-1,-1,-1,0
1537907999903804,0,-1,-1,0,0,-1,-1,-1
1537907999903804,0,-1,-2,0,1,0,1,-3
1537907999918764,-1,-2,1,-1,-3,0,0,-2
1537907999918764,-1,-1,-1,0,2,-1,-1,-1
1537907999920759,-1,-2,0,0,-1,-2,-1,0
1537907999920759,-1,-2,-1,0,-1,-2,-2,-1
1537907999932727,-1,-2,-3,-1,0,0,-2,-1
1537907999932727,-3,-4,-3,-1,-3,-1,-2,-1
1537907999941703,-1,1,0,0,-1,-2,-1,0
1537907999941703,-1,0,0,0,-1,-1,0,0
1537907999954668,-1,-2,1,0,-1,1,0,-1
1537907999954668,-2,-4,-2,-3,-2,2,0,-29
1537907999963644,8,0,-4,-3,-1,11,14,45
1537907999963644,4,-2,1,0,-4,-20,7,34
1537907999978606,-11,5,0,0,10,28,-56,-57
1537907999978606,-5,2,-2,-2,4,24,46,3
1537907999980600,26,-1,-9,-6,-1,8,77,78
1537907999980600,25,13,8,9,-8,-51,-64,-48
1537907999992568,-55,-16,-6,-9,-38,-93,-83,-67
1537907999992568,57,7,-8,-9,0,69,-1,62
1537908000001552,-12,1,1,6,-2,-35,1,37
1537908000001552,25,0,-9,-11,-3,-27,-20,-7
1537908000015506,-12,9,2,0,-9,-31,-16,-46
1537908000015506,-4,-14,4,6,21,29,52,-34
1537908000024482,-18,0,7,6,7,1,-17,-11
1537908000024482,26,2,-2,-3,11,106,30,72
1537908000038444,5,-1,6,11,19,-43,46,78
1537908000038444,-21,0,4,1,-9,30,-19,60
1537908000054402,-29,-15,-10,-17,-46,-72,-78,-128
1537908000054402,-52,-9,2,5,1,19,-27,-18
1537908000055399,0,-8,-7,-6,-2,39,36,28
1537908000055399,13,8,6,4,11,42,11,0
1537908000061383,20,0,3,2,5,-10,9,15
1537908000061383,-24,-7,-13,-8,-6,-12,5,-27
1537908000075346,11,-6,-3,0,6,43,31,35
1537908000075346,-7,-5,-3,2,-3,-45,-14,-29
1537908000084322,-11,-2,-1,-3,-1,22,-22,-28
1537908000084322,4,-5,-1,-3,-7,-16,10,2
1537908000099282,13,7,5,6,20,47,19,23
1537908000099282,-8,-2,-4,-5,-19,-79,-43,-19
1537908000100279,-6,-1,-5,0,1,12,-12,-20
1537908000100279,-7,-1,0,1,9,17,27,21
1537908000112247,10,-1,-1,-3,-5,-5,-2,-21
1537908000112247,-10,0,0,-2,-7,-26,-13,-2
1537908000121223,4,1,0,0,10,24,7,8
1537908000121223,-2,-1,0,-1,-2,0,8,-15
1537908000135186,2,-2,-1,-3,-5,-4,-4,-3
1537908000135186,4,-3,-2,0,-1,-6,-9,2
1537908000144162,4,1,2,2,7,19,9,9
1537908000144162,-1,0,1,-1,-6,-13,-2,-13
1537908000158125,15,1,-4,-3,-3,5,7,15
1537908000158125,-4,-2,-3,-1,1,-3,-2,7
1537908000165107,4,1,3,0,2,0,-4,-9
1537908000165107,-3,-1,0,1,1,-2,4,0
1537908000189043,6,2,-2,-3,-3,6,4,8
1537908000189043,-5,0,3,1,1,-7,-4,-7
1537908000190041,-4,0,6,16,3,1,-3,-3
1537908000190041,-1,1,-1,5,4,1,3,3
1537908000203006,-2,-2,-5,-36,-6,3,3,3
1537908000203006,-9,0,-2,6,-4,-11,-8,-7
1537908000209987,1,4,1,3,4,3,2,8
1537908000209987,-6,0,-1,-2,3,4,4,4
1537908000226941,1,0,1,-4,-10,-7,-4,-6
1537908000226941,-5,0,1,0,2,-5,-4,-1
1537908000227940,2,1,-4,-1,0,6,1,5
1537908000227940,-1,-1,2,17,5,4,2,-3
1537908000256862,-3,-1,1,12,8,5,0,0
1537908000256862,0,-1,-1,-3,-6,-6,-4,-1
1537908000257861,-1,-2,0,6,1,4,0,3
1537908000257861,0,2,-1,-8,-7,-5,0,-3
1537908000262847,1,-1,0,3,-1,2,1,2
1537908000262847,-2,-2,0,1,4,0,2,-1
1537908000271823,1,0,-3,-11,-7,-4,-2,-4
1537908000271823,-1,-1,-1,-11,-3,-4,-1,-2
1537908000286781,-1,-1,0,8,2,2,-1,0
1537908000286781,-1,0,-1,3,-2,-1,-2,-1
1537908000287779,1,-2,-1,-9,-3,-1,-2,-1
1537908000287779,2,0,0,-2,-3,0,-1,-1
1537908000308722,1,0,3,8,2,1,1,2
1537908000308722,-1,-1,-2,-7,-3,-4,-3,-4
1537908000310717,3,-1,-2,-6,1,3,2,1
1537908000310717,0,-2,0,0,-2,-1,1,1
1537908000322685,3,-1,-1,2,2,1,1,-1
1537908000322685,-1,0,-1,-6,0,-1,-1,0
1537908000331662,1,2,-2,-3,-4,-3,-2,0
1537908000331662,-2,-3,0,2,2,2,-1,-2
1537908000346621,-3,-2,-1,-1,-3,-1,-1,-1
1537908000346621,-1,-2,-2,-2,-4,-1,-1,0
1537908000347619,-2,-1,0,2,3,3,0,-3
1537908000347619,-4,0,-1,-3,1,-2,-1,-1
1537908000368563,-1,0,-1,1,1,0,1,0
1537908000368563,-1,-1,-2,-3,-6,-2,0,-1
1537908000370558,-3,-3,0,-1,-1,0,-2,-1
1537908000370558,-2,0,0,0,0,1,-1,-2
1537908000382526,0,0,-1,2,-1,1,1,-1
1537908000382526,-2,1,1,0,-2,-3,0,-1
1537908000391504,1,-2,-3,-3,-1,-2,-1,0
1537908000391504,-1,0,-1,0,2,1,1,-2
1537908000406463,1,-2,-3,-2,-1,-2,-1,1
1537908000406463,-1,-2,0,0,2,-1,-2,-1
1537908000407460,1,2,-1,-3,-3,-1,0,2
1537908000407460,1,0,-1,0,-1,-1,0,0
1537908000429400,0,-3,-1,1,-1,0,-1,0
1537908000429400,-1,-2,-2,-1,3,2,0,0
1537908000430398,-2,1,-2,-4,-4,-3,-1,0
1537908000430398,-2,-1,-2,-2,-2,-3,-3,-2
1537908000442365,-1,0,0,-2,-1,-1,-2,-1
1537908000442365,-2,0,0,-1,0,0,-1,-3
1537908000451341,-2,-2,-1,2,-1,1,0,-2
1537908000451341,-1,-2,-1,-2,-4,-2,1,-1
1537908000466301,0,-2,-2,1,2,-1,-1,-2
1537908000466301,1,1,-1,-2,-3,-2,1,0
1537908000468295,-1,-2,-1,-1,1,1,0,-1
1537908000468295,-1,-1,0,-1,-1,0,-1,-2
1537908000489239,0,-1,-1,0,0,0,-1,-1
1537908000489239,-1,-2,-2,0,-1,-2,0,1
1537908000490237,-1,-1,-2,0,1,-2,0,-2
1537908000490237,-1,-1,-1,-1,-3,-2,0,0
1537908000504199,1,-2,0,-1,-1,0,1,1
1537908000504199,-1,-1,-1,-1,0,-1,-1,-2
1537908000510183,-2,-1,1,0,0,-1,-1,-1
1537908000510183,-1,-2,-1,0,1,-1,-1,-1
1537908000526141,-2,-2,0,0,-2,-1,0,0
1537908000526141,0,0,-2,-2,-2,0,-2,0
1537908000528136,-1,-1,-2,0,0,2,1,-2
1537908000528136,-1,1,-2,0,0,-1,-2,0
1537908000549080,-2,-1,0,-2,-2,0,0,-1
1537908000549080,0,-2,-2,-5,-3,-2,0,1
1537908000550077,-2,-1,0,0,0,-2,-1,-1
1537908000550077,-1,-1,-1,0,-1,0,0,-2
1537908000563042,0,0,-2,0,0,-2,-2,-1
1537908000563042,-2,1,0,1,0,1,-1,-2
1537908000570024,0,-1,-2,-2,-1,0,0,-1
1537908000570024,0,-2,-1,-2,-1,-1,-1,-1
1537908000586979,-1,-1,-1,-2,-2,-2,-1,0
1537908000586979,-3,0,0,-1,-3,-2,0,-2
1537908000587977,0,-1,0,-1,-1,-1,-1,-1
1537908000587977,-1,0,0,1,-1,1,-1,0
1537908000608921,0,0,-1,-2,0,0,2,0
1537908000608921,0,-1,0,0,0,0,-1,0
1537908000610915,-1,-1,0,0,-1,2,-1,0
1537908000610915,0,0,0,-1,0,-1,1,-1
1537908000622884,0,-3,-1,2,0,-1,-1,-1
1537908000622884,0,1,-3,0,0,-4,-1,-2
1537908000631861,0,1,-2,1,0,1,0,0
1537908000631861,-1,0,-1,-2,-3,-3,-2,-1
1537908000646821,-2,0,0,0,2,2,-1,-3
1537908000646821,0,0,-1,-3,-4,-3,-1,-1
1537908000647818,-1,-1,-1,-2,1,-1,-2,0
1537908000647818,-1,-1,0,-1,1,0,-1,0
1537908000668760,1,1,-1,-2,-1,-1,0,-1
1537908000668760,-1,-2,-1,1,1,1,0,-1
1537908000670755,-1,-3,0,-1,-2,-2,-1,-1
1537908000670755,0,-1,0,-1,2,0,-2,-2
1537908000691698,0,-1,-1,-2,-4,-3,-2,2
1537908000691698,0,-1,-1,1,1,1,-1,-1
1537908000692696,0,-1,0,1,-1,-1,0,0
1537908000692696,-2,-2,-1,-2,1,0,1,1
1537908000706658,-1,-3,0,-2,-1,-2,-2,-2
1537908000706658,0,-2,0,-2,0,-1,-3,-1
1537908000707656,-1,0,-1,-3,-4,-3,-2,0
1537908000707656,0,0,-2,1,1,0,0,0
1537908000728600,-2,-1,-1,-1,-2,-2,-1,-1
1537908000728600,-2,0,-1,1,3,1,1,0
1537908000730595,0,0,0,-3,-4,-3,-1,-1
1537908000730595,0,-2,-1,-1,-3,1,-2,0
1537908000742563,-2,0,-1,-1,2,1,0,1
1537908000742563,-1,0,-1,3,1,2,0,0
1537908000751539,-2,-1,-2,0,1,-2,0,-1
1537908000751539,0,-2,0,-2,-1,-3,-1,0
1537908000766499,0,-1,1,1,-1,-1,-1,1
1537908000766499,1,0,-1,0,0,-1,-1,0
1537908000767497,-1,0,-1,-1,1,0,0,0
1537908000767497,-1,-1,-3,-2,-3,-3,-1,-1
1537908000789438,-1,-3,-2,-2,-1,-1,-2,-1
1537908000789438,-1,-2,1,-2,-1,-2,-1,-21
1537908000790436,2,0,-2,1,1,-1,-1,32
1537908000790436,8,1,0,0,11,46,31,46
1537908000802404,-2,-1,-4,0,4,30,17,-73
1537908000802404,-2,-2,1,1,-13,-70,-32,68
1537908000811380,-8,-14,-14,-16,-28,-74,-90,-59
1537908000811380,0,12,4,5,15,56,46,16
1537908000826339,7,4,-4,-9,-15,-50,-7,-11
1537908000826339,3,0,5,11,19,-24,-19,-13
1537908000828334,-17,10,5,1,-11,22,20,25
1537908000828334,-2,-14,-3,-2,-1,-13,6,-31
1537908000849277,-19,-6,-12,-13,-27,-64,-76,-57
1537908000849277,16,16,4,-1,4,47,-13,-16
1537908000850275,52,2,-5,-4,0,9,-7,-11
1537908000850275,14,15,3,3,14,33,50,-54
1537908000862243,7,5,6,9,18,20,29,104
1537908000862243,-13,-14,-6,-3,-4,30,39,12
1537908000877202,-29,-14,1,5,13,7,11,17
1537908000877202,11,-9,-1,0,-8,-5,1,40
1537908000886179,-6,-5,7,2,-2,1,-10,-58
1537908000886179,9,5,-6,-8,-13,-56,-14,15
1537908000892162,-22,-1,1,-3,-1,30,5,-10
1537908000892162,-4,4,3,3,-5,-32,-18,2
1537908000909117,-7,-1,-1,0,-4,-15,-14,17
1537908000909117,-3,-7,0,-5,2,36,15,-13
1537908000910115,-1,0,3,6,10,21,36,8
1537908000910115,-26,-7,-5,-4,-12,-44,-51,-10
1537908000922082,3,-1,-2,-1,5,33,6,8
1537908000922082,1,3,0,0,3,16,17,-3
1537908000931059,11,3,1,3,1,-17,-5,2
1537908000931059,-11,0,-3,-5,-10,-18,-26,-10
1537908000946019,7,0,-2,1,5,11,16,17
1537908000946019,-5,-1,1,-1,-2,6,7,-6
1537908000953000,-6,-3,-2,-1,2,-12,-2,-7
1537908000953000,4,-3,-1,-2,-2,2,-11,-1
1537908000968959,2,2,-1,1,5,15,18,17
1537908000968959,-9,-3,-1,-3,-6,-8,-12,-8
1537908000970954,1,0,1,0,2,9,5,-8
1537908000970954,8,1,-1,-2,-2,-2,-3,0
1537908000982921,6,-4,0,1,-2,-4,-2,8
1537908000982921,-2,-1,-3,-3,-4,-5,-3,-6
1537908000991898,11,3,0,2,2,5,9,3
1537908000991898,-2,-6,-1,-3,-2,-6,-6,-4
1537908001006858,-2,-2,-1,-1,0,-2,0,6
1537908001006858,-1,-3,-1,-1,0,9,2,-4
1537908001013839,3,4,0,0,4,2,8,5
1537908001013839,-4,-3,-2,-1,-2,-10,-12,-4
1537908001028800,-2,1,0,1,3,10,2,3
1537908001028800,-2,-2,0,0,-1,5,2,-4
1537908001030795,-2,-1,-1,-3,-6,-7,-3,-1
1537908001030795,-6,0,-2,-1,-1,-5,-5,-3
1537908001051737,-2,-2,0,0,-1,2,4,4
1537908001051737,-2,4,-2,-1,0,3,2,-1
1537908001052734,-4,-2,0,1,-1,-5,-1,-2
1537908001052734,-1,-3,-1,-2,-3,-2,-3,0
1537908001065699,-3,-2,-1,1,1,1,3,2
1537908001065699,-1,-2,-2,-1,-1,-3,-4,-1
1537908001072680,0,2,2,1,2,2,0,-3
1537908001072680,1,0,-2,-2,-5,-4,-2,2
1537908001096617,-1,-3,0,0,2,-1,-1,1
1537908001096617,-3,-4,0,-1,-1,0,-1,-2
1537908001102601,-1,-3,-1,1,2,2,3,0
1537908001102601,-1,-1,-1,0,0,-1,-2,0
1537908001112574,-3,0,-1,1,-1,-1,-1,-1
1537908001112574,-2,-3,-1,1,3,3,2,-2
1537908001114568,-2,-2,-1,-3,-6,-3,2,-1
1537908001114568,-2,0,-2,-4,-2,-3,-4,-1
1537908001125538,0,0,0,-1,-3,2,1,1
1537908001125538,0,-1,-3,-3,-2,-2,-3,1
1537908001132520,1,0,1,4,3,2,0,1
1537908001132520,1,-1,-2,0,-2,-1,-1,-1
1537908001148477,0,0,-3,-3,-4,0,2,-2
1537908001148477,-1,-1,1,1,0,0,1,-2
1537908001150472,-3,-4,-3,-2,0,-2,-1,-1
1537908001150472,-1,3,0,1,1,-1,1,1
1537908001171416,1,2,0,-1,-1,0,0,1
1537908001171416,1,-1,-3,0,-2,0,-1,-1
1537908001172414,-1,-3,-3,0,-1,1,-1,-1
1537908001172414,-2,-1,-1,0,-1,-1,-1,-2
1537908001185380,1,0,-1,-2,0,-1,0,-1
1537908001185380,-1,-2,0,-1,-3,-3,-1,0
1537908001194356,2,0,0,-2,-2,-1,-1,-1
1537908001194356,0,0,0,0,1,0,1,-2
1537908001209316,0,1,0,-2,1,-1,-1,0
1537908001209316,-1,-3,-2,-3,-3,-1,1,-1
1537908001210315,-3,-1,-1,-1,0,0,0,-2
1537908001210315,-1,0,1,0,-2,-1,-3,0
1537908001231257,-2,-2,-2,-1,-1,-1,-1,0
1537908001231257,-1,1,-1,-1,-2,0,0,0
1537908001233252,-3,-1,-1,1,0,-1,-2,0
1537908001233252,-3,-3,0,1,0,-2,-1,-1
1537908001245220,1,-1,-1,-2,-2,-3,-1,0
1537908001245220,-1,-1,-1,-1,0,-2,0,-2
1537908001254197,-1,-1,0,0,-1,0,0,1
1537908001254197,-1,1,-3,0,0,0,0,-1
1537908001269157,-1,-1,0,1,0,1,-1,0
1537908001269157,-2,-1,-1,1,1,0,0,-1
1537908001270154,1,0,-1,-3,-2,1,-2,-2
1537908001270154,-3,-4,1,-1,1,0,1,-2
1537908001291099,-1,-1,-1,-5,-5,-4,-3,0
1537908001291099,5,8,2,0,-1,-2,0,1
1537908001293093,-1,-2,0,-1,1,0,-2,-1
1537908001293093,0,-2,-2,1,-3,0,-2,0
1537908001305060,-2,-4,-1,1,1,1,-1,-3
1537908001305060,-3,-1,-1,-1,0,-1,-1,-2
1537908001314036,-1,1,0,0,-1,-2,-2,-1
1537908001314036,-2,1,-1,-2,-4,-6,-2,-1
1537908001328995,0,-1,0,1,1,1,0,-2
1537908001328995,-1,-2,-1,-2,0,-1,0,1
1537908001334979,-1,2,-1,-1,-2,0,-1,0
1537908001334979,-1,-1,0,-1,0,-1,-2,-2
1537908001350936,0,0,0,1,0,-1,0,0
1537908001350936,-1,-2,-1,-1,2,0,0,-2
1537908001352931,-1,-3,-3,-1,-1,-3,0,-1
1537908001352931,0,1,-1,-2,-1,-1,0,-1
1537908001365896,1,1,0,0,-4,0,0,0
1537908001365896,0,-3,-3,0,-2,0,-1,-2
1537908001372877,-2,-3,1,0,-1,-1,-1,-2
1537908001372877,3,4,-1,-3,-5,-2,0,0
1537908001387837,-2,-2,-2,0,0,-1,0,0
1537908001387837,-2,-1,-2,0,-2,-2,-2,0
1537908001396814,-4,-8,-3,-2,3,12,1,-31
1537908001396814,9,11,1,2,3,7,29,45
1537908001411774,-1,-7,-4,-4,3,42,6,3
1537908001411774,1,5,15,11,7,-2,-3,-36
1537908001412771,9,-1,-1,2,-1,-15,61,89
1537908001412771,28,1,4,3,4,79,-17,86
1537908001425737,-18,-5,-7,-3,8,-53,-31,-98
1537908001425737,15,7,-6,-8,-14,-44,-60,13
1537908001439700,-32,-19,-15,-11,-2,35,-22,-48
1537908001439700,-15,4,-5,-7,-6,-45,-5,-112
1537908001448676,-7,0,0,-6,-12,0,83,110
1537908001448676,8,-3,-7,-6,-30,-64,-121,-59
1537908001450671,43,7,4,0,19,99,103,106
1537908001450671,-19,-3,1,4,10,-33,34,-94
1537908001471615,44,16,10,7,10,97,16,-22
1537908001471615,-61,-14,-6,-4,-4,-64,-37,-116
1537908001472612,8,13,3,2,-10,-34,-35,55
1537908001472612,10,-11,-8,-6,0,45,10,52
1537908001485584,-5,-5,-3,2,3,-14,22,4
1537908001485584,-1,-6,2,3,9,45,67,49
1537908001493556,-8,-1,2,3,-3,-10,-27,-65
1537908001493556,-7,-10,-5,-4,-3,-23,-17,-5
1537908001508515,-11,-2,-4,-2,-5,-23,-26,-8
1537908001508515,18,-1,-1,-1,2,30,30,38
1537908001510510,-9,1,1,0,-5,-26,-32,-27
1537908001510510,-2,-1,0,-1,-5,-18,-1,3
1537908001531453,-7,-6,-4,-3,-9,-23,-24,4
1537908001531453,-2,0,0,-2,5,29,24,22
1537908001532451,-4,-1,1,0,-2,-25,-8,-35
1537908001532451,-1,0,3,4,-1,-5,-9,2
1537908001545416,-5,-2,-1,1,0,-2,-16,-12
1537908001545416,0,-7,-7,-5,3,13,24,16
1537908001554392,2,5,0,-2,0,-10,-7,-12
1537908001554392,0,-1,-5,-2,-3,-1,-10,4
1537908001569352,3,1,0,0,0,-5,-10,4
1537908001569352,8,0,-2,0,3,11,24,15
1537908001570349,3,-3,-2,-3,-8,-16,-11,-8
1537908001570349,-3,-4,1,1,-1,3,-7,1
1537908001591293,1,0,0,0,-2,-9,-3,-5
1537908001591293,3,6,4,3,3,9,15,11
1537908001593288,-7,-1,-1,-1,-1,-5,-8,-15
1537908001593288,-4,0,1,-2,-1,-1,-2,1
1537908001614232,-2,2,0,-1,-1,-3,-2,2
1537908001614232,-2,-2,-2,1,2,10,8,10
1537908001615230,-5,1,1,2,3,-1,-6,-6
1537908001615230,-5,-2,-2,-2,-4,-5,-2,2
1537908001629192,-4,-2,0,0,-1,-6,-8,0
1537908001629192,-2,0,-2,-1,1,5,4,6
1537908001630191,-1,-1,-3,0,-2,-5,-1,-8
1537908001630191,0,-2,-1,-3,-2,-2,-2,0
1537908001651135,1,1,-1,0,1,-3,-2,-1
1537908001651135,-2,-1,0,-2,0,2,5,2
1537908001653131,-2,-1,-3,-4,-2,-3,-2,-4
1537908001653131,-6,-3,-2,-2,-5,-3,-3,-2
1537908001665098,0,4,3,2,-1,0,-1,2
1537908001665098,0,-1,-2,1,0,0,3,3
1537908001674075,3,3,3,3,0,-3,-2,-2
1537908001674075,-2,-1,-2,-3,-3,0,-3,0
1537908001689033,-1,-2,-2,-1,-2,-4,-2,-2
1537908001689033,1,-2,-1,-1,0,3,2,1
1537908001690031,0,-2,0,0,1,-2,-2,-3
1537908001690031,-1,-2,-2,1,3,-2,-1,-1
1537908001710974,2,5,0,0,-2,-3,0,1
1537908001710974,0,1,-1,-1,-1,1,-1,2
1537908001712969,-1,-3,-2,-2,-2,-3,-1,-1
1537908001712969,2,0,1,1,1,-1,-1,1
1537908001724936,-1,-4,-1,-2,0,0,-1,-1
1537908001724936,1,-1,2,-2,-3,-1,2,0
1537908001733913,-1,0,-1,-2,0,-2,-1,-2
1537908001733913,0,-1,-1,1,0,-2,-1,-2
1537908001747875,2,-1,0,0,1,1,-2,0
1537908001747875,0,0,0,-3,-3,-1,1,0
1537908001756851,-3,-4,0,-1,-1,0,-1,-3
1537908001756851,2,1,0,0,0,0,1,2
1537908001770815,-1,-3,-1,-2,-1,-1,-1,0
1537908001770815,1,-4,-1,1,1,1,1,0
1537908001771812,-2,2,-1,-1,-3,-2,-1,0
1537908001771812,-2,-1,0,0,0,0,-1,-1
1537908001792756,-1,1,-2,-1,-2,-1,-2,0
1537908001792756,-1,0,-2,-1,-1,0,0,1
1537908001793753,-3,-1,-1,1,0,0,-1,-2
1537908001793753,-1,-1,2,0,0,-1,-1,-1
1537908001808713,-3,-2,-1,-1,-1,-1,0,-1
1537908001808713,-3,-3,-1,-1,-3,-3,-1,-1
1537908001808713,-1,-1,0,-1,0,0,-2,-2
1537908001808713,1,-1,-4,-2,-3,-3,-1,-1
1537908001830655,-3,-4,1,0,0,0,-1,-2
1537908001830655,1,1,-2,-2,-2,0,1,0
1537908001831652,-2,-1,-2,0,1,0,1,-1
1537908001831652,-3,-1,0,0,1,-1,0,-1
1537908001853592,-3,0,-2,-3,-2,-3,-2,0
1537908001853592,-1,0,-2,-1,2,0,-2,0
1537908001853592,1,-1,1,0,-2,-1,-1,0
1537908001853592,0,-1,-1,-1,0,0,0,-1
1537908001868553,-2,-3,0,-1,0,-1,-2,0
1537908001868553,-1,-1,2,-2,-1,-1,-1,-1
1537908001868553,0,-1,-1,-4,-1,-3,0,0
1537908001868553,0,1,0,1,1,-1,-1,-1
1537908001890494,-2,-6,-5,-1,-1,-1,-1,-3
1537908001890494,4,8,5,2,4,3,2,2
1537908001891492,0,0,1,0,0,-1,-2,-1
1537908001891492,1,0,-1,-1,-1,0,0,0
1537908001913433,-1,-3,1,1,-2,-2,6,2
1537908001913433,-3,-9,-7,-2,-2,26,10,-26
1537908001913433,5,1,3,1,3,0,14,63
1537908001913433,24,2,3,0,0,-20,23,15
1537908001928393,-25,-7,-7,-6,-1,55,-5,-1
1537908001928393,10,0,1,-3,-19,-103,-53,-36
1537908001929390,5,-2,0,0,41,111,44,73
1537908001929390,-2,12,19,23,-8,-109,39,-100
1537908001950334,-30,-20,-26,-28,-37,71,-53,-85
1537908001950334,1,2,7,10,30,96,66,45
1537908001951332,-44,4,-10,-10,-31,-66,-88,-61
1537908001951332,27,12,-1,-2,26,53,64,127
1537908001973274,60,19,11,13,-1,-59,34,-19
1537908001973274,-25,-3,-2,-3,-6,-45,-83,-18
1537908001974272,28,2,-6,-3,7,-2,37,28
1537908001974272,0,-3,-4,-1,9,43,33,67
1537908001996214,-25,-7,1,3,12,6,-20,-54
1537908001996214,9,-3,-4,-5,-6,-3,8,15
1537908001997211,-3,-5,-2,1,-5,-16,-2,-26
1537908001997211,-33,-17,-13,-7,-3,16,-17,-18
1537908002011171,20,11,3,1,4,1,18,35
1537908002011171,1,-1,1,3,5,-2,17,1
1537908002011171,5,-4,2,-1,-10,-19,-9,-26
1537908002011171,-16,-7,-4,-4,-12,17,-32,-32
1537908002033114,-6,0,1,2,7,-26,3,25
1537908002033114,-5,0,-5,-5,-7,-12,-8,-4
1537908002034112,5,3,-2,2,-8,1,7,3
1537908002034112,-6,-3,-3,-5,-6,-3,-32,-31
1537908002048074,2,3,5,1,2,-25,-1,20
1537908002048074,6,0,-3,-3,-5,9,18,12
1537908002049073,-3,-4,1,-1,-2,3,0,-22
1537908002049073,2,2,0,2,1,-1,-18,-17
1537908002071014,4,0,0,1,0,-9,0,21
1537908002071014,1,2,3,2,1,17,10,7
1537908002071014,-2,-3,1,2,4,-6,-3,-9
1537908002071014,3,6,2,-2,-6,-6,-21,-11
1537908002092953,4,-1,1,0,-2,-2,6,23
1537908002092953,2,-4,-4,-4,-2,3,2,-3
1537908002093950,-2,-5,-2,0,2,-4,1,-6
1537908002093950,5,5,1,-3,-9,-4,-9,-1
1537908002107913,-4,-2,1,0,3,0,1,8
1537908002107913,-4,-1,-1,1,2,3,4,0
1537908002108910,-3,-2,0,-3,-6,-6,-4,-3
1537908002108910,-9,-6,-2,-1,2,11,-6,-7
1537908002130851,-6,1,0,0,1,-4,4,8
1537908002130851,-3,-1,-2,-3,-3,-4,-4,-1
1537908002131849,-1,0,-1,-1,-2,2,2,1
1537908002131849,-2,-4,-4,-2,-1,0,-6,-6
1537908002152792,0,1,-1,-1,-2,-6,1,5
1537908002152792,-2,-3,-1,-1,-2,1,3,1
1537908002153790,0,-1,1,1,0,1,-2,-4
1537908002153790,-3,-3,-1,1,3,-1,-5,-3
1537908002167753,-1,-2,-1,-2,-3,-4,-2,3
1537908002167753,-2,-1,-3,-1,-1,6,2,1
1537908002168750,0,-2,0,-2,-4,-5,-4,-3
1537908002168750,-3,-3,-2,-4,0,-4,-7,-4
1537908002190692,0,-1,-4,-1,0,0,2,5
1537908002190692,-1,-4,-4,-7,-6,-2,0,0
1537908002191691,1,0,-1,-1,0,-2,0,-3
1537908002191691,-2,-4,-2,-2,-1,-1,-2,-2
1537908002213631,-2,-3,-2,0,1,0,0,0
1537908002213631,2,5,3,1,-1,-3,0,2
1537908002213631,0,1,-1,0,1,0,-1,-1
1537908002213631,-1,-2,-1,1,-1,1,-2,-2
1537908002228592,1,1,0,-3,-6,-6,-2,2
1537908002228592,-1,-1,-4,-2,-1,-2,-1,0
1537908002228592,0,-1,1,-1,-2,-2,0,-1
1537908002228592,1,0,-1,-2,-1,-1,-1,-2
1537908002250533,3,1,1,0,3,2,0,0
1537908002250533,1,-2,0,2,1,1,1,-1
1537908002251531,1,2,0,-3,-3,-3,-1,-1
1537908002251531,-1,-3,-3,-4,-5,-1,-2,-1
1537908002273471,-2,0,1,1,1,1,2,1
1537908002273471,-2,2,-1,0,0,2,0,-1
1537908002273471,-1,-1,1,1,2,0,-2,-2
1537908002273471,-2,0,-1,1,1,0,-1,-2
1537908002288431,-2,-2,-1,-2,0,-2,0,0
1537908002288431,0,0,-1,1,0,0,-3,-1
1537908002289429,-3,-3,-1,0,-1,-1,-1,0
1537908002289429,2,3,2,-1,-1,1,-1,1
1537908002310373,-2,1,-1,-1,-1,1,6,-1
1537908002310373,0,-1,-2,-1,0,-3,-6,-2
1537908002311370,0,-1,-3,-2,-2,1,0,-1
1537908002311370,0,0,-1,0,-2,5,7,3
1537908002333310,-1,-3,-4,1,-2,-8,-9,-5
1537908002333310,0,-2,0,0,0,-4,9,0
1537908002334308,1,1,0,-1,-2,-6,-3,-3
1537908002334308,0,-1,0,-1,1,0,-8,-4
1537908002348270,1,1,0,-4,-1,2,2,1
1537908002348270,0,-3,-1,-1,-3,-1,4,0
1537908002349268,-1,-1,0,-1,0,4,2,1
1537908002349268,-4,-3,-4,-4,0,-3,4,-2
1537908002370211,-3,-2,0,1,2,0,-1,2
1537908002370211,-2,-2,-1,1,-1,0,-2,-2
1537908002371209,0,1,-1,-1,-1,-3,0,0
1537908002371209,-4,-5,-1,1,0,-1,-5,-2
1537908002393151,4,5,2,0,-1,-1,-1,0
1537908002393151,-4,-7,-6,-4,-3,-2,-5,-2
1537908002394149,4,6,1,1,4,8,7,2
1537908002394149,2,2,-2,-1,2,10,-10,-8
1537908002408111,2,-4,-1,4,9,59,55,47
1537908002408111,-11,-6,-8,-6,-28,-83,4,18
1537908002409110,-8,-2,-2,-4,23,89,-17,-88
1537908002409110,-1,1,-4,3,-17,-58,11,-26
1537908002431050,-38,-12,-15,-21,-52,-21,-71,-84
1537908002431050,15,11,6,8,45,102,-22,-104
1537908002431050,-34,-13,-8,-5,-24,-37,63,89
1537908002431050,-9,4,-3,-12,-6,-32,38,-45
1537908002452990,64,22,17,16,38,58,-92,-45
1537908002452990,6,-12,-15,-17,-46,-105,-17,55
1537908002453988,6,10,6,7,9,43,-28,-51
1537908002453988,25,4,8,11,16,49,47,29
1537908002467950,-60,-12,-7,-2,0,-19,87,19
1537908002467950,21,15,11,8,24,68,-13,60
1537908002468947,32,19,6,11,30,97,38,-68
1537908002468947,-16,-5,-1,1,-15,-82,3,17
1537908002490889,-23,-7,-2,-5,-11,-16,-9,-6
1537908002490889,-14,-6,-1,-1,4,20,22,8
1537908002490889,-8,-6,-5,-6,-23,-56,-7,35
1537908002490889,2,-6,-3,-3,8,64,-10,11
1537908002512830,21,1,0,2,7,-15,14,20
1537908002512830,-7,5,4,5,-1,-27,12,-6
1537908002513828,5,-8,-2,-2,-4,-13,-22,20
1537908002513828,1,2,4,-1,2,5,-29,-10
1537908002539758,8,1,-3,-3,-3,-23,-1,-1
1537908002539758,-7,-4,-5,-3,-7,9,-10,-9
1537908002540756,-6,-3,-2,-2,-5,-30,-15,-3
1537908002540756,0,0,-1,-1,1,9,-17,-5
1537908002542750,5,0,-1,2,-1,-15,9,16
1537908002542750,1,1,3,1,6,26,11,-11
1537908002553721,11,-1,-3,-2,-3,-26,-3,10
1537908002553721,1,-6,-3,-2,-3,-3,-7,7
1537908002554719,-3,-2,0,1,2,0,-1,2
1537908002554719,-2,-2,-1,1,-1,0,-2,-2
1537908002555716,0,1,-1,-1,-1,-3,0,0
1537908002555716,-4,-5,-1,1,0,-1,-5,-2
1537908002560702,4,5,2,0,-1,-1,-1,0
1537908002560702,-4,-7,-6,-4,-3,-2,-5,-2
1537908002561700,4,6,1,1,4,8,7,2
1537908002561700,2,2,-2,-1,2,10,-10,-8
1537908002566686,11,6,6,3,2,14,0,11
1537908002566686,-1,-3,-4,-1,-1,-2,1,-14
1537908002574665,-3,-4,0,-2,-3,-22,-5,2
1537908002574665,-6,-1,-1,-5,-5,11,-13,6
1537908002581646,-5,-5,-3,-1,3,0,3,-2
1537908002581646,-3,1,0,-1,0,1,1,-8
1537908002587630,-6,-2,-1,-1,-3,-16,-4,8
1537908002587630,-1,-1,0,-2,4,17,-2,4
1537908002602590,3,0,-1,0,0,-3,4,5
1537908002602590,-7,-2,-2,0,1,-5,4,-2
1537908002609571,1,-1,-1,-3,-3,-2,-4,5
1537908002609571,0,0,2,3,6,6,-5,-2
1537908002625528,0,0,0,0,2,-4,0,2
1537908002625528,-5,-4,-2,-7,-5,0,-4,-3
1537908002632510,-2,-4,-6,-2,-3,-6,-5,-1
1537908002632510,0,2,-2,-9,-9,0,-6,-1
1537908002641486,-2,-4,-4,-6,-2,-2,0,2
1537908002641486,4,0,1,3,3,7,4,-2
1537908002647470,2,1,2,-1,1,-4,-1,3
1537908002647470,-3,0,0,2,2,-1,-2,0
1537908002662430,-1,0,2,1,0,3,0,1
1537908002662430,-3,0,-1,1,0,-1,0,-3
1537908002670409,-1,1,2,4,1,-3,-1,0
1537908002670409,-2,-1,0,1,3,3,-2,1
1537908002685369,1,0,0,-4,-2,-1,-1,-2
1537908002685369,1,0,-1,-2,0,-1,-1,-2
1537908002686367,0,-3,-4,-4,-2,-5,-1,1
1537908002686367,0,0,-1,-1,-2,3,-1,-1
1537908002701327,4,3,2,2,0,-1,-1,0
1537908002701327,-2,-5,0,-2,1,0,0,-1
1537908002707310,2,4,1,0,0,-2,-3,2
1537908002707310,1,-2,-1,1,2,-1,-2,-1
1537908002722270,-1,0,-3,-3,-1,-2,-1,0
1537908002722270,0,1,-1,-2,-3,0,-1,-1
1537908002730250,0,-1,0,-1,-6,-3,-3,-2
1537908002730250,0,-2,-1,-2,-1,0,-1,-2
1537908002746207,2,2,2,-1,-1,-2,0,0
1537908002746207,3,0,-1,0,1,1,1,0
1537908002746207,1,-1,-3,0,0,-2,-1,0
1537908002746207,0,0,-1,0,0,-1,-2,0
1537908002760169,-3,-4,-4,-1,-1,-1,0,-2
1537908002760169,-2,0,-2,1,0,-1,-2,-3
1537908002767150,0,-3,0,0,-3,-3,0,0
1537908002767150,-1,0,-1,-2,-3,0,-2,1
1537908002782110,-2,-2,0,-1,1,0,0,-2
1537908002782110,-2,-1,0,-2,-2,0,-1,0
1537908002790089,-3,1,-1,-2,-3,-3,-3,0
1537908002790089,-1,0,0,2,0,2,0,0
1537908002806046,-3,-3,0,-1,-1,-1,-1,-1
1537908002806046,-3,-1,-1,0,0,1,1,0
1537908002806046,-2,-4,-2,-2,0,-1,0,-1
1537908002806046,0,1,0,2,-1,-1,-1,-2
1537908002820009,1,-2,-1,-5,-3,-3,0,2
1537908002820009,-1,1,0,0,0,1,1,-1
1537908002826990,-1,0,2,2,4,0,-2,0
1537908002826990,1,-1,-1,-2,-2,0,0,0
1537908002843945,-2,-3,-3,0,-2,-1,0,-1
1537908002843945,1,2,1,-1,-1,0,1,0
1537908002849929,2,2,1,-1,-1,-2,-1,2
1537908002849929,-1,-3,-6,-1,-1,-1,-2,-2
1537908002865887,-2,-1,0,-1,-2,-2,-2,-1
1537908002865887,-1,-3,-1,-1,-3,-3,-2,-2
1537908002866884,-2,-1,0,-1,0,-1,-1,-2
1537908002866884,0,1,0,-2,0,-1,0,-1
1537908002879850,0,-2,-3,-2,-5,-3,-1,-1
1537908002879850,2,-1,0,0,0,0,0,1
1537908002887828,-4,-2,-3,-1,0,-1,0,-2
1537908002887828,-4,-2,-2,-1,-3,-3,-2,-1
1537908002902789,-2,-3,-2,1,2,0,1,-1
1537908002902789,0,-1,1,-4,-2,-1,0,1
1537908002909771,1,-8,-4,-3,-4,0,-3,-3
1537908002909771,-4,-2,-1,0,2,7,14,-22
1537908002926725,5,-1,-3,-1,11,29,10,60
1537908002926725,7,-1,2,2,11,58,-3,-40
1537908002927723,11,7,3,4,-19,-94,-13,28
1537908002927723,-7,-18,-11,-9,0,47,-59,23
1537908002939689,-11,-1,-1,-1,4,48,3,-8
1537908002939689,-17,-14,1,5,-16,-96,38,-10
1537908002947668,-19,-1,-10,-16,-27,10,-92,-87
1537908002947668,-5,-1,-1,-1,-10,-121,43,68
1537908002962628,6,10,-1,-7,-5,-26,84,9
1537908002962628,-16,-2,-5,-4,0,-4,-85,-41
1537908002978585,1,4,2,4,23,85,21,-48
1537908002978585,22,0,1,2,16,10,9,2
1537908002984569,0,8,1,-3,-4,27,-13,1
1537908002984569,4,9,-4,1,5,-11,51,57
1537908002993545,-21,-12,-2,-1,-7,-32,11,-13
1537908002993545,17,19,8,5,-1,12,-37,42
1537908002999529,-15,-10,1,7,11,0,-10,-5
1537908002999529,-2,-6,-7,-7,-8,15,-4,-43
1537908003015486,-4,-5,0,-1,10,53,-2,18
1537908003015486,2,-1,4,4,10,23,36,-8
1537908003022467,4,0,4,4,-13,-40,-6,1
1537908003022467,-5,-1,3,1,0,-7,-27,4
1537908003038425,4,-4,1,1,8,10,30,31
1537908003038425,-6,2,-1,-1,-8,-11,11,-18
1537908003045408,6,-2,-4,-2,-8,-40,-33,-23
1537908003045408,-8,-2,-3,-5,-1,29,-3,11
1537908003053385,14,-1,2,3,9,-5,30,22
1537908003053385,-1,2,2,-1,-8,-1,3,-19
1537908003061366,-1,2,-2,-2,-1,11,-29,-16
1537908003061366,1,-4,0,1,1,2,14,10
1537908003067349,3,2,0,0,-3,-19,12,17
1537908003067349,-7,0,1,0,-3,1,-14,-26
1537908003082309,-5,-5,3,3,4,7,6,-2
1537908003082309,7,0,0,0,-2,-4,10,15
1537908003090288,9,5,0,0,-3,-20,-4,3
1537908003090288,-3,-4,-3,-6,-2,18,-5,-15
1537908003105248,6,2,0,0,1,-8,1,-2
1537908003105248,10,3,4,0,-1,1,1,8
1537908003113227,-4,0,-1,0,1,7,-4,1
1537908003113227,-5,-5,-1,-2,-2,-1,2,-7
1537908003122201,-1,0,0,1,-5,-12,-2,-1
1537908003122201,-3,1,-2,-1,1,2,-6,1
1537908003127189,-4,1,-1,0,1,3,8,7
1537908003127189,-7,-2,0,-1,-2,-4,-1,-7
1537908003142148,-2,-5,-2,-1,-3,-7,-5,-6
1537908003142148,1,2,0,-2,-3,6,1,5
1537908003150126,-2,-2,-2,-2,-1,-4,4,5
1537908003150126,0,1,-1,2,0,0,-2,-3
1537908003165086,-1,0,-1,-1,0,4,-5,-4
1537908003165086,1,1,0,-2,-1,-4,3,3
1537908003173065,-2,-1,-1,-2,-2,-1,0,1
1537908003173065,-3,-1,-2,0,1,0,-4,-7
1537908003188025,-3,-3,-2,-1,1,0,-1,-3
1537908003188025,0,0,2,-1,-2,-3,2,2
1537908003189022,-1,0,-2,-3,-2,-3,-1,0
1537908003189022,-3,-3,0,-2,0,3,-1,-4
1537908003202985,0,2,2,2,2,0,0,-1
1537908003202985,0,-1,-1,-1,1,0,0,0
1537908003209967,-2,-2,0,-2,-2,-1,1,-1
1537908003209967,1,2,0,-5,-10,-3,0,-2
1537908003224927,0,-3,-3,-2,-1,-3,-1,-1
1537908003224927,0,-1,-2,1,1,1,-1,0
1537908003232907,0,0,-2,2,0,-1,2,1
1537908003232907,-4,-1,-1,-1,2,1,-1,-3
1537908003247868,-1,-1,-3,-2,0,-2,-3,-2
1537908003247868,4,5,0,1,1,3,1,2
1537908003248864,-1,-1,4,1,1,-1,0,-1
1537908003248864,1,-1,-1,0,0,0,-2,-1
1537908003262827,-1,-3,-2,-1,-1,0,-1,-2
1537908003262827,1,-1,-2,1,0,-2,1,0
1537908003277787,-2,-2,-1,-1,0,-2,-2,-1
1537908003277787,2,4,1,-1,-4,0,-1,-1
1537908003284768,-2,-4,1,-1,-1,0,0,-2
1537908003284768,0,-2,0,-2,-2,-2,-1,1
1537908003292747,0,0,0,-1,-3,-2,-1,0
1537908003292747,-1,-1,-3,0,1,0,-1,-1
1537908003308704,1,-1,-2,-2,-2,-3,-2,2
1537908003308704,-1,-1,-1,-1,0,1,0,-2
1537908003308704,0,0,-2,0,1,2,2,-1
1537908003308704,-1,-1,0,-2,-4,-3,-2,-1
1537908003322667,0,-1,-2,-1,0,0,-1,0
1537908003322667,0,0,-1,-2,-2,-1,-1,0
1537908003329649,0,2,0,-1,1,1,-1,0
1537908003329649,-1,-3,0,3,4,1,0,-3
1537908003344608,-1,-1,0,-3,-4,-2,0,-1
1537908003344608,-2,-2,1,-1,0,-1,0,2
1537908003353583,0,-3,-2,1,0,2,0,0
1537908003353583,-2,-2,-2,0,-2,-1,-1,0
1537908003368543,0,0,-1,0,0,0,0,1
1537908003368543,-2,-2,-3,-1,-3,-2,-6,-2
1537908003375524,1,2,0,0,0,0,16,1
1537908003375524,0,-1,-1,-1,0,-3,-19,3
1537908003382505,2,1,0,1,0,2,25,3
1537908003382505,-5,-6,-2,-3,-4,-4,-43,-14
1537908003389487,2,4,1,-1,-1,1,-8,-9
1537908003389487,-1,-2,0,-1,0,-4,1,-2
1537908003405444,0,0,0,0,3,11,16,2
1537908003405444,-4,-8,-4,-3,-3,-6,4,2
1537908003413424,7,4,1,0,0,2,25,16
1537908003413424,5,0,1,1,1,4,0,6
1537908003436362,-15,-8,-6,-4,-7,-9,-59,-29
1537908003436362,21,7,5,2,3,-2,-11,21
1537908003437359,-19,-10,0,2,-1,18,-8,34
1537908003437359,1,-5,-4,3,6,-19,26,-71
1537908003450324,-24,-1,1,0,9,51,5,21
1537908003450324,7,3,-1,-2,-9,-69,92,38
1537908003459301,-18,-3,2,0,-14,-47,-62,5
1537908003459301,-17,3,-3,-3,25,111,61,37
1537908003474261,13,-5,2,-3,-42,-117,56,21
1537908003474261,-47,-9,-9,-8,-3,65,-86,27
1537908003475260,50,8,4,2,11,9,100,66
1537908003475260,-47,-14,-6,-8,-24,-118,-128,-82
1537908003496204,-1,7,0,0,16,66,37,-24
1537908003496204,32,16,8,8,12,10,55,115
1537908003498199,-12,-14,-13,-11,-18,-17,7,-8
1537908003498199,10,1,0,-2,1,30,-50,-20
1537908003510166,22,-1,-7,0,10,12,-22,-5
1537908003510166,-4,6,-2,-2,-2,14,-17,-39
1537908003519142,-1,1,6,7,13,16,5,-9
1537908003519142,-4,3,4,2,-1,2,49,26
1537908003534102,5,0,-2,-1,-5,-4,-22,4
1537908003534102,4,-4,-2,1,-1,6,23,-23
1537908003535099,-12,-5,0,0,1,4,10,-37
1537908003535099,0,1,-2,0,-5,-14,-40,20
1537908003556042,6,1,-1,-3,-4,-11,-19,6
1537908003556042,-7,-4,0,-1,6,3,-4,-44
1537908003558037,-3,2,-4,-2,-3,-15,-32,-32
1537908003558037,12,-1,-1,0,-5,5,19,21
1537908003570004,0,1,-1,-1,5,5,-1,4
1537908003570004,1,2,1,0,-3,-10,-9,-26
1537908003578981,-6,-6,-5,-4,-4,1,-17,-18
1537908003578981,12,-2,-3,-2,-6,3,32,25
1537908003593940,-4,-1,7,4,5,-1,-1,-4
1537908003593940,-4,-8,-6,-2,-6,-12,-1,-18
1537908003594938,13,8,0,0,-1,6,-9,6
1537908003594938,6,0,-1,1,1,5,12,6
1537908003615882,-1,0,-1,-3,0,-11,-7,-5
1537908003615882,-1,-3,1,2,0,2,-8,-13
1537908003617877,-3,-1,-6,-5,-1,3,-10,-6
1537908003617877,1,1,1,0,0,-4,10,6
1537908003639817,-6,-2,-4,1,1,-1,-3,0
1537908003639817,2,1,-1,-2,-2,0,6,-4
1537908003641812,-7,-3,-1,1,3,1,-8,-8
1537908003641812,3,5,1,0,-4,-4,8,7
1537908003652783,-2,-3,0,-1,-2,0,-2,6
1537908003652783,-2,-1,1,-1,0,1,-4,-10
1537908003661759,-2,-3,-2,-1,-4,-5,-7,-5
1537908003661759,4,1,-1,-4,-3,-1,0,4
1537908003676719,-2,0,-1,0,2,2,-2,1
1537908003676719,-2,-4,-1,-2,-4,-3,0,-8
1537908003677716,-3,-3,-1,-1,0,1,-4,-2
1537908003677716,-1,-4,-3,0,-2,0,6,3
1537908003689684,-4,0,1,-1,-1,-1,-2,0
1537908003689684,-2,-2,0,-1,-1,-3,-2,-4
1537908003698660,-2,-1,-1,-3,-1,-1,-3,-1
1537908003698660,2,2,-1,4,5,5,4,2
1537908003714618,1,0,-2,0,-1,-3,0,-3
1537908003714618,1,-4,-3,0,-3,0,-2,-2
1537908003721599,-1,-2,1,0,0,2,-4,-2
1537908003721599,1,-3,-1,-3,-4,-3,1,-1
1537908003736559,-1,1,0,-1,-1,0,-2,1
1537908003736559,0,0,0,2,1,0,-1,-2
1537908003737556,-1,0,0,0,-2,-1,-2,-2
1537908003737556,4,3,1,1,0,-2,1,2
1537908003749524,3,1,0,-1,-4,-2,-2,1
1537908003749524,-3,-2,0,-1,2,2,-2,-5
1537908003758500,-2,-1,-1,-1,-1,-2,-4,-4
1537908003758500,-1,-2,-2,-1,0,-2,0,-1
1537908003773460,-1,-1,0,0,1,0,-1,-1
1537908003773460,2,0,-1,-1,-4,-2,-1,-1
1537908003780441,-2,0,0,-3,2,1,-1,0
1537908003780441,-2,0,-2,-3,-2,-1,1,1
1537908003796399,-3,-2,0,-1,-2,0,0,0
1537908003796399,0,1,-2,0,-1,-3,2,-1
1537908003797396,1,0,-2,0,0,-1,-2,-2
1537908003797396,-2,-2,-1,-2,-1,-1,0,1
1537908003810362,-2,-3,-1,0,-2,0,-3,-1
1537908003810362,-2,1,1,-1,1,-1,0,-1
1537908003819338,2,0,0,-1,0,0,0,-1
1537908003819338,-3,-2,0,0,0,0,0,0
1537908003833301,-2,-1,-1,-1,0,-1,-3,-2
1537908003833301,-3,-2,-3,-3,-3,-4,-3,-2
1537908003840282,2,2,0,2,0,-1,0,0
1537908003840282,-1,-1,1,1,1,-2,0,-2
1537908003856240,0,0,-3,-2,-2,0,-1,-1
1537908003856240,0,-1,0,1,1,1,-1,-2
1537908003858235,-2,-1,-1,0,-1,0,-2,0
1537908003858235,-2,-2,-2,-1,-2,0,-1,-2
1537908003879178,3,-2,-3,-1,-4,-4,-1,-1
1537908003879178,-2,-2,0,-1,-1,0,-1,-1
1537908003881173,4,3,1,-1,0,1,1,2
1537908003881173,-4,-2,-1,0,-1,0,0,0
1537908003893140,-3,2,-2,-3,-2,0,3,-3
1537908003893140,1,-2,0,-1,1,9,7,1
1537908003900122,14,3,2,3,10,40,33,46
1537908003900122,-5,2,6,7,6,13,-3,-63
1537908003916079,-15,-8,-8,-13,-21,-77,-35,-8
1537908003916079,5,8,10,10,7,18,92,83
1537908003918074,4,-4,-5,-10,-6,73,-60,-51
1537908003918074,-9,-7,-4,-7,-13,-66,-37,-31
1537908003939018,12,6,-5,-11,-46,-93,-76,5
1537908003939018,-2,1,-3,-1,18,64,-1,-59
1537908003940016,26,11,4,6,15,-114,25,100
1537908003940016,-17,-1,-10,-12,-35,-12,-96,-45
1537908003952980,-10,-7,-3,1,40,97,-16,-62
1537908003952980,-3,-6,-13,-10,-4,27,64,38
1537908003960959,21,12,14,16,21,106,79,46
1537908003960959,3,3,7,4,-10,-80,-48,28
1537908003975919,-9,0,7,7,-3,-30,15,16
1537908003975919,9,9,4,-1,-14,-21,-29,-22
1537908003977913,-21,-12,-6,-3,4,25,40,-35
1537908003977913,5,-5,1,5,16,10,56,32
1537908003998858,-3,1,1,2,2,39,8,-7
1537908003998858,-9,-15,-1,-2,-3,-20,-41,-21
1537908003999855,-8,3,-2,-4,-16,-62,-26,-27
1537908003999855,2,-4,-5,-4,3,34,11,12
1537908004022795,1,-5,-5,-2,9,24,10,9
1537908004022795,-4,-2,-3,-1,-3,-16,-20,-10
1537908004023792,-10,-5,-4,-5,-15,-36,-44,-27
1537908004023792,3,0,1,1,9,35,13,10
1537908004027781,6,3,1,3,7,14,33,8
1537908004027781,-1,2,2,0,-7,-31,-27,-10
1537908004035760,-9,-6,-7,-5,-9,-3,-17,-23
1537908004035760,3,0,1,0,4,14,20,8
1537908004042743,-1,-6,1,0,-1,-1,10,5
1537908004042743,0,3,0,1,-1,-6,-23,-6
1537908004049723,-5,-5,-3,-2,-4,-3,-18,-14
1537908004049723,6,1,1,-1,4,16,24,9
1537908004064684,5,-2,0,1,1,-2,9,7
1537908004064684,7,0,0,-2,-2,-1,-23,-6
1537908004073659,-4,-3,-3,-2,-1,-5,2,-11
1537908004073659,0,1,-2,-1,0,2,9,4
1537908004087622,5,7,6,3,4,8,0,1
1537908004087622,-3,-1,-1,-3,-4,-9,-3,-3
1537908004095601,-7,-3,0,0,-2,-6,-7,-8
1537908004095601,-4,-3,-2,-2,1,10,-1,1
1537908004110560,-1,0,1,-1,-3,-2,5,3
1537908004110560,-5,-3,-1,-1,2,0,-5,-4
1537908004111559,-4,-2,-1,-5,-9,-13,-12,-7
1537908004111559,-1,0,-1,-1,1,7,6,4
1537908004124522,1,-1,0,3,3,7,7,2
1537908004124522,-2,-3,-3,-1,-2,-7,-5,-2
1537908004133498,-5,-3,-2,-1,-1,-2,-10,-6
1537908004133498,1,1,0,0,1,3,5,2
1537908004147461,-2,-2,-1,-1,1,0,1,1
1537908004147461,-2,-3,-2,-3,-4,-7,-7,-2
1537908004155439,-3,1,-2,1,2,2,-4,-3
1537908004155439,0,1,1,1,-2,2,3,2
1537908004170399,-1,-1,-1,1,0,-1,-2,0
1537908004170399,1,1,-3,-1,1,0,-2,0
1537908004171396,2,-1,-2,-3,-2,-1,-1,-3
1537908004171396,2,2,1,-1,-2,-2,1,1
1537908004185359,-2,-1,0,1,0,3,0,-2
1537908004185359,1,2,0,-2,-5,-3,0,0
1537908004193338,-1,-2,1,-2,-1,-2,-2,-2
1537908004193338,0,-4,-5,-3,-3,-2,-1,-3
1537908004207300,0,-1,0,-2,0,2,1,-2
1537908004207300,-1,-2,0,0,3,0,-2,-1
1537908004216276,-1,-2,-2,1,0,-3,-4,-1
1537908004216276,-1,0,-2,-3,-1,-1,1,2
1537908004230239,-1,0,0,-3,-2,-1,2,1
1537908004230239,-1,-2,-3,-2,-3,-2,0,-3
1537908004239215,-3,-1,-2,-1,-2,0,-3,-2
1537908004239215,1,-2,-2,1,2,3,0,0
1537908004245200,0,1,-2,-3,-3,-2,-1,1
1537908004245200,-2,-2,0,-2,-1,-2,-2,1
1537908004254175,1,0,2,0,-1,-3,-2,-2
1537908004254175,4,-1,0,1,2,2,0,-1
1537908004267141,-2,-3,-1,-1,-2,-2,-3,-2
1537908004267141,1,0,-2,-1,-1,-2,-3,1
1537908004276117,-2,0,0,-2,-4,-1,-2,-1
1537908004276117,-3,1,-2,-2,-1,-2,0,-1
1537908004290080,-1,-2,-2,-2,-2,1,-1,-2
1537908004290080,-2,-1,-1,0,-1,0,0,-1
1537908004299057,-2,-3,0,1,-2,-1,-1,-2
1537908004299057,1,1,1,3,0,0,0,0
1537908004305041,1,2,-3,0,1,3,1,1
1537908004305041,-2,-6,-3,-2,1,-1,2,-2
1537908004314018,0,6,1,-1,-1,-2,0,3
1537908004314018,2,5,3,3,-2,0,-1,-1
1537908004327978,-8,-1,-1,-2,0,2,18,1
1537908004327978,9,3,4,5,9,15,0,11
1537908004335956,3,-9,-5,-1,12,63,45,6
1537908004335956,3,-1,2,-1,-13,-66,-40,52
1537908004349919,-12,0,-3,-2,5,29,-51,37
1537908004349919,6,-2,-4,3,-1,-10,24,62
1537908004358895,-16,0,2,-2,-1,10,-15,-87
1537908004358895,8,-1,-4,-5,-9,-43,-24,7
1537908004364879,-14,-2,1,2,-1,-29,54,39
1537908004364879,-5,-1,-2,-3,7,29,-52,-97
1537908004373855,-6,-3,-9,-6,-36,-105,33,10
1537908004373855,-14,-12,-12,-12,-10,-45,-88,-53
1537908004387818,-27,-4,-2,-2,5,79,54,-32
1537908004387818,39,9,0,2,12,43,45,6
1537908004396794,19,9,10,9,21,47,0,19
1537908004396794,-36,-20,-5,0,1,-2,2,-6
1537908004411754,52,18,3,1,-6,-26,-27,-24
1537908004411754,-18,-8,4,3,2,0,38,92
1537908004426714,25,4,-1,2,-1,1,-10,54
1537908004426714,7,-2,3,1,6,43,40,12
1537908004427712,-1,-10,-7,-4,0,-21,-19,8
1537908004427712,-10,1,2,-2,-11,-23,-8,-28
1537908004433695,-1,-4,1,1,3,-7,-16,-14
1537908004433695,-5,5,3,2,3,25,9,-2
1537908004447658,-2,-7,-1,-3,-5,-15,2,-24
1537908004447658,0,0,-2,-3,-8,-15,-25,-24
1537908004456634,-24,-8,-6,-7,-5,-7,-24,-5
1537908004456634,7,1,-6,-2,1,20,31,-15
1537908004469599,5,5,4,2,0,-1,-13,-3
1537908004469599,-9,-7,-8,-5,-6,-14,-7,-6
1537908004478575,3,3,1,2,2,5,-6,13
1537908004478575,4,1,4,0,1,16,21,-2
1537908004493535,6,-4,-1,1,1,-5,6,1
1537908004493535,-3,2,1,0,-1,-7,-33,-8
1537908004495530,3,-2,-3,-4,-1,-5,8,-6
1537908004495530,13,8,2,-1,1,11,10,-2
1537908004507498,-13,-4,-5,-3,-4,-4,-10,-6
1537908004507498,6,1,2,-2,-3,-6,5,-5
1537908004516475,-8,-2,-2,-2,-1,-1,-10,-3
1537908004516475,0,4,1,0,1,7,7,-1
1537908004530438,3,-1,1,0,-2,0,-5,6
1537908004530438,-8,-3,-1,1,0,-1,4,-1
1537908004539414,-1,-1,-2,-3,-4,-2,-4,-2
1537908004539414,-1,-1,0,-4,0,5,4,3
1537908004545400,-3,-1,2,1,1,-4,-3,-6
1537908004545400,-4,-1,-1,0,-2,-3,-2,-5
1537908004554375,-5,-2,-4,-2,-3,-3,-5,0
1537908004554375,0,1,-1,3,4,7,7,-3
1537908004567340,0,0,1,0,-2,-2,-5,-3
1537908004567340,-2,0,0,-1,-3,-4,1,1
1537908004576317,-2,-1,-1,0,1,1,-3,2
1537908004576317,-3,0,-1,-1,-2,2,4,-1
1537908004590279,0,-1,1,-1,2,-1,-3,0
1537908004590279,-1,1,-1,0,1,-1,-1,-1
1537908004599255,-3,-1,-1,-3,-2,0,-1,-1
1537908004599255,-1,2,0,-1,-2,0,2,-3
1537908004605238,-2,-2,-1,-1,-1,0,-4,-2
1537908004605238,-1,-2,0,0,1,-1,0,-3
1537908004614213,0,-2,-2,-1,-3,-4,-3,-3
1537908004614213,3,0,0,0,0,1,1,0
1537908004629173,2,-2,1,0,0,-1,0,2
1537908004629173,-3,-3,-2,-1,-2,-2,0,-1
1537908004636154,-1,-3,0,1,1,0,-2,-2
1537908004636154,-2,0,-4,-2,0,0,0,0
1537908004650117,1,2,1,0,-2,-4,-3,-2
1537908004650117,-2,-2,0,-1,-2,-1,-2,-4
1537908004659093,0,1,-3,-2,-2,-2,-2,-1
1537908004659093,0,-3,0,-2,-4,-2,-2,-2
1537908004665077,1,2,-1,0,0,0,-1,0
1537908004665077,-2,-2,-1,-1,-3,-4,-1,-1
1537908004674053,0,-2,2,3,2,-1,-1,-1
1537908004674053,0,-1,0,1,1,1,0,0
1537908004687018,0,0,-4,-3,0,0,-4,-4
1537908004687018,1,0,-1,-3,-6,-4,-3,-1
1537908004695995,0,0,-1,1,0,2,1,0
1537908004695995,1,-1,-1,0,0,-1,-2,-1
1537908004709957,-1,-1,-1,-2,-2,-2,-3,-1
1537908004709957,-5,-2,-1,-2,-1,-2,-1,-3
1537908004725914,-3,0,-1,0,-1,-2,0,-1
1537908004725914,-4,-1,1,0,0,0,0,1
1537908004725914,-2,0,0,-1,-1,-3,0,-2
1537908004725914,0,-1,-3,-3,-2,0,-1,-1
1537908004733893,-2,-2,-1,1,-1,0,-1,-1
1537908004733893,-2,1,-1,1,0,2,-1,-1
1537908004747855,0,0,0,-1,-1,-2,-1,1
1537908004747855,-3,-1,-2,-2,-3,-1,-1,-2
1537908004756831,-1,-2,-2,-1,-1,0,-1,-1
1537908004756831,0,-2,-1,-1,-1,-1,0,-2
1537908004769797,0,2,2,0,1,0,-1,0
1537908004769797,0,-3,1,1,1,0,1,1
1537908004778774,7,3,1,1,0,1,8,4
1537908004778774,-12,-8,-5,-3,-1,1,-10,-7
1537908004784757,5,2,1,2,13,52,72,-5
1537908004784757,10,0,1,2,-2,-19,-32,73
1537908004793733,-11,-4,-3,-6,3,34,23,-80
1537908004793733,-7,1,-2,-1,-15,-73,-18,88
1537908004816672,18,10,8,3,-14,-36,-78,14
1537908004816672,10,-4,-6,-4,43,99,-4,12
1537908004817669,-16,9,13,15,-33,-114,-4,-13
1537908004817669,-14,-10,-18,-21,-18,72,-89,-116
1537908004829637,3,3,11,18,47,-24,116,93
1537908004829637,14,4,-13,-16,-77,-107,-112,-56
1537908004838613,-10,-2,0,7,45,127,2,66
1537908004838613,26,8,10,8,14,56,42,-30
1537908004844597,-49,-4,-4,-2,-6,4,24,19
1537908004844597,1,2,11,10,29,36,-6,-49
1537908004853573,-15,-5,2,-5,-16,-62,-5,-4
1537908004853573,31,3,0,-2,-13,-13,7,17
1537908004867536,-19,-4,-5,-1,8,38,-23,-27
1537908004867536,-10,-7,-3,1,0,-20,68,46
1537908004876514,21,-7,0,-4,-13,-12,-2,12
1537908004876514,-9,2,-4,3,14,7,16,27
1537908004891473,-1,-9,-6,-8,-9,-16,-8,-29
1537908004891473,-3,-1,-1,-1,-11,-21,5,-20
1537908004898453,-2,-9,-8,-8,-2,8,-18,-11
1537908004898453,2,-2,0,2,7,-12,22,-21
1537908004921392,4,-2,-4,-4,-18,-26,-44,-20
1537908004921392,-14,0,0,0,-2,11,16,-4
1537908004922390,14,4,-6,-3,3,6,1,8
1537908004922390,-23,-7,2,1,1,-23,7,20
1537908004946326,9,-1,-7,-7,-15,-4,-14,-13
1537908004946326,5,2,2,0,6,13,9,2
1537908004948321,6,1,-1,0,2,-2,5,-2
1537908004948321,2,-7,-3,-2,-3,-12,-1,-4
1537908004951312,3,-8,-6,-5,-7,5,-17,-15
1537908004951312,6,4,4,4,9,6,22,-10
1537908004959291,-1,-3,1,0,-1,-9,-9,4
1537908004959291,-8,1,0,-1,-3,-1,3,5
1537908004965275,6,0,-3,-1,-2,3,-8,-2
1537908004965275,-16,-3,-4,-3,0,-3,8,7
1537908004974251,-2,2,-4,-6,-6,-11,-3,1
1537908004974251,1,1,2,-1,2,2,2,4
1537908004987216,1,-1,1,-2,0,1,0,-3
1537908004987216,-5,1,1,0,-3,-8,-1,-8
1537908004996193,-3,-3,0,-1,0,8,-6,-2
1537908004996193,-1,3,3,4,3,-1,6,-4
1537908005010156,0,-2,0,-2,-4,-4,-9,-4
1537908005010156,-7,-1,-1,-1,-3,2,4,-1
1537908005017136,5,2,-1,-3,-1,3,0,3
1537908005017136,-3,1,0,1,0,-5,1,6
1537908005025115,-3,-2,-3,-2,-5,-2,-8,-7
1537908005025115,2,0,-2,1,1,5,0,0
1537908005040075,-3,-1,0,0,-2,-3,0,-2
1537908005040075,-1,-2,-2,-2,-4,-4,-3,-2
1537908005047056,0,-1,-2,-2,-3,-1,-4,-2
1537908005047056,-1,-3,1,-1,0,0,2,-6
1537908005062016,-1,-2,-5,-4,-2,-4,-2,1
1537908005062016,-1,-2,1,0,0,2,2,0
1537908005070992,3,0,0,-2,-3,-2,-3,0
1537908005070992,-6,-3,0,-1,-3,-4,1,-2
1537908005076976,0,-1,-4,-4,-1,0,-3,-1
1537908005076976,1,-1,2,0,0,0,0,0
1537908005093931,-2,-2,-3,2,0,-1,-1,-4
1537908005093931,1,0,-1,2,0,0,0,-1
1537908005095926,-3,-2,0,2,1,2,-1,-1
1537908005095926,-2,-3,-1,-3,-5,-5,-2,-3
1537908005107894,3,0,-1,-1,-3,-2,-5,-2
1537908005107894,-3,-2,-1,1,-2,0,0,-2
1537908005116870,1,4,1,2,1,0,0,1
1537908005116870,-3,-1,-2,1,0,-1,0,1
1537908005130834,-2,-1,-2,-2,-2,-3,-2,-2
1537908005130834,0,-1,1,1,-2,-1,-1,-1
1537908005137815,0,-3,-1,-2,0,-2,-1,-2
1537908005137815,2,0,-1,0,2,3,1,0
1537908005153770,-1,-1,-2,-4,-4,-3,-2,-2
1537908005153770,0,1,-3,0,0,-1,0,-1
1537908005154768,1,1,-1,-1,-1,-1,-2,-1
1537908005154768,0,0,2,-1,0,-3,0,1
1537908005167733,1,-2,0,1,1,1,-1,0
1537908005167733,-3,0,-1,-1,-1,-3,1,-1
1537908005176709,-2,-2,-3,0,-2,0,-2,-2
1537908005176709,-2,-1,-1,0,0,1,0,-2
1537908005198651,-2,0,1,-3,-3,-2,-3,-2
1537908005198651,0,0,-1,-1,-1,0,-1,0
1537908005200645,-3,0,0,0,-1,0,-1,0
1537908005200645,1,0,-1,0,0,-3,0,0
1537908005213611,-2,-3,-2,2,1,1,0,-1
1537908005213611,-1,-2,-3,-1,-3,0,-1,-1
1537908005215605,-1,2,3,-1,-2,-1,0,-2
1537908005215605,-3,0,-1,-1,-1,-1,-1,-2
1537908005227573,-3,1,-2,-1,0,-1,-1,-1
1537908005227573,-3,-9,-8,-7,-3,-1,-2,-2
1537908005236549,8,4,2,-1,-2,-1,0,7
1537908005236549,-6,-4,3,0,0,5,5,-43
1537908005250512,2,1,-10,-7,-7,-19,-21,5
1537908005250512,-2,-7,0,-2,19,97,63,79
1537908005257494,8,2,6,8,-7,-75,-24,-69
1537908005257494,-19,-11,-3,-8,-10,-19,-52,28
1537908005273452,2,2,14,14,25,9,85,17
1537908005273452,-21,-4,-6,-13,-69,-118,-97,-103
1537908005275447,-15,-6,-3,-6,7,127,9,26
1537908005275447,18,7,7,10,23,52,64,84
1537908005287415,-18,12,5,3,-5,-62,-57,-46
1537908005287415,31,10,1,5,10,-49,55,62
1537908005296392,-6,-8,-13,-15,-49,-115,-34,26
1537908005296392,-1,-4,-8,-9,-12,7,43,-74
1537908005310353,7,10,-1,2,20,95,33,87
1537908005310353,6,-1,2,6,25,88,108,43
1537908005317335,-7,10,9,12,16,-7,-70,-11
1537908005317335,-14,-6,-7,-7,-5,-24,-18,-7
1537908005335287,17,-7,-4,-4,-6,-14,-4,12
1537908005335287,7,11,5,3,-4,-32,-31,-17
1537908005336285,-7,-13,-5,-3,8,35,60,4
1537908005336285,1,6,1,3,5,-3,-7,5
1537908005347256,-10,-11,1,-2,-13,-23,-29,-38
1537908005347256,-22,-9,-7,-4,4,24,-36,-39
1537908005356231,13,10,5,5,16,5,26,21
1537908005356231,12,1,1,-1,-7,-20,-23,6
1537908005371190,-3,-5,-3,-3,-10,1,-12,-18
1537908005371190,3,1,-1,0,9,4,-2,7
1537908005377174,5,2,-7,-2,4,3,15,6
1537908005377174,2,1,0,-1,-6,-17,-17,-8
1537908005394129,-3,-4,-4,-4,-2,6,6,-11
1537908005394129,1,3,1,2,2,-4,-16,-8
1537908005395127,4,-2,-1,0,-2,-2,-3,-10
1537908005395127,3,-2,-2,-1,1,13,-1,-3
1537908005407096,8,-2,1,0,1,2,-10,6
1537908005407096,4,-2,-1,-1,0,-8,-14,-6
1537908005416071,-7,-4,-1,-2,-2,3,0,-4
1537908005416071,0,3,0,3,2,1,-6,6
1537908005431030,-2,0,0,-2,-2,0,0,-1
1537908005431030,-7,-3,1,-1,-1,-10,-14,-7
1537908005437013,0,0,-3,1,2,7,13,3
1537908005437013,-3,0,2,0,1,-1,-1,0
1537908005453968,-3,-2,-1,-2,-1,-5,-5,-7
1537908005453968,-5,-2,1,-1,-1,4,-6,-3
1537908005454965,0,-2,0,0,3,0,5,4
1537908005454965,0,0,0,1,-2,-3,-4,2
1537908005467930,-3,-2,-2,-1,-2,1,-2,-5
1537908005467930,-1,2,1,1,1,-3,2,2
1537908005475909,-3,-1,2,1,1,0,-2,-1
1537908005475909,-4,-2,-3,-4,-6,-4,-1,-3
1537908005490869,1,4,-4,-3,-7,0,4,0
1537908005490869,-1,-2,-2,-4,-2,-2,-6,-5
1537908005497850,-1,-1,-2,-5,-3,-2,-4,-3
1537908005497850,1,-1,1,4,4,4,3,0
1537908005513808,0,-4,-5,-3,-1,-2,1,-1
1537908005513808,1,2,-1,-2,-3,-3,-7,-1
1537908005514806,0,0,0,-1,-2,2,-1,1
1537908005514806,1,2,0,0,1,1,3,4
1537908005536747,1,-1,1,-1,0,0,-2,0
1537908005536747,1,0,0,2,0,-5,-2,-4
1537908005537745,-1,-2,-1,0,-1,2,1,-2
1537908005537745,1,1,0,-4,-3,-1,0,0
1537908005550710,-3,-2,1,2,0,-2,-1,-1
1537908005550710,-1,-2,-1,-3,-2,0,-3,-1
1537908005558689,0,-1,0,0,1,-2,0,0
1537908005558689,-1,-1,-1,1,-2,-2,-1,0
1537908005573650,1,0,0,0,-2,-2,0,-2
1537908005573650,-1,-1,-1,0,0,0,0,-2
1537908005575645,-2,-1,-1,-2,0,1,-1,-1
1537908005575645,0,-2,0,0,1,1,-1,-1
1537908005587612,2,0,1,-2,-3,-3,-1,0
1537908005587612,-1,-4,0,1,0,-1,-2,-1
1537908005596590,0,-1,-3,-2,0,0,0,-4
1537908005596590,1,0,-2,-4,-5,-5,0,-1
1537908005610551,-2,-3,-1,0,0,1,-1,-2
1537908005610551,1,1,1,-1,-1,0,0,0
1537908005617533,0,-2,-2,-3,-2,-2,-2,0
1537908005617533,2,0,-1,2,2,0,2,1
1537908005633489,-3,1,1,0,1,-1,0,-2
1537908005633489,-1,1,-2,-1,-2,-2,-2,-2
1537908005635484,-3,-1,1,-1,1,0,0,-1
1537908005635484,0,0,0,-1,-2,-1,-2,0
1537908005647451,-4,-2,0,1,1,1,-1,0
1537908005647451,-2,-1,-2,-2,-1,-2,-1,-1
1537908005656427,-4,0,1,1,-1,0,0,-1
1537908005656427,0,0,-1,-2,-1,-2,-1,1
1537908005670389,-1,-4,-3,-1,0,0,-2,-1
1537908005670389,-1,-1,2,-1,0,-1,0,-1
1537908005677370,2,1,-1,-1,-1,-1,0,0
1537908005677370,-2,-3,-1,1,2,-1,0,-2
1537908005693328,-2,0,0,-1,-3,-3,-1,-1
1537908005693328,0,-1,-1,-1,-3,-1,-1,-1
1537908005695323,0,-1,0,1,1,1,0,-1
1537908005695323,-2,-3,0,-1,1,0,-2,-2
1537908005707291,0,0,1,0,-2,-1,-1,0
1537908005707291,-2,-6,-3,-2,-2,-2,-2,-1
1537908005716267,6,3,1,-2,0,0,0,2
1537908005716267,-5,-3,0,0,1,-1,0,-2
1537908005730229,0,-1,1,0,1,0,-1,-3
1537908005730229,-4,1,-2,0,-1,-1,0,0
1537908005737211,7,0,3,2,-1,-1,-1,0
1537908005737211,-1,-1,-3,-2,-4,-1,-2,0
1537908005753168,-1,-3,-1,1,7,30,10,-8
1537908005753168,6,6,1,1,-2,3,55,70
1537908005760149,12,-9,-4,-1,4,21,-21,-20
1537908005760149,-55,-14,-9,-6,-12,-43,-19,-60
1537908005767130,21,7,3,2,0,-1,-13,74
1537908005767130,5,-3,2,-2,-10,20,-23,-68
1537908005776107,-26,-3,3,1,-24,-96,-39,-69
1537908005776107,5,0,-7,-11,4,97,-20,-76
1537908005791066,4,9,1,5,13,-85,91,49
1537908005791066,1,10,-4,-8,-21,-28,-26,-84
1537908005797051,-39,-7,-4,0,14,71,-3,21
1537908005797051,80,4,-2,0,1,69,76,72
1537908005813009,-64,-7,-8,-6,-3,-32,-64,-90
1537908005813009,8,8,8,9,21,33,45,-43
1537908005819990,12,6,-3,-2,-16,-72,-15,66
1537908005819990,-29,-2,4,2,7,10,5,30
1537908005843925,35,5,4,2,0,17,25,24
1537908005843925,-17,-12,-4,0,-2,-39,-49,37
1537908005844923,1,-12,-4,-6,0,37,6,-24
1537908005844923,-4,3,6,6,8,-7,1,41
1537908005857888,15,-4,2,-1,-7,4,-6,7
1537908005857888,-17,-5,-1,-1,2,-11,-12,-13
1537908005872848,13,5,4,0,9,25,24,12
1537908005872848,5,3,2,1,-5,-37,-4,0
1537908005880827,-14,-5,-4,-1,-9,-6,-12,-41
1537908005880827,7,-1,-1,-3,1,13,-5,12
1537908005882823,-6,-4,-3,-1,3,14,16,-1
1537908005882823,2,-1,-2,1,-7,-44,9,-6
1537908005903767,-1,2,0,-2,-3,24,-19,-18
1537908005903767,1,2,-5,-2,4,10,4,29
1537908005905762,14,5,1,1,-2,-11,7,7
1537908005905762,-10,0,0,0,-1,-17,-14,-22
1537908005917729,-1,-5,-2,-2,-1,21,-6,-1
1537908005917729,5,-1,2,2,4,2,12,14
1537908005926705,-4,0,0,0,-2,-9,6,-15
1537908005926705,6,2,-1,-2,-2,-6,-15,-5
1537908005941665,4,-2,-3,-2,-2,10,2,-1
1537908005941665,2,-4,-3,-3,-1,-11,-5,5
1537908005942663,3,4,0,-1,0,3,-1,-8
1537908005942663,0,1,0,-1,-1,-3,-7,7
1537908005963607,3,-3,1,0,-2,0,-3,-1
1537908005963607,-2,-2,0,0,1,-2,-1,-1
1537908005965602,8,3,-2,-3,-2,3,3,8
1537908005965602,-8,-4,0,0,0,-5,-4,-6
1537908005977569,-9,-2,-3,-3,-5,-1,-4,-9
1537908005977569,3,-2,-1,-1,-1,2,-2,2
1537908005986546,-3,-2,-4,1,0,4,6,1
1537908005986546,3,2,0,-1,-1,-8,-2,3
1537908006001505,-4,-1,-1,-4,-4,-1,-6,-7
1537908006001505,-4,-3,0,-1,1,2,-2,6
1537908006002502,2,2,0,0,1,-3,2,2
1537908006002502,-3,-3,-3,-2,-2,-5,-5,-5
1537908006023448,-2,0,-2,-2,0,5,1,-1
1537908006023448,-3,-3,-1,1,-1,-1,1,4
1537908006025442,-1,-1,-1,-1,0,-2,1,-3
1537908006025442,-4,-1,-1,3,1,1,-4,-3
1537908006037409,1,-1,0,-3,-1,2,1,-2
1537908006037409,1,0,-1,-2,-3,-3,-1,4
1537908006046385,-6,-4,-5,-3,-2,0,-3,-5
1537908006046385,-2,-1,-2,-2,1,-1,-5,1
1537908006061344,1,-1,-2,1,0,-1,-2,0
1537908006061344,-2,0,2,0,0,1,0,-2
1537908006062342,-1,-5,-2,0,1,3,-2,-3
1537908006062342,2,1,0,-2,-1,-4,1,4
1537908006083286,0,-2,-3,-1,-1,-1,-2,-3
1537908006083286,-1,-1,-1,-1,-1,0,-3,-3
1537908006091265,-3,-1,1,0,-1,-1,-1,-3
1537908006091265,2,0,0,0,-2,-3,-1,0
1537908006097249,-1,-1,0,1,-2,1,-1,0
1537908006097249,0,-1,1,1,0,-1,0,3
1537908006106225,0,-3,-1,-1,-2,0,0,0
1537908006106225,1,3,-1,-3,-3,-3,-1,1
1537908006121185,0,-1,1,1,1,0,-1,-2
1537908006121185,-2,-3,-2,-2,-2,-2,-1,-1
1537908006123180,-2,-2,0,-1,-1,-3,0,-1
1537908006123180,1,-4,-5,-1,-2,0,-1,-2
1537908006144124,-3,-4,-1,-1,0,0,-1,-2
1537908006144124,0,3,-1,-1,0,-1,-2,-1
1537908006145122,-2,-1,0,-1,0,1,0,-1
1537908006145122,-1,-1,3,0,0,-2,1,0
1537908006157089,0,-2,-1,-1,-1,-2,-1,0
1537908006157089,-1,-1,-2,0,-3,0,0,-1
1537908006166065,0,0,0,0,-2,-1,-1,-1
1537908006166065,-2,0,0,0,-1,-1,-1,-2
1537908006181025,-2,-2,-3,-1,4,1,-1,-3
1537908006181025,-1,0,-1,-3,-5,-3,-1,-1
1537908006183020,2,4,0,1,-2,-2,-1,-1
1537908006183020,-1,0,0,1,2,0,-2,-3
1537908006203965,0,3,2,2,1,-1,-1,0
1537908006203965,0,-1,-1,0,-2,-1,-1,0
1537908006204962,-3,-3,-1,-2,-2,0,-1,1
1537908006204962,-1,-3,-2,-2,-3,0,-1,1
1537908006217926,0,1,-2,-2,-2,-1,-1,-1
1537908006217926,-2,1,1,1,2,6,2,2
1537908006226904,5,2,3,1,0,-6,0,-4
1537908006226904,0,-6,-6,-1,16,44,20,-6
1537908006240865,1,0,-1,2,-1,17,36,22
1537908006240865,5,-1,6,3,-11,-31,-44,79
1537908006242860,3,4,1,5,11,36,90,-27
1537908006242860,-29,-1,0,-5,-18,-33,-109,-94
1537908006263803,17,0,-4,-6,-1,-18,56,3
1537908006263803,6,-1,-1,3,-21,-87,0,-87
1537908006269788,6,-7,-2,-5,-21,-62,2,86
1537908006269788,2,3,4,3,13,-36,-56,-60
1537908006277766,0,-14,-5,-12,-10,4,31,-21
1537908006277766,-17,2,0,3,10,76,-6,14
1537908006286742,3,-1,-1,-1,18,63,-22,-16
1537908006286742,29,12,-2,-4,-33,-86,84,51
1537908006301702,-35,-4,-4,-6,-6,-21,-128,-53
1537908006301702,-42,-15,-9,-4,14,35,76,-10
1537908006302700,15,5,3,2,5,41,31,10
1537908006302700,-12,-4,3,3,11,39,25,49
1537908006323645,34,5,-2,3,8,12,30,26
1537908006323645,-12,0,5,-1,-5,-12,9,12
1537908006325640,-19,-4,-6,-4,-7,-24,-41,-32
1537908006325640,11,-5,-2,0,1,17,16,21
1537908006346585,-4,5,4,1,-3,-25,6,3
1537908006346585,7,-4,-3,-4,1,12,-37,-27
1537908006347581,-6,-4,-3,-3,-2,-18,-14,9
1537908006347581,6,2,-1,0,0,0,8,-4
1537908006361544,-15,-2,0,2,1,19,-11,1
1537908006361544,14,3,-2,-4,2,2,-2,4
1537908006368525,0,0,-4,-1,0,-8,-9,-16
1537908006368525,-10,-2,-3,-3,-1,9,4,12
1537908006376503,-3,1,2,3,0,4,-6,-8
1537908006376503,13,-1,2,3,3,2,5,5
1537908006377501,0,3,-1,-1,-4,-19,-9,-6
1537908006377501,-1,-3,1,1,1,14,-11,-4
1537908006390465,8,-1,-3,0,2,2,8,16
1537908006390465,10,0,-1,-2,-1,-6,2,-6
1537908006398445,-10,-3,0,-2,-5,2,-12,-6
1537908006398445,5,2,-1,-1,-1,5,5,7
1537908006413406,-3,1,2,1,0,4,2,-1
1537908006413406,-2,0,-1,1,1,0,0,4
1537908006420387,0,-2,1,-1,-1,-4,-9,-6
1537908006420387,-7,-3,-3,-3,-4,5,4,3
1537908006436344,-3,-1,-1,1,-2,-5,0,0
1537908006436344,-4,-2,-2,-5,-4,4,-5,-5
1537908006437342,1,2,-1,0,2,-1,0,7
1537908006437342,-3,-2,0,-1,0,-1,1,-2
1537908006450305,-5,-1,0,-3,-1,4,-2,-2
1537908006450305,2,0,-3,1,4,1,0,1
1537908006459281,-3,-3,-2,-3,-5,-6,-7,-6
1537908006459281,-3,-2,-1,1,2,3,3,2
1537908006473243,-2,-2,0,-1,-2,-2,-2,-2
1537908006473243,2,1,0,-1,-2,-2,1,1
1537908006480225,-1,-2,0,-1,0,-4,-3,0
1537908006480225,-4,-3,-1,1,0,2,-3,-1
1537908006496182,-1,-1,-1,0,3,2,2,3
1537908006496182,2,0,-2,-5,-4,-5,-2,-3
1537908006498177,-1,-1,-1,-2,-2,0,-2,-3
1537908006498177,0,0,-1,0,1,1,0,1
1537908006510145,0,-3,1,1,0,2,0,-2
1537908006510145,-1,1,0,-2,-4,-6,-2,0
1537908006519121,-4,-1,0,1,1,-3,-3,-5
1537908006519121,3,0,1,-1,-1,3,0,2
1537908006533084,-1,0,-1,1,1,0,1,-1
1537908006533084,0,-1,-3,-2,2,1,-3,-2
1537908006540066,-1,-3,-3,-4,-4,-5,-2,0
1537908006540066,-1,-1,0,1,-1,0,-1,0
1537908006556023,0,2,1,0,2,1,-2,-1
1537908006556023,1,-1,-3,-1,-1,-1,0,3
1537908006558019,0,2,-1,-1,-4,-1,-4,1
1537908006558019,-2,-2,-2,-2,1,0,-1,0
1537908006569985,0,-1,-1,-3,-2,-1,-3,-1
1537908006569985,-1,-1,0,1,3,3,-1,-2
1537908006578963,0,-3,0,0,0,0,-1,-3
1537908006578963,0,-1,-1,-3,-4,-1,-2,0
1537908006592924,0,-1,-2,0,-3,-1,1,1
1537908006592924,0,-1,1,0,0,-1,-2,-4
1537908006599906,0,-2,1,2,3,2,0,2
1537908006599906,-1,2,0,-3,0,-1,-2,0
1537908006615864,-2,-1,0,-1,-2,-2,-1,-2
1537908006615864,-1,-3,-1,1,2,1,-1,1
1537908006617859,-4,-2,-2,-1,-4,-3,-2,-1
1537908006617859,-2,-1,0,-2,-1,0,0,1
1537908006629828,0,1,0,1,-2,-1,-1,0
1537908006629828,8,0,-3,-2,0,0,2,3
1537908006638803,-6,0,0,2,3,2,0,-2
1537908006638803,-4,-7,-4,0,-2,-2,-1,-6
1537908006653761,-3,3,1,2,-2,0,-1,0
1537908006653761,-1,-6,-5,-5,-2,8,6,4
1537908006659745,10,3,7,6,9,38,41,-5
1537908006659745,0,8,1,0,-3,-14,-9,36
1537908006675702,5,-2,2,-4,-19,-65,-52,-4
1537908006675702,-21,-5,-6,-3,15,96,15,-86
1537908006676700,-18,4,1,-1,-16,-96,-52,72
1537908006676700,22,1,-2,-4,-11,-29,-13,38
1537908006697643,20,6,8,9,34,90,93,49
1537908006697643,-12,-5,0,-7,-52,-126,-103,-30
1537908006698641,-38,-18,-13,-12,5,79,-49,-70
1537908006698641,2,12,0,3,-2,11,84,54
1537908006713601,19,12,-5,-3,8,47,-17,-27
1537908006713601,20,7,3,6,30,70,47,27
1537908006719587,16,-1,0,0,-4,-47,60,-34
1537908006719587,-28,-18,-6,-6,-4,-19,-63,2
1537908006734546,6,0,1,4,11,27,38,10
1537908006734546,-8,-1,3,1,-1,-25,4,29
1537908006742523,2,0,-5,-3,-3,12,-8,-3
1537908006742523,-1,-6,-4,-3,7,17,3,-30
1537908006759478,-11,-6,-3,-4,-7,-29,-7,0
1537908006759478,-2,-2,-2,-2,-5,-12,-1,-1
1537908006760476,13,-2,-3,-4,-3,-5,-11,30
1537908006760476,2,0,2,2,3,1,8,-19
1537908006773441,-16,-6,-4,-5,-8,-21,-26,-32
1537908006773441,3,1,0,-1,-1,-4,-2,29
1537908006779425,1,1,2,1,4,3,10,-7
1537908006779425,-6,-3,0,2,3,8,0,-36
1537908006795382,-7,-4,-5,-4,-10,-12,-10,-1
1537908006795382,3,-2,-3,1,0,-5,-1,3
1537908006802363,0,4,2,2,3,3,5,2
1537908006802363,1,0,1,1,-1,8,-6,-16
1537908006818320,-1,-1,1,-1,-5,-11,-8,12
1537908006818320,5,3,-1,-1,3,-2,19,12
1537908006818320,-4,-3,-3,-3,-2,-2,-2,-11
1537908006818320,-6,2,3,2,2,8,-7,-7
1537908006834278,11,-1,-2,-1,-2,-8,5,-5
1537908006834278,2,-2,-4,-2,3,2,-1,-8
1537908006840262,10,2,2,2,0,4,8,9
1537908006840262,-4,-5,-2,-4,-2,-1,-3,-5
1537908006855222,-2,1,0,-1,-2,-6,-4,0
1537908006855222,-6,0,2,1,-1,-1,-1,-5
1537908006862203,2,-3,-3,-2,-3,2,-4,8
1537908006862203,-3,0,0,-2,-2,-2,-3,-6
1537908006878161,-11,-3,-1,0,-3,-3,-7,-4
1537908006878161,0,0,1,0,1,0,1,9
1537908006879158,0,2,1,-1,2,1,2,2
1537908006879158,-2,0,2,2,2,2,-5,-9
1537908006894118,-3,-3,-3,1,-1,-3,0,1
1537908006894118,-2,1,0,-1,-3,-1,3,2
1537908006900102,-1,1,-1,1,0,0,-3,-2
1537908006900102,2,-1,-1,-1,-3,1,3,-3
1537908006915062,-6,-2,-1,0,-2,-3,-6,0
1537908006915062,-1,-1,0,1,-1,-3,1,0
1537908006922044,-3,-4,-3,-1,-3,-2,-4,-5
1537908006922044,3,3,1,1,0,2,0,1
1537908006938001,3,0,0,-3,-3,-4,-2,0
1537908006938001,2,-2,-6,-3,-4,-2,-2,-1
1537908006938999,5,5,1,0,0,1,4,4
1537908006938999,-3,-2,-2,-1,-1,-1,-2,-3
1537908006953959,-6,-5,0,-1,-1,-2,-2,-4
1537908006953959,0,-1,1,2,0,0,2,1
1537908006959942,1,-3,-2,-2,-1,-1,-3,2
1537908006959942,-1,2,0,1,0,1,1,0
1537908006974903,-1,2,0,-1,-1,-1,-3,-3
1537908006974903,0,1,1,2,0,1,-1,-1
1537908006982882,-1,0,1,1,-1,-1,-2,-3
1537908006982882,2,-3,-1,-1,-1,-1,1,-1
1537908006999839,-1,-2,0,0,0,-1,-3,-2
1537908006999839,0,-2,1,0,0,0,-2,1
1537908006999839,-1,-2,-3,-3,0,-1,-2,-1
1537908006999839,2,2,0,-4,-5,-2,-1,0
1537908007013800,-2,-3,-2,0,0,-1,0,0
1537908007013800,-2,-2,-2,0,0,0,0,-2
1537908007019785,0,0,1,1,1,0,0,-1
1537908007019785,1,-3,-1,-2,0,0,0,-2
1537908007034743,-5,-1,0,-1,-2,-4,-1,-2
1537908007034743,-1,-1,-1,-2,-1,-1,0,-1
1537908007042723,-3,-1,-3,0,0,0,-1,-3
1537908007042723,2,-1,-2,-1,-2,-2,-1,0
1537908007057681,-2,0,2,-2,-1,0,-2,-1
1537908007057681,1,-3,-1,0,-1,-2,-1,-2
1537908007058679,-2,0,-1,-1,-5,-1,0,0
1537908007058679,-3,-4,0,1,1,1,-1,-2
1537908007073638,-3,-4,-2,-1,0,-1,-1,-1
1537908007073638,-1,-1,-2,-4,-3,-2,-2,1
1537908007079622,0,-2,-1,-2,-2,-1,0,-1
1537908007079622,2,-1,-3,1,0,2,-2,-3
1537908007094582,-1,0,-1,1,1,3,-1,-2
1537908007094582,0,1,-1,-3,-5,-6,-1,0
1537908007102561,-1,-2,0,-1,0,0,-3,-1
1537908007102561,0,4,1,-1,0,-1,0,1
1537908007118518,-1,1,-2,-1,-1,-2,-1,0
1537908007118518,-4,-2,2,4,4,4,1,-1
1537908007118518,-5,0,0,0,-1,-1,-1,-2
1537908007118518,1,0,-1,0,0,-2,-1,-1
1537908007133478,-1,0,-3,0,-1,-1,-2,-2
1537908007133478,-1,-3,1,-2,-2,-2,-1,-1
1537908007139462,-8,-6,-3,0,-1,-1,0,-5
1537908007139462,7,0,2,0,1,3,11,4
1537908007163398,-1,-3,-4,-3,-3,10,3,4
1537908007163398,8,5,-3,0,13,41,11,-5
1537908007163398,-8,-3,1,2,-3,-26,44,83
1537908007163398,24,-1,5,1,-13,-50,-34,-18
1537908007178358,-41,1,-1,-3,17,64,39,-55
1537908007178358,22,9,3,-1,-38,-119,-78,49
1537908007178358,-8,-3,-5,-7,3,109,-43,-76
1537908007178358,-5,9,7,13,17,-42,65,22
1537908007194316,5,-18,-11,-13,-35,-37,-75,-55
1537908007194316,-36,2,-6,-1,33,55,24,-61
1537908007200300,44,11,2,3,7,-72,62,69
1537908007200300,-3,10,1,-2,-21,-12,-55,-68
1537908007215261,2,-3,-1,0,3,-23,-20,7
1537908007215261,26,-13,-7,-2,0,37,5,-29
1537908007222242,16,23,12,6,11,42,3,-20
1537908007222242,-19,-4,1,5,23,40,41,54
1537908007238198,7,2,3,4,-4,-45,14,72
1537908007238198,-15,-4,3,0,-7,-6,-2,9
1537908007239195,-7,-3,0,1,0,0,0,-31
1537908007239195,13,4,-8,-5,-1,18,-14,-7
1537908007269116,-14,2,5,1,-5,-17,-1,-8
1537908007269116,4,-4,0,-2,3,-3,3,5
1537908007269116,7,-3,-2,-3,0,1,-10,4
1537908007269116,-31,-11,-8,-7,-7,-18,-20,-14
1537908007286070,24,-1,0,-2,6,12,5,13
1537908007286070,4,3,4,1,6,7,30,17
1537908007286070,-15,-5,-4,-4,-11,-38,-30,-17
1537908007286070,8,-5,-5,-7,-6,7,-8,3
1537908007300033,6,2,0,0,3,12,19,0
1537908007300033,-6,1,3,0,-4,-8,0,-5
1537908007301030,-8,-4,-4,-3,-6,-21,-3,-7
1537908007301030,-3,-1,1,-2,4,15,-21,-7
1537908007313996,0,0,0,1,3,11,9,7
1537908007313996,-11,-3,-7,-5,-6,-14,-5,-2
1537908007319980,-2,-8,-3,-2,-2,-3,2,3
1537908007319980,9,1,0,0,-1,-3,14,10
1537908007334940,2,4,1,2,-1,-6,-3,-5
1537908007334940,6,-3,1,-1,-4,-7,-14,-2
1537908007341921,-3,-1,-1,-3,-3,0,-2,-4
1537908007341921,-2,-9,-4,-3,-2,2,-1,-2
1537908007357879,-1,0,-2,1,2,2,2,3
1537908007357879,-5,-1,-1,-1,0,0,5,4
1537908007358877,-7,-5,0,0,1,2,-9,-4
1537908007358877,-10,-4,-1,0,-2,1,1,-1
1537908007373838,-1,1,-2,-1,-2,-5,2,4
1537908007373838,-3,0,-1,-1,-2,2,8,2
1537908007379822,-3,0,2,1,-2,-10,-12,-5
1537908007379822,-1,-4,-4,-1,2,3,5,2
1537908007394781,-1,-4,-1,-2,-4,-2,-2,-2
1537908007394781,1,4,4,2,1,0,-2,0
1537908007402760,-3,-3,-1,-2,-4,-5,-3,-3
1537908007402760,-2,1,-1,-1,0,4,2,-1
1537908007417720,2,-1,0,3,3,2,-1,0
1537908007417720,0,-2,-2,-3,-3,-6,-1,-1
1537908007418718,-2,-1,-1,0,-1,-2,-1,2
1537908007418718,1,0,2,-2,-2,4,2,3
1537908007433676,-1,-3,-2,-2,0,-1,0,-2
1537908007433676,-3,-2,-3,-1,0,2,3,0
1537908007439663,2,0,0,0,1,-1,-1,-2
1537908007439663,6,5,2,0,0,0,0,1
1537908007454621,-3,0,0,1,1,1,-1,0
1537908007454621,-2,-3,0,1,0,-1,2,-1
1537908007462601,-2,-2,-1,0,0,1,-3,-2
1537908007462601,-1,-3,-1,-3,-2,0,-1,0
1537908007478556,1,1,2,0,1,-1,0,2
1537908007478556,1,-2,-3,-2,1,0,2,-1
1537908007478556,-1,-3,-1,-2,-2,-3,-3,-2
1537908007478556,-1,-4,-2,-1,-1,2,0,-2
1537908007493516,0,1,1,1,2,1,2,0
1537908007493516,-1,-4,-3,-2,-2,-4,-1,-1
1537908007499500,1,3,0,-1,0,0,-1,-1
1537908007499500,-1,-4,-5,-1,0,0,-1,0
1537908007514460,2,0,1,-1,-1,-1,-2,2
1537908007514460,-2,-4,-3,-4,-2,-2,-1,-1
1537908007522438,3,3,1,0,0,0,2,0
1537908007522438,0,1,-2,1,0,0,2,-2
1537908007545378,1,-1,1,1,-1,0,-3,-1
1537908007545378,3,4,0,-2,0,0,-1,1
1537908007546375,-1,-3,-4,-3,-3,-2,-3,-3
1537908007546375,-1,-2,-1,0,0,0,0,0
1537908007553356,0,-2,-2,-2,-1,-2,0,-1
1537908007553356,-3,-3,1,1,0,2,-1,0
