timestamp,emg1,emg2,emg3,emg4,emg5,emg6,emg7,emg8
1537907274289860,-3,-8,0,7,-1,-2,-2,-1
1537907274289860,0,-4,-14,-16,-4,-1,-1,-2
1537907274290857,-1,-2,-18,8,-2,-5,-2,-2
1537907274290857,-2,1,-9,-5,-7,-4,-2,-2
1537907274291855,0,-5,45,1,0,1,-1,-1
1537907274291855,2,7,-11,-26,1,5,3,1
1537907274292852,0,22,-17,1,1,3,0,1
1537907274292852,1,-5,-5,4,3,1,-2,-2
1537907274303823,-11,-38,-5,10,-4,-3,-2,-1
1537907274303823,1,11,-36,6,4,1,0,8
1537907274319781,5,8,40,-2,-4,-1,-1,-2
1537907274319781,-2,9,8,8,1,-1,-1,3
1537907274321776,1,11,-28,-6,0,-1,-2,-11
1537907274321776,-1,-1,24,-1,-5,-1,-1,-6
1537907274334740,-3,-12,4,0,2,-1,0,3
1537907274334740,1,-22,-7,-1,-1,-1,2,14
1537907274341721,-3,-6,-14,-4,-2,-2,-12,-47
1537907274341721,1,0,0,7,-1,-4,-1,7
1537907274355684,-4,5,-14,-8,-2,0,-2,-9
1537907274355684,-2,-5,61,15,-4,-2,-4,-5
1537907274366654,7,14,-57,-13,-2,2,2,9
1537907274366654,-2,0,15,11,0,0,-1,-1
1537907274379620,-6,-11,-17,-8,-1,-3,-3,-2
1537907274379620,3,14,-19,-10,4,1,0,-5
1537907274419513,1,-14,-6,-23,-5,0,1,1
1537907274419513,0,3,26,7,2,0,-1,1
1537907274419513,1,-5,-17,-2,-1,-2,-1,-2
1537907274419513,-1,-6,-11,0,-3,-1,-2,-2
1537907274420510,-1,2,3,-4,-1,-1,-2,2
1537907274420510,-2,-4,-11,-2,0,-1,-2,-1
1537907274423502,-5,-23,14,11,5,2,-1,-1
1537907274423502,-3,12,0,-14,-8,-4,-1,-2
1537907274430484,0,-3,-2,1,-3,-1,-3,-2
1537907274430484,0,3,-1,-4,-3,-1,0,-3
1537907274438463,-1,4,2,6,-1,-2,-1,-2
1537907274438463,2,-9,4,-1,3,0,-1,0
1537907274447439,-3,13,20,1,-3,-2,-1,-2
1537907274447439,-3,-6,-93,-11,-3,-2,0,1
1537907274461401,-1,4,32,0,-2,-2,-2,-1
1537907274461401,-1,-32,-16,0,2,2,0,0
1537907274468382,-1,11,27,3,0,-3,0,-2
1537907274468382,1,0,16,1,-1,-1,-2,-2
1537907274492318,1,19,-14,-9,-3,-2,2,3
1537907274492318,-3,1,-3,-1,1,-1,-3,-3
1537907274493316,0,-10,-8,8,3,1,1,-3
1537907274493316,-1,3,8,2,-2,1,0,-5
1537907274506281,0,-2,-36,-10,-2,-1,-3,-1
1537907274506281,2,15,53,3,2,0,1,3
1537907274520244,0,2,-29,1,4,-1,1,0
1537907274520244,-3,-9,20,3,0,-3,1,0
1537907274529220,-1,-9,9,1,-3,0,0,-1
1537907274529220,5,22,9,3,8,2,1,-1
1537907274531215,2,25,-61,19,1,0,1,0
1537907274531215,8,14,-37,9,-1,-1,2,4
1537907274551161,-10,-45,47,9,1,-5,-4,-5
1537907274551161,10,27,-16,-5,5,6,4,8
1537907274559140,-2,-6,59,-12,-5,-2,-4,-5
1537907274559140,0,3,-45,91,25,7,5,0
1537907274566121,-5,3,-94,-103,-30,-14,-8,-6
1537907274566121,-11,-31,52,56,2,-2,-4,-5
1537907274573102,1,18,91,-26,-4,-5,-4,-4
1537907274573102,3,5,-12,84,43,15,1,3
1537907274589060,-2,2,78,14,8,1,3,-1
1537907274589060,-6,11,-57,-64,-52,-25,-7,-6
1537907274591055,5,-2,-47,-23,30,17,8,9
1537907274591055,-5,-3,52,-117,-75,-28,-15,-8
1537907274611999,9,-49,-68,50,66,34,19,18
1537907274611999,0,27,84,-37,-25,-9,-4,-4
1537907274613994,-12,-31,4,63,47,4,-5,-7
1537907274613994,1,-4,83,-12,-26,-10,-1,-2
1537907274625962,2,22,-9,-45,-32,-10,-6,-5
1537907274625962,-5,-36,2,27,48,14,2,2
1537907274634938,0,-28,-115,-58,-43,-19,-4,-1
1537907274634938,-6,15,111,-6,2,3,-2,-4
1537907274649898,4,32,54,50,37,15,3,-1
1537907274649898,-9,-32,-109,-37,-66,-29,-12,-10
1537907274650895,5,37,57,30,41,21,5,3
1537907274650895,-8,-23,-20,-28,8,-4,-2,-1
1537907274671840,12,49,27,36,-2,-5,-1,2
1537907274671840,6,28,46,79,43,10,10,6
1537907274673834,1,-21,-73,-98,-52,-22,-4,0
1537907274673834,-3,1,-5,-10,-10,2,-1,-1
1537907274685802,-20,-71,27,14,21,4,-7,-11
1537907274685802,5,63,55,50,-61,-26,-9,-8
1537907274694778,-5,-53,-23,81,-1,2,1,3
1537907274694778,15,53,97,45,30,10,7,8
1537907274709738,-1,-4,-92,19,5,2,0,0
1537907274709738,-1,-29,30,1,16,12,0,0
1537907274710735,-10,-14,-22,-21,5,2,0,-3
1537907274710735,-4,-26,-100,-33,-16,-7,-3,-1
1537907274731679,2,21,6,-3,-26,-10,-3,-2
1537907274731679,2,-12,-50,-46,24,11,3,2
1537907274733675,0,4,38,8,-13,-2,-2,-4
1537907274733675,0,-22,-115,-23,24,12,7,4
1537907274745644,7,23,34,-9,-10,-5,-1,0
1537907274745644,-2,-4,-4,-18,3,4,0,1
1537907274754618,1,5,32,22,5,2,-1,-1
1537907274754618,-3,4,50,2,-10,-5,-2,-2
1537907274769578,-9,-26,-81,18,4,3,2,-1
1537907274769578,4,7,-37,-14,-8,2,1,2
1537907274770576,-1,21,-4,10,-5,-4,-1,-2
1537907274770576,0,-13,-36,-45,-17,-6,-3,-1
1537907274791518,-1,2,50,18,-1,-3,1,0
1537907274791518,-6,-23,5,0,15,6,0,-4
1537907274793514,-1,3,-3,-41,-14,-3,-3,-1
1537907274793514,1,1,-13,14,-6,-5,-2,-2
1537907274805481,0,9,-7,-22,-10,-5,-4,-1
1537907274805481,-4,-3,8,13,10,2,-1,-1
1537907274814457,2,9,21,6,-4,0,-1,-1
1537907274814457,-6,-7,21,14,10,0,-2,-4
1537907274829417,3,9,-51,-51,-13,-3,2,4
1537907274829417,4,-4,-39,-5,1,2,1,2
1537907274831412,-1,0,20,-2,-4,0,0,2
1537907274831412,-3,-9,11,11,5,3,0,0
1537907274852356,-1,0,49,6,-6,-3,-4,-4
1537907274852356,-2,-6,-35,-33,1,-1,-1,-3
1537907274853353,-3,3,58,30,14,2,1,-2
1537907274853353,9,27,0,33,4,3,2,5
1537907274865321,-4,-5,7,-13,-6,-3,-2,-2
1537907274865321,-3,-17,-17,1,5,1,0,1
1537907274874297,-1,-6,19,6,2,-1,1,-1
1537907274874297,-3,-9,18,-14,-8,-4,-2,-2
1537907274889257,-1,1,-2,0,-4,-2,0,-2
1537907274889257,3,10,12,9,4,4,1,1
1537907274891252,0,1,-27,3,-4,-1,-1,1
1537907274891252,-3,-5,-2,-9,2,0,-4,-1
1537907274912196,2,4,-7,0,-4,-1,0,-1
1537907274912196,-3,-4,13,-1,0,-1,-1,-2
1537907274913193,0,7,-10,-1,-5,0,0,-3
1537907274913193,-2,0,-12,-9,-1,-1,3,-3
1537907274925162,0,0,25,2,1,0,0,14
1537907274925162,-1,7,8,5,2,-4,-4,-5
1537907274934137,0,-6,-8,-2,-3,-1,-2,-8
1537907274934137,-6,-14,-6,-2,-1,1,-5,-17
1537907274949098,3,-2,8,3,-3,-1,10,59
1537907274949098,-2,2,5,6,3,4,-9,-71
1537907274951092,-7,2,-13,-2,-4,-4,-9,8
1537907274951092,9,7,1,-8,-5,-4,-2,26
1537907274972036,1,-45,-1,-6,-5,-4,-3,-10
1537907274972036,-1,-4,-7,0,1,1,9,25
1537907274973034,-1,-5,3,1,2,3,4,12
1537907274973034,-2,0,6,0,1,2,3,-23
1537907274985999,-2,17,4,-2,-5,-9,-15,1
1537907274985999,3,3,-3,2,-1,-5,-9,0
1537907274994975,1,-5,1,1,-2,-1,-4,-37
1537907274994975,-1,-1,-5,-2,-1,3,15,59
1537907275008937,-6,21,-2,2,2,4,0,-29
1537907275008937,0,12,87,14,-3,-4,1,13
1537907275015919,-7,-37,-105,-25,8,1,1,5
1537907275015919,3,19,39,-2,-13,-3,-3,-8
1537907275031876,-6,-32,9,5,3,0,2,-17
1537907275031876,-1,16,29,2,2,1,-2,11
1537907275033871,1,3,13,0,2,-1,1,-14
1537907275033871,-2,-3,-25,-7,2,0,-4,-1
1537907275045839,-2,-1,6,-1,-3,-1,-4,-4
1537907275045839,2,-21,-15,2,-3,1,2,9
1537907275054815,1,6,21,5,-4,-5,-2,-4
1537907275054815,-4,-5,-25,-5,0,-4,-6,-13
1537907275068777,3,13,16,-6,-3,-1,2,12
1537907275068777,-1,-3,-27,-4,6,5,4,-13
1537907275075759,4,14,18,1,-4,-1,-1,12
1537907275075759,-4,-9,13,7,3,-1,-1,-4
1537907275091716,-1,7,20,-7,0,1,1,-5
1537907275091716,-3,-5,-88,10,2,-1,4,8
1537907275093711,8,17,72,27,1,1,2,9
1537907275093711,0,-5,-19,5,-3,-2,-2,-5
1537907275105679,-4,2,15,-20,-8,-1,2,-6
1537907275105679,-3,2,19,-45,0,-3,-1,0
1537907275114655,-4,-7,-19,9,-6,-4,0,1
1537907275114655,0,-6,15,15,8,2,0,-4
1537907275128617,1,3,-12,6,2,0,0,-7
1537907275128617,0,-5,30,4,-7,-1,-1,5
1537907275135599,0,7,-8,6,1,-1,2,7
1537907275135599,-2,-16,25,-2,-2,0,-1,-3
1537907275151556,-1,17,-25,1,2,-2,-2,-6
1537907275151556,3,-12,-17,3,-2,-3,-1,4
1537907275153551,0,7,0,-11,-5,0,0,0
1537907275153551,-2,7,-16,-6,-2,-3,-5,-35
1537907275165520,6,5,22,1,1,1,0,28
1537907275165520,-4,-7,-17,-2,-3,-2,-2,-1
1537907275174495,3,14,-14,-10,2,1,-6,-14
1537907275174495,-6,-7,10,-8,1,-2,-1,-6
1537907275188457,0,6,4,3,-5,-1,-2,-14
1537907275188457,2,3,9,-2,1,1,6,23
1537907275195439,-8,8,-15,9,-5,-5,-11,-21
1537907275195439,-5,-37,-35,-10,-1,-1,-1,-1
1537907275212393,-2,6,4,10,4,2,1,-9
1537907275212393,0,-8,-38,-1,1,0,-1,5
1537907275213391,-2,16,33,-31,-16,-9,-2,3
1537907275213391,0,8,-5,-2,1,0,0,7
1537907275234335,-1,-5,-2,11,3,-2,0,1
1537907275234335,0,-5,10,32,8,1,-2,-7
1537907275240319,-1,-23,2,-35,-2,0,4,5
1537907275240319,4,42,10,1,-2,0,-2,3
1537907275249295,1,-9,-19,-4,-1,-1,-1,3
1537907275249295,-2,5,-6,1,1,1,0,-4
1537907275255279,-5,-21,9,16,3,-1,-1,-30
1537907275255279,1,2,-37,-10,-5,-1,-1,20
1537907275272233,2,8,10,-1,0,0,3,16
1537907275272233,-4,-20,-17,-9,-4,-3,-5,-21
1537907275273231,-4,-11,20,3,0,1,5,12
1537907275273231,0,7,17,7,1,0,0,-8
1537907275294175,4,7,-23,-6,-5,-2,2,34
1537907275294175,1,3,-1,-5,-4,-1,-5,-34
1537907275296170,2,5,-15,12,1,-2,-2,6
1537907275296170,2,0,-10,1,3,3,2,3
1537907275309135,-4,-15,-6,6,4,-1,-6,-16
1537907275309135,0,8,7,-13,-7,-1,2,20
1537907275316116,0,-3,-12,-5,-2,-1,-1,5
1537907275316116,-5,-15,27,0,-1,-2,-1,-8
1537907275332074,2,17,-15,-7,-4,-2,-1,-9
1537907275332074,-2,9,2,4,3,0,2,1
1537907275333072,2,17,10,14,3,1,0,6
1537907275333072,-3,-29,14,-29,-12,-5,-3,3
1537907275354015,-2,-3,-16,-5,3,0,-1,-13
1537907275354015,1,3,-32,-3,1,-1,2,5
1537907275356010,3,1,-2,6,1,0,2,9
1537907275356010,2,9,6,9,2,-1,-2,1
1537907275367977,-4,-6,21,-10,-3,-1,-3,-13
1537907275367977,0,-12,31,7,-7,-2,-4,-1
1537907275376954,2,19,-25,-8,1,0,2,8
1537907275376954,-2,-7,-4,5,3,2,-1,-3
1537907275398895,-3,-7,4,-3,-3,-1,-3,-23
1537907275398895,-2,1,-5,4,2,0,12,37
1537907275399892,-6,-14,20,-4,2,0,0,6
1537907275399892,4,3,-26,-2,-4,-2,-2,4
1537907275414852,-2,14,-20,3,-2,-2,2,18
1537907275414852,-1,13,18,-4,-4,-2,-9,-31
1537907275415850,-3,-17,-1,-2,1,0,0,1
1537907275415850,2,-16,-2,13,3,-1,3,-5
1537907275435796,-2,-11,-2,-11,-8,-2,-2,-3
1537907275435796,-1,6,-19,-7,5,2,0,7
1537907275436793,3,11,12,-3,0,-1,-1,2
1537907275436793,-6,-15,3,6,0,-2,-4,-8
1537907275458735,1,4,-1,6,0,2,1,-2
1537907275458735,-1,-5,9,-6,-3,0,-1,1
1537907275459732,2,0,-1,18,5,3,1,-6
1537907275459732,1,20,3,-5,3,-1,1,3
1537907275473695,0,-7,-16,-2,-5,-1,0,-5
1537907275473695,-3,-2,0,2,0,-4,-3,-4
1537907275474692,1,-4,-13,-1,-3,-3,-2,1
1537907275474692,-1,2,9,2,0,1,1,0
1537907275496633,-2,8,9,-5,0,-1,-1,-3
1537907275496633,0,-1,6,2,-1,1,-1,-2
1537907275496633,0,3,2,-3,1,1,-4,-4
1537907275496633,0,10,-39,-5,-3,-1,-1,0
1537907275519572,-4,-13,8,2,0,0,-1,-4
1537907275519572,-2,-4,1,-1,-1,-1,0,5
1537907275519572,-2,0,13,-1,-4,0,1,0
1537907275519572,-1,16,13,-8,-2,-2,-2,-8
1537907275533535,1,-16,-25,-2,0,0,11,48
1537907275533535,1,-17,19,4,0,1,2,6
1537907275541514,0,7,-20,-5,-2,-1,0,-1
1537907275541514,-2,1,47,5,1,1,-1,7
1537907275556474,-1,3,-44,2,-1,-1,-3,-18
1537907275556474,1,-1,-6,-5,3,0,-1,0
1537907275557472,-2,-13,-10,-4,-3,-2,0,7
1537907275557472,-1,-1,-2,0,-2,1,-3,-10
1537907275579412,-1,3,60,12,1,-1,-4,-12
1537907275579412,-5,3,-13,-5,-2,-2,-2,-3
1537907275580410,2,-8,-47,-8,-5,-4,-4,-6
1537907275580410,-1,8,15,4,3,0,0,1
1537907275593375,2,2,9,0,-1,0,-3,-5
1537907275593375,-1,1,10,5,2,0,-2,2
1537907275601354,5,5,-2,-9,-7,-3,1,0
1537907275601354,-3,0,-1,-1,0,1,0,3
1537907275616314,-1,-18,-4,2,1,-1,1,-2
1537907275616314,0,11,3,4,1,0,-3,-7
1537907275617311,-4,-8,25,4,1,2,-1,-1
1537907275617311,4,2,-20,-4,-1,-1,1,1
1537907275639253,-2,20,-12,-1,1,-2,-1,-4
1537907275639253,-3,-10,8,-1,-3,-1,-4,-10
1537907275640250,1,-6,-25,-8,0,2,-1,0
1537907275640250,-1,-7,-2,3,0,-1,-1,4
1537907275654212,0,6,-6,2,-2,-1,-3,-1
1537907275654212,1,-5,1,-2,-4,-3,2,2
1537907275654212,2,25,27,6,0,-2,0,2
1537907275654212,-3,-6,-22,-6,-2,-1,-2,-5
1537907275676154,-4,-8,3,-6,-1,-1,-2,-4
1537907275676154,1,7,14,-1,-3,-1,-1,0
1537907275677151,-3,-8,-14,1,3,1,-1,-4
1537907275677151,2,3,4,2,-2,-2,0,0
1537907275699092,-2,-3,21,-1,1,1,0,-4
1537907275699092,-1,-17,-39,-4,-5,0,0,0
1537907275700090,-4,6,6,-2,1,0,-2,-2
1537907275700090,1,6,15,-3,-2,1,-1,1
1537907275714052,0,-7,2,0,-5,-3,-1,-2
1537907275714052,-1,-2,1,3,3,0,-1,-2
1537907275714052,3,5,0,-9,-2,-1,0,0
1537907275714052,-6,10,-17,14,1,-1,-2,-2
1537907275735994,4,1,21,-6,2,0,0,-4
1537907275735994,-1,-2,-1,-4,-2,-3,0,2
1537907275736991,-2,-10,-7,2,-1,-1,0,0
1537907275736991,-1,-7,-7,-6,-2,-2,-1,-1
1537907275759930,0,4,14,0,-2,1,-2,-4
1537907275759930,-2,3,-12,4,1,1,-2,-2
1537907275759930,-1,-9,9,3,1,0,-2,1
1537907275759930,1,7,-1,2,-1,-4,-1,-1
1537907275773893,-8,-24,-10,2,7,2,-3,-5
1537907275773893,-3,-23,-68,-45,-26,-13,-5,-5
1537907275774890,7,24,62,34,19,7,3,6
1537907275774890,-4,-15,7,-41,-24,-9,-4,-3
1537907275796831,-1,-7,-17,0,3,-2,-1,1
1537907275796831,0,23,29,29,9,3,1,1
1537907275797829,-7,-17,-49,-38,-2,4,1,-4
1537907275797829,0,8,93,46,0,-1,0,-3
1537907275818773,-1,-24,-100,-47,2,-1,0,0
1537907275818773,4,58,81,-25,-50,-16,-6,-5
1537907275819770,2,-52,-89,-19,36,15,7,7
1537907275819770,7,-9,-65,-84,-1,6,6,8
1537907275833732,-4,0,89,108,24,9,3,-3
1537907275833732,-1,15,38,28,-9,-16,-7,-4
1537907275834730,0,37,98,-73,-51,-16,-4,-2
1537907275834730,-10,-58,-89,20,6,5,-1,-3
1537907275856671,8,26,40,-68,5,5,6,6
1537907275856671,-4,-16,32,33,28,13,6,3
1537907275856671,1,10,-52,125,90,29,7,0
1537907275856671,-7,20,70,-81,-75,-43,-14,-11
1537907275878612,10,9,-88,-26,37,8,2,1
1537907275878612,0,-9,91,78,22,6,3,3
1537907275879610,-5,-2,-89,40,31,1,-5,-5
1537907275879610,5,4,93,32,5,14,8,5
1537907275893572,-2,-19,-64,46,11,4,-3,1
1537907275893572,7,-1,0,-66,-36,-15,-1,4
1537907275894570,-1,-3,95,-42,-3,8,2,1
1537907275894570,-21,-16,-12,65,-2,-9,-10,-15
1537907275916511,6,23,-62,-25,-23,-9,0,6
1537907275916511,-1,6,-47,9,28,18,1,0
1537907275916511,-5,0,66,-10,-42,-10,-9,-4
1537907275916511,4,11,2,-35,39,5,-1,1
1537907275947428,-13,-20,2,-44,-84,-27,-10,-11
1537907275947428,7,-9,-32,33,43,18,7,4
1537907275947428,-4,-7,0,14,-1,-2,-1,-3
1537907275947428,1,7,-3,-11,5,5,4,1
1537907275953413,3,32,19,13,16,-1,0,-1
1537907275953413,-8,-22,-16,-16,-77,-27,-11,-8
1537907275954410,-8,-10,-59,-5,-18,-10,-4,-4
1537907275954410,13,43,-8,22,7,10,6,9
1537907275976351,-1,-11,113,6,15,4,-1,0
1537907275976351,-6,2,-75,-13,13,3,2,-3
1537907275977349,4,-5,17,-10,-18,-9,-1,1
1537907275977349,-1,-11,-45,37,23,9,3,2
1537907275998292,-7,-17,-38,-15,3,1,-1,-4
1537907275998292,1,10,-41,-44,11,1,1,-1
1537907275999290,-1,-24,4,-13,-3,-6,-2,1
1537907275999290,0,2,10,12,7,-1,-2,-1
1537907276014250,-3,-4,34,12,-8,-2,-2,-3
1537907276014250,-2,-16,-9,-19,6,0,0,-1
1537907276014250,-1,10,30,9,-11,-7,-3,-3
1537907276014250,-4,-25,-27,-4,-8,-4,-1,-3
1537907276036191,3,7,20,2,-2,0,-2,0
1537907276036191,-4,-12,3,23,18,7,1,1
1537907276037189,-1,12,22,-1,-10,-6,-2,-3
1537907276037189,2,17,7,2,6,2,-1,0
1537907276059130,-2,-9,-7,16,-3,-2,-1,-3
1537907276059130,0,-11,13,3,8,0,0,0
1537907276059130,0,-15,-10,-4,-9,-5,-1,-2
1537907276059130,-1,-19,-18,-6,-5,-2,-1,-1
1537907276074090,0,-6,6,14,3,1,0,0
1537907276074090,-1,1,21,-5,0,-1,-1,-1
1537907276074090,-2,3,-15,-5,-5,-1,0,-1
1537907276074090,1,-1,-4,13,7,-1,-1,-1
1537907276096031,-6,-8,32,1,-4,-2,-3,-2
1537907276096031,5,20,-29,-5,4,1,-2,0
1537907276097029,0,19,-4,4,-5,-2,-1,-1
1537907276097029,-4,-8,5,4,3,1,-1,-1
1537907276118970,0,1,4,-1,-2,-3,-1,0
1537907276118970,-1,-4,0,-6,0,0,0,-1
1537907276119967,0,3,1,2,1,-2,-2,-3
1537907276119967,-3,-27,-28,-9,-5,-5,-2,0
1537907276133930,4,21,22,7,1,1,-1,1
1537907276133930,-4,-20,2,3,4,0,-1,-4
1537907276134927,-1,5,3,-2,-2,-2,0,-1
1537907276134927,-1,-4,5,5,1,1,-2,-2
1537907276155872,0,2,-8,-3,-4,-3,-2,-2
1537907276155872,-1,11,2,7,3,1,-1,0
1537907276156869,2,-1,15,-4,2,2,0,1
1537907276156869,0,25,-7,-7,3,0,0,-1
1537907276178810,-2,-23,-35,4,-12,-6,0,-1
1537907276178810,-2,9,19,-18,-8,-2,-2,-3
1537907276179808,-1,6,-13,19,-6,-5,-1,-1
1537907276179808,-2,-38,7,-5,1,3,0,-2
1537907276193770,4,20,22,6,6,1,1,0
1537907276193770,-2,-7,-4,4,1,1,0,1
1537907276194768,-3,-8,-1,-11,-1,0,-2,-2
1537907276194768,-1,4,-11,3,-5,-1,-2,0
1537907276216709,-2,4,2,2,-1,-1,-2,-1
1537907276216709,1,-11,-1,-2,1,0,0,0
1537907276216709,-1,-6,-1,5,3,-1,0,-1
1537907276216709,1,16,-4,-14,-3,-2,0,0
1537907276246629,-1,-3,-4,6,1,0,0,-3
1537907276246629,1,6,10,1,1,-1,-1,-1
1537907276247626,0,-4,-6,4,4,3,0,2
1537907276247626,1,7,7,22,3,-2,1,-1
1537907276253610,-2,-1,-12,-28,-14,-2,-1,-1
1537907276253610,-1,-1,36,9,1,-1,-1,0
1537907276254608,-2,-3,-30,-13,-2,-3,-3,-1
1537907276254608,-2,-1,-14,-26,-7,-3,0,1
1537907276276549,0,3,14,14,6,3,0,1
1537907276276549,0,2,-8,13,-1,-2,0,0
1537907276276549,0,-6,-3,-20,7,5,1,2
1537907276276549,-1,7,12,14,2,-2,-1,0
1537907276298490,-2,-2,6,10,6,0,-1,-1
1537907276298490,-1,0,2,-11,-3,-2,0,-1
1537907276299488,-1,-5,3,9,-2,-3,-1,-1
1537907276299488,2,0,-19,2,1,1,0,1
1537907276313450,-2,2,8,-10,-1,1,0,-1
1537907276313450,-1,-2,54,19,12,4,1,-1
1537907276321429,2,-2,-47,8,-12,-5,-1,0
1537907276321429,1,1,-7,0,0,-1,0,0
1537907276336389,-2,-4,-19,-6,-1,-2,0,0
1537907276336389,-2,-1,-2,-8,-4,-3,-1,-2
1537907276337386,-2,2,51,28,8,1,2,-1
1537907276337386,-2,-3,-22,-6,-12,-4,-2,-1
1537907276359327,1,9,24,-3,3,0,-1,-1
1537907276359327,0,-5,-26,-11,-1,0,0,0
1537907276360325,-1,2,7,-8,-2,-3,0,3
1537907276360325,0,-1,17,15,3,1,-1,-3
1537907276373290,-1,-9,-29,-3,-2,-2,-1,-2
1537907276373290,-3,5,26,-2,-3,-1,-2,-2
1537907276381270,3,-5,-20,1,-2,-2,0,-1
1537907276381270,0,-5,16,-1,1,1,-2,-5
1537907276396229,5,14,-28,-2,0,2,17,38
1537907276396229,-4,-4,-15,-1,-2,1,1,-4
1537907276397228,-7,1,-5,-6,-6,-2,-3,-7
1537907276397228,-4,-3,32,5,5,1,2,4
1537907276419167,-3,1,-16,-1,1,-1,-6,-11
1537907276419167,6,12,-18,-1,-3,-3,-1,5
1537907276420165,-1,-7,13,-12,-3,-1,0,2
1537907276420165,2,8,13,3,-1,-3,-2,-3
1537907276433130,-2,-15,-1,2,1,0,-3,-6
1537907276433130,-2,-7,-20,-3,-3,-3,0,2
1537907276441109,-2,-2,3,-5,-3,-1,-4,-8
1537907276441109,0,-4,-6,-6,0,-1,1,-1
1537907276456069,-1,14,-7,4,-4,-1,-3,-6
1537907276456069,-4,-12,-1,-9,-2,-3,-1,-4
1537907276457066,1,-3,-7,-1,3,2,-1,4
1537907276457066,-5,-1,-18,0,-2,1,-3,0
1537907276479008,1,3,2,-1,1,0,0,-1
1537907276479008,-1,-7,-9,0,-1,-1,-3,-2
1537907276480005,2,3,13,4,0,-2,1,1
1537907276480005,-1,-1,-6,-5,0,0,1,1
1537907276492970,-3,4,6,-1,-1,-2,-3,-5
1537907276492970,-1,2,-2,2,-1,-1,-3,-3
1537907276500949,-1,-2,-7,-4,-1,0,0,0
1537907276500949,2,6,10,3,-1,-1,0,0
1537907276515909,-1,-9,-4,-1,-3,-3,-1,-4
1537907276515909,-1,-1,-3,-4,0,0,1,1
1537907276516906,-1,3,-4,-6,-2,-1,-2,0
1537907276516906,0,-2,-6,-2,0,1,-1,-1
1537907276539845,-4,-5,27,4,-1,-2,-1,-2
1537907276539845,0,0,-11,3,-2,-3,0,0
1537907276539845,0,-1,10,1,-2,-1,-2,-3
1537907276539845,-2,-1,-3,-1,-1,-1,1,-1
1537907276552810,-1,-7,-2,-3,0,0,-2,-2
1537907276552810,1,2,7,3,0,0,-1,-2
1537907276560789,-2,-1,-7,-2,-1,-1,-1,1
1537907276560789,1,0,3,0,-2,-3,0,0
1537907276576747,-1,-2,1,-3,-3,-1,-1,-2
1537907276576747,1,-2,-6,-4,-2,-2,0,0
1537907276576747,-2,-2,2,1,0,0,-1,-1
1537907276576747,0,-2,-3,0,2,-1,-2,-2
1537907276600683,-1,-1,5,-2,0,-1,-1,-3
1537907276600683,-1,-1,-7,-3,-2,-1,-1,0
1537907276601680,-1,-3,-6,-2,-2,-1,2,3
1537907276601680,-1,1,3,-3,0,1,-4,-4
1537907276620629,1,1,6,4,0,0,-1,-3
1537907276620629,-1,-3,-10,-1,1,0,1,-1
1537907276628608,-3,0,2,-1,-1,0,-1,-3
1537907276628608,0,0,-4,-3,-2,1,1,2
1537907276636587,0,-1,3,-3,-1,-2,-2,0
1537907276636587,-2,2,4,0,0,-2,-3,-2
1537907276636587,0,-2,-15,-4,-2,0,-1,1
1537907276636587,-1,-1,-2,-2,-1,-1,-1,-2
1537907276659525,-2,-3,-4,0,0,-3,0,0
1537907276659525,-2,0,5,0,-2,0,1,-1
1537907276660522,0,1,0,-3,-2,-2,-1,-2
1537907276660522,-2,0,3,0,-1,0,-1,-2
1537907276682463,1,0,-1,-2,0,-2,-2,1
1537907276682463,-2,0,-7,-2,-1,-1,0,0
1537907276682463,-2,-2,8,0,-1,-2,-1,-2
1537907276682463,1,-1,-14,1,-1,-2,0,0
1537907276696426,-1,1,-5,-3,0,1,1,-1
1537907276696426,0,1,5,0,0,-1,-1,0
1537907276697424,1,-1,-8,0,-2,-1,-1,-2
1537907276697424,-2,0,8,0,0,-1,-1,-1
1537907276719365,-1,-4,1,-3,-2,-1,0,-2
1537907276719365,1,-3,-9,0,-1,0,-2,-2
1537907276720362,1,-1,6,0,-1,-1,0,-1
1537907276720362,-2,-3,3,-1,-1,0,0,-1
1537907276742304,3,2,-4,-3,-3,-1,-1,1
1537907276742304,0,-1,1,0,0,-1,-1,-1
1537907276742304,0,-3,-2,-1,0,-1,0,-1
1537907276742304,-2,-1,3,0,-1,-1,0,-1
1537907276756267,-1,-3,-5,-1,0,-1,0,-1
1537907276756267,0,-1,0,-2,0,1,-2,-1
1537907276757264,0,-1,1,1,0,-1,0,0
1537907276757264,2,-1,-3,1,0,-1,-1,-1
1537907276779205,-2,-2,1,-1,-1,-1,-1,-3
1537907276779205,0,0,1,-3,0,0,1,1
1537907276780203,-1,-1,0,-2,0,-1,-1,-2
1537907276780203,0,-2,-1,-3,-1,0,-3,1
1537907276802144,-2,0,1,1,0,-3,0,-2
1537907276802144,-1,0,-1,0,-1,-2,0,0
1537907276803141,-1,-1,-3,-1,0,0,-1,-2
1537907276803141,-2,1,1,-1,-1,-1,0,-1
1537907276815110,-1,-1,0,0,0,0,1,0
1537907276815110,0,-1,-4,-1,-1,0,-1,-2
1537907276824085,0,1,-1,-1,-2,0,-1,-1
1537907276824085,0,-8,-3,1,-1,0,1,-2
1537907276839045,-4,-10,1,4,1,1,-1,-1
1537907276839045,0,-2,0,-6,-1,-1,-1,0
1537907276840042,-2,4,9,2,1,2,0,0
1537907276840042,2,-14,-3,7,2,-1,-1,0
1537907276861984,-2,-6,-4,20,10,1,0,-4
1537907276861984,-4,27,-5,-9,7,2,0,-3
1537907276862981,4,-8,-42,31,-4,-3,1,2
1537907276862981,1,23,25,21,11,3,0,-2
1537907276875946,-7,-52,39,34,15,4,0,-3
1537907276875946,8,45,-71,17,-39,-19,-10,-6
1537907276884922,-10,-66,28,-29,25,14,5,2
1537907276884922,-2,56,-71,-65,-24,-11,-1,-1
1537907276898885,5,16,77,43,35,12,0,4
1537907276898885,-1,-7,52,51,40,11,0,-1
1537907276906864,-4,-8,7,-101,-104,-38,-11,-6
1537907276906864,-6,-46,-43,22,30,12,2,2
1537907276921824,4,24,21,-88,-29,-5,0,2
1537907276921824,1,-30,8,69,46,14,12,9
1537907276923819,-1,11,91,127,31,5,-2,-3
1537907276923819,-7,-8,-12,-37,-29,-6,-6,-2
1537907276935787,0,-4,-15,-11,-21,-11,-5,-5
1537907276935787,-1,6,5,-81,-9,7,4,3
1537907276944763,0,4,10,94,35,9,1,-1
1537907276944763,2,20,62,-3,30,12,7,-1
1537907276959722,-6,-11,-58,50,-10,-6,-5,-5
1537907276959722,-2,-12,-54,-58,17,9,1,0
1537907276960720,0,18,24,11,-49,-21,-4,-2
1537907276960720,-1,-13,-67,2,4,-1,-1,0
1537907276981664,4,25,68,66,34,13,7,4
1537907276981664,-5,11,-26,-56,-9,-13,-5,-4
1537907276983659,1,-17,-91,-83,2,3,0,1
1537907276983659,-1,1,64,119,22,5,0,1
1537907276995627,4,11,-13,-93,-33,-12,-2,2
1537907276995627,3,-14,27,20,-11,-4,1,1
1537907277004603,-4,-9,5,-40,2,4,0,-2
1537907277004603,6,10,12,-22,-1,-5,0,1
1537907277019562,-5,-9,-74,15,8,2,-1,-3
1537907277019562,-1,3,106,33,-21,-6,-4,-4
1537907277020560,1,16,-6,1,22,5,1,-2
1537907277020560,-1,-20,-74,-23,-19,-4,-2,-3
1537907277041504,-3,10,11,2,-14,-4,-2,-1
1537907277041504,-1,-17,-32,-8,-10,-2,-3,0
1537907277043499,0,14,11,6,14,5,1,0
1537907277043499,-4,-9,18,-1,-7,-3,-2,-2
1537907277055467,0,-6,-25,-19,-7,-6,-2,-1
1537907277055467,-4,-4,-6,-8,-5,-1,-1,-3
1537907277064443,1,0,-15,1,6,2,-2,0
1537907277064443,1,-4,20,-12,-14,-6,-2,-1
1537907277078405,-2,-5,-24,-18,0,1,-2,-2
1537907277078405,-3,-9,15,10,-1,0,-2,-2
1537907277087381,0,8,-12,-7,1,-1,0,0
1537907277087381,-1,-1,4,-7,-3,-2,0,-3
1537907277103339,0,2,4,3,0,2,-2,-1
1537907277103339,-1,-6,-12,5,-5,-3,-1,-3
1537907277104336,0,3,-10,-9,0,0,-1,-1
1537907277104336,-1,2,12,-7,-3,-1,-2,0
1537907277115307,-1,-4,-4,-5,1,1,-2,-3
1537907277115307,-2,0,-4,-1,-5,-2,-2,-10
1537907277124282,2,3,-10,-10,1,1,1,18
1537907277124282,-6,-4,20,-1,0,-2,-6,-14
1537907277140240,7,4,-7,-5,-4,-1,6,14
1537907277140240,6,-3,-8,4,1,3,15,24
1537907277141237,-23,-3,2,2,4,-5,-16,-82
1537907277141237,-6,-1,3,-3,-6,-2,-14,-5
1537907277162182,-1,-3,-8,-7,-7,-1,-4,-7
1537907277162182,0,2,-5,-2,-1,10,-1,3
1537907277163179,12,1,-2,-2,4,15,36,60
1537907277163179,3,1,7,2,1,22,19,21
1537907277184124,-9,-3,-4,-4,-9,-101,-13,6
1537907277184124,-12,-4,0,-2,-8,-12,-55,-81
1537907277186118,-12,-2,-6,-7,-2,-8,-31,-6
1537907277186118,5,2,0,-3,1,23,16,0
1537907277199084,4,4,-5,-7,2,30,17,20
1537907277199084,2,1,8,9,4,0,20,20
1537907277206064,1,2,0,1,-1,5,2,-12
1537907277206064,3,1,3,-1,-1,0,0,2
1537907277222021,0,-5,2,8,3,13,0,-5
1537907277222021,-3,-4,-11,-13,-3,-10,1,3
1537907277223019,2,2,10,11,3,6,-2,2
1537907277223019,3,4,-9,-10,1,-14,-2,12
1537907277235984,-5,-8,-2,-9,-16,-1,-6,-13
1537907277235984,-2,-10,-1,-5,2,7,2,0
1537907277244960,0,13,14,-5,6,-1,4,11
1537907277244960,3,0,-35,3,-8,-17,-6,-4
1537907277258923,-4,-2,-15,6,8,13,-5,-12
1537907277258923,1,1,5,2,-4,1,3,10
1537907277266902,2,-8,-11,-2,-3,-7,-2,-1
1537907277266902,-2,5,36,-1,-1,-7,-6,-10
1537907277281862,-2,2,-11,-1,2,14,-1,-4
1537907277281862,-2,-4,-6,6,-1,-2,5,17
1537907277283856,2,5,-9,-12,-5,-7,-2,-3
1537907277283856,-3,-11,4,0,-4,-1,-2,-1
1537907277295824,-1,13,5,-3,0,7,0,-6
1537907277295824,-2,3,3,3,3,-2,2,-1
1537907277304800,1,-8,-11,-1,2,1,0,0
1537907277304800,-2,-3,-2,-7,0,-2,-6,-8
1537907277319760,-1,-2,5,-3,-7,1,-1,1
1537907277319760,-1,1,-2,5,-2,-2,-2,-1
1537907277320757,2,3,-4,-16,-3,-1,1,1
1537907277320757,-3,-3,27,53,4,-3,-1,2
1537907277343696,2,-1,-2,-39,5,5,0,0
1537907277343696,-1,-4,-46,6,-5,1,-1,2
1537907277344693,0,-15,-24,-74,-19,-7,-2,2
1537907277344693,1,-2,12,-18,-3,-5,-2,1
1537907277355664,2,-3,6,29,5,1,-2,-1
1537907277355664,-1,-18,15,-6,3,3,0,-1
1537907277364640,-1,13,0,32,2,0,2,-3
1537907277364640,-2,-19,13,5,0,-2,-1,-2
1537907277378603,-4,20,2,-4,-2,2,-1,-4
1537907277378603,7,-2,-2,-2,1,-2,2,3
1537907277385585,-2,7,-3,9,-1,-2,0,-2
1537907277385585,-3,-1,-7,-7,1,-1,-3,-3
1537907277401542,-1,-3,-3,3,-2,0,-1,-1
1537907277401542,-2,8,7,-2,1,-3,-2,-2
1537907277403536,-1,-1,3,9,3,1,-3,-1
1537907277403536,0,8,-11,-10,-5,-2,-1,-1
1537907277415504,-1,-6,1,-4,2,1,1,1
1537907277415504,-1,3,-3,-1,-2,-1,0,-1
1537907277424480,0,-7,10,11,1,0,1,2
1537907277424480,-2,3,-11,-10,-3,-1,-2,-1
1537907277438443,0,-6,-4,4,-1,-2,-1,1
1537907277438443,-2,-8,9,5,3,0,0,1
1537907277445424,0,-5,1,0,-2,0,0,3
1537907277445424,-1,-4,-6,2,-3,-2,-1,-1
1537907277462379,-1,-7,-1,-14,1,1,0,0
1537907277462379,0,12,5,-5,-6,-3,-1,-1
1537907277463376,0,-4,1,8,4,0,-3,-2
1537907277463376,0,1,-6,-3,1,-1,-1,-2
1537907277475344,-1,1,-1,10,3,1,-1,-1
1537907277475344,-1,-2,4,-5,-1,0,-1,0
1537907277484320,-4,-3,8,17,-1,-1,-1,0
1537907277484320,-1,0,-6,-6,-4,0,0,-2
1537907277499280,0,-1,-1,16,1,0,-1,-1
1537907277499280,-1,3,-2,-18,-5,-2,-3,-1
1537907277507259,-2,-4,-1,-3,0,0,1,0
1537907277507259,1,2,17,6,1,0,1,-1
1537907277522219,0,2,-7,-2,0,2,-1,0
1537907277522219,-1,1,-1,6,0,-3,-1,-1
1537907277523216,2,7,0,-11,-2,-1,0,0
1537907277523216,-4,-6,-5,-4,0,-2,0,-1
1537907277535185,0,-13,1,-1,-1,-1,0,0
1537907277535185,-1,13,5,7,1,-2,0,-1
1537907277544160,0,0,0,0,-2,-3,-2,0
1537907277544160,-1,-3,-5,-4,2,2,-3,0
1537907277559121,-1,-1,-1,-7,-3,-2,-2,-1
1537907277559121,-3,-7,-4,4,-2,-2,-2,-1
1537907277565104,-1,-1,-3,-10,-4,-2,-1,-2
1537907277565104,-1,5,-4,1,0,-1,-1,-2
1537907277582059,-1,-3,2,1,0,1,-1,1
1537907277582059,0,6,1,-5,-3,1,0,0
1537907277583056,0,-1,-3,2,1,0,-1,-2
1537907277583056,0,-4,-2,0,-1,-3,0,0
1537907277604000,-3,1,3,-5,-3,-2,0,-1
1537907277604000,1,1,-3,-2,1,-1,-2,1
1537907277605995,-1,-4,-3,-1,0,1,-1,-1
1537907277605995,-4,-11,-9,0,-1,0,0,-1
1537907277618960,2,15,-3,11,3,2,-1,-1
1537907277618960,1,0,18,-6,-9,-2,-2,-1
1537907277620955,-3,-5,9,-4,-3,-1,-2,-2
1537907277620955,-6,-24,-40,-23,-6,-3,-1,0
1537907277641899,2,-3,3,2,-1,-3,1,0
1537907277641899,-1,-1,0,-26,8,4,1,0
1537907277642896,-2,-13,22,58,19,6,2,0
1537907277642896,1,9,55,11,-3,-7,-3,-7
1537907277664837,-5,-24,-95,10,-10,-5,-2,0
1537907277664837,0,31,-35,-7,12,-1,-1,0
1537907277665835,1,-9,97,10,-28,-14,-5,0
1537907277665835,-5,-23,-72,87,43,17,5,2
1537907277678800,-1,1,110,41,-22,-13,-5,-3
1537907277678800,-12,-31,-28,-40,-24,-14,-6,-8
1537907277685781,-7,-14,-128,-37,-31,-13,-5,-4
1537907277685781,12,24,4,-10,16,5,-1,6
1537907277701739,3,17,-2,49,22,9,5,4
1537907277701739,3,-10,5,15,50,27,10,6
1537907277703734,-12,-1,-2,69,3,-11,-5,-10
1537907277703734,-2,8,-33,-39,-38,-16,-4,-4
1537907277724678,-1,-21,-52,-89,-61,-13,-6,0
1537907277724678,1,11,-2,25,4,1,0,1
1537907277725675,4,-8,27,-7,27,11,4,2
1537907277725675,-9,-10,-37,-36,0,-3,-4,-8
1537907277737643,-1,16,85,56,3,-1,-2,-5
1537907277737643,-5,-11,16,-113,-58,-19,-8,-7
1537907277746619,2,12,-57,-82,32,17,8,5
1537907277746619,7,16,-15,105,-2,-2,1,5
1537907277761579,-1,-4,32,-40,9,7,1,1
1537907277761579,-2,6,43,46,15,1,1,0
1537907277763574,2,10,50,55,-4,-4,-1,-1
1537907277763574,-2,6,31,-84,-15,-4,-1,0
1537907277784517,1,-9,-76,-23,18,7,2,-2
1537907277784517,-5,-16,94,106,2,-7,-3,-3
1537907277785515,-7,38,-88,-45,14,7,1,0
1537907277785515,2,-15,21,-95,-75,-22,-6,-1
1537907277798480,-1,0,-30,2,14,1,-2,-1
1537907277798480,4,-3,-23,5,1,1,1,1
1537907277807456,2,-11,20,-2,-6,-1,0,-1
1537907277807456,-3,1,31,29,12,3,0,-2
1537907277822416,-2,4,-8,10,11,3,1,0
1537907277822416,-2,-9,-45,-55,-29,-6,-2,-4
1537907277823414,4,-4,6,26,-2,3,-1,1
1537907277823414,-2,8,16,25,21,9,2,1
1537907277843360,-1,-1,8,-26,-6,-2,-2,-1
1537907277843360,-1,-1,-33,16,4,0,-1,0
1537907277852336,0,-2,-10,-9,-9,-3,-3,0
1537907277852336,-1,-1,2,3,9,1,-1,-1
1537907277859318,-2,1,2,8,7,0,0,0
1537907277859318,1,6,-10,3,-4,-3,0,0
1537907277867296,0,-2,14,0,-3,-2,1,1
1537907277867296,-2,0,11,-8,1,0,0,0
1537907277882256,-2,0,-1,4,1,0,0,-2
1537907277882256,1,-4,-13,8,4,2,0,-1
1537907277883254,4,1,11,-14,-5,-2,-1,0
1537907277883254,-1,1,-13,12,7,2,0,-2
1537907277904198,0,-4,-2,-8,-3,-3,-1,-1
1537907277904198,-2,0,1,10,2,0,-1,-1
1537907277910182,0,0,-3,-7,-5,-3,-1,-1
1537907277910182,-1,1,7,4,3,1,-1,0
1537907277918160,0,2,5,2,1,0,1,-2
1537907277918160,1,0,-1,-2,-1,2,1,-4
1537907277927136,2,-2,4,4,2,20,9,28
1537907277927136,-2,-3,0,2,-1,-27,-11,-10
1537907277942096,1,1,4,-8,-3,2,-10,-18
1537907277942096,-14,-8,-14,6,4,-7,-10,-24
1537907277943094,-1,-3,-2,-4,-3,5,2,0
1537907277943094,2,3,5,2,4,6,11,8
1537907277964038,-1,-4,-3,-1,-2,-12,-1,3
1537907277964038,4,1,0,5,0,1,-1,4
1537907277966033,-1,3,1,-7,-5,-3,1,-4
1537907277966033,1,7,13,-5,7,10,-4,1
1537907277978000,-3,-6,-24,0,-10,-6,0,2
1537907277978000,-1,-4,2,5,4,4,4,7
1537907277986977,-3,-2,2,0,1,-5,-5,-5
1537907277986977,1,0,-2,-9,5,3,1,2
1537907278001936,-3,1,19,-2,-9,-3,-2,-1
1537907278001936,1,0,-25,-11,-11,-2,1,6
1537907278002934,-1,2,13,17,3,-4,-6,-9
1537907278002934,-4,1,4,11,-4,-3,-2,-5
1537907278024875,3,3,-11,-13,10,6,4,6
1537907278024875,0,-1,8,-4,-2,-3,-1,1
1537907278025872,0,-4,2,-7,-4,-7,-4,-3
1537907278025872,-3,2,-9,12,2,2,1,-1
1537907278037840,-2,-5,27,3,3,2,-1,1
1537907278037840,-1,1,-16,6,2,-1,-1,3
1537907278046817,0,3,-4,8,7,1,0,-2
1537907278046817,-1,-6,-3,-28,-13,-3,-2,-1
1537907278061776,-2,5,3,-7,9,4,0,-1
1537907278061776,2,6,8,11,-14,-6,0,2
1537907278063771,-2,-15,-4,-9,-6,-4,-3,-2
1537907278063771,-1,1,-2,-5,0,2,0,-1
1537907278084715,0,3,-14,5,3,2,1,1
1537907278084715,2,6,3,4,7,4,0,0
1537907278085713,0,4,-3,17,2,-4,0,-1
1537907278085713,-2,3,12,-9,-1,-1,0,0
1537907278097681,0,-3,-1,0,2,1,0,-1
1537907278097681,-2,-21,8,1,2,1,1,-1
1537907278106656,5,23,-9,-11,-4,-4,-3,-4
1537907278106656,-1,-9,-22,13,0,2,-2,-1
1537907278121617,0,2,15,8,-5,1,0,1
1537907278121617,0,-2,9,-14,-2,-2,-2,-1
1537907278123611,-1,-16,11,1,-1,-1,1,-1
1537907278123611,2,7,1,9,5,2,1,0
1537907278144555,-1,-4,-39,-10,-6,-4,-2,1
1537907278144555,0,-6,-13,8,3,-2,1,2
1537907278145553,-3,-5,15,5,0,-1,0,-1
1537907278145553,0,-14,16,0,1,1,0,-1
1537907278158518,-4,1,1,13,9,3,0,-1
1537907278158518,-1,10,1,-12,-10,-4,-1,-1
1537907278166497,-2,-8,-60,-27,-9,-5,-2,-2
1537907278166497,2,7,47,5,0,0,1,-3
1537907278181456,0,9,-4,-9,-6,-1,0,-1
1537907278181456,-4,-12,-18,-2,10,4,1,-2
1537907278183451,-1,7,7,27,7,2,1,-1
1537907278183451,0,0,5,-21,-12,-3,-2,-1
1537907278204395,-4,-19,1,-4,-4,-2,-1,-3
1537907278204395,2,12,-15,-3,1,0,0,0
1537907278205393,-2,2,8,-3,-2,-2,-1,-2
1537907278205393,-5,-3,-7,1,6,1,0,-1
1537907278218358,-1,0,12,7,0,-2,2,0
1537907278218358,-1,-1,9,-2,-5,0,0,-1
1537907278227334,-2,-1,-13,-4,-1,-1,-2,-2
1537907278227334,1,1,-1,15,0,0,-1,-1
1537907278240299,0,3,-9,-26,-7,-3,-1,-1
1537907278240299,0,-6,0,2,0,0,-1,-2
1537907278249276,-4,-10,3,2,2,2,0,-1
1537907278249276,0,7,4,-11,-9,-3,-2,-1
1537907278264235,0,-4,-22,3,0,-1,0,0
1537907278264235,-1,6,14,1,1,0,-1,0
1537907278266231,-1,-3,-4,-8,-1,2,0,0
1537907278266231,-1,-5,-6,7,0,-2,-1,0
1537907278294156,1,1,13,10,4,-3,0,0
1537907278294156,1,2,9,-18,-3,-4,-2,-1
1537907278296150,0,-3,-41,4,-1,-3,-2,1
1537907278296150,1,3,-15,5,4,0,2,1
1537907278301137,-2,-4,5,5,3,0,0,-1
1537907278301137,-1,3,9,0,4,4,1,0
1537907278308118,-2,-1,27,7,-1,-3,-3,-1
1537907278308118,5,18,-20,-12,-8,-2,-1,0
1537907278324076,1,15,5,3,-1,2,-3,0
1537907278324076,-3,-23,-5,4,1,-1,0,-1
1537907278326071,1,9,18,11,-1,0,-1,1
1537907278326071,-4,-7,-10,-17,-1,0,-1,0
1537907278347016,-2,-5,4,-3,-2,-3,0,-1
1537907278347016,1,5,-2,7,0,-1,-1,0
1537907278348014,0,1,1,-13,-4,-1,0,0
1537907278348014,-2,-9,-9,13,6,-1,-1,-1
1537907278360978,0,2,-6,-6,0,0,0,0
1537907278360978,-4,-2,5,-10,-13,-6,-2,-1
1537907278367960,-2,-5,3,-5,2,-1,0,-1
1537907278367960,-3,-2,7,-4,6,4,1,-2
1537907278384914,0,26,-1,9,-13,-8,-4,-2
1537907278384914,-2,-21,-28,2,4,0,-2,1
1537907278385912,1,6,11,-3,-1,1,-1,0
1537907278385912,0,-5,-2,4,-4,-3,-2,0
1537907278397879,0,-3,1,-2,6,3,-1,0
1537907278397879,0,8,5,1,0,-2,-2,-2
1537907278406856,1,-1,-3,-3,-3,-3,-2,-1
1537907278406856,-2,-7,11,7,5,0,0,-1
1537907278421815,-2,-9,-13,-2,1,-1,0,-1
1537907278421815,1,20,11,-2,-6,-2,0,-1
1537907278423810,-3,-28,-11,-4,2,-1,0,-2
1537907278423810,0,11,-16,-1,-1,-1,-2,-1
1537907278444753,-2,2,5,-9,0,-4,-1,-2
1537907278444753,-1,-10,-4,9,3,1,0,-2
1537907278445750,0,8,17,0,-1,-1,0,-1
1537907278445750,-1,-22,-19,-9,-4,-1,-2,-1
1537907278457718,-2,5,-9,1,-1,0,1,-2
1537907278457718,-3,-3,12,2,4,-1,-1,-1
1537907278466695,1,6,-3,-6,-4,-1,0,0
1537907278466695,-4,-10,-1,5,1,1,-2,-2
1537907278481654,-1,-10,-1,4,4,1,1,-3
1537907278481654,0,1,-1,-18,-14,-4,-2,-2
1537907278483649,-3,2,13,2,0,-1,-1,-1
1537907278483649,-1,-4,-40,-3,0,-1,0,0
1537907278504593,-1,-7,3,-8,2,1,0,0
1537907278504593,0,5,-4,0,4,0,-1,0
1537907278505591,0,7,10,1,-3,0,-1,0
1537907278505591,0,2,16,4,-3,-1,-1,-1
1537907278526535,1,-3,0,5,1,0,0,-1
1537907278526535,-2,-3,-9,-1,0,1,0,-1
1537907278528531,-1,1,-6,-6,-3,0,-1,-2
1537907278528531,-1,7,1,3,0,-2,0,0
1537907278541496,-2,-8,4,2,-3,-2,-1,-1
1537907278541496,1,7,0,0,-1,-1,0,0
1537907278548478,0,-1,-6,-3,-1,-2,-1,-2
1537907278548478,0,2,2,-1,-1,1,-1,-1
1537907278572412,-1,-3,4,-2,-2,-3,-1,0
1537907278572412,-1,-2,-2,2,1,-1,-1,-1
1537907278573411,1,-2,-9,-2,1,1,1,0
1537907278573411,-1,-1,3,0,0,0,-1,-1
1537907278588372,0,-10,2,-1,-4,-1,-3,2
1537907278588372,-1,13,3,2,1,1,-2,1
1537907278589369,4,-10,8,7,15,6,2,0
1537907278589369,-7,30,65,19,-5,-6,-4,-4
1537907278600339,-1,-8,-88,32,-6,-5,-6,-6
1537907278600339,7,41,101,38,53,22,11,7
1537907278609314,-15,17,-62,-72,-67,-32,-18,-11
1537907278609314,16,-3,-72,54,67,25,13,16
1537907278624274,-1,-25,117,80,11,0,1,0
1537907278624274,-18,-53,-117,-90,-61,-43,-24,-19
1537907278626268,10,20,87,127,44,18,10,12
1537907278626268,-17,-48,20,22,-34,-21,-11,-9
1537907278654193,7,17,42,80,68,33,14,11
1537907278654193,4,20,-35,-69,-40,-8,0,-3
1537907278656188,-18,-91,-46,3,-42,-21,-8,-6
1537907278656188,-1,3,-37,-4,-1,2,-3,-1
1537907278660177,4,3,7,31,35,16,6,2
1537907278660177,-2,-7,68,24,40,16,6,-1
1537907278669153,1,31,-71,-45,-16,-10,-6,-8
1537907278669153,-10,-17,115,-61,-54,-13,-5,-11
1537907278684113,1,37,-108,-22,-28,-11,-3,3
1537907278684113,2,-1,18,73,18,11,5,6
1537907278686108,2,35,71,37,56,22,5,4
1537907278686108,2,40,26,-66,-22,-9,-3,0
1537907278707051,-8,-20,-103,-92,-13,-8,-4,-3
1537907278707051,-3,-24,26,-28,-33,-11,-6,2
1537907278708049,7,-7,-21,27,22,8,4,7
1537907278708049,3,9,22,9,4,0,1,1
1537907278721014,1,3,42,-41,-18,-10,-7,-3
1537907278721014,4,-1,-17,33,22,7,2,0
1537907278728993,-2,-41,13,-22,-14,-5,-1,-2
1537907278728993,-1,-14,-22,-24,4,1,0,-2
1537907278743953,-2,-23,22,9,-5,-2,-2,-4
1537907278743953,-2,-18,-16,32,5,4,0,-3
1537907278745949,1,11,-22,-14,-4,0,0,-2
1537907278745949,1,12,-16,31,3,2,2,1
1537907278766895,-3,13,12,3,-2,-3,-1,0
1537907278766895,1,19,-5,-8,-10,-4,-2,-1
1537907278768888,1,10,-4,-20,-2,1,-1,-1
1537907278768888,2,7,-27,16,16,3,1,0
1537907278780856,-3,-5,22,-17,-14,-4,-4,-3
1537907278780856,2,4,-15,-14,-5,-3,0,-2
1537907278789834,1,6,4,9,7,2,-1,0
1537907278789834,1,-14,-15,15,8,1,1,1
1537907278805790,-1,-1,14,-27,-16,-6,-2,-2
1537907278805790,-2,-1,-8,16,6,0,-1,0
1537907278807784,5,3,3,0,0,-2,2,1
1537907278807784,-1,-3,-7,-1,2,0,1,3
1537907278826733,1,0,3,-8,-8,-1,2,-1
1537907278826733,-9,1,-6,2,2,0,5,-6
1537907278828729,-16,-3,10,-6,-2,-1,-9,-14
1537907278828729,21,3,-14,-9,-1,5,33,20
1537907278840696,-12,3,4,7,1,-3,-37,-21
1537907278840696,20,3,-1,8,4,2,-1,6
1537907278849671,-7,-3,4,-8,-5,-25,0,4
1537907278849671,-40,-6,-13,5,-2,-20,-34,0
1537907278864631,63,14,3,-2,-1,9,40,48
1537907278864631,-19,2,-1,-5,-6,-21,-29,-31
1537907278865628,-4,-2,-3,-5,2,20,1,-4
1537907278865628,11,-7,-8,2,3,9,28,13
1537907278886572,-41,-9,2,-7,-4,0,0,1
1537907278886572,-23,-7,-4,-6,-5,6,0,3
1537907278888567,49,-7,9,11,24,12,19,21
1537907278888567,15,9,-3,-7,-15,-9,-9,-7
1537907278900535,-9,15,10,0,-6,-4,-8,-10
1537907278900535,-1,-9,-1,9,0,3,4,1
1537907278909511,-39,-4,-5,-13,-10,-8,-4,-12
1537907278909511,5,4,1,6,9,6,-9,-5
1537907278931453,0,-21,-4,1,3,-1,-9,-12
1537907278931453,-10,7,-4,-1,3,1,14,9
1537907278933447,12,-1,5,-25,-3,0,-5,6
1537907278933447,-1,-18,-9,0,-2,-2,-9,-8
1537907278947409,-7,-11,-4,14,0,-4,7,-4
1537907278947409,10,28,1,-18,-6,1,1,1
1537907278953393,-1,-26,12,23,-5,-4,-6,-5
1537907278953393,3,27,-16,-19,1,2,-2,-8
1537907278960374,-10,-18,-14,-11,-7,-6,0,-7
1537907278960374,11,-2,5,27,8,4,-1,5
1537907278969351,0,12,-8,-15,-6,2,-2,-4
1537907278969351,-14,-13,8,1,-2,-2,2,-4
1537907278984310,7,15,7,-1,3,1,-2,3
1537907278984310,5,-7,-5,13,5,2,-2,1
1537907278986306,-4,7,-1,0,-3,-3,0,-1
1537907278986306,-3,-7,-1,10,5,-1,-2,-5
1537907279007250,0,0,-3,-22,-5,-1,-2,-3
1537907279007250,4,-3,3,0,-3,-2,-1,0
1537907279008247,-3,6,-4,-6,-6,-3,-1,-1
1537907279008247,0,-9,3,6,3,2,-2,-4
1537907279020215,3,11,1,3,0,-1,-3,-1
1537907279020215,2,-31,-4,-7,-1,0,5,4
1537907279029191,-7,17,-2,4,1,1,0,1
1537907279029191,-8,-18,-6,-6,1,-2,-5,-11
1537907279044151,-1,6,8,13,-1,-2,0,-2
1537907279044151,-3,12,8,-18,-2,0,0,0
1537907279046146,4,2,-21,8,-3,-2,-1,3
1537907279046146,1,3,3,12,-1,-2,-3,-1
1537907279067090,-3,-5,17,-3,2,-3,-1,0
1537907279067090,6,-2,4,10,3,1,0,1
1537907279068087,2,9,-10,-4,2,-1,-2,-3
1537907279068087,-7,-5,-17,-16,-8,-2,-2,-2
1537907279081053,2,-3,0,-7,2,1,0,-1
1537907279081053,-1,5,-11,-2,-1,-1,-1,0
1537907279089031,-3,9,36,3,-3,-1,-1,-2
1537907279089031,1,-22,-9,9,4,0,0,2
1537907279103992,5,26,-1,-1,-2,-2,1,1
1537907279103992,-6,-1,-5,-4,-2,-2,-3,-3
1537907279105987,-1,-8,-4,-2,-2,0,0,-1
1537907279105987,1,4,3,-1,4,1,0,1
1537907279126931,-2,-8,1,2,-3,-4,-3,-3
1537907279126931,4,3,-5,-6,-2,-1,1,3
1537907279127928,-8,-6,-1,2,0,0,-3,-7
1537907279127928,0,7,2,-14,-8,-3,-2,3
1537907279140893,0,-6,-5,0,5,0,1,0
1537907279140893,4,0,0,-5,-9,-3,-1,-4
1537907279149870,-6,-2,-3,-6,-1,-1,0,-1
1537907279149870,-3,8,-1,19,2,2,-1,-3
1537907279164830,-4,-16,-11,-21,-7,-2,-2,-3
1537907279164830,0,5,-3,-8,-2,-1,0,1
1537907279165828,6,-7,-2,-7,-2,-1,-1,3
1537907279165828,-1,5,19,13,3,1,1,1
1537907279186770,0,-6,-8,-4,1,0,0,1
1537907279186770,-3,7,-10,-3,-6,-2,-2,0
1537907279188764,-3,-17,-3,3,0,-2,0,-1
1537907279188764,2,12,-2,-3,2,-1,1,2
1537907279200732,0,7,-12,-5,-4,0,-1,-2
1537907279200732,-1,-2,24,7,3,0,0,0
1537907279209708,1,9,-8,-4,0,2,0,0
1537907279209708,1,-9,3,0,-1,0,-2,-2
1537907279223671,-4,-1,4,1,-2,-1,-1,-2
1537907279223671,-4,-6,-13,14,2,0,-1,-3
1537907279230652,1,13,5,-7,-5,-4,0,-1
1537907279230652,2,-2,0,-11,-1,-1,1,-1
1537907279246609,-3,-9,-6,9,1,0,-1,-1
1537907279246609,-3,-3,-4,-7,2,0,0,2
1537907279248604,2,1,5,10,0,-2,0,1
1537907279248604,1,10,-1,1,1,0,-1,-1
1537907279260572,-2,-4,2,-4,-3,-1,-1,-2
1537907279260572,1,-7,-1,3,4,2,0,-1
1537907279269548,-3,-5,-2,-3,0,0,-1,0
1537907279269548,-3,-1,1,1,0,-1,1,-2
1537907279283511,1,-2,-5,1,-2,-2,-1,0
1537907279283511,-1,-1,-3,-8,-2,-2,-1,-1
1537907279290492,-3,-5,-4,8,3,0,-2,-2
1537907279290492,2,-8,-3,-15,-5,-2,1,1
1537907279306449,-3,-8,10,8,0,-1,0,-2
1537907279306449,2,3,1,-9,0,-1,0,-2
1537907279308444,1,2,-1,1,0,0,1,0
1537907279308444,0,6,-1,3,2,0,-1,-1
1537907279320412,0,-1,0,4,-1,0,-1,0
1537907279320412,2,-2,-3,-4,-2,0,-1,0
1537907279329388,-1,-2,0,4,3,0,0,-2
1537907279329388,-4,-6,-1,3,-1,-1,-3,-3
1537907279343350,-2,20,0,-6,-5,-1,-1,-2
1537907279343350,0,0,2,5,1,0,-1,-2
1537907279350332,5,-2,0,-2,0,0,-1,-1
1537907279350332,-1,-1,9,-5,-4,-1,-1,-1
1537907279367286,1,0,-11,4,1,-1,2,1
1537907279367286,-4,7,-2,-4,-4,-1,-2,-3
1537907279368284,-1,1,-1,-4,-1,-2,-2,-3
1537907279368284,-2,2,-4,-1,-1,-2,1,0
1537907279380252,-1,-8,4,-4,-2,-2,-2,-1
1537907279380252,-2,-4,1,-2,1,-3,0,-1
1537907279389228,0,-7,-6,0,0,-1,-1,-1
1537907279389228,-1,1,-3,-2,-1,0,-1,-2
1537907279404188,-4,-7,8,-1,0,0,-2,-1
1537907279404188,2,9,-5,4,-2,-3,-1,0
1537907279406183,-2,-11,2,4,1,0,1,-1
1537907279406183,4,0,-4,3,1,0,1,0
1537907279427127,-2,2,-2,-5,-2,-2,0,1
1537907279427127,-5,-1,3,1,0,-1,-2,-1
1537907279428124,3,-1,1,-2,-1,2,1,2
1537907279428124,-7,-3,-2,5,3,-2,-1,-4
1537907279449069,-5,-8,-5,-10,-8,-2,-2,-5
1537907279449069,4,7,-1,0,-1,0,0,1
1537907279451063,-4,0,-2,-3,-3,-3,-3,-3
1537907279451063,2,-1,-2,-2,0,-2,0,0
1537907279463031,2,1,2,4,4,0,-1,0
1537907279463031,-1,-9,-2,-1,-2,-1,1,0
1537907279472007,-1,6,-3,-8,-3,-3,0,1
1537907279472007,1,-9,2,4,-2,-2,0,0
1537907279486967,3,6,0,0,1,2,-2,0
1537907279486967,-5,6,4,1,-1,-1,1,-1
1537907279487964,-3,-4,-1,6,-2,-1,-1,0
1537907279487964,0,8,-3,0,-2,0,-2,0
1537907279508908,0,6,1,2,4,2,1,2
1537907279508908,1,-28,-7,-26,3,2,1,1
1537907279516887,-2,-11,13,32,0,-3,-3,-2
1537907279516887,2,-14,20,1,0,0,-1,0
1537907279522871,-2,8,-16,-7,13,3,-2,-4
1537907279522871,-3,-13,24,56,-6,-2,-2,0
1537907279531847,1,-13,-57,-38,-4,0,0,-1
1537907279531847,-8,-7,23,-3,3,7,3,-1
1537907279546807,8,7,26,0,-7,-3,2,1
1537907279546807,6,29,-15,-80,-22,-9,-1,3
1537907279548802,-6,9,13,80,25,2,-5,-4
1537907279548802,-3,-18,7,-22,9,5,1,0
1537907279570743,4,4,-20,78,9,9,5,7
1537907279570743,-3,2,33,64,1,-8,-4,-4
1537907279571740,-1,-3,-53,-128,-39,-7,-5,-3
1537907279571740,-3,14,-20,71,-27,-19,-9,-9
1537907279591687,-10,-10,13,-33,-31,-13,-9,-9
1537907279591687,7,-1,-16,30,38,14,5,5
1537907279593681,-1,0,36,76,29,5,3,1
1537907279593681,7,11,-19,-71,14,7,3,5
1537907279606647,-8,-8,-13,-39,-13,-8,-5,-4
1537907279606647,-8,-3,-4,4,-33,-10,-6,-8
1537907279608641,-3,-4,-24,-77,-49,-12,-2,1
1537907279608641,5,5,4,82,54,18,6,5
1537907279629585,3,3,-2,52,-8,-7,-1,2
1537907279629585,-2,2,30,-69,-1,3,-1,0
1537907279630583,-3,-2,-7,38,30,6,3,1
1537907279630583,2,10,0,-3,-8,-3,-2,-3
1537907279642551,-2,-19,8,-2,12,0,0,1
1537907279642551,-1,3,-6,17,9,3,0,-2
1537907279651527,2,19,28,5,-9,-3,1,1
1537907279651527,-1,-6,-11,-18,-14,-7,-3,-3
1537907279666487,-2,-7,1,-16,10,2,2,-3
1537907279666487,-4,-5,-13,-9,-5,-3,-1,-3
1537907279668482,1,-6,9,-5,2,0,0,0
1537907279668482,-2,-1,-6,-19,-16,-7,-4,-1
1537907279689425,2,15,2,-14,2,3,1,0
1537907279689425,-3,-9,-13,3,1,0,-1,0
1537907279690423,-1,8,6,3,-2,-1,-1,-1
1537907279690423,-4,-1,1,1,-3,0,0,-2
1537907279703388,1,-6,-3,-2,-3,-1,-2,0
1537907279703388,1,-3,-8,5,4,1,-1,-1
1537907279712364,2,9,7,6,-1,0,-2,-1
1537907279712364,-2,-8,-5,-14,-15,-5,-2,-1
1537907279727324,2,0,-5,-17,7,3,1,1
1537907279727324,1,-4,-6,0,-7,-7,-4,-1
1537907279728322,-3,-3,5,6,2,1,-1,0
1537907279728322,3,0,-2,-4,2,0,0,2
1537907279749266,-7,-2,-2,-2,-6,-4,-2,-2
1537907279749266,-2,-3,-5,2,6,4,0,-3
1537907279751261,2,3,3,-3,-7,-3,1,0
1537907279751261,0,-5,-4,-1,-2,1,-2,1
1537907279763228,1,-2,0,-1,2,1,-2,1
1537907279763228,-7,-3,1,7,1,1,1,-3
1537907279772204,-3,0,1,2,-1,1,-3,-4
1537907279772204,1,3,-1,-5,-1,-1,0,-1
1537907279787164,2,-2,1,2,-1,0,-1,0
1537907279787164,2,-3,-4,-2,-3,-4,0,1
1537907279788162,4,-3,0,-5,2,4,15,-12
1537907279788162,-7,-1,3,2,-2,-7,1,23
1537907279809105,-10,-8,-4,-1,-4,-7,-18,-6
1537907279809105,6,3,-1,0,2,-2,-3,-1
1537907279811100,1,-2,-1,-2,0,-2,-8,-5
1537907279811100,4,3,0,1,-3,3,12,-4
1537907279823068,6,0,0,3,4,5,11,6
1537907279823068,-1,-1,-2,-2,0,-2,-6,2
1537907279832044,-10,-4,3,2,3,0,-1,-3
1537907279832044,0,-2,-3,-6,-10,-4,-5,-6
1537907279853985,0,-1,-1,-1,-2,0,0,1
1537907279853985,3,-1,-1,4,2,3,3,-1
1537907279855980,5,1,2,3,5,1,0,7
1537907279855980,-3,1,-2,3,-1,-4,-4,-4
1537907279868946,-5,-1,-3,-4,-4,-3,0,-5
1537907279868946,-4,-7,-2,-21,-10,-3,3,-2
1537907279870940,-2,3,-2,2,-6,-3,-5,3
1537907279870940,-4,-4,-1,-15,-6,-2,-6,-4
1537907279882909,4,1,0,0,5,3,4,2
1537907279882909,0,15,2,9,3,0,-2,0
1537907279891884,-2,-25,-4,-5,2,-2,-2,2
1537907279891884,1,-2,-1,1,0,0,-1,-4
1537907279906844,2,0,-1,1,-4,-2,-1,-1
1537907279906844,-4,0,-2,-3,2,-1,-1,0
1537907279907842,1,6,1,-3,5,2,0,-2
1537907279907842,0,5,3,26,1,1,1,-1
1537907279929783,-5,-5,-5,-16,-7,-2,-3,-3
1537907279929783,-1,0,0,7,-5,0,0,-1
1537907279930780,0,4,-5,-29,-12,-4,0,1
1537907279930780,0,-6,-1,12,6,1,-1,-3
1537907279942748,-4,3,2,-11,-2,1,0,-1
1537907279942748,-1,-4,-1,0,3,0,-1,-1
1537907279957708,1,2,1,9,7,3,-1,2
1537907279957708,4,1,-1,-4,-6,-3,-5,-2
1537907279966685,-3,0,3,12,-3,0,0,-1
1537907279966685,-3,-6,-3,0,-3,-3,0,-2
1537907279968679,1,-1,0,3,-1,-1,-2,0
1537907279968679,2,2,-2,-9,0,2,-1,0
1537907279989623,4,-1,-1,5,4,0,2,3
1537907279989623,-6,-6,-1,-5,-2,-1,-4,-6
1537907279990621,1,3,1,9,1,0,0,-1
1537907279990621,-1,-1,-2,-4,0,0,0,-2
1537907280002589,-3,1,-1,-3,-1,-2,-1,-4
1537907280002589,-2,0,1,9,2,0,-1,1
1537907280011565,-2,-1,-1,-4,-8,-3,-4,-2
1537907280011565,-2,-1,-2,-5,1,0,-1,-2
1537907280026524,0,-4,-1,1,0,-1,-1,0
1537907280026524,2,0,-2,-2,1,0,1,1
1537907280028519,1,3,1,10,0,-2,0,0
1537907280028519,-4,-1,1,1,-1,0,0,-3
1537907280049463,-3,-5,1,8,2,1,0,-1
1537907280049463,0,1,-4,-24,-6,1,-1,1
1537907280050460,0,0,-1,7,-1,-3,-1,1
1537907280050460,-1,1,-1,-7,-2,0,-1,-1
1537907280063426,-3,2,-3,1,2,-1,-1,-2
1537907280063426,1,-1,1,1,2,2,-1,0
1537907280072402,-4,2,1,-14,-3,-1,0,0
1537907280072402,0,1,0,15,0,-3,-2,-3
1537907280086365,7,0,-4,-2,-7,-5,-1,2
1537907280086365,-3,-3,1,5,3,0,0,-2
1537907280088359,-2,-2,-3,-7,-9,-2,-2,-2
1537907280088359,-1,-2,-2,-3,0,1,0,2
1537907280109303,-1,-1,-1,-10,-1,1,0,-1
1537907280109303,0,-1,6,9,5,-2,1,1
1537907280111298,1,1,2,16,2,0,0,1
1537907280111298,-3,-4,-3,-5,-6,-3,-2,-3
1537907280123266,-2,1,-2,0,-2,-2,-2,-3
1537907280123266,2,1,-4,-6,0,0,1,2
1537907280132242,-3,-2,1,3,5,0,1,-1
1537907280132242,2,-2,-3,-13,-6,-2,0,0
1537907280147202,-5,-1,-3,-3,-1,-1,-1,-3
1537907280147202,-3,-1,-1,1,0,-1,-2,-2
1537907280148200,-1,0,3,16,4,1,0,1
1537907280148200,5,0,-1,-1,0,0,-3,2
1537907280169144,-3,-2,-4,-13,-2,0,-1,-1
1537907280169144,-2,-3,-5,-5,-7,-2,-2,-2
1537907280171139,0,-1,-2,-4,-1,-3,-2,1
1537907280171139,-5,-1,2,5,-3,-2,0,-1
1537907280183107,4,0,2,9,2,0,-1,0
1537907280183107,-1,-1,-5,-4,0,0,-2,0
1537907280192082,0,-2,1,-10,-1,1,-2,-2
1537907280192082,-4,-3,-1,7,4,-2,-1,-3
1537907280207042,2,1,3,2,-2,1,-1,1
1537907280207042,-2,0,-4,-3,-8,-5,0,0
1537907280208040,1,-1,-8,-12,-3,-2,0,0
1537907280208040,-4,-1,-2,-8,1,0,-1,-2
1537907280228983,-1,-2,6,14,4,0,-1,0
1537907280228983,1,0,-1,1,-2,0,-1,0
1537907280235965,-1,-3,-1,2,1,-1,-1,0
1537907280235965,-1,1,-3,-6,0,0,1,1
1537907280242946,-2,0,0,1,-1,-3,-1,-1
1537907280242946,2,-1,2,2,-1,-1,0,-3
1537907280251922,-3,-2,-2,-8,-6,-2,-2,-2
1537907280251922,0,0,1,2,1,2,0,1
1537907280266882,2,0,-8,-11,-2,1,-1,-1
1537907280266882,-6,-2,2,9,3,-1,-1,-2
1537907280267880,-5,-2,6,9,4,0,-1,-2
1537907280267880,-1,-2,-1,-3,-3,-3,-1,-3
1537907280289820,0,-2,-1,-6,-3,-1,-3,2
1537907280289820,4,-2,-2,-3,-1,0,0,1
1537907280290818,0,0,-4,-4,-1,-1,-1,1
1537907280290818,-1,0,-3,-1,0,1,-1,-3
1537907280310765,-3,1,5,6,1,-2,0,-2
1537907280310765,-2,-2,0,0,1,1,-2,-3
1537907280311762,1,-1,-3,-4,-2,-2,0,0
1537907280311762,-1,-2,3,-1,-3,1,0,0
1537907280325725,1,-2,-2,-1,0,-2,0,1
1537907280325725,-1,0,1,7,0,-1,-1,-1
1537907280326722,0,-2,-2,-13,-5,-1,-1,-1
1537907280326722,-2,1,-3,-1,1,-1,-1,-1
1537907280348664,5,1,-1,3,-3,0,1,0
1537907280348664,-1,-2,-1,-7,-3,-1,-1,-1
1537907280349661,-1,0,-2,-1,-2,-2,-1,-3
1537907280349661,-2,-1,4,-4,-3,-2,0,0
1537907280371603,-3,-1,-1,1,3,0,-2,1
1537907280371603,3,-1,1,3,-1,-2,0,0
1537907280371603,2,-1,-1,2,-1,-1,-1,-1
1537907280371603,-3,-2,-3,-8,-2,-1,0,-3
1537907280386562,-3,-1,-4,-4,1,0,0,-2
1537907280386562,0,0,4,11,0,-1,-1,0
1537907280386562,1,-1,0,-6,0,-1,0,2
1537907280386562,-2,-1,0,1,0,0,-2,1
1537907280408504,1,-1,-3,0,3,1,-2,-3
1537907280408504,-6,0,-4,-9,-2,-2,-2,-5
1537907280409501,-1,-1,0,6,-1,-1,0,0
1537907280409501,1,-1,-3,-4,0,-1,-2,-1
1537907280431443,-4,-2,0,0,-2,0,0,-1
1537907280431443,1,0,2,-3,-1,1,1,2
1537907280431443,-3,0,-1,5,0,-2,0,0
1537907280431443,0,0,0,2,-2,0,-2,0
1537907280446403,1,-2,1,2,0,-1,-2,0
1537907280446403,0,-1,-1,-2,0,0,-2,-1
1537907280447400,-1,-3,-1,1,3,1,0,-2
1537907280447400,-1,-1,0,-3,-1,-3,-1,-2
1537907280468346,1,-2,-1,1,-7,-3,-1,0
1537907280468346,-1,-1,-3,-7,-3,-2,0,2
1537907280469343,0,0,-1,-2,0,0,-1,-1
1537907280469343,3,0,-2,6,5,2,1,1
1537907280491282,-5,-1,-3,-6,0,0,-1,-2
1537907280491282,-3,-3,-1,-6,-5,0,-1,-1
1537907280492280,-1,0,-2,1,-1,1,-2,0
1537907280492280,-3,0,-2,-1,-1,0,-2,-2
1537907280506243,0,1,2,3,-1,-2,-1,1
1537907280506243,-2,-1,-3,6,3,1,-1,0
1537907280514221,0,-1,-1,1,-2,-1,-1,-1
1537907280514221,2,-1,-4,-9,-1,-1,-1,1
1537907280529181,-1,0,1,5,-3,-2,0,-2
1537907280529181,0,0,-4,-9,1,0,-1,1
1537907280529181,-5,-2,0,-3,-3,-2,-2,-1
1537907280529181,0,-1,-1,2,-2,-1,0,-2
1537907280551122,-1,-1,-4,-3,-2,1,1,-2
1537907280551122,0,0,2,2,-1,1,0,0
1537907280552120,-2,-1,0,1,3,0,0,-1
1537907280552120,1,0,0,-4,-4,-4,-2,2
1537907280566084,3,-1,0,1,-2,0,0,1
1537907280566084,-2,-1,0,-1,-1,-1,-2,-3
1537907280567081,-2,-2,-2,0,-1,-2,0,-2
1537907280567081,-3,0,0,5,2,-1,-1,-1
1537907280589022,-1,1,-1,-9,-4,-1,-1,-2
1537907280589022,1,-1,-2,-2,-2,-1,-2,-1
1537907280589022,3,0,0,0,-2,-1,-2,0
1537907280589022,1,0,-1,3,-2,1,-2,-1
1537907280610963,-2,-2,-1,-3,2,0,-2,0
1537907280610963,1,1,-4,0,2,-1,-1,-1
1537907280611961,-5,-2,0,2,-5,0,-2,-4
1537907280611961,2,-3,-2,-6,-2,0,0,0
1537907280626921,-2,-1,-1,0,2,-2,-1,0
1537907280626921,0,-3,-1,-8,-3,0,0,-1
1537907280633902,-1,1,-3,3,-1,-4,0,0
1537907280633902,-3,-2,0,3,1,-1,0,-1
1537907280648862,-1,-1,2,3,1,0,-1,-3
1537907280648862,-1,0,-1,7,0,-1,0,-1
1537907280649858,4,1,-3,-6,-2,-1,-1,0
1537907280649858,-1,0,2,0,1,-1,1,-2
1537907280670802,-1,-2,-1,-6,-3,-1,0,0
1537907280670802,1,-3,1,1,0,0,-3,-2
1537907280671800,-3,-2,-1,0,1,1,-1,0
1537907280671800,3,0,-2,0,-3,-3,-1,3
1537907280685762,0,-1,2,5,2,1,-1,2
1537907280685762,-6,0,-2,-3,-2,-2,-1,-4
1537907280686760,-2,-1,0,-2,1,-2,0,-2
1537907280686760,0,-1,-1,-1,-1,-1,-1,-1
1537907280708701,0,-1,0,-2,-2,-1,1,1
1537907280708701,3,0,2,0,-3,0,1,1
1537907280709698,-1,-2,-1,-1,1,-1,1,-1
1537907280709698,-2,1,0,-1,0,0,0,-1
1537907280731639,0,-1,-3,2,0,0,-1,-1
1537907280731639,-2,2,1,1,-3,-3,0,0
1537907280731639,0,-2,1,-4,-2,-1,-1,1
1537907280731639,-3,-3,-1,0,-1,0,-1,-2
1537907280746600,-1,-2,0,-3,1,-1,-1,-1
1537907280746600,4,-1,-2,4,1,-2,-1,2
1537907280746600,0,0,0,-9,-5,-1,-2,1
1537907280746600,-3,3,-2,-2,-3,-1,-3,-3
1537907280768541,-3,-12,-1,5,3,-1,0,-2
1537907280768541,1,1,-2,-1,-3,0,0,0
1537907280769538,6,-1,0,3,0,-1,0,0
1537907280769538,-3,2,1,-1,-2,0,-1,-2
1537907280791479,-7,2,0,-4,0,0,1,-3
1537907280791479,-3,-2,1,-2,-2,1,-2,-1
1537907280791479,-3,-2,0,2,0,1,-2,-3
1537907280791479,0,-3,-1,0,0,-1,0,1
1537907280806439,1,1,-2,-3,-1,-2,1,0
1537907280806439,-1,-2,-1,-2,1,-2,0,0
1537907280807437,0,1,-3,-5,-1,0,-2,-1
1537907280807437,-2,-2,1,2,2,0,3,-2
1537907280828381,-1,2,-1,-1,-3,1,0,0
1537907280828381,1,-1,-2,-1,-1,-1,1,1
1537907280829378,-2,-2,-1,0,-1,0,-1,-2
1537907280829378,0,-1,0,9,3,1,1,0
1537907280852317,-2,0,-2,-12,-7,-1,-2,0
1537907280852317,-2,-2,-1,-2,0,-1,-1,0
1537907280852317,-1,0,0,0,1,1,0,-1
1537907280852317,2,-1,-1,-2,-3,-2,-1,1
1537907280866280,1,2,0,3,-3,-3,-2,-1
1537907280866280,-1,-1,-2,0,-1,-2,-1,0
1537907280873261,-1,0,-1,-1,-3,-2,-1,-1
1537907280873261,-1,-2,1,-2,-1,-1,-1,-2
1537907280889218,6,1,-1,1,0,-1,2,3
1537907280889218,-1,-1,0,-1,-1,0,0,-2
1537907280889218,-7,-1,-1,1,1,-2,-2,-3
1537907280889218,1,0,-2,-3,1,-1,-2,-1
1537907280912157,0,0,1,1,-1,0,0,1
1537907280912157,-1,-2,-3,-1,-3,0,-2,-2
1537907280912157,2,0,-3,-1,0,0,0,-1
1537907280912157,-2,-2,0,-2,1,0,-1,-1
1537907280934098,-1,-2,-1,11,6,1,-1,-2
1537907280934098,-2,1,1,-8,-6,-3,-1,-1
1537907280935096,-2,-2,-1,-7,-4,-2,-2,-1
1537907280935096,0,-1,-2,-18,-5,1,-1,0
1537907280949058,-2,0,1,11,7,0,-1,-2
1537907280949058,-1,1,1,9,1,0,0,0
1537907280949058,0,2,-2,6,-8,-3,-2,-2
1537907280949058,0,-21,-6,-1,0,-3,-1,-2
1537907280971997,2,18,9,-32,5,4,0,2
1537907280971997,0,1,7,60,2,-1,-1,-1
1537907280972994,4,-8,-7,-14,6,0,3,2
1537907280972994,-7,-5,-1,-51,-19,-5,-3,0
1537907280984962,-3,-9,0,40,28,11,2,0
1537907280984962,2,10,-4,-41,6,2,1,0
1537907280993938,1,28,42,30,-25,-11,-5,-4
1537907280993938,-15,-60,-19,-25,6,1,-2,-7
1537907281008898,-3,-6,-59,-66,-95,-40,-15,-10
1537907281008898,-3,6,-34,73,68,25,7,3
1537907281008898,-3,-47,-17,-54,-31,-11,-3,0
1537907281008898,-4,46,67,-92,-44,-14,-8,-7
1537907281030840,12,23,-29,89,45,19,11,12
1537907281030840,-3,-13,29,-87,-57,-22,-11,-2
1537907281031837,3,-1,3,67,63,20,5,5
1537907281031837,8,38,48,127,89,29,13,5
1537907281045800,-15,-43,-32,-108,-80,-34,-16,-12
1537907281045800,3,-8,-4,50,16,1,4,1
1537907281053778,1,27,13,37,33,13,4,1
1537907281053778,1,13,-45,19,-28,-8,-3,1
1537907281068738,-3,7,18,-8,35,14,2,-3
1537907281068738,-3,2,17,49,-72,-25,-7,-3
1537907281069736,-2,-14,14,-31,0,-6,-2,-1
1537907281069736,7,21,-32,-7,38,12,4,2
1537907281090680,-2,-14,1,-10,16,3,0,-2
1537907281090680,0,-13,18,-32,3,2,0,-2
1537907281091677,0,5,-12,15,21,5,3,1
1537907281091677,1,-8,-17,13,-29,-13,-5,0
1537907281105640,1,-1,31,13,4,0,0,-1
1537907281105640,0,-3,-10,-18,16,6,0,-1
1537907281113618,0,0,-10,3,-21,-7,-2,-2
1537907281113618,-4,-17,-11,-11,-10,-5,-4,-1
1537907281128578,-2,-2,19,5,-2,1,-1,-1
1537907281128578,2,10,-7,1,15,4,1,-1
1537907281129576,-5,-2,-22,-22,-19,-5,-3,-2
1537907281129576,0,-7,15,0,-11,-3,-2,-1
1537907281151517,1,9,8,20,22,7,3,2
1537907281151517,-5,1,-10,-13,-6,-2,-2,-1
1537907281151517,-2,-2,2,-7,-4,1,-1,-2
1537907281151517,3,-1,0,9,8,2,2,-1
1537907281165480,3,5,6,15,3,1,0,0
1537907281165480,1,-3,-9,-19,0,0,1,-1
1537907281173459,-1,-3,0,-9,-8,-2,1,2
1537907281173459,0,-4,-4,8,6,21,9,1
1537907281188420,-6,-5,-4,-1,-2,-26,-6,3
1537907281188420,2,4,9,-5,-1,1,-7,-19
1537907281189418,0,1,-2,3,5,7,0,4
1537907281189418,-6,-1,-2,6,-5,-11,0,-11
1537907281211361,2,1,4,1,0,-3,-37,-3
1537907281211361,1,-3,-5,-6,4,2,6,7
1537907281212356,0,2,-5,-1,-5,-6,1,4
1537907281212356,0,-6,-3,-4,-1,5,14,2
1537907281225321,1,-1,2,-2,-3,5,13,3
1537907281225321,-3,-1,-1,1,2,-6,-6,0
1537907281233299,-1,-2,-4,-4,-4,5,2,-6
1537907281233299,1,-3,2,1,-3,-7,-6,4
1537907281248259,-3,-3,2,5,5,3,2,-4
1537907281248259,0,1,-4,-5,-3,-2,-1,3
1537907281249257,-3,-1,0,-1,0,-2,-1,-4
1537907281249257,-3,-2,-4,-1,-2,-8,-11,-4
1537907281271197,2,2,2,2,0,1,1,0
1537907281271197,4,-1,-2,0,5,4,7,2
1537907281272195,-6,-3,-2,-6,-4,-4,-2,-2
1537907281272195,4,2,-2,-8,8,-2,-5,3
1537907281294136,-4,-3,-3,12,-19,-2,2,-4
1537907281294136,-4,-3,-1,-28,-4,-1,-3,0
1537907281295133,1,-1,-3,12,21,4,-2,-1
1537907281295133,2,1,6,20,-19,-10,-7,-2
1537907281309096,-1,0,0,-8,2,3,8,-1
1537907281309096,-2,-2,-2,7,4,-1,-1,0
1537907281309096,2,0,-2,-18,-10,-6,-4,-2
1537907281309096,-3,-3,-2,6,10,4,1,0
1537907281331037,0,1,3,10,9,4,3,2
1537907281331037,-2,-3,-2,0,-3,-4,-1,1
1537907281332035,-1,-3,-1,-1,-4,-3,-2,-1
1537907281332035,-2,1,-2,-6,-4,-1,-3,0
1537907281353976,-2,1,2,-2,-1,0,0,-2
1537907281353976,-1,0,-2,2,6,4,-2,-1
1537907281354974,-2,1,0,2,-5,0,0,-1
1537907281354974,-1,-1,-1,3,0,0,0,-1
1537907281368937,-1,0,-3,-14,0,4,0,0
1537907281368937,-3,-2,-2,5,-3,0,0,0
1537907281368937,-2,-1,-1,-4,-4,-2,-2,-2
1537907281368937,-1,0,1,19,13,0,-1,-1
1537907281390879,2,-1,0,-15,-15,-6,0,1
1537907281390879,-1,-1,5,-6,-2,1,-1,1
1537907281391877,2,-1,-2,10,-7,-4,0,-1
1537907281391877,-2,-4,-3,-9,2,0,-2,-2
1537907281414815,-2,-1,-2,8,9,2,3,-1
1537907281414815,2,-1,-2,-4,-5,-5,-1,0
1537907281414815,-2,-1,0,-5,-1,0,0,-1
1537907281414815,0,-1,1,0,6,2,1,0
1537907281428777,-1,0,0,5,4,-1,0,-2
1537907281428777,-2,-1,-4,-1,-3,-2,-1,0
1537907281429774,-1,-1,1,1,3,2,-1,1
1537907281429774,-1,0,-1,-8,-8,-3,-1,1
1537907281450718,-2,0,0,-1,1,2,1,1
1537907281450718,-2,2,-2,-2,2,-1,-1,-2
1537907281451715,0,-1,1,2,0,-1,0,-2
1537907281451715,-1,-2,-2,-5,-4,-2,-1,1
1537907281474654,0,-1,-1,-3,-1,1,-1,-1
1537907281474654,-2,-1,-1,5,3,0,1,-1
1537907281474654,1,-1,-2,-3,-6,-3,-1,0
1537907281474654,0,-1,1,-7,-4,-2,0,0
1537907281488617,-2,0,-1,1,7,3,1,0
1537907281488617,2,-1,2,4,-3,-2,-1,-2
1537907281489615,-1,0,-1,-3,-1,-2,0,-1
1537907281489615,2,-1,-4,-2,-2,-1,0,-1
1537907281511555,1,0,3,9,12,5,1,1
1537907281511555,-2,-1,-6,-20,-19,-6,-2,-2
1537907281511555,-1,-1,-1,-2,2,-1,-1,-1
1537907281511555,-1,-1,0,0,0,0,-1,-1
1537907281534494,1,1,0,-1,2,1,1,-1
1537907281534494,0,-1,1,7,6,1,1,-1
1537907281535492,1,-2,2,11,5,2,-2,0
1537907281535492,-3,-3,-5,-27,-12,-5,-2,-4
1537907281548456,-1,-2,0,12,1,1,-2,0
1537907281548456,-1,-3,-2,-14,-1,-2,-2,-2
1537907281549454,-2,0,-2,-7,-5,-1,-1,-1
1537907281549454,-1,0,1,6,1,0,0,0
1537907281571395,-1,0,0,0,-3,-1,-1,-2
1537907281571395,0,-1,-1,-1,4,0,0,1
1537907281572392,-1,1,1,2,0,0,0,0
1537907281572392,-4,-1,2,10,-4,-2,-1,-3
1537907281594334,1,-3,-7,-9,-1,-2,0,-1
1537907281594334,-1,1,4,-3,-9,-4,-2,-1
1537907281595331,-2,0,-1,1,1,0,-2,-2
1537907281595331,1,-1,1,0,0,-1,0,1
1537907281608296,-2,-3,-2,-8,-5,-4,-2,-1
1537907281608296,4,0,-2,6,7,2,0,0
1537907281609294,-4,-1,0,-1,-3,-1,1,-1
1537907281609294,-4,-4,-1,-4,-1,-1,-2,-5
1537907281632232,-1,0,2,2,0,-2,-1,-3
1537907281632232,-1,0,-1,2,-1,-1,-1,0
1537907281632232,2,0,-1,-4,-3,-2,-1,2
1537907281632232,1,0,-2,0,0,0,-1,1
1537907281654173,-2,-1,1,-3,-2,0,0,1
1537907281654173,0,-2,-1,6,1,0,0,-2
1537907281655171,-1,0,-1,-2,-1,-1,-1,-2
1537907281655171,0,-1,-1,-1,3,1,-1,0
1537907281669133,-2,-1,-2,-3,-4,-2,0,0
1537907281669133,-1,0,-1,0,-1,0,-2,0
1537907281669133,0,-1,0,1,0,-1,-1,-1
1537907281669133,-1,0,0,-1,1,0,-2,0
1537907281692074,0,0,1,-3,-5,-2,-1,-2
1537907281692074,-2,-1,-1,0,1,0,0,0
1537907281693071,-1,1,1,5,5,2,0,-2
1537907281693071,1,0,-4,1,-4,-3,-1,0
1537907281714016,-5,-12,-8,-12,0,-4,-2,-2
1537907281714016,-3,1,3,1,7,2,0,-2
1537907281715013,3,18,0,14,11,3,0,-2
1537907281715013,-5,-18,8,8,-18,-10,-4,-3
1537907281728974,-2,-16,-15,-24,-16,-4,-2,0
1537907281728974,-9,-59,-10,-7,30,9,2,-2
1537907281728974,11,59,57,-12,-46,-15,-3,1
1537907281728974,-2,18,-45,59,84,22,6,1
1537907281751912,-4,6,-22,-24,-86,-33,-10,-7
1537907281751912,0,-38,-25,-32,30,10,1,4
1537907281752910,2,45,9,5,-32,-12,-5,-4
1537907281752910,5,-9,-34,-24,43,20,8,6
1537907281773853,-4,12,99,15,6,-3,-5,-4
1537907281773853,4,12,-63,18,-18,-5,-1,0
1537907281774851,-5,-31,31,70,27,3,-3,-2
1537907281774851,-1,7,33,-106,-42,-11,-4,-2
1537907281788814,3,4,-50,60,40,14,5,3
1537907281788814,-4,12,71,35,-29,-13,-6,-6
1537907281789811,-7,-26,-111,-55,37,10,2,-3
1537907281789811,0,14,15,26,-64,-19,-5,-2
1537907281810757,1,-8,59,6,28,14,4,2
1537907281810757,3,29,8,21,3,-3,-1,1
1537907281819732,0,-10,25,-1,-4,0,1,3
1537907281819732,-3,-21,-79,7,24,5,0,-2
1537907281834693,5,7,-17,-41,-12,-3,1,1
1537907281834693,-1,9,22,-28,-17,-3,-2,-2
1537907281835690,2,-15,-8,48,64,16,8,6
1537907281835690,-6,-9,2,-16,-70,-26,-8,-7
1537907281848655,-1,-5,2,-31,1,-1,-1,-1
1537907281848655,-1,1,-16,13,7,1,1,-1
1537907281849653,-3,-24,-4,-13,3,1,-1,-1
1537907281849653,1,-7,30,19,15,2,-1,0
1537907281870596,1,25,-19,20,6,1,1,0
1537907281870596,-5,-2,0,-28,5,2,-1,-2
1537907281879572,-1,5,-3,9,-14,-5,-2,-1
1537907281879572,-3,-4,13,7,5,2,-2,0
1537907281894532,1,-6,-6,3,15,6,-1,0
1537907281894532,1,5,-15,-40,25,8,3,1
1537907281900516,-7,-11,23,-41,-81,-22,-10,-7
1537907281900516,2,22,-32,22,-1,-1,0,-1
1537907281907497,-1,-3,7,13,24,6,2,1
1537907281907497,0,1,1,11,-6,-4,-1,-1
1537907281916473,-1,-7,-11,-21,6,1,4,1
1537907281916473,-1,1,31,4,3,0,0,0
1537907281931434,-3,-7,-14,-1,-13,-4,-2,-2
1537907281931434,2,5,4,10,-6,-3,-2,-1
1537907281938415,-4,-3,-5,-14,-2,1,-2,-1
1537907281938415,1,1,10,-3,0,0,1,0
1537907281954372,-1,-3,-10,-2,4,1,-1,-1
1537907281954372,-2,1,0,10,-12,-4,-1,-2
1537907281955370,0,-5,-5,-1,6,1,0,0
1537907281955370,3,-2,9,-11,2,1,-2,1
1537907281968335,-5,-4,-6,2,-5,-3,0,-1
1537907281968335,-4,0,3,0,-5,-2,-2,-4
1537907281977311,0,-1,-3,-1,-2,-2,0,-1
1537907281977311,-1,0,9,-1,0,0,0,-1
1537907281991274,3,1,-3,-4,-5,-4,0,3
1537907281991274,1,3,-1,8,-4,-3,-1,1
1537907281998255,-5,-2,-5,-3,3,-1,-2,-6
1537907281998255,-1,-1,5,1,-1,-1,0,1
1537907282016208,0,-1,-1,3,2,0,-3,-2
1537907282016208,-2,2,0,-3,-4,0,-1,-2
1537907282018202,1,-2,-2,-1,1,-1,-1,-1
1537907282018202,0,-2,4,-5,1,0,1,-1
1537907282021194,-1,-1,-1,1,-2,13,5,0
1537907282021194,6,1,-1,2,-4,-22,1,3
1537907282030170,-2,0,-1,0,2,-2,-14,1
1537907282030170,-7,-3,2,1,-1,-2,-1,-4
1537907282043135,2,-2,-8,-6,-2,2,-3,1
1537907282043135,0,2,-1,1,0,7,4,0
1537907282051115,3,0,-2,0,1,-1,2,0
1537907282051115,1,0,2,-3,2,1,-2,-1
1537907282066074,-4,-4,1,1,1,-5,-2,-2
1537907282066074,-3,2,-1,-2,-6,1,-2,-3
1537907282067071,-1,-3,1,6,3,1,0,1
1537907282067071,2,3,0,-17,15,9,2,5
1537907282080036,0,-1,3,18,-15,-11,-2,-1
1537907282080036,-6,-5,-4,24,-4,-4,-4,-4
1537907282088016,-3,-1,-4,-30,-12,-1,1,-1
1537907282088016,0,-1,1,11,5,0,1,-2
1537907282102974,0,-3,-2,-16,3,-1,-1,0
1537907282102974,1,-3,-1,0,4,2,-3,-1
1537907282110953,-2,-1,-2,7,-9,-6,-1,-2
1537907282110953,-1,-2,2,5,-7,-3,-1,-2
1537907282125912,-2,0,-4,1,0,-5,-3,-3
1537907282125912,-2,2,1,-8,-1,2,-2,-3
1537907282126910,-3,3,-1,11,8,3,3,0
1537907282126910,-3,-1,-1,-8,-11,-6,-4,-2
1537907282140872,-3,0,-3,15,6,1,-1,-3
1537907282140872,2,-2,2,-3,-6,-2,-1,0
1537907282147854,-2,-3,-3,1,-3,-3,-1,-1
1537907282147854,-7,-1,1,9,1,-1,-2,-3
1537907282162814,-2,-1,-3,-22,0,0,-1,-1
1537907282162814,0,-1,-3,-8,1,2,0,0
1537907282170792,1,-2,0,9,-1,-1,-1,-1
1537907282170792,1,-1,-1,-12,-3,0,0,2
1537907282185752,-1,-3,-1,11,2,-3,-2,-2
1537907282185752,1,-3,-1,-4,-2,-1,-1,0
1537907282186750,-2,-4,-2,-4,-4,-2,-2,-2
1537907282186750,0,-1,2,5,-4,-1,-1,-1
1537907282200713,1,-1,-1,-1,-1,-2,-1,0
1537907282200713,-2,-2,-1,-7,-4,-1,-1,-2
1537907282207694,0,-3,-2,1,4,2,1,-1
1537907282207694,-1,-1,0,-4,2,-2,-2,-1
1537907282222654,-2,-2,-2,-2,-2,-1,-1,-2
1537907282222654,0,0,0,9,1,-1,0,-1
1537907282231630,1,0,1,-2,1,-1,0,-1
1537907282231630,0,0,-1,-8,-4,-2,-1,-1
1537907282246590,0,0,-1,-5,-1,1,1,-1
1537907282246590,-1,3,2,1,4,2,0,0
1537907282246590,0,1,2,20,1,-1,0,-1
1537907282246590,-1,-2,-3,-12,-4,0,-1,0
1537907282260552,-2,-1,2,0,-3,-1,-2,-2
1537907282260552,-1,-2,-3,-12,-2,-1,0,-1
1537907282267534,0,2,-1,-6,4,0,-1,2
1537907282267534,4,0,3,18,-5,-3,-2,1
1537907282282494,-3,-2,-2,-15,-7,-1,0,0
1537907282282494,-5,-1,0,9,1,0,0,-3
1537907282291470,0,-2,-3,-11,0,-3,-1,-1
1537907282291470,-2,-3,0,6,4,1,0,-1
1537907282305432,0,0,0,-1,1,0,-1,0
1537907282305432,0,1,0,-3,-9,-4,-1,1
1537907282313411,-1,-2,-3,-7,0,0,0,0
1537907282313411,1,-1,-2,2,-1,-1,1,-1
1537907282320392,0,-1,-1,5,1,-4,-1,0
1537907282320392,1,-1,0,-1,1,1,-3,-2
1537907282328371,-1,-2,0,-6,-2,-1,-2,-2
1537907282328371,0,1,-2,-3,-1,0,0,0
1537907282343331,0,-1,-3,1,-2,-1,-1,-1
1537907282343331,0,0,0,-3,1,0,1,1
1537907282351310,1,1,0,-5,-3,-1,-1,1
1537907282351310,0,0,0,0,1,0,-1,0
1537907282365273,-1,-1,-1,2,2,1,-1,-2
1537907282365273,2,0,0,-5,-3,-3,-2,1
1537907282373251,-1,-1,1,0,-2,0,-1,-2
1537907282373251,-2,-2,-1,-2,-1,0,-1,-2
1537907282380232,-2,0,0,3,0,-1,-1,-1
1537907282380232,1,-1,-5,-3,-2,-5,-1,1
1537907282388211,0,0,0,-2,-2,0,1,1
1537907282388211,-1,1,-2,-2,0,-1,-1,-1
1537907282404169,1,2,-1,0,0,-1,-1,-1
1537907282404169,-1,-1,-1,3,3,0,-1,-1
1537907282411150,-2,-1,-1,0,-4,-1,0,-2
1537907282411150,-1,-2,0,4,1,2,0,-1
1537907282434089,1,1,2,-2,-3,-2,-2,-2
1537907282434089,-2,0,0,1,-2,0,-2,-2
1537907282435086,-2,-3,-1,4,2,-1,-1,-1
1537907282435086,1,1,-2,-20,8,3,2,1
1537907282440073,-1,-2,-3,7,-18,-6,-1,-1
1537907282440073,3,22,4,-3,-17,-8,-3,-1
1537907282448051,-7,-24,-1,32,41,14,3,0
1537907282448051,-5,-40,-5,-42,-57,-20,-6,-5
1537907282463011,8,65,21,77,77,22,5,3
1537907282463011,-13,-70,-56,-85,-59,-27,-12,-8
1537907282470990,2,-6,59,23,3,0,0,2
1537907282470990,5,-10,-4,22,31,13,5,6
1537907282485950,-7,-21,2,44,0,2,-3,-3
1537907282485950,5,30,0,-63,-23,-4,-1,-1
1537907282493929,6,40,-16,63,-8,-1,-1,1
1537907282493929,-2,-21,-55,-86,16,6,1,-1
1537907282508888,2,-9,-11,-81,-1,3,1,2
1537907282508888,5,14,83,127,58,20,11,5
1537907282508888,-5,-19,-20,46,-70,-28,-7,-6
1537907282508888,2,37,117,-7,-2,-2,-2,-2
1537907282522851,0,1,-100,-48,-11,1,2,2
1537907282522851,-2,0,3,80,79,24,8,1
1537907282530830,2,5,-21,-110,-48,-11,-3,1
1537907282530830,1,8,-1,75,24,4,1,-1
1537907282545790,-4,-4,40,-42,-47,-20,-5,-5
1537907282545790,-3,-15,-29,-8,31,10,1,1
1537907282553769,-2,-1,11,-3,-30,-9,-2,-3
1537907282553769,-2,10,-13,-7,-5,-4,-2,-1
1537907282568728,0,-19,22,17,14,4,4,0
1537907282568728,0,5,-10,-26,-14,-5,-1,0
1537907282569726,0,5,-9,-37,0,-4,-2,-1
1537907282569726,-2,-5,-10,20,-2,-3,1,0
1537907282582692,1,-13,7,-8,4,-1,-3,-1
1537907282582692,0,-4,-7,6,-27,-10,-3,-1
1537907282590670,0,1,-2,-7,30,7,2,-1
1537907282590670,-4,-2,-3,18,-1,-1,-1,-2
1537907282605630,-2,-2,-4,4,-12,-4,-2,0
1537907282605630,-2,4,-3,-21,-11,-2,-2,-3
1537907282613609,0,-4,0,-13,17,6,2,1
1537907282613609,-1,7,-14,-3,-7,-3,-1,-2
1537907282628569,-2,2,1,7,-8,-4,-3,-2
1537907282628569,-3,3,7,-8,-4,0,-1,-1
1537907282629566,-1,1,-2,11,19,4,2,-1
1537907282629566,0,2,-5,9,-9,-1,0,-1
1537907282642531,-1,1,3,-1,-3,-1,-1,-1
1537907282642531,-1,-2,2,1,-3,-3,-1,0
1537907282651507,0,-2,-6,-6,7,2,0,0
1537907282651507,0,1,-8,-3,0,-1,-4,0
1537907282665470,-1,-4,4,-1,-6,-3,-1,0
1537907282665470,0,0,-2,-5,-3,-1,0,1
1537907282673449,0,-1,-3,-2,5,0,-1,0
1537907282673449,-1,0,0,0,-2,-2,0,0
1537907282688408,-3,-2,2,8,3,0,0,-2
1537907282688408,0,-1,-1,2,-5,-1,-1,-1
1537907282689406,5,1,-1,-7,4,3,2,3
1537907282689406,-4,-2,-1,4,1,1,-3,-3
1537907282703369,0,-1,0,-1,-6,-3,-2,-3
1537907282703369,-3,1,-3,-5,-2,2,3,-4
1537907282711348,-2,-5,-1,-2,8,0,1,-3
1537907282711348,2,2,-4,0,-5,-6,-6,2
1537907282734286,0,0,0,-1,-3,-3,0,0
1537907282734286,-1,-1,1,-2,-2,-4,-2,-2
1537907282735284,-3,-2,0,2,4,0,2,-2
1537907282735284,-3,1,-2,3,-1,-1,-3,-2
1537907282748249,-1,-3,1,-1,-1,-2,-1,1
1537907282748249,3,1,-2,-3,-2,2,1,3
1537907282757225,-3,-2,-1,-3,0,0,-2,0
1537907282757225,-1,0,-4,-1,-3,-2,0,-4
1537907282763209,-1,1,-2,-1,-1,1,0,0
1537907282763209,1,0,1,7,3,0,0,-1
1537907282779166,0,-2,-5,-28,-1,2,0,2
1537907282779166,0,-2,-6,16,-7,-4,-2,-2
1537907282785150,2,1,1,-7,4,0,0,0
1537907282785150,-4,-3,-1,4,-11,-7,-5,-2
1537907282794126,0,-1,-1,2,4,-1,-2,-1
1537907282794126,1,0,1,1,5,3,3,1
1537907282808089,1,1,1,26,4,0,1,3
1537907282808089,-2,-5,-10,-34,-17,-10,-5,-3
1537907282817065,0,0,1,-3,5,3,-1,-3
1537907282817065,0,0,0,-8,-3,-1,1,-1
1537907282823049,-1,0,-2,5,3,-2,1,-1
1537907282823049,1,2,2,3,6,3,0,1
1537907282832025,-4,0,-2,7,-2,-2,-1,-2
1537907282832025,1,-1,-1,-6,0,0,1,-2
1537907282844991,-4,-1,0,-6,-2,-1,0,-2
1537907282844991,-3,-1,1,10,2,0,-1,-1
1537907282853966,1,1,-4,-16,-8,-3,-1,0
1537907282853966,-2,0,1,2,3,-1,-1,-1
1537907282867929,0,-2,0,-1,4,2,-1,-2
1537907282867929,-3,-2,-3,-8,-11,-2,-2,-1
1537907282876905,0,1,0,13,5,2,-1,0
1537907282876905,2,-1,3,24,5,0,1,2
1537907282882889,-3,-1,-5,-36,-19,-7,-2,-1
1537907282882889,-4,-4,-6,-28,-8,-5,-3,-3
1537907282891865,0,0,4,17,8,2,0,1
1537907282891865,-1,-4,0,-16,-21,-7,-4,-2
1537907282913806,4,-2,0,17,13,5,0,1
1537907282913806,0,0,1,5,5,1,1,-1
1537907282915801,-2,-2,0,0,2,0,-3,-2
1537907282915801,0,0,-5,0,7,2,0,0
1537907282936745,-3,-2,2,2,-4,-3,-1,-3
1537907282936745,1,1,3,-2,0,2,-2,0
1537907282937742,-2,0,-1,0,-5,-2,2,0
1537907282937742,-3,-1,-1,-4,0,-1,0,-1
1537907282950708,-1,-1,-2,-6,-5,-2,-2,-2
1537907282950708,1,1,2,9,9,0,1,2
1537907282959684,1,1,-2,1,0,-1,-1,0
1537907282959684,-3,0,-2,-4,-1,1,-1,-2
1537907282973647,-1,-2,0,-2,-2,-1,-1,-1
1537907282973647,2,1,0,9,1,1,0,0
1537907282980628,1,-1,-1,-6,-5,-2,-2,0
1537907282980628,2,3,-1,-7,3,-1,1,1
1537907282996585,-2,-6,2,13,7,2,0,0
1537907282996585,2,-2,2,13,2,0,0,-1
1537907282998580,-3,-1,0,-13,-12,-4,-2,-3
1537907282998580,-2,0,2,23,16,4,-1,0
1537907283019523,-1,0,-5,-21,-20,-7,-2,-1
1537907283019523,0,-1,0,2,-1,1,0,-1
1537907283020521,0,-1,1,14,0,-1,-2,-1
1537907283020521,0,-1,-3,-8,1,1,1,0
1537907283033486,-1,1,0,11,7,2,-1,0
1537907283033486,0,-1,-1,-7,0,0,-2,0
1537907283040467,0,-1,-3,-10,-1,0,-3,-1
1537907283040467,-4,-4,-1,0,-1,-4,-3,-1
1537907283056425,2,0,0,2,-1,-1,-3,-1
1537907283056425,-1,1,-1,-6,0,0,1,-1
1537907283058420,-3,-2,0,5,3,1,0,-3
1537907283058420,1,-1,-2,-4,-5,-2,-1,-2
1537907283070388,0,0,0,-7,-4,-1,0,0
1537907283070388,2,0,-2,4,5,2,0,1
1537907283079364,0,-1,1,7,-4,-3,-2,-1
1537907283079364,-1,-3,-4,-9,-4,-2,0,-2
1537907283094324,-1,-2,-2,-1,-1,-2,0,-2
1537907283094324,-1,0,0,14,5,-1,0,0
1537907283095321,0,-1,0,-6,-1,-2,-1,-1
1537907283095321,-2,1,-1,-10,-4,1,0,-2
1537907283117262,-2,-1,1,15,1,0,0,0
1537907283117262,-3,-3,-6,-31,-11,-5,0,-2
1537907283118260,-2,-1,1,4,-1,-1,-1,-1
1537907283118260,2,0,-2,-4,-3,-2,-1,1
1537907283130228,-1,1,-1,-4,-1,0,0,-1
1537907283130228,-5,-2,1,5,2,1,-2,-3
1537907283139204,-2,-1,-3,-5,-1,-2,-1,-1
1537907283139204,0,-1,0,-1,-2,0,-1,-1
1537907283153166,2,0,-3,-2,-2,-3,-2,1
1537907283153166,0,-2,-1,2,1,-2,-1,1
1537907283162143,0,0,-2,-1,-1,-1,1,0
1537907283162143,-1,-2,1,3,2,1,1,0
1537907283177103,0,-1,0,0,-2,0,-1,-1
1537907283177103,-2,0,1,0,1,-1,-2,-2
1537907283178100,1,-1,-1,-4,-1,0,0,2
1537907283178100,-1,-1,-2,-6,-9,-1,0,-2
1537907283199044,-2,0,-1,-3,2,0,0,-1
1537907283199044,2,-1,1,2,0,-1,0,-1
1537907283201038,-4,-3,-1,4,0,-1,-2,-1
1537907283201038,0,-6,-3,-8,4,2,0,0
1537907283214004,0,10,2,3,-7,-4,-2,-2
1537907283214004,-2,9,-4,-10,2,2,-2,0
1537907283215998,-4,-13,-2,5,12,2,-2,-2
1537907283215998,4,-2,6,2,-23,-10,-3,0
1537907283236942,-5,-14,-7,-15,7,2,1,1
1537907283236942,-3,-2,-1,-14,-19,-7,-3,-1
1537907283237940,5,20,0,26,28,12,3,0
1537907283237940,1,6,12,-9,4,0,1,0
1537907283266862,-2,-37,-5,14,3,-1,-1,-1
1537907283266862,-2,-24,-10,-13,4,0,-1,-2
1537907283267860,-10,1,-18,-41,-69,-26,-10,-7
1537907283267860,4,20,-1,53,54,19,4,4
1537907283273844,-1,2,-10,17,20,9,5,3
1537907283273844,-6,-29,-14,27,-43,-25,-9,-5
1537907283280825,-1,6,11,1,-19,-6,-4,-4
1537907283280825,-1,4,31,53,8,-1,0,-1
1537907283296782,-1,-2,-27,-68,-1,6,1,-3
1537907283296782,2,28,-56,15,62,22,7,2
1537907283297780,2,7,55,-51,-89,-32,-9,-3
1537907283297780,-2,-13,-54,4,1,1,-2,3
1537907283319721,3,3,43,44,31,10,3,1
1537907283319721,1,11,16,-43,26,12,3,2
1537907283320719,-2,-8,-9,55,16,3,2,2
1537907283320719,-5,-9,-2,-45,-29,-10,-3,-5
1537907283333684,0,23,35,28,24,6,-1,-4
1537907283333684,-1,0,3,25,-59,-17,-6,-3
1537907283341662,2,-11,-35,-39,40,15,4,4
1537907283341662,0,3,7,-8,-2,-2,-1,0
1537907283356622,0,7,-13,21,-3,-4,-2,0
1537907283356622,0,-14,11,-4,18,2,0,1
1537907283358617,0,5,-2,62,14,3,1,0
1537907283358617,-1,8,-48,-62,-46,-13,-5,-2
1537907283379561,1,-4,2,18,1,-1,0,1
1537907283379561,2,-4,12,-15,12,4,2,1
1537907283380560,0,-15,-12,43,39,12,5,1
1537907283380560,-1,-11,8,8,9,-2,-2,-4
1537907283392526,-5,-24,-23,-27,-40,-12,-5,-6
1537907283392526,-3,20,0,1,-16,-5,-2,-2
1537907283401502,0,-14,4,-15,4,4,0,-1
1537907283401502,0,14,19,6,14,5,2,0
1537907283416463,1,3,-7,-14,-11,-6,-2,-1
1537907283416463,-1,2,8,15,0,1,-1,-1
1537907283418457,-1,-2,-2,-11,10,5,2,0
1537907283418457,0,-2,4,18,8,0,1,1
1537907283439401,-1,3,-6,-18,-16,-6,-3,1
1537907283439401,-1,-4,5,0,4,0,0,0
1537907283440398,3,8,10,1,0,1,0,-1
1537907283440398,-4,-10,-4,-10,-3,-2,-2,-3
1537907283453364,-1,11,1,0,-5,-3,-3,-2
1537907283453364,1,-7,6,3,3,2,0,-1
1537907283462340,1,0,-4,-14,5,2,0,0
1537907283462340,-2,0,3,3,-3,-3,-3,-1
1537907283476302,-2,-3,0,-8,-5,-2,-2,-1
1537907283476302,1,0,3,6,6,2,1,-1
1537907283478297,1,1,-6,-15,-4,-3,0,2
1537907283478297,-1,-2,3,-3,-6,-2,0,0
1537907283500239,-2,2,4,6,3,0,-1,-1
1537907283500239,2,0,-1,-2,-7,-2,-1,-3
1537907283502233,0,3,0,0,3,3,16,54
1537907283502233,0,-8,2,-3,-1,-1,-12,-20
1537907283505225,-3,1,-1,-1,2,-3,-10,-32
1537907283505225,-5,-5,-3,-4,-11,-8,-9,-17
1537907283514201,4,-1,-2,-8,-4,-2,-13,-12
1537907283514201,-13,-1,3,3,6,18,16,40
1537907283528164,19,8,1,3,4,-2,30,115
1537907283528164,-43,-9,-2,-1,-6,-18,-69,-112
1537907283535145,-28,-6,-5,-6,-3,-10,-23,-21
1537907283535145,0,0,-2,-3,0,-1,-9,-8
1537907283552100,6,5,0,-1,0,7,13,13
1537907283552100,31,9,6,6,6,13,46,81
1537907283553097,8,1,-1,-1,1,1,5,-5
1537907283553097,1,-4,0,3,-3,-4,-1,-8
1537907283566064,-5,-2,-2,-15,-5,-2,0,-16
1537907283566064,7,-4,1,6,6,-1,3,4
1537907283574041,-4,-10,-3,-7,-8,-2,-4,-24
1537907283574041,1,-3,-3,-2,-3,-2,3,-6
1537907283589001,-3,-2,2,3,8,1,-8,-20
1537907283589001,-1,5,5,87,23,8,4,6
1537907283594985,-4,-16,-15,-80,-49,-18,-8,-5
1537907283594985,3,23,3,7,2,0,3,7
1537907283611940,-6,1,0,-21,-11,-6,-11,-21
1537907283611940,0,-2,1,1,12,5,3,5
1537907283612937,4,0,6,36,21,9,10,6
1537907283612937,1,13,-5,-8,-13,-10,-3,-1
1537907283625903,-5,-3,-8,-10,2,0,-7,-15
1537907283625903,0,-8,0,-8,-3,2,7,8
1537907283633882,3,11,7,13,0,-1,1,-1
1537907283633882,-6,-7,-2,-17,-7,-4,-4,-7
1537907283648841,-1,-2,3,15,3,4,-2,-7
1537907283648841,0,-4,-6,-24,-9,0,4,10
1537907283655823,3,2,0,6,7,5,-1,-3
1537907283655823,-1,-8,1,14,7,2,-1,-4
1537907283670783,-1,-1,0,-13,-8,-3,-3,-4
1537907283670783,4,0,-2,-19,-8,-3,1,3
1537907283679759,-2,-1,-1,-6,3,1,-1,-2
1537907283679759,4,1,2,2,3,-1,1,4
1537907283685743,-3,-4,-4,0,-3,-6,-4,-5
1537907283685743,0,-2,-2,-15,-12,-5,-1,0
1537907283694719,1,4,1,8,4,0,1,2
1537907283694719,1,-11,-2,-6,-1,-3,1,-1
1537907283708682,-2,-1,1,16,0,0,-3,-4
1537907283708682,0,0,-1,-6,-1,-1,1,2
1537907283715663,1,2,-1,7,5,0,2,-1
1537907283715663,-1,-3,1,4,-1,-1,-1,0
1537907283730622,0,1,-1,-3,-1,-1,0,-5
1537907283730622,0,4,0,0,-4,-2,-1,1
1537907283739599,-1,2,0,8,1,0,1,1
1537907283739599,-2,-3,-2,-14,-2,-1,-2,-1
1537907283754559,0,1,1,5,0,-2,-1,-1
1537907283754559,-1,0,-1,-6,-2,-1,0,1
1537907283755556,2,1,0,4,4,1,1,-1
1537907283755556,0,-3,-2,-5,-7,-3,0,2
1537907283768521,-2,-2,-2,3,-1,0,-2,-2
1537907283768521,0,3,0,-7,4,1,-1,1
1537907283775503,-3,-4,2,7,-10,-7,-4,-3
1537907283775503,0,0,-1,0,2,-1,0,-1
1537907283791460,2,-1,-2,-1,-2,0,0,1
1537907283791460,-1,-1,-1,-2,2,-1,-1,0
1537907283793455,-1,2,-2,0,6,5,0,-1
1537907283793455,2,-16,-1,1,1,1,0,-1
1537907283805423,-2,21,6,4,5,0,-2,0
1537907283805423,-5,-25,-7,18,21,7,3,0
1537907283814399,-2,13,2,-48,-46,-16,-4,-3
1537907283814399,5,12,12,59,8,1,-2,1
1537907283828361,-8,-1,-5,6,13,3,0,-3
1537907283828361,1,-13,3,-55,-3,1,-2,0
1537907283835343,-3,17,0,-3,15,2,0,-1
1537907283835343,1,-45,-12,36,-24,-8,-3,-1
1537907283859279,3,9,19,84,7,2,4,1
1537907283859279,-1,16,-24,-3,-45,-20,-11,-7
1537907283860276,4,-10,7,-110,67,30,13,7
1537907283860276,-5,4,-15,-3,-41,-18,-9,-6
1537907283865263,-1,-20,7,100,22,7,2,1
1537907283865263,1,-7,18,25,-30,-10,-2,-1
1537907283874239,0,2,-16,52,3,-1,-3,-1
1537907283874239,0,22,-19,45,59,23,9,4
1537907283890196,1,-9,-2,-59,-14,-3,-3,1
1537907283890196,-1,16,14,20,23,3,1,-1
1537907283895183,-5,2,16,26,-18,-6,-4,-3
1537907283895183,-3,6,10,-55,-3,1,1,-3
1537907283912137,-1,1,-6,-18,0,-3,-3,-3
1537907283912137,1,0,-15,13,13,6,3,0
1537907283913135,0,-3,-3,-14,-16,-7,-2,-2
1537907283913135,-2,-5,-15,-66,-17,-7,-5,0
1537907283925103,2,-6,-7,-22,-6,-3,-1,-1
1537907283925103,-1,6,7,-12,1,0,0,1
1537907283934079,1,-12,-9,23,-2,-1,1,1
1537907283934079,1,1,13,14,12,2,1,-1
1537907283949039,0,-13,-3,-36,-15,-6,-3,-1
1537907283949039,-2,-17,-8,-15,-4,-1,0,0
1537907283955023,0,-7,1,37,0,-2,-2,-1
1537907283955023,-3,4,8,-8,-2,-2,-1,-2
1537907283971978,-1,9,-8,-30,-5,-3,-2,-3
1537907283971978,-1,4,-1,15,-4,-2,-2,-1
1537907283972975,-2,0,-3,13,2,-1,-1,1
1537907283972975,-2,7,8,0,2,2,2,-1
1537907283984943,-1,1,-6,-7,-2,1,0,-1
1537907283984943,1,7,0,-11,-8,-1,1,2
1537907283993919,-2,-2,-4,1,-11,-7,-2,-5
1537907283993919,0,2,-3,-6,3,1,-1,0
1537907284008879,-2,1,0,-2,-5,-1,-2,-1
1537907284008879,0,-1,3,4,9,3,0,-2
1537907284015860,2,1,-3,7,3,0,1,2
1537907284015860,-2,-4,-1,-2,-6,-3,-2,0
1537907284031817,-2,-3,0,5,2,0,0,-4
1537907284031817,0,5,3,-4,-4,-2,-1,0
1537907284032815,3,-7,-4,2,-2,-2,-1,-2
1537907284032815,-2,1,2,6,7,2,0,1
1537907284045780,3,-3,-1,-7,-7,-4,-3,0
1537907284045780,-9,-3,-2,-5,0,-1,0,-3
1537907284054756,-1,-2,-1,2,-4,-1,-1,-20
1537907284054756,5,-1,2,-1,-1,5,10,31
1537907284069716,6,2,0,0,3,20,40,52
1537907284069716,-20,-8,-3,0,-9,-43,-64,-84
1537907284075700,-2,1,0,4,9,36,14,-2
1537907284075700,-6,1,4,3,3,-15,-12,-2
1537907284091657,6,1,-3,-6,-9,-32,-26,-38
1537907284091657,-7,-6,-2,1,10,48,28,35
1537907284093652,4,4,2,-1,-5,-44,15,13
1537907284093652,-1,0,-1,-4,-1,16,-19,6
1537907284105620,3,1,-2,-3,-3,9,5,-5
1537907284105620,6,1,-1,1,1,-2,5,9
1537907284114597,-5,-2,-1,2,3,19,4,-6
1537907284114597,0,-2,1,-1,-2,5,15,-6
1537907284128559,-4,-1,0,3,0,-10,-10,-1
1537907284128559,3,1,-1,0,-1,6,5,1
1537907284135540,-2,-1,-1,10,6,0,-11,13
1537907284135540,0,-1,-9,-34,-21,-20,-1,-14
1537907284151498,-5,-6,1,-7,-7,-1,-9,-7
1537907284151498,5,4,1,3,1,1,3,10
1537907284157482,0,-2,-3,-3,-5,-5,-5,-3
1537907284157482,-1,-1,3,7,4,-4,-6,-4
1537907284165461,-2,-3,-6,1,9,9,4,-4
1537907284165461,6,5,8,50,15,2,9,10
1537907284174436,0,1,-8,-72,-1,-3,-9,-1
1537907284174436,-5,-26,5,-16,-51,-15,-7,-14
1537907284188399,-3,19,-1,23,17,8,0,2
1537907284188399,4,-21,-8,-1,2,-7,4,5
1537907284195380,-8,3,0,8,-29,-15,-13,-6
1537907284195380,0,-18,-10,43,30,15,4,0
1537907284211338,5,24,14,10,-9,-6,0,-1
1537907284211338,0,31,4,30,13,-2,-2,1
1537907284218319,2,-35,1,5,7,7,3,4
1537907284218319,-2,0,-1,-15,8,1,3,-5
1537907284225300,2,-5,5,83,48,11,3,4
1537907284225300,-9,1,-21,-74,-42,-21,-11,-10
1537907284234276,5,43,12,20,22,12,2,3
1537907284234276,-5,-12,-7,-33,-90,-35,-11,-8
1537907284248239,3,16,27,98,76,29,6,4
1537907284248239,7,13,-13,-92,-61,-13,0,6
1537907284255220,-9,-5,-32,-43,-32,-12,-9,-7
1537907284255220,2,-32,5,84,89,28,10,6
1537907284271177,-8,-6,-20,-128,-88,-36,-13,-7
1537907284271177,-1,-9,37,18,46,21,10,6
1537907284278159,0,2,37,127,44,8,1,1
1537907284278159,1,14,-49,61,47,16,5,1
1537907284285140,-9,-21,-18,-101,-102,-34,-13,-6
1537907284285140,2,-7,-10,126,47,9,6,5
1537907284294117,-1,-7,-13,-127,-38,-8,-4,-3
1537907284294117,4,18,31,24,28,9,3,1
1537907284309077,2,-1,0,12,17,7,2,1
1537907284309077,-1,-10,-3,-18,-9,-3,-1,-2
1537907284315061,-1,0,3,37,5,2,1,0
1537907284315061,1,14,8,-24,-11,-4,0,0
1537907284331018,-3,-7,-4,-4,-3,1,0,-3
1537907284331018,0,5,-2,-11,-7,0,0,0
1537907284337999,3,-7,2,28,17,4,1,3
1537907284337999,1,7,2,-38,-22,-8,-3,-2
1537907284353956,0,-13,-5,-2,7,3,-1,-1
1537907284353956,1,-9,2,3,7,2,0,-2
1537907284355951,2,-4,-4,-4,-5,-4,-3,-2
1537907284355951,-3,7,0,-22,-10,-5,-5,-4
1537907284367919,-4,-1,-6,11,4,1,-3,-2
1537907284367919,0,3,-2,-6,-6,-2,-2,2
1537907284376895,-2,-2,-1,5,-3,-4,-3,1
1537907284376895,-3,9,5,-5,-2,0,0,-2
1537907284398837,-2,-2,2,14,13,4,0,1
1537907284398837,-1,4,-2,-11,-4,-2,-3,1
1537907284405818,0,1,-2,3,1,0,-1,-1
1537907284405818,-2,2,-1,-4,0,0,-2,-1
1537907284421775,2,-2,0,-2,1,1,2,1
1537907284421775,-3,2,0,-7,4,2,1,0
1537907284422772,0,6,1,5,-4,-3,-2,-1
1537907284422772,-3,-17,-3,1,-4,-1,0,0
1537907284435738,5,29,5,5,1,0,-1,1
1537907284435738,0,-3,-3,-14,4,3,-2,-1
1537907284444714,-1,-31,1,14,-3,-4,0,1
1537907284444714,-3,33,0,-18,-3,-1,-1,-1
1537907284458676,0,-13,49,3,-1,-1,-1,-1
1537907284458676,-2,-10,-56,6,-3,-3,-3,-4
1537907284465658,5,-2,7,0,7,2,3,4
1537907284465658,-4,-7,8,-6,-9,-4,-1,-2
1537907284481615,-2,-8,-40,-9,3,1,0,0
1537907284481615,2,13,36,5,-4,-4,-2,0
1537907284483610,-5,7,10,-5,-2,0,-2,-5
1537907284483610,1,-10,12,-4,-2,-2,-2,-2
1537907284495578,-3,1,-24,7,2,1,1,1
1537907284495578,-1,-16,-21,0,-2,0,1,0
1537907284510538,-1,12,0,0,1,1,-2,-9
1537907284510538,5,-9,-15,-1,1,0,-1,8
1537907284518516,-6,0,24,3,0,-1,-14,-45
1537907284518516,2,-16,-31,-5,-5,0,6,12
1537907284525498,-3,6,9,0,-6,-6,-3,-10
1537907284525498,-3,2,-5,-3,-1,1,-4,-1
1537907284541455,-4,-12,-11,-11,-3,-3,-4,-39
1537907284541455,2,13,86,13,2,1,-5,18
1537907284543450,-3,-13,-50,-8,4,2,3,0
1537907284543450,3,11,-4,-1,-2,-1,-2,-4
1537907284564394,3,-12,-31,-1,-1,2,5,27
1537907284564394,-1,14,36,2,-3,0,1,-6
1537907284565391,3,13,-13,7,2,2,1,4
1537907284565391,-3,-30,-22,-12,-7,-2,-2,0
1537907284578357,-1,29,6,-10,-5,-3,2,12
1537907284578357,-1,-23,-14,10,6,-1,-1,-13
1537907284585338,-1,-1,55,10,1,-1,-2,-2
1537907284585338,0,5,-41,13,4,1,3,0
1537907284601295,-1,-11,-3,-8,0,0,2,8
1537907284601295,7,6,-7,-12,-9,2,1,5
1537907284603290,1,13,-47,-3,1,-8,-3,7
1537907284603290,3,11,32,9,4,1,6,36
1537907284624234,-12,-27,32,7,4,1,-5,-29
1537907284624234,2,12,-16,-5,2,-1,-3,-5
1537907284626228,1,10,0,-12,-3,6,4,0
1537907284626228,-9,-12,13,-1,-2,-4,-5,-1
1537907284638197,1,8,-17,-4,-3,-1,0,5
1537907284638197,-7,2,20,-6,-2,-1,-8,-27
1537907284645178,5,2,-6,3,-3,2,2,19
1537907284645178,3,-1,-9,-1,-2,-5,-3,-7
1537907284661136,3,21,21,8,2,1,4,23
1537907284661136,-5,-25,-49,-10,-6,-6,-3,-9
1537907284669114,-1,-9,13,3,-2,1,-3,-6
1537907284669114,1,6,25,9,3,1,0,-9
1537907284684074,3,-3,-3,-8,6,0,-3,-1
1537907284684074,-4,4,6,13,11,0,0,6
1537907284686069,-7,-5,-34,-2,-18,-7,-2,-6
1537907284686069,-1,-15,18,-4,2,1,1,-4
1537907284698036,2,12,-10,1,-3,-2,0,5
1537907284698036,0,-2,22,-4,-4,-2,1,3
1537907284707013,-2,-19,-15,3,11,2,1,4
1537907284707013,-6,6,-7,1,-1,1,-2,-11
1537907284721973,8,10,5,10,0,-2,-1,7
1537907284721973,-4,-1,8,-5,-1,-2,0,2
1537907284722970,-4,-5,45,2,0,1,-3,-3
1537907284722970,2,6,-18,-5,-4,-2,1,8
1537907284734938,-5,-12,-21,-2,-1,-2,-4,-7
1537907284734938,7,30,-51,-6,-1,-1,4,30
1537907284743914,-3,-9,37,-6,-3,-1,-4,-34
1537907284743914,1,11,-40,7,7,1,0,-2
1537907284758874,0,-14,57,-5,-2,-1,-3,-7
1537907284758874,-5,-15,-16,-6,-5,-3,5,17
1537907284760869,4,7,29,25,7,2,1,-4
1537907284760869,0,2,-15,-32,-9,-2,0,3
1537907284781813,-9,-13,-8,-7,-11,-7,-6,-27
1537907284781813,-1,1,-10,-3,-2,-1,-4,4
1537907284782811,2,-4,-8,-14,-3,-2,2,17
1537907284782811,3,8,29,10,2,0,0,-36
1537907284795775,4,3,-15,3,0,-2,0,22
1537907284795775,-7,-2,5,-1,-1,-1,0,-15
1537907284804751,-1,5,4,-1,0,-2,-2,40
1537907284804751,1,-6,4,-2,-1,2,0,-22
1537907284819711,-4,-8,-51,-5,-2,-2,0,7
1537907284819711,-2,1,113,12,1,0,-2,-19
1537907284820709,1,1,-95,-12,-1,0,-2,-10
1537907284820709,-2,5,16,-8,-1,-1,0,9
1537907284840655,1,-2,0,2,2,1,2,6
1537907284840655,1,1,-12,13,1,0,-2,-7
1537907284849632,-6,-6,31,-4,-9,-4,0,-4
1537907284849632,-3,-7,-3,16,3,-3,-3,10
1537907284855615,1,15,10,-15,-8,-1,-1,-1
1537907284855615,2,-18,-18,-1,-1,-1,-3,-1
1537907284864591,4,3,-8,-8,3,0,-1,-1
1537907284864591,-2,3,1,7,1,0,-2,-5
1537907284878554,0,-8,23,8,4,1,-3,-14
1537907284878554,0,4,-37,-6,0,1,8,-8
1537907284885535,-2,-7,-3,-2,-1,-1,-1,9
1537907284885535,-4,-11,9,-5,-3,-1,-2,-9
1537907284901492,-3,0,-5,5,4,3,2,15
1537907284901492,0,5,-2,-4,-4,-1,-2,-27
1537907284903487,-2,12,47,8,0,-2,-1,-6
1537907284903487,-6,0,-63,-8,-5,-3,0,7
1537907284915455,2,-20,-56,-2,1,-1,3,2
1537907284915455,4,6,25,1,1,-2,3,34
1537907284924432,-4,-4,11,-5,-2,-2,-7,-7
1537907284924432,-1,4,49,4,-2,-1,-2,-20
1537907284938395,-3,18,0,5,-1,0,-2,-6
1537907284938395,-1,-12,-28,4,0,-2,-1,5
1537907284945376,-2,-3,-5,-8,-1,-1,-1,-8
1537907284945376,2,-1,4,-5,-1,-1,2,12
1537907284962332,-1,-2,12,-2,3,-1,3,9
1537907284962332,-2,1,8,-4,-4,-1,-13,-36
1537907284968315,0,1,-6,6,1,0,5,7
1537907284968315,1,0,49,6,1,0,0,0
1537907284975297,-2,-10,-75,-10,0,1,0,2
1537907284975297,1,4,7,10,0,0,-5,2
1537907284984273,-2,-3,-11,-20,-6,-4,-2,-13
1537907284984273,0,-3,0,3,-2,1,-1,11
1537907284998235,1,-3,20,-1,-5,-2,1,-1
1537907284998235,-3,-3,-2,-1,1,-1,0,1
1537907285005216,1,11,-17,5,5,2,2,3
1537907285005216,-2,-13,9,-5,-5,-3,-2,0
1537907285022170,-2,-2,19,5,1,0,-2,-8
1537907285022170,2,3,-43,-9,-2,-2,2,6
1537907285023168,-2,-9,18,6,1,-1,0,-9
1537907285023168,-5,4,-25,6,5,1,0,3
1537907285035136,5,2,20,-9,-4,-2,0,6
1537907285035136,1,10,-7,-7,-1,0,-1,7
1537907285044111,0,-5,9,5,0,-2,-2,-3
1537907285044111,0,7,-31,-5,-2,0,0,0
1537907285059071,-5,-10,9,6,0,-1,-1,0
1537907285059071,-3,1,37,1,-1,-2,0,0
1537907285061066,1,-3,-32,-1,-2,0,-2,-9
1537907285061066,2,-1,5,-4,2,0,11,40
1537907285082010,-5,0,19,4,1,-1,-1,-20
1537907285082010,2,-2,-11,-5,-1,0,2,36
1537907285083008,0,-5,-3,1,-1,-1,4,19
1537907285083008,-1,2,13,1,-4,-4,-11,-31
1537907285103951,2,1,-28,-1,-1,0,1,7
1537907285103951,-5,-10,-27,-5,-2,-1,-1,-10
1537907285105946,-2,3,36,1,-2,-1,-2,-2
1537907285105946,0,-8,-9,-3,0,-1,-1,5
1537907285118911,1,5,35,6,1,1,-2,2
1537907285118911,-4,-7,-32,-3,4,0,-2,-4
1537907285120906,0,-4,-23,8,-2,-2,-3,-4
1537907285120906,-2,2,2,-25,-10,-3,-3,-12
1537907285141850,-4,-5,19,3,-1,-1,-1,-10
1537907285141850,3,8,4,2,0,-1,0,8
1537907285142847,1,2,-1,6,2,0,-2,-3
1537907285142847,-1,-4,-17,4,2,-2,-1,-4
1537907285163791,0,2,-38,-8,-2,-3,0,2
1537907285163791,-4,-3,45,3,-1,-1,0,-6
1537907285165786,2,1,-1,-5,-3,-1,0,-4
1537907285165786,2,0,-14,5,-2,0,-2,-2
1537907285178752,-4,0,23,0,0,-1,-1,5
1537907285178752,-2,-5,1,3,-1,-1,-2,-10
1537907285179749,-2,-6,-49,-20,-6,-1,-2,-3
1537907285179749,1,4,23,1,0,-1,-6,-12
1537907285200693,-1,0,-1,7,0,-1,4,16
1537907285200693,1,4,41,3,-3,0,1,-5
1537907285208671,1,4,-45,-3,1,1,1,6
1537907285208671,-1,-13,-9,-1,1,-1,0,-3
1537907285223632,-2,2,6,0,-1,-1,-5,-14
1537907285223632,1,-3,1,1,-3,-1,-2,-1
1537907285230613,-2,0,18,0,0,-1,-1,-7
1537907285230613,-1,0,-16,-1,0,1,2,4
1537907285238592,0,0,4,3,-2,-1,1,2
1537907285238592,-3,-5,7,-5,-1,0,0,-3
1537907285239589,1,2,-14,2,1,-1,-1,-3
1537907285239589,-1,2,12,-1,-2,-1,2,1
1537907285261530,-1,-4,14,-2,0,-1,-4,1
1537907285261530,-1,-2,-32,-3,0,-1,-2,1
1537907285261530,-3,1,27,1,-2,-2,-1,-3
1537907285261530,0,1,2,-4,-1,-2,0,2
1537907285283472,4,2,-2,1,-1,0,0,-1
1537907285283472,-1,3,-48,-10,0,-1,0,-4
1537907285284469,-4,-16,10,4,-1,-2,-1,2
1537907285284469,-2,3,11,3,-2,-1,-1,2
1537907285298431,-1,-6,-15,-3,-2,0,0,-21
1537907285298431,3,-2,14,2,0,-1,-1,20
1537907285299429,0,-1,0,3,-1,-1,0,1
1537907285299429,-3,0,3,-2,0,-2,-2,-1
1537907285321371,2,2,3,1,0,0,-1,-6
1537907285321371,-2,-1,32,3,-2,-2,-1,-10
1537907285321371,1,-4,-40,-2,1,1,1,1
1537907285321371,0,3,8,3,-1,-2,-1,-5
1537907285343311,-3,-2,1,-3,0,-1,-2,7
1537907285343311,-1,1,3,-2,-2,-3,-1,-4
1537907285344309,0,5,12,2,0,0,-1,2
1537907285344309,0,-3,-5,-7,-4,-1,0,-2
1537907285358271,1,0,-14,19,4,0,1,7
1537907285358271,-1,-3,4,-43,-11,-2,1,0
1537907285359269,2,1,24,5,0,-2,-2,-6
1537907285359269,2,1,-18,-1,1,1,1,2
1537907285381210,-1,-3,8,1,-3,-1,-2,1
1537907285381210,-5,-5,-1,10,1,0,-3,-6
1537907285382208,1,3,-6,-4,-2,0,2,7
1537907285382208,-2,-7,-15,-3,1,-1,-5,-12
1537907285403152,1,-2,-6,-3,-1,1,12,36
1537907285403152,-1,1,-29,5,1,-1,0,-8
1537907285404149,-3,9,13,-8,-3,-2,-1,-1
1537907285404149,1,-11,13,9,2,1,3,5
1537907285418112,-2,2,-2,-5,-2,-1,-5,-29
1537907285418112,0,-4,1,4,-1,0,0,5
1537907285419109,-2,-1,-1,-3,-1,-1,1,-2
1537907285419109,0,5,4,1,0,0,-2,7
1537907285441050,1,1,-3,-7,-2,-2,-3,-9
1537907285441050,0,-1,1,4,0,1,1,-2
1537907285442048,-2,-1,7,3,-1,-1,-5,-5
1537907285442048,-3,0,-3,-1,-1,0,0,-6
1537907285463989,-1,-1,-10,-8,-2,-3,-2,3
1537907285463989,-2,-2,-3,5,0,-1,-1,-2
1537907285463989,2,-1,9,1,0,0,1,4
1537907285463989,1,1,16,2,-1,0,3,5
1537907285478949,0,1,-21,-6,0,-1,-2,-1
1537907285478949,3,3,-9,5,2,3,8,23
1537907285478949,0,-3,-12,-3,-1,-1,-2,-7
1537907285478949,-7,-9,-8,-3,2,-1,-1,-34
