timestamp,emg1,emg2,emg3,emg4,emg5,emg6,emg7,emg8
1537920485764597,-4,-2,-1,-2,-3,-33,1,-1
1537920485764597,1,2,2,5,6,34,-5,-4
1537920485765594,-1,-2,0,-1,2,22,-4,-2
1537920485765594,-1,0,0,0,-1,4,0,6
1537920485766591,8,2,1,-2,-6,-28,-4,5
1537920485766591,-4,-3,-5,-1,1,-12,36,0
1537920485767589,-1,-1,0,-2,-5,1,-13,-5
1537920485767589,1,-2,-2,0,1,-8,-18,-5
1537920485776564,-1,-2,0,-1,-2,7,28,4
1537920485776564,-2,-1,1,-1,-4,-6,-33,-6
1537920485781551,2,-2,-1,-1,1,-23,26,5
1537920485781551,-3,0,0,1,6,-45,34,1
1537920485790527,1,2,-2,-3,-4,88,-12,-17
1537920485790527,0,-1,-2,-6,-8,-23,-30,-3
1537920485805487,-2,-1,-2,1,1,3,11,7
1537920485805487,-2,-3,-2,-3,-4,-25,-29,-11
1537920485811471,2,1,2,2,8,2,29,13
1537920485811471,-1,-1,-3,-2,-1,2,28,-2
1537920485836405,-1,-1,1,0,-1,-4,-12,0
1537920485836405,0,1,0,-1,0,-2,-25,-5
1537920485836405,-8,-6,-4,-3,-2,10,26,-5
1537920485836405,2,3,5,-3,-11,-52,-4,3
1537920485873306,-2,-5,-3,-1,7,40,-25,23
1537920485873306,1,1,5,2,2,3,37,-4
1537920485874303,1,-1,-6,-3,-3,-5,1,-2
1537920485874303,-6,1,-1,-2,-5,-33,-16,-13
1537920485875301,9,-1,-1,-1,-2,-3,13,-8
1537920485875301,-1,-2,-3,0,2,16,-10,-4
1537920485878293,0,0,1,1,2,7,1,12
1537920485878293,2,-1,1,1,1,-3,-7,-3
1537920485886271,-3,-1,-1,0,-1,-11,5,-4
1537920485886271,-1,-2,-2,-2,-1,6,-34,7
1537920485895247,-2,0,-2,0,6,30,69,-13
1537920485895247,-1,1,-2,-1,-15,12,-11,6
1537920485901232,-4,0,2,1,-1,-4,5,-8
1537920485901232,4,-1,-2,-2,-8,-82,-31,1
1537920485917189,-5,-4,0,2,12,90,5,2
1537920485917189,2,-2,-2,-1,0,-7,31,5
1537920485923173,-3,-1,0,-4,-8,-20,6,-6
1537920485923173,-5,-1,0,1,2,22,-5,-2
1537920485946111,-1,-1,-1,0,-1,-24,-34,-5
1537920485946111,1,-2,-1,-3,-2,3,10,0
1537920485947109,2,1,-1,2,4,9,21,7
1537920485947109,-1,0,-1,-4,-6,-28,-40,-6
1537920485969050,2,0,0,1,0,4,-45,-6
1537920485969050,-2,-1,-1,-1,3,11,15,2
1537920485970047,-5,0,-1,-2,-2,-12,-11,-5
1537920485970047,0,-6,-3,-1,1,2,24,4
1537920485984010,1,1,2,0,-5,-22,-11,5
1537920485984010,0,-3,-7,2,5,0,-17,-1
1537920485985007,-1,1,3,-3,-14,-5,-1,0
1537920485985007,-1,-1,0,0,3,33,20,-5
1537920486006948,-1,0,0,-2,-8,-34,-17,-3
1537920486006948,-2,-2,-1,0,-2,-23,-3,-2
1537920486006948,2,1,0,3,12,29,19,7
1537920486006948,0,0,0,-1,3,29,-15,-3
1537920486021909,-2,0,-2,0,5,-14,6,6
1537920486021909,1,0,0,-5,-8,18,20,3
1537920486021909,-4,-2,-4,-7,-38,-20,-46,-22
1537920486021909,1,2,2,2,6,1,16,3
1537920486043851,1,0,2,2,9,-9,14,14
1537920486043851,0,0,2,2,-6,-17,-41,-9
1537920486044847,-1,-3,-3,-5,-13,-19,-18,10
1537920486044847,2,-2,-5,-5,6,25,99,18
1537920486066789,-10,-5,0,-1,-19,-14,-33,-21
1537920486066789,12,4,2,3,18,17,16,36
1537920486066789,5,2,1,8,21,21,24,-6
1537920486066789,-3,-1,-1,-4,-11,-16,-17,-18
1537920486081749,0,-1,-2,-1,4,-4,-2,9
1537920486081749,-6,-5,0,-2,1,6,-10,1
1537920486082746,-16,0,-2,1,4,3,11,-22
1537920486082746,3,0,1,-2,0,-11,-39,12
1537920486103690,-4,2,4,-1,1,-10,-11,-25
1537920486103690,-1,-4,-1,2,-5,16,22,6
1537920486104688,26,16,8,1,7,-1,5,15
1537920486104688,-33,-17,-17,-2,0,-5,-62,-37
1537920486126629,-19,5,7,-4,-5,9,33,-83
1537920486126629,12,-1,-6,-7,-9,-11,-17,18
1537920486127626,6,-9,-6,-2,1,-23,-31,2
1537920486127626,9,6,11,2,-3,-13,-7,23
1537920486148570,-7,1,-2,0,-3,17,24,-5
1537920486148570,8,1,-4,-4,0,-5,-21,-17
1537920486149567,-7,-5,0,-1,2,5,-25,2
1537920486149567,7,-1,-2,4,-2,8,42,22
1537920486164527,10,-5,-5,-6,-9,-28,-3,25
1537920486164527,-30,3,15,5,6,27,10,-46
1537920486164527,7,-8,-23,-2,-1,-2,6,27
1537920486164527,-2,4,34,9,6,21,0,-13
1537920486186469,9,-11,-41,-11,-14,-46,-2,18
1537920486186469,-10,-3,6,4,18,33,22,-6
1537920486187466,-8,-3,-4,-6,-8,9,-7,-18
1537920486187466,10,10,3,5,4,1,-4,-9
1537920486201429,3,5,13,5,8,3,10,7
1537920486201429,-5,-3,8,2,0,-4,-11,-7
1537920486202426,-4,1,-3,2,9,-7,9,2
1537920486202426,22,-12,-21,-23,-45,-32,-47,28
1537920486224367,-1,6,10,6,5,16,23,-16
1537920486224367,6,-2,-15,-9,-6,-9,-22,-14
1537920486224367,0,7,17,9,21,2,-28,-1
1537920486224367,-2,2,-1,4,15,0,60,-15
1537920486246309,3,-3,-4,1,-11,-11,-33,13
1537920486246309,-3,-1,-2,-1,11,3,-5,12
1537920486247306,-18,-6,-2,-11,-26,-15,18,-19
1537920486247306,-5,1,-5,3,8,-13,7,-14
1537920486261269,-12,-3,4,2,4,39,8,7
1537920486261269,4,4,1,3,-12,27,-14,-23
1537920486268250,-20,-4,0,0,-3,-5,7,8
1537920486268250,1,-5,-6,-2,8,-6,-7,4
1537920486284207,-12,0,7,6,11,21,4,6
1537920486284207,-1,-8,-5,-3,-6,-23,8,1
1537920486285205,4,2,0,0,6,-1,7,-4
1537920486285205,-10,-31,-1,-8,-10,8,-19,-2
1537920486306149,3,17,2,-3,-10,-24,15,18
1537920486306149,-22,5,-9,-3,4,-3,-6,-18
1537920486307147,29,-4,1,8,6,29,54,-10
1537920486307147,-6,-11,-20,-7,4,-9,-10,-9
1537920486321109,7,-7,-7,0,-2,-21,-26,9
1537920486321109,-16,-13,-4,-3,-6,17,71,21
1537920486328090,7,9,9,-3,3,-7,-17,27
1537920486328090,-2,15,5,4,5,16,12,7
1537920486344048,-2,-7,-7,-2,-1,-6,-14,-11
1537920486344048,-20,-1,-6,-8,-13,-38,-16,-63
1537920486345045,-1,-15,-6,6,14,-8,49,41
1537920486345045,-13,19,1,-6,0,47,57,-36
1537920486366986,38,9,9,-3,-36,1,-58,-25
1537920486366986,26,7,13,9,9,-27,-61,1
1537920486366986,-6,-6,-3,-1,-3,28,71,7
1537920486366986,-26,-7,-6,4,10,-21,-38,-9
1537920486380949,17,17,4,-7,1,1,1,22
1537920486380949,5,-20,-11,-12,-6,-16,23,4
1537920486387930,8,-2,-22,-4,-13,-18,-34,11
1537920486387930,-8,-3,7,2,1,0,-82,34
1537920486403887,-53,-30,-7,-3,2,10,23,-22
1537920486403887,-1,9,3,4,8,16,21,-1
1537920486404885,-1,0,0,-8,-14,-39,-43,0
1537920486404885,5,-18,-5,-4,-12,11,29,5
1537920486426826,21,20,7,4,10,-90,-51,25
1537920486426826,5,-10,-10,-2,8,101,-26,20
1537920486426826,-6,13,21,0,-6,-49,-69,-21
1537920486426826,17,20,4,4,-7,48,33,-6
1537920486440789,-25,-21,9,2,9,1,-17,-14
1537920486440789,9,-1,-5,-1,13,-10,52,32
1537920486448767,-26,-1,-16,-12,-29,-78,-102,-73
1537920486448767,15,10,32,9,19,79,53,18
1537920486463728,-2,-23,-47,-12,1,24,42,-39
1537920486463728,-7,1,-1,7,7,-22,-8,-12
1537920486464726,9,0,3,-2,2,12,-67,27
1537920486464726,13,16,5,-1,-9,-96,-20,-19
1537920486486666,25,13,11,4,14,97,93,42
1537920486486666,-1,-4,-5,-3,-4,-11,-72,-9
1537920486487664,-6,-3,2,0,-7,-23,101,-16
1537920486487664,-8,-10,-7,-2,6,1,-98,-18
1537920486500629,-1,0,7,9,9,-4,5,16
1537920486500629,13,-3,-4,-12,-34,-64,-17,11
1537920486508608,22,0,9,0,11,24,13,-21
1537920486508608,-6,6,-17,-4,-6,14,-64,-3
1537920486525563,-3,-11,-9,-1,13,16,76,52
1537920486525563,-8,-9,8,8,0,-20,4,-27
1537920486526560,-13,38,2,-2,-9,22,-11,-38
1537920486526560,0,-4,6,4,2,-31,10,7
1537920486546507,4,10,6,3,-1,19,20,27
1537920486546507,28,-8,-6,-3,-8,-19,-49,50
1537920486547504,-20,-3,13,5,19,35,10,-2
1537920486547504,-12,-26,-29,-1,-7,-28,30,42
1537920486560469,20,7,0,-14,-17,-48,-70,24
1537920486560469,-15,1,7,3,3,1,69,-15
1537920486568448,25,-5,-7,-4,-8,51,14,-1
1537920486568448,-12,0,0,1,14,5,-12,-12
1537920486584405,-18,-5,3,-5,-29,-70,-73,-42
1537920486584405,10,3,-2,-1,-4,24,-23,94
1537920486584405,26,8,16,1,6,6,45,-29
1537920486584405,-3,7,-10,1,-2,-22,20,-37
1537920486606346,-12,-4,1,5,18,81,-19,-27
1537920486606346,-19,3,-1,-3,4,-43,-67,-34
1537920486607344,-16,-15,-7,0,0,-11,-16,51
1537920486607344,21,1,10,2,-2,18,122,24
1537920486629285,1,2,14,4,-4,-12,-42,-11
1537920486629285,42,33,-16,-5,7,17,5,-5
1537920486630283,-11,0,-9,-1,5,-14,-2,-40
1537920486630283,-31,-22,1,-3,-2,9,26,-22
1537920486644245,21,15,5,-4,-23,-6,-49,-3
1537920486644245,-6,-5,11,2,3,-2,28,-7
1537920486645242,-5,-19,-13,-5,-10,-3,-18,15
1537920486645242,4,9,4,1,7,15,19,40
1537920486666186,-11,-1,-2,1,-1,-52,-77,-17
1537920486666186,12,-3,-4,-7,0,58,22,60
1537920486667184,-10,1,1,7,12,-35,82,-1
1537920486667184,28,3,-4,-8,-23,-27,7,21
1537920486690122,-8,-2,-4,-5,-2,20,23,-15
1537920486690122,-9,7,14,4,-1,-12,40,-13
1537920486690122,-21,-9,-11,5,12,26,-26,-1
1537920486690122,-13,10,-2,-2,-2,35,-10,-17
1537920486704085,-19,-22,-10,-1,0,-32,26,-60
1537920486704085,-5,29,13,11,19,13,-11,8
1537920486705083,17,13,17,-6,-25,-23,6,43
1537920486705083,-14,-19,-13,5,6,28,-27,-36
1537920486727024,-5,9,-5,-4,4,-1,-2,-3
1537920486727024,2,-15,2,-4,-13,-36,11,-15
1537920486727024,-20,-17,-12,1,17,38,-108,3
1537920486727024,23,20,13,0,4,-13,6,-14
1537920486749962,12,2,5,-5,-8,-9,47,34
1537920486749962,6,8,-11,3,-1,23,-24,-21
1537920486750960,15,-7,2,6,5,-58,2,12
1537920486750960,-2,-11,-4,-10,0,12,-54,46
1537920486763925,0,-6,-3,-3,-7,41,45,25
1537920486763925,-13,8,7,-2,-5,-15,19,13
1537920486764923,3,3,-3,-2,1,27,-22,25
1537920486764923,3,2,0,9,12,-11,-34,-66
1537920486786864,-17,-13,-8,2,7,21,28,1
1537920486786864,12,1,-1,-6,-2,-58,-6,27
1537920486786864,-23,-2,-1,0,1,38,-7,-56
1537920486786864,8,-2,5,-5,-12,-32,-9,5
1537920486809802,-1,-7,-2,-2,5,3,-32,-1
1537920486809802,10,3,-2,3,-6,13,-40,-31
1537920486810800,-21,-2,0,6,16,20,1,-47
1537920486810800,3,-9,6,-6,-26,-3,47,33
1537920486823765,24,-7,-4,-6,-1,-26,-16,3
1537920486823765,-9,-19,-26,-9,-13,-17,36,19
1537920486824763,9,2,-3,-6,0,22,13,35
1537920486824763,-12,-5,-1,-1,-7,-20,-42,-35
1537920486854683,12,7,10,3,0,24,21,21
1537920486854683,-25,-3,13,3,7,4,-6,-35
1537920486856677,18,5,-1,2,-6,-37,40,22
1537920486856677,-11,-1,-11,-9,-2,29,-3,-27
1537920486869643,-11,-4,-4,1,6,-10,-27,-4
1537920486869643,-10,-9,-2,2,7,40,23,-44
1537920486870640,-9,5,0,-5,-14,-40,-19,-33
1537920486870640,10,9,-5,1,-7,-36,-12,0
1537920486892581,-12,-5,-1,2,10,16,12,-22
1537920486892581,2,-13,-1,0,4,22,-5,-35
1537920486892581,-10,2,-4,-2,-2,2,0,-15
1537920486892581,30,15,2,0,-4,3,-17,4
1537920486905547,-22,10,4,5,10,-10,26,5
1537920486905547,10,-20,1,6,7,1,21,20
1537920486914523,8,-6,-2,-10,-24,2,-37,-25
1537920486914523,7,5,3,-2,1,46,40,9
1537920486929483,-16,-13,-7,-5,-6,-51,-2,-70
1537920486929483,-15,6,13,6,3,19,37,17
1537920486930481,21,0,-2,-2,-1,-4,48,16
1537920486930481,-29,0,13,9,13,-14,-5,-5
1537920486951424,19,2,-6,2,2,21,-55,13
1537920486951424,-13,-1,-7,-8,-10,-16,-7,23
1537920486959402,9,25,5,3,5,33,-6,17
1537920486959402,-28,-30,-8,-2,4,-93,3,-27
1537920486974363,1,-16,-4,-2,9,109,27,13
1537920486974363,-27,18,15,-1,-11,-24,-63,-89
1537920486975360,41,2,-19,-5,-4,-56,5,60
1537920486975360,9,14,8,4,8,44,12,15
1537920486989322,8,9,6,-3,-3,-48,-14,44
1537920486989322,15,-21,-16,-10,-12,29,100,-1
1537920486996304,-9,-28,0,-3,-6,-11,-47,-14
1537920486996304,-10,15,2,6,13,9,8,-28
1537920487012261,1,7,2,-1,5,40,41,-1
1537920487012261,6,-13,-4,-5,-8,-43,-55,16
1537920487013259,-1,-2,1,3,7,31,-32,36
1537920487013259,17,-5,-6,-7,-9,-34,-4,52
1537920487035200,-6,3,3,5,5,2,-23,-25
1537920487035200,2,7,-6,-3,0,-22,9,35
1537920487036198,8,4,-6,-1,-5,13,35,-29
1537920487036198,-11,-11,6,1,6,34,-27,-15
1537920487050160,-8,-7,2,-5,-12,-2,61,27
1537920487050160,20,26,1,3,7,22,-13,-19
1537920487056144,-13,-10,-7,5,2,-32,6,22
1537920487056144,20,2,-9,-4,-1,-11,42,14
1537920487072101,-11,3,7,-3,-16,-12,-62,-60
1537920487072101,-11,-7,3,-4,-5,6,6,5
1537920487078086,8,12,7,-2,-4,-29,17,-30
1537920487078086,-1,11,1,6,21,73,-22,-2
1537920487095040,4,4,-2,0,-11,-43,-4,-17
1537920487095040,-14,-11,3,5,8,2,-13,-26
1537920487096037,-13,0,7,-2,-1,-23,28,5
1537920487096037,11,-10,-12,-8,-5,39,-11,-18
1537920487109003,7,24,-4,-5,4,-8,1,-1
1537920487109003,-7,2,0,0,-3,16,13,52
1537920487115985,-5,-5,16,12,12,-7,-11,-55
1537920487115985,-3,-10,-24,-13,-13,-16,-12,44
1537920487131942,18,-2,17,4,-3,-14,-5,6
1537920487131942,2,-4,-5,-6,-8,-3,-25,3
1537920487133936,-9,-2,1,7,9,38,-10,1
1537920487133936,-16,-3,2,-4,-6,-68,-41,-19
1537920487154880,-3,2,-1,-3,-14,-23,27,12
1537920487154880,6,21,0,4,11,6,-15,-1
1537920487155878,16,-12,10,-8,-7,18,-8,19
1537920487155878,-28,-4,-7,-2,1,8,-6,-26
1537920487167846,29,-11,-11,-2,7,0,-23,-32
1537920487167846,3,-1,1,1,-7,-9,-1,15
1537920487176822,-5,-4,0,4,7,-19,-43,-12
1537920487176822,12,4,5,4,0,26,92,16
1537920487191781,-35,-1,6,5,7,3,20,-33
1537920487191781,-1,4,3,1,3,5,-10,-12
1537920487193776,17,26,-17,-8,-7,-7,-25,19
1537920487193776,-23,-47,1,-3,-9,-28,-35,6
1537920487214720,4,-5,-4,4,4,20,17,22
1537920487214720,-7,-9,-5,-4,4,4,-57,-14
1537920487215718,-9,-3,-9,-2,-1,16,70,4
1537920487215718,2,18,13,5,9,-17,4,-11
1537920487228683,3,-1,-12,-2,-7,26,5,85
1537920487228683,-6,-7,-3,1,4,-45,-20,-15
1537920487237659,-1,-6,-5,-7,-4,48,20,2
1537920487237659,4,7,5,1,-4,-16,10,-2
1537920487252619,-11,-6,0,-4,-5,-23,-4,-4
1537920487252619,14,5,0,4,2,-1,29,-18
1537920487253616,-1,2,5,0,1,67,43,27
1537920487253616,-14,-24,-4,-1,-4,-33,34,17
1537920487274560,3,26,-1,-1,3,2,-3,-24
1537920487274560,-4,2,9,1,-5,-17,3,8
1537920487276555,-4,-7,-14,0,5,-9,-10,-24
1537920487276555,16,-5,-11,-9,-12,3,1,77
1537920487289520,-22,-11,1,3,6,11,9,-7
1537920487289520,-10,-7,0,2,-7,-17,5,-3
1537920487295504,-5,-7,16,5,2,10,-9,-22
1537920487295504,0,-1,-10,0,-1,-31,18,-21
1537920487312459,16,10,3,7,29,65,-46,3
1537920487312459,-19,-8,0,-3,-11,7,52,5
1537920487313456,4,-11,-2,-8,-10,-27,-27,27
1537920487313456,11,50,7,1,5,-7,44,-36
1537920487334400,6,-24,1,-8,-23,-43,-28,7
1537920487334400,-18,-1,0,6,12,5,-6,-29
1537920487336395,-30,-7,-3,-1,-2,-4,6,-73
1537920487336395,18,6,1,-7,5,42,-59,4
1537920487348363,15,6,-3,1,5,-10,9,2
1537920487348363,-3,-5,-5,-5,-4,0,11,-5
1537920487357339,-9,-3,8,-3,-6,-18,-9,2
1537920487357339,-8,-15,-4,6,-1,58,-3,-16
1537920487372299,-6,17,10,-2,-6,-19,4,2
1537920487372299,8,-19,-3,-1,-6,-10,66,43
1537920487373296,-5,-2,-3,-3,2,3,1,12
1537920487373296,4,10,9,4,-1,-10,-63,-83
1537920487394240,-1,-18,-6,0,-8,-28,47,54
1537920487394240,45,1,-13,-14,-7,20,-56,39
1537920487396235,5,18,15,5,-2,-13,1,6
1537920487396235,-16,-12,-18,-3,-9,-20,24,-4
1537920487409200,-23,-8,-2,-1,2,12,-37,-45
1537920487409200,3,25,10,5,2,11,8,-14
1537920487416181,-8,-23,-8,-8,-13,-15,-25,4
1537920487416181,1,4,5,1,-3,-21,-27,8
1537920487432139,1,3,0,3,5,-12,46,-10
1537920487432139,-6,-8,-5,-4,-2,6,-92,18
1537920487434133,0,-1,-5,4,9,17,73,-11
1537920487434133,8,30,8,2,-4,-29,-12,7
1537920487455077,-3,-8,-6,-3,0,22,-11,-45
1537920487455077,-17,-19,-7,-6,-10,2,-6,-19
1537920487456075,-16,-9,-5,3,3,-13,-50,-4
1537920487456075,45,2,-8,-8,0,-24,12,34
1537920487469040,-8,11,-4,-2,-4,15,-63,-29
1537920487469040,-1,-5,6,3,4,4,15,-32
1537920487476021,-7,2,4,1,4,-7,-8,2
1537920487476021,-6,-6,-6,-1,-8,8,15,10
1537920487491979,8,-2,-5,-4,-7,-2,-56,11
1537920487491979,-13,-4,-1,5,6,-2,-47,-89
1537920487493974,24,18,0,-1,2,-36,69,27
1537920487493974,-30,-4,16,0,1,55,-12,-12
1537920487514918,12,2,-3,1,4,6,43,9
1537920487514918,21,6,23,4,-3,-22,-29,34
1537920487515915,9,-9,-25,1,14,18,-12,6
1537920487515915,-12,-5,-5,-7,-15,-64,7,2
1537920487528880,-13,-8,-1,-4,-9,1,-42,25
1537920487528880,3,4,-4,-2,3,5,45,6
1537920487535862,6,15,14,2,1,18,-38,-13
1537920487535862,13,-17,-3,5,1,16,53,37
1537920487551819,-13,8,-3,-6,-9,-77,-15,-6
1537920487551819,11,5,-9,1,6,77,-13,53
1537920487553814,-3,1,4,-6,-4,-46,-25,20
1537920487553814,-27,-13,-8,-2,2,42,-21,-57
1537920487574758,27,-2,6,-1,5,-1,64,29
1537920487574758,-16,2,-2,0,-1,-11,11,-10
1537920487575755,-13,2,-13,-6,-5,-8,27,1
1537920487575755,-6,3,4,2,7,19,-34,-1
1537920487588720,19,14,6,3,-3,4,13,-6
1537920487588720,-27,-27,8,7,11,-26,99,-28
1537920487595702,6,2,-10,-4,-2,53,19,-30
1537920487595702,18,-2,2,-7,-11,-59,-11,-14
1537920487612656,3,7,4,4,7,39,-14,25
1537920487612656,0,11,-15,-4,-3,-20,22,2
1537920487613654,-16,-49,4,2,-7,19,-18,-16
1537920487613654,-17,-1,-1,0,5,-5,12,-22
1537920487634597,-3,-18,-4,-4,1,-17,-41,-21
1537920487634597,-3,26,1,-1,6,31,45,-7
1537920487636592,6,2,-4,-1,-3,1,4,-16
1537920487636592,8,4,-2,0,-3,-23,26,35
1537920487648560,-17,-21,-6,1,1,33,-30,-20
1537920487648560,-12,-9,-3,-9,-17,-22,-51,-29
1537920487657536,-5,14,3,1,1,-22,-8,-8
1537920487657536,20,7,9,5,12,39,4,-13
1537920487672496,-6,-2,-6,-6,1,-36,4,16
1537920487672496,13,-4,-8,-4,-10,25,-11,-17
1537920487673494,11,10,8,-1,-3,-1,-41,11
1537920487673494,-8,-10,3,1,-6,-25,-45,14
1537920487694437,6,-6,-23,-15,-5,11,26,-3
1537920487694437,10,6,-3,1,4,12,-21,6
1537920487696432,-10,-7,2,0,-1,-20,14,-16
1537920487696432,11,34,3,3,0,26,-9,31
1537920487708401,-13,-18,8,6,10,-7,11,-59
1537920487708401,0,-5,0,-8,-26,-42,-93,24
1537920487717376,-12,10,-4,1,5,34,60,-6
1537920487717376,2,-2,7,6,12,12,-10,-2
1537920487732337,-8,8,3,1,-4,-13,13,-1
1537920487732337,6,-1,-5,-7,-16,2,10,9
1537920487733334,-15,-8,-1,-6,-21,-43,-54,-22
1537920487733334,0,-12,-9,-4,6,38,80,5
1537920487755275,10,5,5,1,8,-4,-17,15
1537920487755275,-2,-11,2,1,2,21,48,4
1537920487756273,6,2,-11,-4,-6,-7,3,26
1537920487756273,-17,-8,14,1,-5,-53,-3,-25
1537920487768240,9,2,1,4,6,86,13,-9
1537920487768240,9,-14,-7,-2,3,-45,-18,63
1537920487777217,3,11,-1,2,1,15,-4,7
1537920487777217,-15,-9,-4,-5,-4,-19,7,-19
1537920487792176,2,0,13,7,-1,-11,14,11
1537920487792176,-13,-11,-21,-9,2,-1,-4,-19
1537920487794171,-20,-5,5,4,7,36,28,-4
1537920487794171,15,8,-2,-6,-8,-59,-15,-18
1537920487815115,-10,-4,10,3,1,11,-25,3
1537920487815115,-7,14,-2,7,9,19,-39,-29
1537920487816113,1,-2,2,2,6,9,56,19
1537920487816113,1,6,-3,-2,-1,-3,-12,-28
1537920487828080,1,-9,-4,-5,-5,-19,1,13
1537920487828080,10,11,16,11,15,-8,14,-4
1537920487837057,10,3,-10,-7,-18,-24,-47,10
1537920487837057,-12,-14,0,-10,-17,13,-41,-1
1537920487852017,12,8,-19,-7,-2,12,1,-19
1537920487852017,-13,-2,4,4,11,-25,-3,17
1537920487854011,16,-9,11,1,5,29,-7,21
1537920487854011,-22,19,-6,2,1,12,-14,11
1537920487874955,34,-4,-6,-6,-8,-27,-31,-16
1537920487874955,-20,21,-1,-2,-4,2,74,-23
1537920487875952,22,-4,-1,-1,2,-11,-50,-3
1537920487875952,2,-2,6,7,4,1,27,4
1537920487887921,-6,2,7,2,5,3,74,18
1537920487887921,4,-19,-8,-10,-14,19,-82,-34
1537920487896897,13,5,3,-1,-8,-4,-31,-20
1537920487896897,4,-2,-6,-8,-5,1,-5,15
1537920487911856,-10,-4,1,2,-2,-29,11,11
1537920487911856,-2,-1,-6,1,-5,-26,-2,-6
1537920487913851,1,-5,-2,-7,11,46,51,7
1537920487913851,19,-15,-4,0,3,1,-21,78
1537920487934795,-8,15,-3,-5,-9,3,29,13
1537920487934795,15,1,6,4,4,-64,-38,21
1537920487935793,-4,-1,-3,-4,-3,41,30,-27
1537920487935793,-7,-10,-9,4,4,4,-60,-60
1537920487948758,-12,0,8,-1,-13,-36,0,4
1537920487948758,0,3,-1,-3,3,8,30,25
1537920487957734,-15,-2,-4,0,4,-8,-66,-62
1537920487957734,4,5,4,2,6,21,34,56
1537920487971697,-3,-11,-5,-1,-11,-20,-28,-16
1537920487971697,8,-2,4,0,2,-6,12,-6
1537920487973691,0,-2,-7,-5,-1,-9,-9,22
1537920487973691,-11,-2,-4,1,2,-3,60,-4
1537920487994635,13,0,-5,-4,-5,-27,-34,-4
1537920487994635,5,5,1,-2,-5,43,20,3
1537920487996630,1,0,19,1,-6,-33,20,45
1537920487996630,9,6,-4,5,14,50,-38,-28
1537920488008598,-11,-1,-10,0,13,20,11,12
1537920488008598,-6,-4,2,-8,-31,-26,-12,-7
1537920488017574,-2,0,10,5,0,-22,30,6
1537920488017574,-13,-4,-9,-8,-10,-30,-29,-31
1537920488032534,2,-10,2,4,10,28,-31,-10
1537920488032534,-12,-14,-3,1,13,31,33,-11
1537920488033532,-10,5,0,-1,-10,-30,-11,12
1537920488033532,11,-6,10,5,5,-8,3,-16
1537920488054476,-7,9,-16,-10,-2,21,13,29
1537920488054476,11,-7,8,2,5,28,24,7
1537920488056470,-6,0,-13,-3,-11,-87,3,-4
1537920488056470,-1,4,29,3,-1,65,-31,-15
1537920488077414,-2,-18,0,0,13,60,-11,-2
1537920488077414,-20,-20,-13,-12,-13,-41,9,14
1537920488078411,15,29,0,6,12,2,-12,-33
1537920488078411,6,-5,-13,-7,-8,-5,10,-9
1537920488092374,-12,1,10,4,-7,-7,28,14
1537920488092374,-1,-6,1,7,18,51,-28,22
1537920488093371,18,-13,-6,-7,-13,-31,21,-5
1537920488093371,-5,0,-5,-4,-2,-41,4,1
1537920488114315,1,0,-1,-4,-9,-33,-8,2
1537920488114315,2,13,3,-1,-3,-7,40,-23
1537920488116310,-13,-4,-6,1,7,25,-47,-7
1537920488116310,6,1,-12,1,8,3,44,10
1537920488137254,-11,-2,2,-1,-6,-3,-12,-40
1537920488137254,5,10,0,-3,-14,4,-24,-71
1537920488138251,-9,-9,4,2,2,-56,-3,10
1537920488138251,9,-12,-1,4,16,88,62,19
1537920488152214,-13,8,-5,-3,-1,-56,-32,-50
1537920488152214,25,11,4,1,-9,-11,14,31
1537920488153212,-14,-9,-6,-7,-15,-30,3,-8
1537920488153212,-7,6,12,3,8,48,-26,32
1537920488175153,13,1,6,5,9,-4,29,9
1537920488175153,3,0,-2,-2,-1,-28,-56,22
1537920488176150,-18,-17,-7,1,9,34,20,-41
1537920488176150,-9,22,-7,-6,-14,-64,25,11
1537920488197094,-10,3,6,2,2,67,33,-63
1537920488197094,-3,7,4,3,3,-23,-32,1
1537920488199089,4,-2,-5,0,-1,47,25,4
1537920488199089,-21,-3,-9,-1,-6,-34,-48,-22
1537920488211057,1,-13,0,-3,-9,-40,-15,3
1537920488211057,-11,1,6,2,6,0,14,-14
1537920488218038,15,4,-13,-3,7,84,8,34
1537920488218038,-1,2,-1,-3,-5,-30,-28,-14
1537920488234992,26,11,0,0,-6,-43,49,37
1537920488234992,-8,3,-6,-6,-3,10,31,69
1537920488235990,27,-11,4,4,5,-5,6,-5
1537920488235990,-7,-8,-2,-1,-1,-19,-32,-18
1537920488256934,-5,-1,-6,-2,-7,11,-13,31
1537920488256934,-2,-4,2,-3,3,14,-5,-23
1537920488258929,-6,3,-1,-3,2,-9,-6,11
1537920488258929,2,0,-2,-1,-2,8,12,9
1537920488271894,0,-3,6,1,3,-20,-1,-12
1537920488271894,3,-2,-2,1,7,4,4,-8
1537920488277878,-16,4,0,-3,-13,3,-72,-9
1537920488277878,10,-13,-2,-4,-21,-24,28,-11
1537920488294833,9,9,-2,2,6,-8,-25,86
1537920488294833,0,-4,2,2,12,7,15,-4
1537920488295830,-12,-3,1,-2,-9,-30,-9,9
1537920488295830,8,0,-6,-2,6,41,24,3
1537920488316774,-6,-14,0,-1,-2,-32,6,1
1537920488316774,-10,-5,-6,2,6,4,-20,-18
1537920488318769,12,5,10,2,1,49,21,23
1537920488318769,-11,0,7,-2,-7,-44,7,-2
1537920488331734,-4,-3,-31,-4,-1,26,-7,-35
1537920488331734,0,-6,12,1,-5,-44,-25,-7
1537920488338716,-10,0,-19,-14,-1,21,7,-2
1537920488338716,11,-7,6,-4,-3,25,-7,16
1537920488354673,-5,8,1,0,-2,-1,-13,-7
1537920488354673,-6,8,3,4,-3,-1,-14,-37
1537920488355670,4,3,4,8,14,-12,31,5
1537920488355670,-3,-9,-8,-5,-7,4,-65,-8
1537920488377611,4,12,7,-5,-9,5,5,1
1537920488377611,3,2,-4,2,9,1,29,1
1537920488378609,-14,-2,5,0,-9,14,-9,-16
1537920488378609,-6,-2,-4,3,7,-74,-13,3
1537920488391574,-17,-11,5,6,14,56,16,-36
1537920488391574,13,2,-7,-3,2,-1,-27,-5
1537920488398556,-2,-13,1,-1,-3,-24,-12,8
1537920488398556,-3,16,3,6,3,-4,9,-12
1537920488414513,-8,-9,-14,-5,-5,-8,-35,-4
1537920488414513,20,12,2,3,8,17,31,2
1537920488416508,-11,5,4,3,0,-28,18,56
1537920488416508,-2,-19,10,1,3,54,-17,-23
1537920488437451,6,0,-14,-5,1,-25,-24,8
1537920488437451,-11,-4,-7,-5,-11,7,3,11
1537920488438449,30,6,3,3,-2,-23,-33,-14
1537920488438449,-17,2,1,2,-2,19,78,1
1537920488451414,-16,-5,4,3,7,22,2,-4
1537920488451414,9,-7,-3,-1,1,21,-5,8
1537920488458395,-12,10,3,-2,-9,-6,19,-27
1537920488458395,7,-2,-10,-10,-1,-33,-63,3
1537920488474353,-3,-9,6,5,0,9,96,58
1537920488474353,-23,-1,1,-1,-7,1,1,-36
1537920488476348,18,-2,-6,-3,5,-9,9,32
1537920488476348,11,0,-8,-4,-7,-23,-5,-9
1537920488497292,-7,6,11,0,2,77,-10,-18
1537920488497292,0,0,-1,0,-2,-41,-26,-4
1537920488498289,1,-4,4,1,-2,-11,27,14
1537920488498289,-10,-14,-6,3,7,28,-19,-6
1537920488511254,-9,-33,-4,-9,-11,-28,-5,-10
1537920488511254,4,26,15,11,-2,12,12,17
1537920488518235,-9,-4,-21,-16,-2,18,-8,-19
1537920488518235,2,14,5,-2,-8,-37,6,14
1537920488534194,-17,2,4,-1,1,11,-54,-79
1537920488534194,11,-18,-4,-1,-1,-3,27,37
1537920488536188,0,0,3,7,17,17,-34,-16
1537920488536188,4,2,-4,-4,-6,9,16,2
1537920488557132,-4,3,-5,-4,-10,-59,-23,-18
1537920488557132,5,-8,-4,-7,-4,17,6,-1
1537920488559126,-8,8,6,8,8,39,7,-24
1537920488559126,20,0,-3,-5,-9,-15,-28,21
1537920488571094,20,10,2,-2,-10,-40,15,9
1537920488571094,-11,-9,-6,-1,2,28,-30,-16
1537920488580070,1,-9,-2,0,4,-4,78,28
1537920488580070,-18,1,12,10,10,28,11,-19
1537920488595030,34,22,11,0,-5,-14,2,27
1537920488595030,-19,-33,-34,-6,-6,-48,-45,16
1537920488596028,-23,-33,-1,0,-5,20,7,-36
1537920488596028,-21,4,-13,-7,-5,9,-12,-26
1537920488616971,22,25,16,4,4,-11,-45,3
1537920488616971,8,12,5,-1,-6,-14,38,-6
1537920488622956,1,-1,-1,3,13,51,-51,-7
1537920488622956,-2,-4,-4,1,-4,-30,30,10
1537920488630934,-4,-8,-10,-2,0,16,-20,0
1537920488630934,-2,11,6,-3,-1,-16,-15,-7
1537920488639910,19,2,0,-2,-10,-12,-30,20
1537920488639910,4,-1,2,-2,-2,-26,36,16
1537920488654870,-8,-6,-6,0,1,41,61,-2
1537920488654870,-18,-4,11,7,8,-11,-42,-9
1537920488655867,-11,7,-5,-5,-17,-36,33,2
1537920488655867,9,-2,2,2,7,32,-6,4
1537920488676812,-15,-12,0,-2,-8,-23,-16,2
1537920488676812,10,5,-7,-9,-15,0,-34,-15
1537920488678806,-4,6,6,5,16,13,-4,-8
1537920488678806,4,-9,1,-3,-11,3,11,9
1537920488690774,-11,-13,-11,-3,3,6,65,-4
1537920488690774,0,-13,-1,-4,-3,-11,-4,1
1537920488699750,-7,12,-1,-2,-6,-13,-66,-8
1537920488699750,9,0,7,2,3,15,29,-8
1537920488714710,-17,6,-3,1,3,-11,-28,-65
1537920488714710,-9,8,5,8,13,31,23,-24
1537920488715708,6,-8,1,-3,-6,-24,-28,8
1537920488715708,-6,13,2,-1,-2,-17,38,1
1537920488737649,17,-20,-1,-1,1,29,-35,19
1537920488737649,11,-1,-7,-10,-11,-40,66,51
1537920488738646,1,15,13,13,16,41,-59,-15
1537920488738646,-15,-4,-1,-1,0,-13,-14,2
1537920488750615,-1,4,-2,0,-1,-8,12,11
1537920488750615,9,1,-5,-3,7,5,-23,-33
1537920488759591,-3,-11,-7,-8,-16,-25,15,11
1537920488759591,4,-6,-6,-3,-5,1,0,37
1537920488774551,-4,-1,1,6,7,0,-26,-11
1537920488774551,0,7,8,0,-4,12,-1,25
1537920488776545,-10,2,-7,-8,5,-17,-30,-29
1537920488776545,12,1,-4,0,-8,-5,15,-4
1537920488797489,-24,-6,3,-4,-10,-12,11,34
1537920488797489,20,5,-1,5,15,49,15,-36
1537920488798487,-3,4,2,2,0,-13,15,-15
1537920488798487,7,1,-2,-5,-2,-17,-66,-27
1537920488810454,0,-4,0,3,8,-25,76,3
1537920488810454,3,-7,-5,-1,-15,7,14,5
1537920488819430,-3,4,-1,-2,-4,-10,45,-23
1537920488819430,-9,-4,5,5,9,29,-1,17
1537920488834390,9,2,-6,-4,-3,-29,47,-26
1537920488834390,-2,5,-1,-2,2,14,-28,10
1537920488836386,1,-22,-1,-1,-3,-1,3,-11
1537920488836386,2,20,0,-4,-7,-34,7,-16
1537920488857329,12,7,2,1,6,54,-54,9
1537920488857329,-18,-16,-3,1,-1,-3,22,-1
1537920488858326,17,18,-18,-5,-6,-26,-16,40
1537920488858326,-1,-1,3,-1,-1,-8,15,-21
1537920488871292,1,-1,-8,-4,-4,9,19,-25
1537920488871292,-4,-4,4,3,0,-10,38,-5
1537920488880268,8,-3,1,1,-7,11,-28,-31
1537920488880268,28,6,-6,-6,2,16,-31,59
1537920488894230,-4,9,2,2,10,-6,3,-13
1537920488894230,-19,-9,4,3,-3,-17,-49,-1
1537920488896225,23,5,5,-2,-10,5,92,21
1537920488896225,-17,-12,-8,-1,3,-2,-20,-36
1537920488917169,-6,-3,3,-1,-5,-16,-26,25
1537920488917169,-4,8,5,3,7,-11,-21,-43
1537920488918166,-12,-14,2,1,6,25,60,2
1537920488918166,-3,-13,0,-1,-1,8,12,-23
1537920488931132,5,26,7,3,4,-18,-49,2
1537920488931132,18,4,-4,-2,-12,-29,17,-2
1537920488940108,-24,-2,1,-2,-2,48,-17,-19
1537920488940108,1,-13,-3,-1,2,18,27,-23
1537920488955068,1,3,-4,0,4,-19,-28,33
1537920488955068,-10,-2,1,-1,3,19,3,4
1537920488956065,0,2,0,-2,-7,-52,-51,-4
1537920488956065,-16,-6,-7,-5,-10,2,-16,0
1537920488977009,-6,-7,0,-2,-1,11,-16,-5
1537920488977009,13,3,0,1,5,-18,4,22
1537920488979004,-7,2,7,2,2,-17,38,19
1537920488979004,-2,-5,-11,2,9,32,6,2
1537920488999947,-4,-9,-3,-7,-17,-45,-44,31
1537920488999947,6,-2,-3,-2,4,56,-1,-6
1537920489000948,-22,-2,0,-1,-6,3,48,-4
1537920489000948,6,2,3,0,-2,-54,-56,4
1537920489021889,11,2,0,0,2,48,-10,16
1537920489021889,-28,-21,-6,-8,-4,-22,-83,-85
1537920489023884,12,19,1,3,3,-2,41,37
1537920489023884,-9,-1,4,0,-4,-10,7,-16
1537920489036849,1,-1,2,3,1,13,1,14
1537920489036849,-5,8,0,-4,-9,-35,6,9
1537920489038844,-9,-16,-3,-1,5,48,-56,-37
1537920489038844,-7,-3,0,1,-3,-7,44,-18
1537920489059788,-7,-1,0,-1,-4,12,19,-35
1537920489059788,-1,3,-2,1,1,-2,-11,28
1537920489060785,7,-4,-6,-4,-1,-20,-20,6
1537920489060785,3,3,-7,0,-1,-3,-24,4
1537920489074748,5,-10,17,0,-6,-79,9,48
1537920489074748,12,2,6,3,3,93,18,16
1537920489075745,4,9,0,0,5,2,-26,-11
1537920489075745,-8,-3,-2,-6,-3,8,-43,-29
1537920489097687,6,3,-5,3,1,1,-13,-1
1537920489097687,20,4,-2,-2,-9,-75,18,19
1537920489098684,2,-3,-3,-6,-14,6,10,3
1537920489098684,-3,2,8,6,20,86,-32,-3
1537920489119628,-17,2,2,1,-4,-46,1,-41
1537920489119628,-11,0,-7,-4,-11,9,56,22
1537920489121622,-3,-14,-20,-2,9,-13,-46,-17
1537920489121622,-5,8,16,2,2,-37,19,5
1537920489133591,4,-9,-6,-5,-7,-39,-1,-26
1537920489133591,-3,1,3,5,13,62,54,-8
1537920489140572,7,2,2,1,-8,-79,-24,1
1537920489140572,-1,0,0,1,-1,7,-20,8
1537920489157527,1,0,-2,-2,2,21,95,10
1537920489157527,-8,-5,-4,-8,-7,-36,-23,29
1537920489158525,4,1,2,1,-4,6,-13,-17
1537920489158525,2,0,1,0,-5,11,-5,-4
1537920489179468,-7,0,-3,-1,0,34,8,-54
1537920489179468,8,0,-2,0,1,8,33,-18
1537920489181463,-13,-5,0,-2,1,11,-38,-4
1537920489181463,2,-3,-3,-2,-13,-64,50,40
1537920489194428,11,10,-3,3,10,59,56,-32
1537920489194428,-3,0,4,3,2,2,-28,14
1537920489200412,1,-8,0,-1,-5,-19,14,12
1537920489200412,-4,-8,-8,-7,-10,-3,-4,-12
1537920489217366,-1,8,-2,-3,-3,-27,-31,15
1537920489217366,-4,-5,0,-4,-2,46,11,-22
1537920489218364,6,3,4,5,15,15,13,37
1537920489218364,-1,-1,-3,1,2,-1,29,-10
1537920489239308,-13,-10,-5,-3,-5,23,11,34
1537920489239308,24,4,0,2,1,-70,-52,-55
1537920489241303,-5,0,0,-3,-16,21,83,7
1537920489241303,15,5,0,2,12,23,19,9
1537920489254268,21,4,-1,-2,-2,-2,-12,35
1537920489254268,-11,-10,-4,-3,-5,-12,-29,13
1537920489261249,1,4,-2,-1,12,36,-30,-23
1537920489261249,-6,-2,2,5,0,-9,-7,0
1537920489277206,-20,0,1,0,-2,11,-1,-79
1537920489277206,8,1,-5,-5,-7,-33,-1,51
1537920489278204,6,-18,0,-1,1,-10,-16,-2
1537920489278204,-11,-12,-3,0,6,4,-7,-6
1537920489300145,-11,17,4,3,1,3,-40,-42
1537920489300145,16,18,-4,3,6,-10,3,23
1537920489301143,10,6,12,-1,-2,3,-9,-4
1537920489301143,-3,2,1,-1,-7,-54,-17,-10
1537920489314108,0,-14,0,3,4,61,3,20
1537920489314108,-7,-8,-7,-4,-3,-3,12,2
1537920489321089,-6,5,-6,-2,6,3,1,8
1537920489321089,0,-7,-3,-2,-6,-25,-59,0
1537920489337047,0,-2,1,-3,-8,-8,52,28
1537920489337047,-10,-2,3,1,0,14,-19,-18
1537920489339041,-16,3,-1,3,4,-18,-39,-78
1537920489339041,8,2,-3,-6,-9,7,-36,2
1537920489359985,2,-5,-3,-3,-2,-42,-38,8
1537920489359985,-4,1,2,-3,-3,70,23,3
1537920489360983,-3,-9,-3,0,6,-5,-7,8
1537920489360983,-9,1,-2,-2,0,-28,32,-18
1537920489373948,13,-1,3,-2,0,28,-39,-9
1537920489373948,-4,-7,9,1,-4,-32,-8,-5
1537920489380930,-1,4,-4,-4,-9,-10,13,8
1537920489380930,-6,20,2,0,4,68,52,9
1537920489396887,4,-20,-7,-1,1,-25,-57,11
1537920489396887,-8,-3,-3,-4,-6,-4,14,5
1537920489398882,10,0,1,0,-5,-25,-2,12
1537920489398882,-1,-2,0,0,-7,-43,48,-16
1537920489419825,-3,-1,-3,2,13,58,18,43
1537920489419825,-1,4,3,2,9,-2,-1,-13
1537920489420823,-8,-2,-4,-5,-19,-61,5,29
1537920489420823,9,8,-4,-1,6,64,-40,-6
1537920489441767,15,1,0,1,1,10,4,22
1537920489441767,-4,-7,-3,1,-1,-15,14,-4
1537920489443761,-7,-5,-4,-3,0,-7,12,16
1537920489443761,-3,-3,2,2,9,14,-7,2
1537920489456727,-6,-1,-3,-5,-17,-49,-18,-7
1537920489456727,-4,-4,-3,-4,-13,-38,-14,3
1537920489458721,6,3,3,4,14,90,25,14
1537920489458721,0,-5,-1,0,1,-6,-12,7
1537920489479665,5,-1,-1,-4,2,6,27,1
1537920489479665,-10,0,0,0,1,-15,-41,-67
1537920489480663,0,0,-1,1,-7,-44,-28,-22
1537920489480663,-5,-10,-6,0,3,51,14,15
1537920489493628,-5,-5,-2,-3,-6,-25,39,11
1537920489493628,-2,9,-10,-2,-7,1,-28,10
1537920489502604,-6,-8,9,5,16,39,-1,-18
1537920489502604,-3,9,0,-3,-15,-6,-28,7
1537920489517564,2,6,-1,-1,-2,-32,20,-23
1537920489517564,3,-4,0,4,11,25,-21,31
1537920489518562,0,3,-3,-1,-8,0,22,16
1537920489518562,-2,-8,-2,-1,1,-37,-9,-2
1537920489539505,-12,0,0,2,-2,34,-14,-17
1537920489539505,-3,-5,3,1,4,-10,26,-3
1537920489541500,3,4,-2,-2,5,-8,-6,7
1537920489541500,-5,-2,3,-3,-2,8,-33,-59
1537920489553468,7,3,1,2,1,4,16,63
1537920489553468,1,-3,-2,-2,1,8,-1,1
1537920489562444,1,-4,-4,-3,-2,-2,-12,-27
1537920489562444,-1,3,-1,-3,-9,-32,17,13
1537920489577404,-2,-1,1,4,7,6,-17,-4
1537920489577404,-2,-3,0,-2,-3,4,7,8
1537920489579399,-1,-5,-3,-6,-7,11,11,29
1537920489579399,6,2,-4,-2,-5,-2,17,10
1537920489599345,-7,-4,-1,-1,-2,-31,-41,-13
1537920489599345,13,5,-1,-3,-2,26,18,16
1537920489601340,1,0,-2,-2,-5,-28,-6,8
1537920489601340,-1,-2,0,3,12,23,13,4
1537920489613308,-2,-4,-3,-5,-14,-22,-12,-15
1537920489613308,-5,-3,-2,1,2,-10,-9,-4
1537920489622284,-8,-1,-1,-2,0,7,34,-19
1537920489622284,19,-2,-2,-4,0,18,-32,23
1537920489637244,2,-3,0,-1,6,5,21,10
1537920489637244,-7,5,2,2,-1,4,-24,-31
1537920489638241,-1,-4,-2,2,0,0,-22,-4
1537920489638241,0,5,1,-1,0,-7,39,6
1537920489659185,-3,-1,-2,-4,-3,-26,10,-19
1537920489659185,3,-1,2,1,7,48,27,6
1537920489661180,-3,-3,-1,-4,-8,3,-13,-24
1537920489661180,-1,-2,2,4,0,-18,31,23
1537920489673148,12,3,3,-3,-7,15,-34,-2
1537920489673148,-13,-6,-1,0,0,-29,5,-4
1537920489682124,0,2,0,1,2,11,41,-19
1537920489682124,-10,-2,2,-1,-1,3,-9,-12
1537920489697084,-1,3,-2,-2,2,-7,-15,-8
1537920489697084,-3,-2,0,0,3,-2,16,4
1537920489699079,6,1,0,-1,-3,-3,-46,11
1537920489699079,-4,-4,-3,0,3,-6,-14,-18
1537920489720023,-5,-2,-1,1,-3,6,26,-10
1537920489720023,-1,-2,-1,-2,1,22,-28,-12
1537920489721020,-3,-1,-1,1,-1,2,22,6
1537920489721020,-7,-1,0,1,-5,-18,-29,-13
1537920489733985,-2,-2,-3,-1,8,1,-19,-30
1537920489733985,2,-3,1,-1,-12,-7,12,23
1537920489741964,0,3,-1,-3,-1,0,-20,9
1537920489741964,-1,-2,0,0,3,2,5,-1
1537920489756924,-2,1,1,-1,-1,7,6,2
1537920489756924,0,-2,-3,-4,-3,-6,10,20
1537920489758919,-4,-1,0,-1,3,-13,13,-2
1537920489758919,7,4,4,5,5,14,5,-13
1537920489779863,8,-2,-7,-2,-2,-2,25,20
1537920489779863,-4,-5,-1,-5,-6,-9,-7,-1
1537920489780861,3,-4,-3,0,-2,-8,7,-3
1537920489780861,-3,-7,-9,-4,2,15,2,6
1537920489792828,-6,9,13,6,5,31,22,-15
1537920489792828,1,1,-1,0,-5,-34,-9,-11
1537920489801804,-4,-1,-1,-3,-1,9,-23,-17
1537920489801804,9,-1,0,-1,1,-1,-13,51
1537920489816764,-3,-6,-6,-3,-3,-7,1,-6
1537920489816764,2,1,-2,-1,1,-11,-21,15
1537920489818759,-2,-6,-1,0,0,12,61,8
1537920489818759,-4,-1,1,-1,-3,-9,-11,-18
1537920489839703,-1,-1,-6,-4,-3,2,-6,1
1537920489839703,5,3,-11,2,4,-1,-25,13
1537920489840701,0,1,10,-2,-4,0,-25,-6
1537920489840701,-2,1,-4,-1,-2,-17,24,-3
1537920489853666,-5,-2,3,2,-1,2,-14,-27
1537920489853666,2,0,-3,1,2,4,-9,-4
1537920489862642,2,3,-3,3,2,5,29,-6
1537920489862642,1,2,0,-2,-3,24,-14,-19
1537920489877602,-6,1,0,-1,-1,8,-28,-23
1537920489877602,0,-2,5,4,4,6,45,-7
1537920489878599,-5,-1,-3,-3,-1,-14,-52,-30
1537920489878599,-8,-4,-2,-5,-2,-7,44,18
1537920489899543,8,3,1,3,8,23,23,24
1537920489899543,-6,-5,1,-4,-9,-46,-96,-25
1537920489901538,8,4,-1,0,1,11,51,22
1537920489901538,-5,-1,-1,-1,-8,-26,-77,-18
1537920489913506,0,-2,-3,-2,3,4,16,14
1537920489913506,-4,1,4,1,8,7,14,-13
1537920489922482,-4,-4,-2,-8,-42,-27,-68,2
1537920489922482,2,0,1,5,16,32,56,-2
1537920489937442,-2,0,3,8,17,-32,-39,7
1537920489937442,1,-4,-16,-19,-18,36,20,-1
1537920489938439,-3,-3,-5,-6,-14,-10,-3,2
1537920489938439,0,-2,1,-3,0,0,9,1
1537920489959383,-5,-3,2,2,0,-6,-24,-5
1537920489959383,0,0,-5,5,15,8,47,0
1537920489961378,1,1,3,7,17,-12,-24,4
1537920489961378,-2,-3,-2,4,18,17,-18,-5
1537920489982322,-3,-5,-12,-16,-42,-18,0,-5
1537920489982322,0,-1,6,3,2,-21,-40,1
1537920489983319,1,-1,-4,-4,2,-8,15,3
1537920489983319,-3,1,7,-1,-15,2,0,-5
1537920489996284,0,-1,-6,-7,4,-8,7,1
1537920489996284,0,-1,3,0,-8,12,27,-1
1537920490003266,-1,-2,1,4,15,15,-8,1
1537920490003266,0,-1,-5,-2,-1,-39,-16,-3
1537920490019223,-2,-4,-7,-3,-3,32,10,1
1537920490019223,-1,-3,5,-5,-8,-36,-33,-8
1537920490021218,1,1,-1,5,15,31,57,6
1537920490021218,1,-2,-4,2,-3,-17,-31,-5
1537920490042162,1,0,12,-2,-13,0,13,3
1537920490042162,-2,-1,-5,1,10,8,11,-2
1537920490043159,-1,0,3,-4,1,-7,-24,-3
1537920490043159,-3,-3,-2,-10,-22,-24,4,-3
1537920490056124,1,1,-6,0,3,24,-13,5
1537920490056124,-1,0,3,8,4,6,3,0
1537920490063106,0,-1,0,-1,-1,2,5,0
1537920490063106,-1,0,-2,1,-1,5,-19,-8
1537920490080061,0,1,3,8,9,-30,-13,4
1537920490080061,0,-1,-2,-8,-10,5,22,-3
1537920490081058,-4,0,0,-1,-7,-4,-18,1
1537920490081058,-3,-1,0,-2,-2,2,-2,-8
1537920490102002,-2,0,-11,0,3,-13,-7,-1
1537920490102002,-2,-1,0,3,-3,19,8,-1
1537920490103996,-2,-1,1,1,3,2,2,-3
1537920490103996,0,-1,-3,-2,1,7,16,2
1537920490115964,-1,-3,-6,-9,-5,-6,-5,0
1537920490115964,-2,1,3,-3,-8,-5,4,-2
1537920490124940,0,-1,-5,0,-1,-6,2,-1
1537920490124940,1,-1,-4,1,1,3,-1,13
1537920490139900,0,1,5,6,9,-7,24,-15
1537920490139900,1,5,16,2,3,15,-10,8
1537920490140898,-2,-10,-28,3,3,-9,-17,0
1537920490140898,0,1,6,-13,-11,-11,28,2
1537920490161842,-3,-3,-3,-1,-4,24,1,5
1537920490161842,4,7,6,-3,3,-7,-3,-6
1537920490163837,-3,-5,0,3,9,-3,-9,-1
1537920490163837,-1,-3,0,-3,-10,1,9,-2
1537920490175804,0,-2,2,-5,-10,-9,-24,0
1537920490175804,-2,-4,-11,-7,-4,-4,19,-4
1537920490184781,5,6,2,1,15,17,-2,-3
1537920490184781,0,-2,-7,-8,-7,-27,-5,13
1537920490199740,2,3,8,5,13,10,6,4
1537920490199740,-1,-2,-8,-3,-10,27,4,5
1537920490200738,2,2,2,0,10,16,2,3
1537920490200738,-2,-2,-1,-1,-21,-36,-13,-8
1537920490221682,-3,-2,-1,2,-7,-16,9,-1
1537920490221682,-2,-3,-2,1,10,2,-23,1
1537920490223676,-1,-1,2,-4,-4,12,-2,-1
1537920490223676,-1,0,2,4,13,24,-13,-8
1537920490235644,0,1,2,-1,1,-6,-8,6
1537920490235644,0,-4,-7,8,1,-7,21,-4
1537920490244620,-2,-4,1,-13,-11,-1,6,9
1537920490244620,-3,-1,-1,7,11,5,-16,-40
1537920490259580,2,1,1,7,4,1,-3,-2
1537920490259580,3,-4,-13,-7,-6,-1,7,18
1537920490260578,-2,1,-1,-4,-8,-10,-9,8
1537920490260578,-1,-2,0,3,5,-6,-19,1
1537920490282519,-6,-1,-1,-1,1,2,-17,-4
1537920490282519,1,0,-2,3,0,6,34,-10
1537920490283517,-1,-1,4,-1,-7,-11,-23,-11
1537920490283517,-2,-2,-6,-6,1,12,16,14
1537920490295485,-2,-3,-1,0,4,-4,3,-3
1537920490295485,-2,0,5,-1,-2,12,-16,2
1537920490304460,-1,-1,-2,-1,-4,-48,0,-3
1537920490304460,1,1,3,3,-6,44,16,2
1537920490319421,-3,-2,-5,-7,-2,-15,-21,-1
1537920490319421,1,-3,-12,-3,3,-15,5,-2
1537920490321415,-1,2,11,5,10,33,16,0
1537920490321415,0,1,5,8,4,-10,-8,-1
1537920490342359,2,-1,2,1,-3,-7,-8,-8
1537920490342359,-3,-2,-1,-1,-4,-4,-1,0
1537920490343357,-2,-5,-6,1,-4,7,-18,3
1537920490343357,3,2,0,4,4,6,37,25
1537920490355324,-4,-3,-4,-7,-3,13,9,-7
1537920490355324,-7,-2,10,2,3,-19,-26,-19
1537920490364301,2,0,-2,5,-9,-4,-1,23
1537920490364301,-3,-3,1,-2,5,-1,-44,-5
1537920490379260,0,1,-3,-4,-1,-35,43,6
1537920490379260,0,0,4,0,2,47,-14,-16
1537920490381256,-1,0,-1,-1,-4,-7,-2,-3
1537920490381256,-2,-1,-5,0,-3,-6,-5,2
1537920490401202,5,1,2,-3,-2,3,1,9
1537920490401202,0,0,-11,-3,-2,-11,29,9
1537920490402200,0,-2,4,4,-2,-10,-28,-13
1537920490402200,-8,-1,-4,-7,-1,7,10,-28
1537920490424141,13,0,0,1,0,19,46,15
1537920490424141,1,-1,-2,-4,0,-28,-24,2
1537920490424141,-3,1,-3,1,-10,2,20,0
1537920490424141,0,0,-4,-1,2,-6,13,-5
1537920490439100,-9,-3,-4,-7,-3,14,-13,-12
1537920490439100,-2,0,2,4,3,7,1,5
1537920490440098,0,0,0,1,12,1,6,-8
1537920490440098,4,0,1,-2,-10,-18,-39,8
1537920490461042,-2,-1,-1,2,-3,-2,-10,-9
1537920490461042,0,-1,1,3,9,-4,7,14
1537920490462039,-2,-2,-4,-13,-25,-4,14,-8
1537920490462039,-1,-2,2,-1,1,6,26,6
1537920490483981,-1,-1,-1,7,9,5,-27,-5
1537920490483981,-5,-1,-7,-7,-10,-10,-22,-11
1537920490484978,0,0,-3,-8,-4,-11,-3,14
1537920490484978,0,-2,2,4,5,15,18,-7
1537920490498941,-3,-1,-2,1,-2,6,3,-5
1537920490498941,-2,-2,1,-6,-4,-22,-42,-4
1537920490499938,-1,0,-3,-1,5,2,18,10
1537920490499938,-2,-2,-3,-4,-4,7,29,-8
1537920490521880,1,0,-1,-1,3,-4,-22,10
1537920490521880,-1,0,3,6,2,0,20,-1
1537920490521880,0,-1,1,4,7,0,-18,3
1537920490521880,-1,-2,-6,-5,-9,-5,-12,-6
1537920490535842,-1,1,10,3,1,0,-11,-3
1537920490535842,0,-2,-5,-7,-9,-9,3,1
1537920490543821,1,1,-3,-2,1,2,2,-11
1537920490543821,-4,-1,0,0,5,6,-8,-3
1537920490558781,2,-1,-5,-1,-1,-8,-5,23
1537920490558781,-1,0,4,0,-4,-10,25,-1
1537920490559778,0,0,2,3,8,35,17,-17
1537920490559778,1,2,1,3,0,-24,-14,16
1537920490581720,-1,-3,-7,-7,-7,-24,-45,-12
1537920490581720,1,0,0,-3,-5,35,59,10
1537920490581720,-4,-3,-3,-1,-5,-22,-16,-2
1537920490581720,-2,-1,-2,-4,2,7,22,-6
1537920490595682,0,0,-1,0,-5,18,8,0
1537920490595682,2,0,-2,1,-1,-8,7,7
1537920490603661,-1,-2,1,-2,-5,-9,-5,-9
1537920490603661,0,0,0,-2,3,2,-17,5
1537920490618621,-4,-2,-2,-1,2,8,10,-8
1537920490618621,-3,-2,1,0,2,1,-47,-11
1537920490619619,-1,0,-1,-3,-6,5,12,5
1537920490619619,2,-1,1,6,-4,-50,-14,4
1537920490641559,-3,-2,-2,-7,1,10,12,-8
1537920490641559,1,-1,0,-3,5,41,-10,0
1537920490642557,1,0,-3,-5,-5,-20,-29,-7
1537920490642557,1,-1,-1,-1,-2,5,-6,5
1537920490655522,1,0,-1,0,0,-23,33,8
1537920490655522,-2,1,2,0,-11,10,-8,0
1537920490663501,0,-1,0,5,14,12,-8,9
1537920490663501,1,0,1,-5,-11,-15,22,-13
1537920490678461,-3,-1,-1,1,6,32,19,-6
1537920490678461,-2,-1,-2,-2,6,-21,-17,0
1537920490679458,1,-1,2,4,-2,-6,16,7
1537920490679458,-3,-3,-1,-3,7,32,-13,-6
1537920490701399,4,-2,-3,-7,-21,-69,17,9
1537920490701399,-2,1,3,11,18,41,-8,-10
1537920490702397,-1,-2,-2,-11,-7,-1,-19,3
1537920490702397,0,1,2,1,5,-2,-1,7
1537920490715363,-1,0,2,3,6,17,8,3
1537920490715363,0,-1,-2,-1,-6,-15,-7,-13
1537920490724338,-2,-2,-1,1,0,10,2,-3
1537920490724338,1,1,0,0,3,7,1,-3
1537920490739298,0,0,-3,-2,-4,8,5,0
1537920490739298,1,0,-1,-4,-6,-27,-5,-1
1537920490739298,1,0,2,1,-3,-13,-21,7
1537920490739298,-3,0,-1,-1,2,29,63,-8
1537920490761240,-1,-1,5,8,7,-25,-6,-1
1537920490761240,2,-4,-4,-8,-6,19,-14,15
1537920490762237,1,1,-2,0,4,16,18,-6
1537920490762237,-1,-2,0,1,0,-7,-19,3
1537920490776199,-2,0,-2,3,-1,-3,-14,-4
1537920490776199,-3,-1,-1,-8,5,-42,7,-4
1537920490784178,-3,-2,0,-2,-8,17,3,13
1537920490784178,2,-3,-3,-3,-1,30,-8,-4
1537920490799138,-2,-2,-4,-1,-3,-26,-51,-5
1537920490799138,3,2,5,2,3,-1,85,-13
1537920490800135,-1,2,1,6,4,-11,-34,-9
1537920490800135,1,-1,-2,-1,4,7,23,6
1537920490821079,-1,-1,-5,-12,-25,-4,-27,-6
1537920490821079,-1,-1,-3,0,-3,2,-7,3
1537920490822077,-6,2,13,4,2,-6,16,-9
1537920490822077,-4,-6,-8,-6,-3,-10,-37,-9
1537920490845015,0,5,11,7,10,34,48,-2
1537920490845015,18,5,-6,-5,-5,-21,-48,26
1537920490846013,-17,1,-15,5,4,-14,-2,-20
1537920490846013,-16,-25,20,3,-1,4,1,10
1537920490858978,10,26,-68,31,5,27,-5,-4
1537920490858978,-10,7,32,-1,4,12,36,-6
1537920490859976,14,-9,6,-5,0,-22,10,0
1537920490859976,-5,-3,6,5,0,8,-4,-10
1537920490881917,-2,-11,-1,-11,3,-3,-57,7
1537920490881917,-5,10,9,24,4,-15,29,-7
1537920490881917,4,0,-5,1,7,8,-28,-9
1537920490881917,3,5,-11,-7,-16,-10,81,13
1537920490904856,1,2,33,2,1,1,-65,-3
1537920490904856,-2,-3,-14,-5,-17,-100,-35,-9
1537920490904856,-8,-25,0,-14,-10,104,12,-8
1537920490904856,8,17,2,17,53,58,-45,3
1537920490918818,-1,15,3,-14,-36,-77,29,3
1537920490918818,-2,-5,-6,1,24,79,-62,-34
1537920490919816,-1,5,-13,-4,-19,-128,4,19
1537920490919816,8,-3,-1,5,-13,-22,16,-1
1537920490941757,-7,-17,-5,-17,1,33,15,2
1537920490941757,-2,-5,-8,-10,-11,-12,-5,8
1537920490941757,7,5,10,8,3,19,4,3
1537920490941757,2,-3,-7,-10,-7,-16,-30,9
1537920490964696,-7,-13,14,4,19,26,15,1
1537920490964696,-7,-10,-5,0,-19,-28,-8,-3
1537920490965693,-1,2,-5,-2,6,1,1,-16
1537920490965693,2,6,0,-2,-7,-26,-11,11
1537920490978658,-2,-5,-4,-5,5,13,28,-4
1537920490978658,2,4,-5,5,14,36,5,10
1537920490979656,6,3,1,3,-6,12,-3,-6
1537920490979656,-8,-9,-14,-14,-14,-17,-20,-24
1537920491001597,2,-9,5,-2,-9,-46,30,12
1537920491001597,4,15,-6,-2,15,63,5,-2
1537920491002594,-6,2,2,0,4,-20,2,-3
1537920491002594,1,1,-1,-1,-5,-23,-3,0
1537920491024536,5,-2,-4,-3,-6,19,25,-4
1537920491024536,3,-6,-2,-2,-2,-21,-6,11
1537920491025533,0,0,-4,-2,8,1,19,4
1537920491025533,0,2,2,3,-4,-7,-21,1
1537920491038498,-3,-3,2,1,7,11,-50,-10
1537920491038498,0,-6,1,-2,-8,-1,38,36
1537920491039496,2,7,5,5,8,37,34,-29
1537920491039496,0,-2,-1,-4,2,-21,-13,25
1537920491061437,-3,1,5,-3,-6,14,-44,-36
1537920491061437,6,-4,-1,-2,-13,-5,-2,0
1537920491062434,-10,1,0,0,-19,-19,-16,-7
1537920491062434,-17,2,3,4,2,0,28,-45
1537920491084376,29,-5,-9,-11,-2,-1,9,54
1537920491084376,-4,0,-1,1,1,-12,-54,-15
1537920491085373,-14,-3,3,2,3,3,24,-10
1537920491085373,-5,-1,-3,-1,1,9,5,42
1537920491099336,14,0,0,-3,-6,1,12,-1
1537920491099336,2,-4,0,0,-2,-4,-23,3
1537920491099336,18,-3,-9,-10,-9,-16,-21,43
1537920491099336,-3,1,1,-1,-3,7,-44,-37
1537920491122274,-10,3,3,5,11,18,94,25
1537920491122274,-11,-2,5,1,1,9,1,-38
1537920491122274,31,-6,-20,-12,-14,-28,-13,89
1537920491122274,14,-4,0,-6,-4,15,-40,-25
1537920491144216,-7,1,3,3,1,-10,2,28
1537920491144216,7,2,-1,-1,0,-12,75,20
1537920491145213,-11,3,-2,-2,-1,6,-59,-50
1537920491145213,35,6,6,1,-5,-6,19,1
1537920491159176,-9,-22,-25,-10,-5,13,26,-8
1537920491159176,-16,11,4,1,-1,-7,24,-41
1537920491159176,-8,6,17,17,14,15,-44,-45
1537920491159176,-19,-26,-9,-10,-13,-10,16,35
1537920491181117,-1,45,8,0,5,-10,-68,-37
1537920491181117,-21,-38,-8,-1,-2,17,66,8
1537920491182115,-6,-3,-7,-3,-6,-49,-35,-38
1537920491182115,0,-7,5,3,1,3,21,-19
1537920491205053,-4,0,0,2,11,66,24,21
1537920491205053,12,2,-7,-6,-3,8,-24,28
1537920491205053,3,4,5,1,5,1,23,-20
1537920491205053,-4,6,1,9,5,0,11,21
1537920491219016,14,-6,4,5,5,-37,-42,-4
1537920491219016,-3,2,-4,-5,10,-13,-31,-17
1537920491220013,3,-12,0,-13,-26,-2,78,17
1537920491220013,-8,0,-6,-9,-12,-50,-52,5
1537920491241954,3,3,8,7,-1,47,14,-35
1537920491241954,10,-4,-4,-6,-1,-9,-28,5
1537920491242952,9,4,-2,-2,1,11,2,15
1537920491242952,-18,-2,-2,0,6,15,32,-6
1537920491264893,-22,-6,6,6,4,-21,-40,-50
1537920491264893,38,3,-3,0,-11,-38,-48,52
1537920491264893,8,-2,-7,-8,-2,32,18,22
1537920491264893,0,5,1,0,-2,4,3,3
1537920491278856,1,-9,3,5,11,-1,24,6
1537920491278856,-32,2,8,9,9,30,-11,-53
1537920491279853,-10,2,-9,-4,6,-25,11,-15
1537920491279853,8,10,-1,0,-3,21,-14,-3
1537920491301794,-3,-26,-2,-4,-6,-28,1,19
1537920491301794,-8,4,3,-2,-7,9,34,-5
1537920491301794,-7,-7,2,5,5,5,-32,3
1537920491301794,-3,3,0,4,7,8,-32,5
1537920491324733,-4,8,-4,4,2,0,19,-10
1537920491324733,3,-4,4,-1,1,13,45,4
1537920491325731,-17,4,5,2,5,6,-10,-8
1537920491325731,13,-4,-4,-4,-1,6,7,-2
1537920491338696,-16,-2,-8,-7,-13,-24,-13,-25
1537920491338696,0,-3,-2,-1,0,-2,-23,3
1537920491339693,1,4,0,-2,-1,-2,11,14
1537920491339693,-26,-8,21,15,9,19,40,-43
1537920491361634,9,-11,-11,-7,-5,-44,-17,20
1537920491361634,-32,19,-6,6,8,58,-17,-59
1537920491362632,24,10,5,1,4,5,1,-23
1537920491362632,23,3,-18,-10,-5,5,39,73
1537920491384573,12,1,19,4,-2,-5,12,15
1537920491384573,-18,-17,-20,-13,-11,-34,-2,-3
1537920491385571,1,-1,3,4,-5,-5,31,12
1537920491385571,-13,-2,5,-7,-6,-17,-114,-23
1537920491398536,3,-12,-3,6,12,29,42,-14
1537920491398536,-13,29,41,11,-4,-40,44,26
1537920491399533,-16,-24,-29,-17,-23,-33,17,5
1537920491399533,2,0,-4,4,23,67,-27,-22
1537920491421474,-20,-4,-2,-9,-21,-113,-15,24
1537920491421474,16,-1,2,2,14,122,-35,-69
1537920491422472,3,22,19,21,41,88,37,-14
1537920491422472,12,5,-19,-5,-12,-93,15,33
1537920491444413,-1,-7,-5,-4,-1,-60,-41,2
1537920491444413,6,-7,2,4,17,6,-49,-27
1537920491445411,11,-1,2,0,3,2,-54,-9
1537920491445411,-10,7,-3,-3,-25,5,80,-15
1537920491458376,7,5,-3,-8,-9,14,20,7
1537920491458376,1,-17,-11,-13,-21,-91,-12,17
1537920491466355,-2,-9,-4,1,-1,-12,-43,8
1537920491466355,-1,-3,-1,-4,8,24,-4,34
1537920491481315,0,3,3,1,1,15,-7,-44
1537920491481315,3,-2,-3,1,7,-6,-12,35
1537920491482312,-1,6,2,-1,3,28,12,9
1537920491482312,2,2,8,3,6,-25,-18,-18
1537920491504253,-6,4,-2,-4,-8,26,19,-18
1537920491504253,11,0,-6,0,4,13,-2,26
1537920491505251,-6,-5,0,0,-6,-33,-10,2
1537920491505251,-3,-6,0,-1,-2,-21,8,-16
1537920491518216,3,3,1,1,4,38,-17,18
1537920491518216,-1,1,-2,-3,-9,-19,28,7
1537920491526195,6,-2,-2,-3,-5,-20,-18,-31
1537920491526195,-4,3,1,2,6,53,-33,-7
1537920491541155,-2,3,0,5,9,11,1,2
1537920491541155,10,-2,-3,-5,-17,-37,-3,14
1537920491542152,-8,-23,-7,-7,-2,26,79,43
1537920491542152,7,29,1,-2,-7,-19,-15,-24
1537920491565090,-3,-8,2,-2,-8,-3,-35,-11
1537920491565090,-10,-11,-2,-1,-1,-5,-8,3
1537920491565090,-4,-10,-3,-4,-5,-24,-26,8
1537920491565090,0,-12,-1,-2,7,14,7,0
1537920491578056,-11,2,1,-1,-9,-42,-1,9
1537920491578056,4,4,-1,-1,-1,43,33,-27
1537920491586035,-4,5,4,4,7,20,3,-11
1537920491586035,7,-4,-2,-2,-10,-4,12,17
1537920491600995,-7,4,1,0,4,24,-22,-45
1537920491600995,1,-7,-4,-5,-4,-31,3,7
1537920491601992,-6,4,2,-1,-6,-21,-28,-14
1537920491601992,-5,-7,-2,-2,1,35,43,-13
1537920491624931,1,-1,-1,1,2,-20,-27,10
1537920491624931,2,2,1,0,2,10,33,-1
1537920491624931,17,1,-6,-11,-7,-8,45,45
1537920491624931,-5,-2,0,0,-2,-20,-59,-30
1537920491637897,-7,-1,0,2,5,28,37,7
1537920491637897,0,-2,-2,1,-1,-17,-3,36
1537920491646873,-16,0,2,2,3,-11,-13,-40
1537920491646873,-1,-6,-4,-4,-7,23,23,12
1537920491661832,5,1,-1,1,17,27,23,-19
1537920491661832,5,1,-1,-2,-14,5,-29,50
1537920491661832,-4,0,-2,0,4,-21,5,-18
1537920491661832,-5,-4,0,0,-2,-27,-37,-14
1537920491684771,-4,0,-1,-2,-13,-3,9,-34
1537920491684771,4,-3,-4,-2,3,-1,-12,13
1537920491685768,-7,-3,-2,-2,-5,2,-67,-2
1537920491685768,14,10,5,3,1,-39,74,29
1537920491698733,0,7,0,2,7,52,-28,10
1537920491698733,-4,-8,-1,2,3,27,-13,-23
1537920491706712,9,6,-1,-3,-5,-9,-5,14
1537920491706712,-9,-14,-3,-3,-1,-13,-19,6
1537920491721672,12,12,2,0,-2,-12,25,4
1537920491721672,-4,2,0,0,1,7,4,-24
1537920491721672,-2,-3,-2,2,1,-12,-7,20
1537920491721672,-7,-3,-1,-2,1,8,-25,-30
1537920491744610,-4,-4,0,1,-2,-5,21,8
1537920491744610,0,3,0,3,6,-6,6,-6
1537920491745608,-4,1,2,2,-2,17,5,0
1537920491745608,6,-1,-4,-4,-2,-9,1,10
1537920491758573,-5,-4,0,-3,-6,-14,-42,-13
1537920491758573,4,0,0,0,-4,-20,41,10
1537920491766552,-6,-5,-1,1,8,44,-11,-22
1537920491766552,0,0,-1,0,-3,20,15,11
1537920491781512,-2,-4,-4,-4,2,-9,0,6
1537920491781512,1,2,-1,3,18,-6,-1,-8
1537920491782509,4,1,0,-5,-38,-44,-11,-14
1537920491782509,-7,-1,-1,0,6,-4,-18,1
1537920491804451,-3,-3,1,-1,-4,26,8,19
1537920491804451,-2,0,0,-2,8,-14,-4,-15
1537920491805448,-7,0,-1,1,4,7,18,-19
1537920491805448,3,0,0,1,-2,0,-28,47
1537920491827390,1,-2,-3,0,-2,-5,-5,10
1537920491827390,-4,-2,-2,0,-2,-1,-3,-3
1537920491827390,0,-1,0,-1,5,-29,-13,0
1537920491827390,-1,1,-1,-1,-10,21,1,-32
1537920491841353,2,0,-3,-2,-2,-7,5,-1
1537920491841353,-1,-2,1,0,0,18,-24,-20
1537920491842349,2,-1,-1,-1,1,5,19,3
1537920491842349,-7,-2,0,1,5,-22,11,-18
1537920491864291,-1,-3,-3,-4,-2,2,-12,23
1537920491864291,4,-1,-1,-1,-9,-15,-3,-6
1537920491866286,-2,0,-4,-5,-2,9,15,13
1537920491866286,0,0,0,0,3,0,-2,-28
1537920491887229,3,0,-1,-3,-6,7,0,35
1537920491887229,-8,-3,-4,-5,-20,-25,-8,8
1537920491888227,1,-3,-2,0,3,13,5,3
1537920491888227,5,1,1,0,2,-7,-3,-11
1537920491901192,-1,-2,0,0,8,-5,0,0
1537920491901192,1,-2,0,1,2,-28,14,3
1537920491909171,-3,1,0,2,10,43,-14,11
1537920491909171,7,-1,-2,-3,-14,-15,16,19
1537920491924131,-1,-1,1,0,4,14,-19,-19
1537920491924131,-3,1,1,1,-4,4,0,3
1537920491925128,-5,-3,-3,-1,1,-38,14,-11
1537920491925128,-2,0,0,-1,2,-19,-15,-10
1537920491947070,-2,-1,0,-1,-5,7,-17,-12
1537920491947070,0,-1,-4,-4,2,6,-10,8
1537920491948067,0,-1,0,1,-3,-6,-11,-7
1537920491948067,5,1,0,1,0,15,49,-11
1537920491961032,0,-4,-4,-3,-4,-6,-10,-16
1537920491961032,3,-1,0,-1,2,8,-7,36
1537920491962030,1,-2,0,-3,-4,12,-23,-6
1537920491962030,-6,-3,0,3,8,-6,4,9
1537920491984968,2,3,3,3,-4,3,-10,-26
1537920491984968,-4,-1,-4,-3,-2,-2,0,-20
1537920491985965,2,0,0,3,5,9,10,22
1537920491985965,-8,-2,-3,-3,2,-25,-31,-22
1537920492006909,0,0,0,1,4,41,38,7
1537920492006909,0,-1,-2,-1,-10,1,-18,1
1537920492008904,-2,1,0,1,-4,-24,4,-3
1537920492008904,-2,-2,-2,-2,3,8,6,-7
1537920492020872,-5,-1,2,2,2,-27,-3,-18
1537920492020872,2,-1,-2,-2,-1,17,24,0
1537920492029848,3,-1,0,0,-1,13,-33,-4
1537920492029848,-6,-2,0,1,-2,-11,-34,-51
1537920492044808,0,-3,-2,-3,-9,-23,32,57
1537920492044808,1,2,2,3,-1,-23,1,-11
1537920492045806,0,-1,-1,2,9,46,-16,-2
1537920492045806,-2,-3,-1,0,2,29,7,6
1537920492066750,-4,0,-2,-1,2,-1,-22,-34
1537920492066750,0,1,-1,-2,-2,-17,0,6
1537920492068744,0,-4,-2,-2,0,-12,39,17
1537920492068744,-2,1,1,3,1,5,-25,11
1537920492081710,-5,-4,-3,-3,0,-10,19,-15
1537920492081710,-3,-1,0,0,-1,4,12,3
1537920492088691,0,-1,-2,-4,-5,-15,0,-27
1537920492088691,3,-1,0,-2,3,24,6,27
1537920492104648,0,-1,-1,0,9,5,-14,7
1537920492104648,-5,-2,0,-1,-9,-40,-4,-11
1537920492105646,8,3,1,4,18,43,5,17
1537920492105646,0,-1,-3,-6,-26,-32,14,1
1537920492127587,1,-2,0,-3,-5,18,56,2
1537920492127587,-6,-1,-1,-1,10,11,-38,-11
1537920492128584,0,-1,-3,-5,-14,-18,31,0
1537920492128584,3,0,-1,0,4,-23,-14,30
1537920492141550,-1,0,0,1,5,5,-24,-22
1537920492141550,1,-2,-1,-1,0,21,12,-15
1537920492148531,-1,-1,0,0,-1,-26,-10,42
1537920492148531,-3,0,-2,0,3,6,-19,-31
1537920492164488,-1,-1,0,-1,-6,-12,-4,-13
1537920492164488,-12,-3,1,-1,-2,21,13,-10
1537920492166483,7,2,2,0,-2,-8,-16,-19
1537920492166483,1,0,-1,1,3,5,-14,5
1537920492187427,1,-1,-1,1,6,-15,25,22
1537920492187427,2,1,0,-2,-13,-23,-7,-5
1537920492188425,-11,-2,0,1,4,17,13,2
1537920492188425,5,0,-2,-3,-2,14,-11,-14
1537920492201390,2,0,1,4,8,-2,-15,-1
1537920492201390,5,-1,-2,-3,-4,-14,1,0
1537920492208371,-6,-6,-3,-2,-15,-12,9,0
1537920492208371,0,0,2,0,8,-3,7,9
1537920492224329,-4,2,-1,-2,-12,-8,5,12
1537920492224329,2,-2,-1,1,12,18,-8,-24
1537920492231310,2,1,1,-1,-1,-7,-12,-7
1537920492231310,-2,-4,-2,-1,1,5,23,15
1537920492247268,0,-1,-1,-1,-5,1,-9,-2
1537920492247268,-7,1,1,0,1,14,35,18
1537920492248265,2,0,-1,-1,-3,-35,-46,-40
1537920492248265,-6,-1,-1,3,7,21,35,-4
1537920492261230,-1,-1,0,1,3,25,8,-4
1537920492261230,-2,1,-4,-1,2,6,-12,6
1537920492268211,-1,-1,-2,-5,-9,-24,-4,6
1537920492268211,0,-2,-1,-3,-8,-17,29,-5
1537920492284168,0,0,0,-2,4,1,-25,1
1537920492284168,0,-4,-2,-2,-13,7,-20,-1
1537920492286163,-8,-1,-3,0,4,40,-3,-16
1537920492286163,2,-1,0,-1,-3,-26,-16,-1
1537920492307107,-3,-3,-2,-1,5,25,12,-3
1537920492307107,3,-1,1,-1,-6,-16,-6,-17
1537920492308104,2,-2,-3,-3,1,-19,21,34
1537920492308104,2,-1,-1,-4,-11,44,-5,18
1537920492321070,-7,-2,-2,0,6,-36,-47,-15
1537920492321070,3,0,-2,1,7,34,76,16
1537920492330046,-3,0,0,0,2,-25,0,-1
1537920492330046,-3,0,-2,-1,3,-14,-8,-3
1537920492345006,8,1,-1,-4,-6,-41,-24,20
1537920492345006,2,0,-1,2,6,41,-1,0
1537920492346003,-5,-2,-3,-3,-8,31,9,-6
1537920492346003,-3,-1,0,0,1,-7,5,-16
1537920492366947,-1,-1,0,-1,0,-11,-4,-10
1537920492366947,0,-1,-2,-4,-7,-14,-20,-6
1537920492368942,1,1,1,2,2,-4,-5,2
1537920492368942,-4,0,-2,-2,-4,0,-27,2
1537920492380910,-2,-4,-3,0,-1,10,3,5
1537920492380910,-2,-2,0,0,15,-17,-41,-3
1537920492389886,2,-1,0,-3,-20,17,38,1
1537920492389886,-2,0,2,0,5,-16,-1,-2
1537920492404846,-3,-1,0,3,2,20,22,0
1537920492404846,2,0,-1,-1,-1,2,-14,0
1537920492405843,-4,-2,-2,-4,-10,-12,-22,-15
1537920492405843,-5,-2,-1,-2,-4,-23,-9,-19
1537920492426788,8,2,2,1,3,41,46,35
1537920492426788,2,-1,0,2,6,-12,10,-6
1537920492428782,0,1,0,1,1,-21,-7,-11
1537920492428782,-5,-2,-1,-2,-12,32,3,-4
1537920492440751,4,-1,-2,-4,-6,-23,-46,6
1537920492440751,-2,-2,-1,-1,-1,-3,13,2
1537920492449726,-1,0,-1,-1,9,4,5,4
1537920492449726,-1,-2,-1,0,5,-11,13,10
1537920492464686,-7,0,1,-1,-6,-8,-14,-7
1537920492464686,4,-1,-1,-1,-6,17,20,9
1537920492465683,-1,-1,-1,1,10,5,12,-10
1537920492465683,1,0,-1,-1,-2,-5,-12,7
1537920492486627,-4,-1,-2,-2,0,11,19,-10
1537920492486627,-1,0,0,-1,-4,-25,-17,-6
1537920492488622,-2,-1,-1,-3,-2,-21,-26,6
1537920492488622,-1,-1,0,-1,5,15,25,-3
1537920492500590,0,0,0,0,2,45,13,-14
1537920492500590,2,-1,-2,-2,3,6,0,4
1537920492509566,-1,0,0,-1,0,-10,-33,-16
1537920492509566,3,1,-2,-1,-8,-29,-20,7
1537920492524526,-4,-2,-1,-1,-1,-10,2,-11
1537920492524526,-4,0,0,0,-7,-18,-6,-12
1537920492526521,2,0,0,2,12,36,-2,3
1537920492526521,1,-1,-3,-2,-15,-4,13,-1
1537920492547465,-1,0,0,-1,-3,1,20,-3
1537920492547465,2,1,1,-1,-1,-18,-26,9
1537920492548462,-1,-2,-1,1,-1,8,23,2
1537920492548462,-2,-1,0,2,5,-2,-31,7
1537920492560430,-1,-1,-1,-2,-4,-15,-15,-2
1537920492560430,-5,-2,-1,-2,0,12,36,-4
1537920492569406,9,-1,-3,-2,-2,8,-15,10
1537920492569406,3,1,0,-1,-4,5,6,2
1537920492584366,-3,-1,-2,-2,-4,-15,-10,2
1537920492584366,-2,-3,-3,-2,2,-1,-21,4
1537920492586361,-1,-1,-1,-2,-2,-4,7,4
1537920492586361,0,-1,-1,1,10,-2,30,2
1537920492607304,0,-1,1,-1,-2,-16,-1,2
1537920492607304,-2,0,-1,-1,-7,35,24,7
1537920492608302,-1,-1,1,0,8,8,-17,-18
1537920492608302,-4,-2,-1,-2,-12,-41,1,-5
1537920492621267,1,-1,-1,-2,-10,8,-10,12
1537920492621267,-2,1,0,1,5,2,-2,3
1537920492629246,-8,-1,1,-1,-11,-19,-30,-27
1537920492629246,2,1,-2,0,9,14,23,15
1537920492644206,1,0,0,2,4,4,16,-6
1537920492644206,-5,-3,-1,-2,-8,-4,-18,-29
1537920492646201,3,2,1,0,-3,-5,7,6
1537920492646201,2,-2,0,-2,5,4,-45,-11
1537920492667145,-5,-1,-2,-5,-18,15,23,-10
1537920492667145,8,2,1,1,2,-2,7,20
1537920492668142,0,-1,-2,1,3,-28,0,-4
1537920492668142,-1,-2,-3,-6,-5,9,30,7
1537920492681107,-5,-2,-2,0,6,38,-17,-12
1537920492681107,10,-4,-4,-6,-4,-21,-31,8
1537920492690083,-7,-3,-3,-3,-10,7,4,-22
1537920492690083,-3,0,-2,0,-9,-19,8,-2
1537920492705043,0,0,-1,1,8,-20,-28,-4
1537920492705043,-6,1,0,2,4,-8,1,-3
1537920492706041,1,0,-1,1,-1,9,10,8
1537920492706041,-1,-1,0,0,8,25,-37,-15
1537920492726985,-5,0,-1,0,-6,-12,33,-3
1537920492726985,-4,-2,1,0,2,-7,-13,-6
1537920492728979,4,1,-1,0,0,-1,25,19
1537920492728979,-6,-1,0,0,1,1,-19,-14
1537920492749923,2,-1,-2,-1,1,-15,-32,19
1537920492749923,3,0,1,1,-2,0,-3,-4
1537920492750921,-3,-2,0,-3,-2,5,23,7
1537920492750921,-2,0,0,0,-2,3,-7,1
1537920492764883,2,0,0,-2,5,6,15,7
1537920492764883,-2,0,-1,1,-6,-23,-8,21
1537920492765881,-8,-3,-2,-3,0,12,3,-33
1537920492765881,4,1,-1,0,-1,-10,-1,7
1537920492786825,5,-2,-1,1,4,6,-4,4
1537920492786825,-1,-2,-1,0,10,9,-4,6
1537920492788820,-3,-2,-2,1,-2,-5,20,16
1537920492788820,-3,-2,-1,-2,-14,-25,12,1
1537920492809763,0,-1,1,0,3,21,-5,-12
1537920492809763,3,0,-3,-2,-2,-2,-15,-2
1537920492810761,-1,-1,0,0,3,8,-1,17
1537920492810761,1,1,1,1,-1,-9,20,-14
1537920492823726,3,-2,0,-1,-3,-18,20,14
1537920492823726,-5,-3,-2,-1,-1,-3,0,-9
1537920492830708,-5,-1,0,-1,2,7,-10,0
1537920492830708,5,1,-1,2,14,27,8,8
1537920492846665,-6,0,-2,-3,-20,-35,-16,-21
1537920492846665,1,-1,-3,-6,-4,21,-8,3
1537920492848660,-1,-1,0,0,-3,-16,12,2
1537920492848660,-4,-3,0,0,2,2,-17,-4
1537920492869603,7,1,-1,1,5,-4,-10,1
1537920492869603,-3,1,0,0,1,6,12,2
1537920492870601,-1,-2,-2,0,6,-3,-15,1
1537920492870601,-2,-2,-1,0,-3,17,12,4
1537920492883566,-2,-2,-1,0,-3,-15,-21,-17
1537920492883566,5,-1,-1,-2,0,0,20,24
1537920492890547,-1,0,2,3,8,10,-23,-11
1537920492890547,-4,-3,-1,-2,-8,0,0,-7
1537920492907502,-3,-2,-2,-2,-4,-8,9,5
1537920492907502,-10,-1,1,2,2,-3,-13,-24
1537920492908499,6,-1,-3,-1,-1,-5,3,10
1537920492908499,4,-3,0,2,4,4,5,20
1537920492929443,-3,-3,0,1,4,5,-2,-6
1537920492929443,1,-1,-2,0,-2,-26,-7,-3
1537920492931438,-3,-1,-2,-5,-17,31,3,14
1537920492931438,-1,-1,-2,-3,-2,1,14,-3
1537920492944403,-6,-3,-4,-3,-5,3,-7,2
1537920492944403,7,0,1,3,-2,2,2,-6
1537920492950387,-2,-1,-1,-1,2,-11,-3,6
1537920492950387,1,-1,-1,-1,-2,-9,-16,-5
1537920492967342,-4,-1,0,-3,2,4,5,-4
1537920492967342,7,0,-2,-2,-2,-7,3,13
1537920492968340,-3,-1,-1,0,-2,-10,-1,-7
1537920492968340,-4,-1,-1,-1,9,6,-24,2
1537920492989283,3,0,0,2,-6,-7,36,10
1537920492989283,-7,-1,1,-3,-5,-4,11,1
1537920492991278,2,0,0,-1,1,-7,0,-12
1537920492991278,-3,0,0,-1,-9,5,22,14
1537920493004243,-4,-1,-4,-2,2,-9,-3,12
1537920493004243,4,-1,-2,1,9,18,-14,-6
1537920493011225,-3,-1,0,1,-2,-18,11,-8
1537920493011225,1,-1,-2,-1,-1,2,11,-12
1537920493027182,-3,2,2,0,1,10,-11,4
1537920493027182,-7,-4,-1,-2,-4,-37,0,-5
1537920493028179,1,0,0,2,12,67,-17,-10
1537920493028179,0,-1,0,1,-3,-11,-17,-2
1537920493049123,-4,-2,-2,-3,-4,-8,-7,-28
1537920493049123,-3,-2,-3,0,3,14,8,-2
1537920493051118,0,-1,0,-1,-4,-26,-26,3
1537920493051118,-10,-2,0,0,-3,6,34,-7
1537920493064084,5,-2,-3,-2,-1,7,-13,12
1537920493064084,-8,-1,0,2,2,-9,-5,-18
1537920493071065,1,-2,-3,-5,-7,2,27,-1
1537920493071065,-2,-1,0,0,-4,-13,-47,-12
1537920493087022,1,2,3,4,11,-6,61,12
1537920493087022,-2,-2,-3,-4,-11,2,1,10
1537920493088020,-2,-1,1,1,0,-8,-6,-8
1537920493088020,2,0,-2,0,6,5,4,0
1537920493109961,-1,-3,-1,-3,-2,-2,-8,-10
1537920493109961,-3,1,-2,-1,-4,9,2,0
1537920493110958,-4,-2,0,1,1,-5,18,-1
1537920493110958,3,2,1,1,5,8,23,10
1537920493123923,1,2,0,0,-6,-10,-37,13
1537920493123923,-3,-1,-1,-2,-5,1,-3,-11
1537920493130905,2,-2,-2,1,9,-3,-6,9
1537920493130905,-5,-3,-1,0,-12,-7,0,-8
1537920493146862,-2,-2,-2,-2,-3,1,-10,-8
1537920493146862,4,-2,-2,-2,0,8,-1,-4
1537920493148857,1,0,0,0,4,-3,-3,5
1537920493148857,0,-1,-2,-2,3,-2,6,11
1537920493169801,1,-1,-2,-3,-8,-7,4,10
1537920493169801,-3,0,-2,1,-3,1,0,-3
1537920493170798,1,0,0,0,-3,-13,-26,8
1537920493170798,1,1,-1,-1,-2,-2,10,-6
1537920493183764,-5,-3,-2,-1,-2,9,-7,-14
1537920493183764,-2,0,-1,2,5,7,7,-16
1537920493190745,2,-1,1,0,-3,-7,5,14
1537920493190745,0,-4,-1,-3,-2,-35,-2,7
1537920493206702,-4,-2,1,1,-1,4,-33,-12
1537920493206702,2,2,1,1,2,17,-4,-17
1537920493208697,2,0,-4,-3,-2,-4,5,4
1537920493208697,5,0,-1,-2,-6,4,0,11
1537920493229641,1,-2,-2,-3,-3,-24,-4,3
1537920493229641,-1,-1,1,1,1,-11,4,13
1537920493230638,0,-1,-2,-2,0,16,-32,-8
1537920493230638,0,-1,-1,0,2,12,14,-2
1537920493243603,-4,0,0,2,12,20,20,-1
1537920493243603,2,-1,1,0,-5,-9,5,16
1537920493252580,-3,-2,1,-4,-9,-12,-6,-2
1537920493252580,-4,0,-1,-1,-4,2,-8,1
1537920493267540,-7,-3,-1,1,0,-3,-7,-21
1537920493267540,1,1,1,2,10,18,-11,16
1537920493268537,-2,-1,-3,-3,-12,-26,10,1
1537920493268537,-4,-1,0,0,2,8,-4,-6
1537920493289481,3,1,1,4,6,-3,-12,14
1537920493289481,-4,-3,-3,-7,-19,2,24,-4
1537920493291476,0,0,2,2,3,4,4,-14
1537920493291476,5,-1,-2,-3,2,11,5,23
1537920493303444,1,0,-1,-2,-5,-14,-17,-20
1537920493303444,-4,0,-1,0,7,6,19,-10
1537920493312420,-1,-2,-3,-2,-5,2,18,3
1537920493312420,0,-2,0,0,1,-5,-34,-16
1537920493327379,0,-1,0,0,3,13,31,6
1537920493327379,0,-1,-1,-2,-3,-4,-4,4
1537920493328377,-3,1,-1,-1,-7,-14,-19,-2
1537920493328377,-2,0,-1,0,9,13,26,-3
1537920493349321,1,1,-2,-1,1,4,-12,7
1537920493349321,-6,-2,0,2,-3,-5,0,-6
1537920493351316,5,1,-2,0,3,-2,-20,0
1537920493351316,-2,-2,0,-2,-4,-5,-11,2
1537920493363284,3,0,-1,-3,-10,-11,4,0
1537920493363284,0,0,-1,-2,4,11,-1,3
1537920493372260,-6,-2,0,1,-4,-4,10,-13
1537920493372260,-2,0,0,-2,-3,-8,-21,-2
1537920493387220,-2,0,0,0,8,14,13,-3
1537920493387220,-2,-3,-1,-2,-2,-9,-4,7
1537920493388217,-3,-1,-1,-1,-2,2,14,-3
1537920493388217,4,0,1,2,4,1,1,5
1537920493411156,0,0,-1,1,-1,2,-4,-1
1537920493411156,2,0,0,1,5,2,-6,-4
1537920493412153,-3,-1,-1,-1,-8,8,16,-9
1537920493412153,-4,-1,-1,-1,-4,-15,-16,-7
1537920493423124,3,-3,-3,-2,-1,1,16,0
1537920493423124,6,0,-1,-1,2,-6,-22,2
1537920493432100,-1,-4,-2,-1,3,5,1,0
1537920493432100,3,-1,0,0,-1,-5,-8,-12
1537920493447060,-5,0,1,1,0,4,5,-16
1537920493447060,-1,-1,-1,-3,-5,-7,-3,7
1537920493448057,-1,1,1,-1,3,1,0,-1
1537920493448057,-2,-1,0,-2,0,4,-3,-14
1537920493469999,-1,2,1,1,-1,1,-3,23
1537920493469999,-3,-5,-6,-4,-6,-8,-17,-17
1537920493470996,-3,-1,0,3,3,3,-6,13
1537920493470996,-6,-1,0,-2,-3,2,-2,-32
1537920493482964,6,4,2,3,-1,-1,-5,8
1537920493482964,-19,-16,-3,-1,0,-2,-16,-16
1537920493491940,5,6,-3,-1,-1,2,23,-4
1537920493491940,0,-22,-5,-5,-10,-43,-7,4
1537920493506900,-10,0,-2,-1,6,51,-23,-8
1537920493506900,6,2,3,1,-1,7,16,4
1537920493508894,-8,-2,0,1,-2,-58,-25,-9
1537920493508894,0,3,0,2,10,84,39,6
1537920493529838,-2,0,0,3,5,-33,-6,-9
1537920493529838,-2,3,-1,-1,1,-36,-5,17
1537920493530836,5,-6,-2,-2,-1,90,19,6
1537920493530836,-1,4,-1,-1,-6,-59,2,9
1537920493542804,-1,-5,-3,-5,-8,-8,-8,-10
1537920493542804,2,4,2,2,2,34,8,12
1537920493551780,2,1,0,-3,-5,-42,9,-5
1537920493551780,-2,2,0,0,-2,3,-10,7
1537920493566740,-1,-3,-1,-1,2,7,-8,-28
1537920493566740,5,-1,0,0,-1,-23,-2,1
1537920493568735,0,-2,-2,-3,-1,6,-2,6
1537920493568735,1,2,0,0,0,11,-18,-2
1537920493589679,-3,-5,-2,-2,-1,-22,-14,4
1537920493589679,1,2,2,1,5,14,48,-1
1537920493590676,-3,-3,-1,0,2,2,-33,-13
1537920493590676,-6,0,0,-1,5,13,-5,1
1537920493603642,-2,-3,1,-3,-2,-14,23,4
1537920493603642,3,0,-1,-1,-18,-8,-20,20
1537920493619599,-1,1,0,0,3,-1,6,7
1537920493619599,-1,0,-3,0,-4,-9,-10,-7
1537920493626580,-4,-2,-2,-1,-2,12,21,-6
1537920493626580,0,0,0,3,17,8,-4,-12
1537920493628575,2,0,3,4,15,-1,9,19
1537920493628575,2,2,-4,-9,-26,-38,-11,9
1537920493649518,4,2,1,0,-1,13,4,10
1537920493649518,-4,-1,-1,-1,-3,-6,-11,-25
1537920493651513,-2,1,-1,0,8,4,8,6
1537920493651513,1,-1,0,1,1,2,13,6
1537920493663481,2,-2,-1,-1,-4,-9,0,11
1537920493663481,-1,-1,-1,-1,-1,-3,-4,-1
1537920493672457,-4,-3,0,-1,6,-4,-9,-1
1537920493672457,2,-1,-2,-2,1,-6,-29,-17
1537920493687417,6,1,-1,0,-8,12,36,24
1537920493687417,-2,1,0,-2,-2,-4,5,-7
1537920493688415,1,-1,-2,-3,-8,-3,5,-2
1537920493688415,-4,-2,-1,1,5,-5,-14,-15
1537920493709359,-4,-1,-1,-2,0,-17,-6,-13
1537920493709359,10,0,-3,-4,-4,12,-14,0
1537920493711353,-5,-1,-1,1,1,-7,-1,-4
1537920493711353,-3,1,3,2,1,-29,4,-15
1537920493732297,-6,0,0,0,12,78,11,-14
1537920493732297,4,-3,-5,-7,-18,-8,22,24
1537920493738281,-3,-1,0,-2,-6,-6,-13,-16
1537920493738281,0,-1,2,1,3,6,7,10
1537920493747258,-1,1,1,-1,-4,-26,-15,1
1537920493747258,-7,-2,0,-1,8,-7,-11,-11
1537920493748255,5,0,-1,-1,-1,19,16,2
1537920493748255,4,-1,-2,-1,-2,-3,11,5
1537920493769199,1,-2,-1,-1,-2,-25,-25,3
1537920493769199,-2,0,1,3,3,8,7,8
1537920493771194,5,-3,-2,-3,-12,-16,-3,4
1537920493771194,-5,-1,0,2,10,28,8,0
1537920493792137,2,0,0,1,4,-5,15,0
1537920493792137,0,0,-3,-1,-4,-7,-13,1
1537920493793134,-4,0,-2,-5,-9,-9,-30,-22
1537920493793134,3,0,0,-2,-6,13,46,-1
1537920493807097,-2,-3,-3,-1,0,-3,-33,6
1537920493807097,-8,-2,2,3,10,13,23,-9
1537920493808095,5,-1,-2,-4,-6,-1,13,11
1537920493808095,-1,-1,-2,1,6,2,-2,19
1537920493830036,-2,1,1,-3,-11,-15,7,-9
1537920493830036,-1,-2,-3,-2,-2,7,-10,11
1537920493831033,-2,-2,0,2,1,0,-18,-18
1537920493831033,-2,-2,-2,-4,-7,-30,-4,-6
1537920493851977,1,0,0,3,6,48,-17,22
1537920493851977,-2,0,0,-1,1,0,17,-4
1537920493853973,1,-1,-1,-1,-7,-12,7,22
1537920493853973,-3,0,-2,-1,6,14,-11,-1
1537920493866938,1,-1,-3,-1,-2,-31,-1,7
1537920493866938,0,1,0,0,-1,-6,-22,-2
1537920493872922,-1,-1,1,2,3,14,-6,-6
1537920493872922,-4,-1,0,-2,6,9,-4,-14
1537920493896859,0,-1,-2,-4,-18,-25,-2,-4
1537920493896859,-2,0,2,0,3,-5,-7,3
1537920493898853,-3,-2,2,2,8,2,-5,-4
1537920493898853,-3,0,-2,-3,-19,-1,-7,3
1537920493911818,1,-2,-1,0,5,7,6,0
1537920493911818,4,-1,-2,-1,0,-12,2,0
1537920493913813,-6,-1,0,0,-4,-6,-15,-15
1537920493913813,2,1,0,1,2,13,-8,4
1537920493926778,0,0,-1,0,1,-7,8,-5
1537920493926778,-7,0,-2,-2,-3,-4,3,-34
1537920493932762,1,2,-1,1,6,4,-4,0
1537920493932762,0,-3,-1,-1,-3,3,6,3
1537920493949717,-3,-3,-2,-1,-3,-14,1,-10
1537920493949717,-1,0,0,0,2,0,-26,-1
1537920493950715,2,1,-2,-2,2,3,28,4
1537920493950715,-1,-1,0,-1,0,-16,-5,-9
1537920493971659,2,2,1,1,-2,39,-5,-2
1537920493971659,-1,-2,0,-2,-5,-9,-10,8
1537920493973654,-7,-2,0,0,-2,1,14,-7
1537920493973654,3,-2,-2,-3,-1,-19,-34,13
1537920493986619,-4,-2,0,-1,7,-1,45,-14
1537920493986619,3,-1,0,-1,-4,6,7,15
1537920493993600,-9,0,1,1,1,2,-2,-17
1537920493993600,2,-3,-2,0,-2,-8,-13,5
1537920494009557,-1,-3,-1,-1,0,-10,-10,8
1537920494009557,1,0,-1,0,-5,4,2,-5
1537920494011555,-3,-1,-3,-2,-3,-6,-9,7
1537920494011555,-2,0,1,2,2,17,12,-2
1537920494032496,-1,-1,-1,-3,-1,-4,-3,3
1537920494032496,-1,-2,-2,-1,-2,-34,-56,-6
1537920494033494,2,-2,-1,-3,0,31,30,-17
1537920494033494,3,0,-8,-1,-4,5,4,13
1537920494046459,6,5,10,0,-5,-47,-40,-3
1537920494046459,-1,-10,-2,7,14,48,98,18
1537920494053442,-11,-6,4,-8,-20,-36,-45,-25
1537920494053442,1,1,-5,-6,-5,-6,-60,-2
1537920494069399,4,4,6,6,8,20,77,7
1537920494069399,-10,-5,-20,-13,-15,-61,-85,-28
1537920494071393,19,9,12,15,24,63,127,46
1537920494071393,-7,-4,8,0,-13,0,-17,-5
1537920494092337,-4,-5,-17,-4,5,0,-37,-6
1537920494092337,-2,2,8,6,4,-16,-16,-16
1537920494093334,-4,-7,-16,-18,-31,-7,-59,4
1537920494093334,1,2,-7,-9,2,0,22,-7
1537920494105303,-1,0,10,3,-3,12,-13,-3
1537920494105303,-3,-1,33,0,-7,4,2,-4
1537920494114278,2,-2,-67,-5,-2,-29,-12,12
1537920494114278,2,-2,-5,-8,2,4,32,5
1537920494129237,-3,-5,-5,-5,-22,0,-5,1
1537920494129237,0,4,-9,0,17,19,7,0
1537920494131231,-2,0,60,24,0,5,-13,1
1537920494131231,0,7,24,2,14,5,12,-2
1537920494152175,-3,6,-5,-7,4,-14,-16,-6
1537920494152175,3,2,42,16,-7,21,20,11
1537920494153173,-2,-7,-41,-29,-2,-6,-19,-2
1537920494153173,-3,-4,-23,14,6,1,9,0
1537920494166138,2,-2,-29,3,8,-2,-1,7
1537920494166138,1,5,16,-1,0,9,12,1
1537920494175114,-3,1,21,11,2,-13,-11,-9
1537920494175114,1,-3,3,-15,-7,4,11,4
1537920494190074,-4,-2,3,4,-7,-9,-9,-5
1537920494190074,2,-2,-23,-20,-4,3,-5,0
1537920494191075,-1,-2,-10,3,-11,-16,-13,0
1537920494191075,-4,1,9,8,10,9,11,-11
1537920494212016,-2,-3,4,-7,-9,-7,-16,-2
1537920494212016,1,-3,-29,4,-8,4,12,7
1537920494214011,3,3,12,-5,15,5,3,4
1537920494214011,2,5,20,12,3,6,8,3
1537920494225979,-4,-4,-9,-1,5,0,7,-8
1537920494225979,0,-4,-6,-4,-6,-4,-7,-11
1537920494234956,3,4,13,3,2,-6,2,21
1537920494234956,3,-3,-3,1,-6,-8,-14,16
1537920494249916,-2,-4,-1,-5,-1,28,32,-15
1537920494249916,-2,-3,-19,-3,1,-27,-13,-29
1537920494250913,1,2,17,5,-1,-8,-39,15
1537920494250913,-4,-6,-27,-11,-9,1,38,8
1537920494271856,-7,5,18,7,4,5,-16,-16
1537920494271856,6,-7,-31,-10,-7,3,7,3
1537920494273852,0,1,35,-3,-3,-2,13,-4
1537920494273852,-6,-4,5,2,-2,-11,-17,-5
1537920494285820,-2,-1,15,-5,-4,4,-1,4
1537920494285820,-2,5,29,11,7,11,7,13
1537920494294796,-3,-5,-43,-8,2,8,-27,-27
1537920494294796,-2,-4,-6,-6,5,-9,23,-2
1537920494309755,5,0,8,4,3,4,-2,7
1537920494309755,-1,-2,-9,0,-5,-6,-13,13
1537920494310752,2,-2,-2,-9,-10,-7,-5,11
1537920494310752,-7,-1,-3,2,-5,1,-11,-41
1537920494331696,5,0,-2,5,6,-8,36,34
1537920494331696,-2,3,6,1,-2,7,-2,-1
1537920494333690,-5,-4,-12,-4,6,10,12,8
1537920494333690,-5,-1,5,-2,-7,-11,-35,-7
1537920494345658,4,-4,-11,-6,-11,-11,-13,11
1537920494345658,-2,0,4,4,7,15,2,8
1537920494354634,0,-1,1,1,-2,-14,12,-6
1537920494354634,2,4,6,12,18,16,26,2
1537920494369594,-3,-4,-8,-8,-5,-4,-22,-4
1537920494369594,-2,-1,2,0,5,5,7,-11
1537920494370591,0,-3,-14,-2,-1,-4,-29,-13
1537920494370591,0,0,0,-4,-4,4,12,6
1537920494391535,2,-1,-1,3,7,-8,-7,4
1537920494391535,5,3,7,-8,-13,-19,-28,-4
1537920494393530,-4,-2,5,7,8,14,19,-4
1537920494393530,0,-3,-10,-6,-3,5,-8,-6
1537920494405498,-6,0,8,-1,-23,-16,19,-4
1537920494405498,-8,2,-4,9,17,15,-3,-2
1537920494414475,-1,4,5,9,-5,-9,8,-2
1537920494414475,10,22,-10,5,6,7,7,9
1537920494429434,1,-16,59,2,9,13,-4,-10
1537920494429434,-7,18,21,19,4,-14,-6,-21
1537920494435418,-10,3,95,21,2,14,69,26
1537920494435418,20,-30,-95,-77,-22,-14,-33,-8
1537920494452374,-19,7,12,17,10,24,62,-44
