timestamp,emg1,emg2,emg3,emg4,emg5,emg6,emg7,emg8
1537905363857003,-3,-12,-2,2,4,1,0,-4
1537905363857003,2,1,-4,-9,-10,-6,-1,0
1537905363858000,0,5,-2,-1,-2,0,-1,3
1537905363858000,0,-5,0,-1,0,0,0,-1
1537905363858000,-3,-4,-1,1,2,-1,-2,-2
1537905363858000,0,7,-2,-1,1,0,0,2
1537905363861989,-1,-1,-1,0,0,-1,0,-1
1537905363861989,-3,-7,-2,-2,0,-2,0,-2
1537905363868971,-2,0,1,1,-1,0,0,-3
1537905363868971,1,1,0,-2,-3,-1,-3,-2
1537905363886923,-1,7,1,1,-2,-2,1,-2
1537905363886923,-5,-6,-22,3,6,1,-1,-3
1537905363888918,1,7,6,-19,-7,-4,-2,0
1537905363888918,1,-2,17,3,8,4,0,1
1537905363890912,-5,4,28,-14,7,1,1,-6
1537905363890912,-2,-2,-25,5,-26,-9,-5,-3
1537905363907867,1,-3,-51,-37,-2,-2,0,2
1537905363907867,0,0,-22,-66,-23,-5,-1,1
1537905363920832,-2,-1,93,33,26,13,4,-3
1537905363920832,1,-3,-83,27,-5,1,2,4
1537905363932800,2,16,53,-39,8,8,2,0
1537905363932800,-11,-23,57,90,20,1,5,-4
1537905363944768,13,19,-18,-64,-36,-14,-6,7
1537905363944768,2,7,59,42,62,19,-1,-1
1537905363992640,7,1,-102,-73,-28,-10,-9,3
1537905363992640,-3,-13,69,-21,-20,2,-3,-3
1537905363993638,14,16,74,28,42,17,10,13
1537905363993638,2,-3,43,25,-4,-3,-4,5
1537905363997627,-14,-12,57,14,6,-2,-4,-13
1537905363997627,2,0,-98,34,43,12,4,4
1537905363999622,-3,2,-81,-106,-92,-27,-12,-8
1537905363999622,0,-3,4,0,8,9,5,1
1537905363999622,-3,-17,-6,-40,5,4,2,3
1537905363999622,3,21,-1,33,16,2,2,5
1537905364004608,-10,1,36,37,27,6,-1,-4
1537905364004608,-4,10,-30,-4,-4,-7,-2,-5
1537905364010592,-5,13,0,22,-9,-3,-1,-5
1537905364010592,-3,6,7,-22,-7,-3,-2,-3
1537905364027547,1,-1,-5,22,9,1,1,0
1537905364027547,0,6,5,-16,-13,-4,-4,-3
1537905364033531,5,5,1,15,8,4,3,5
1537905364033531,3,-12,15,4,-4,-4,-1,2
1537905364056470,-2,-22,-8,-5,-7,-5,-2,0
1537905364056470,-1,-21,-18,-2,2,1,0,-2
1537905364057467,2,-20,15,14,1,1,0,2
1537905364057467,-1,-29,-9,-6,-11,-4,-2,-3
1537905364079408,-6,-13,-12,7,1,-1,-2,-4
1537905364079408,-1,1,-3,-6,2,2,0,1
1537905364079408,1,12,9,18,4,1,1,0
1537905364079408,-2,11,6,-11,-14,-5,-3,-2
1537905364095366,-2,14,-6,2,8,5,4,-12
1537905364095366,3,8,7,8,5,3,0,31
1537905364096363,-13,8,9,4,0,-7,-15,-45
1537905364096363,5,3,-7,-6,-7,-5,-4,11
1537905364124288,-4,0,1,5,3,-1,-5,-27
1537905364124288,2,1,-12,-6,-6,-2,1,-3
1537905364125286,1,-2,1,8,4,3,7,9
1537905364125286,-7,-1,3,0,4,-2,-1,-2
1537905364131269,1,-2,-2,4,1,-3,-2,11
1537905364131269,-1,-2,-1,-8,-7,-4,2,-2
1537905364138251,0,-1,-1,5,6,2,2,13
1537905364138251,-2,5,4,-2,-2,0,-3,-6
1537905364154208,3,4,1,0,0,0,1,12
1537905364154208,-3,-1,-1,2,3,0,-3,-9
1537905364155205,2,5,20,8,6,1,3,7
1537905364155205,-7,-3,-7,-27,-10,-3,-1,-9
1537905364176150,2,2,-44,-8,-19,-7,-2,4
1537905364176150,3,9,22,16,0,-4,-2,-3
1537905364177147,2,-2,-4,0,-1,1,0,3
1537905364177147,-2,-2,22,3,8,3,2,-2
1537905364192107,-1,-11,-1,0,1,-3,-2,5
1537905364192107,0,-4,-14,-8,0,-2,-2,-6
1537905364198091,2,0,2,1,-8,-4,0,3
1537905364198091,-1,-1,-9,0,0,-1,1,-1
1537905364214049,-4,-1,8,2,7,3,0,-2
1537905364214049,-1,-1,-8,-15,4,0,-1,-5
1537905364215047,-1,5,7,20,-3,-3,0,-1
1537905364215047,0,5,-7,2,-5,-2,-1,1
1537905364236987,0,3,3,2,3,1,1,0
1537905364236987,-3,2,15,1,2,3,-1,-3
1537905364236987,0,7,7,-14,-1,-1,-1,-1
1537905364236987,1,-1,-37,3,0,0,0,0
1537905364251948,-3,4,4,-7,-2,-2,-1,2
1537905364251948,-2,5,11,16,4,2,0,-1
1537905364251948,1,0,15,-13,20,7,3,2
1537905364251948,-3,0,35,38,-13,-6,1,-7
1537905364273889,0,-12,-82,-3,-5,-10,-8,0
1537905364273889,4,4,17,-4,-5,-1,1,1
1537905364274886,1,-8,-5,0,-6,-1,-2,2
1537905364274886,1,-2,16,6,19,6,1,1
1537905364296827,-6,-11,17,-1,6,3,2,-3
1537905364296827,-3,-9,-12,-5,-12,-8,-3,-6
1537905364296827,0,-1,-11,10,7,2,1,1
1537905364296827,0,-2,-3,-17,-7,-2,-3,0
1537905364311787,0,4,20,1,-2,1,-1,-2
1537905364311787,-1,-1,-11,-2,3,0,0,-3
1537905364311787,-2,3,-1,-5,-7,0,-1,1
1537905364311787,-1,0,-7,-8,-5,-3,-1,0
1537905364335723,0,4,18,1,-3,0,-1,0
1537905364335723,-3,3,-14,9,9,5,1,0
1537905364335723,0,0,-6,-3,-7,-3,-1,0
1537905364335723,-1,1,40,-7,-9,-4,0,-1
1537905364356667,-6,1,13,-4,1,1,-1,-8
1537905364356667,8,-1,-7,-10,28,13,8,12
1537905364357665,-14,-37,-109,-13,-56,-29,-16,-13
1537905364357665,3,8,53,27,16,3,-2,3
1537905364372625,11,6,-43,18,25,15,9,11
1537905364372625,-19,-3,87,8,-35,-17,-12,-21
1537905364373623,9,22,-48,6,11,2,2,8
1537905364373623,-6,-57,-111,31,1,-3,-1,3
1537905364402545,-14,-25,36,-8,10,0,-6,-8
1537905364402545,9,8,103,-71,-73,-20,-8,7
1537905364402545,10,20,33,15,44,18,6,9
1537905364402545,-14,12,83,-47,-50,-16,-11,-20
1537905364424487,6,5,-88,56,59,18,9,0
1537905364424487,-19,-49,-128,-80,-14,-6,-6,-13
1537905364425485,7,24,1,39,12,9,3,5
1537905364425485,4,-2,-4,-32,-23,-7,-5,3
1537905364430470,12,20,55,-13,-2,2,1,11
1537905364430470,4,13,20,124,45,11,3,5
1537905364438449,-19,-18,-82,-114,-22,-5,-5,-18
1537905364438449,9,42,23,27,-8,2,7,3
1537905364454407,4,-21,2,-7,-24,-5,1,11
1537905364454407,5,14,30,-14,7,-1,0,1
1537905364454407,1,-12,118,93,39,11,2,6
1537905364454407,-5,-16,-49,-57,10,3,3,-4
1537905364476349,-4,7,17,-19,-32,-16,-5,-8
1537905364476349,4,-11,-36,-13,9,3,3,4
1537905364477346,-2,-12,19,10,-9,-4,-1,-4
1537905364477346,0,-7,-26,4,5,0,0,-1
1537905364491308,0,-12,-19,-13,-11,-3,-2,-2
1537905364491308,0,-7,-21,29,22,6,1,-1
1537905364498289,-2,1,32,11,-17,-6,-1,-3
1537905364498289,3,9,-47,4,6,0,1,3
1537905364514246,-1,7,14,0,4,2,1,1
1537905364514246,-2,6,10,2,-3,-3,0,-3
1537905364514246,-1,7,6,-22,-7,-2,-2,0
1537905364514246,2,2,-1,2,14,4,2,3
1537905364536188,-4,3,20,11,-7,-3,-3,-4
1537905364536188,0,5,-22,0,2,-1,-3,-1
1537905364537186,-1,-5,-2,-14,-1,1,1,2
1537905364537186,2,0,5,13,7,0,0,3
1537905364551148,-3,2,13,-9,-9,-5,-2,-3
1537905364551148,0,1,-5,-5,-4,-1,-1,0
1537905364558129,-1,-4,-3,-4,2,0,0,-1
1537905364558129,0,1,13,-3,-5,-1,-1,1
1537905364575084,-3,6,17,-4,-4,-5,-1,-4
1537905364575084,0,-2,-26,3,5,3,-1,-2
1537905364576083,-1,2,7,2,-5,-5,0,-1
1537905364576083,-2,3,-2,0,4,1,-2,-1
1537905364597029,1,2,1,-5,-2,0,-1,1
1537905364597029,-3,-1,2,-2,1,0,-1,-3
1537905364597029,1,2,2,-1,-3,-3,-1,0
1537905364597029,0,3,4,0,4,2,-2,-1
1537905364611986,-2,-2,2,-3,4,1,-1,-1
1537905364611986,0,0,17,2,-16,-6,-1,-2
1537905364617971,1,-3,-36,-17,-6,-3,-3,-2
1537905364617971,-2,-10,2,-9,7,3,1,-1
1537905364633927,3,13,22,9,-6,-4,-2,2
1537905364633927,-2,-5,-10,1,7,4,2,-2
1537905364641908,0,-3,8,-13,-8,-3,-2,1
1537905364641908,-3,-3,17,15,4,3,0,-2
1537905364656865,-2,-7,-41,-25,-17,-4,-3,-2
1537905364656865,2,2,15,7,-4,-5,1,2
1537905364656865,0,-1,10,0,0,-1,-2,-1
1537905364656865,0,0,-12,0,6,1,1,-1
1537905364670828,1,-2,5,-5,-1,-2,-1,-1
1537905364670828,0,-1,-4,4,5,2,1,-2
1537905364677809,-2,-2,-1,0,-7,-2,-1,-2
1537905364677809,2,0,-11,3,1,-2,0,0
1537905364701745,-2,-1,9,3,-3,-1,-2,-3
1537905364701745,-6,-7,-5,-12,3,2,0,-4
1537905364702742,-1,3,18,-19,-8,-4,-1,-3
1537905364702742,2,1,-49,23,4,1,-1,4
1537905364716705,4,7,29,2,0,2,2,3
1537905364716705,1,-1,-58,-6,-2,-2,-1,4
1537905364716705,-6,-11,-19,-13,4,2,0,-5
1537905364716705,-7,10,94,-12,1,-4,-2,-9
1537905364730667,-4,-6,-96,-23,-29,-8,-4,-4
1537905364730667,0,-21,37,17,9,-1,-1,3
1537905364738646,13,12,-125,-4,-10,-1,1,15
1537905364738646,-7,-17,109,8,5,-1,-4,-1
1537905364753606,1,6,-13,5,-5,-2,1,3
1537905364753606,-10,-19,-75,-37,-8,-3,-4,-11
1537905364754604,-10,12,63,-3,18,8,1,-11
1537905364754604,2,-8,-86,16,-6,-3,3,0
1537905364784523,18,35,9,39,49,14,3,16
1537905364784523,-1,-11,-7,9,-15,-5,2,-3
1537905364785521,10,13,46,34,-24,-11,-5,10
1537905364785521,-13,-22,18,-36,-5,4,2,-8
1537905364790507,-16,-16,-49,-76,-49,-17,-9,-15
1537905364790507,22,22,60,12,-2,6,8,24
1537905364798486,2,-8,-1,0,22,6,-1,4
1537905364798486,-3,17,51,1,5,-6,-7,-8
1537905364814443,-6,-37,-39,19,12,1,2,-2
1537905364814443,-9,14,-42,17,-8,-10,-11,-11
1537905364814443,-8,-10,-38,5,1,3,5,-7
1537905364814443,12,9,-124,-42,-20,-2,3,13
1537905364836385,11,47,113,7,4,7,5,6
1537905364836385,-9,-20,-35,-29,1,0,-1,-8
1537905364837382,3,5,34,-1,14,1,0,2
1537905364837382,-4,1,-3,42,7,1,-2,-4
1537905364852342,-8,-20,17,-18,0,-4,0,-4
1537905364852342,11,32,62,15,24,9,2,9
1537905364858326,-3,-20,-27,-31,-31,-11,-4,-5
1537905364858326,2,3,-89,-18,15,6,3,1
1537905364874284,-3,-12,27,86,6,0,-1,-3
1537905364874284,-2,6,81,-7,-13,-7,-4,-5
1537905364874284,-12,-35,-39,-56,-2,2,1,-8
1537905364874284,13,18,-30,61,20,9,4,12
1537905364896225,3,-2,21,17,15,4,0,3
1537905364896225,-4,-1,9,-10,-6,-5,-3,-4
1537905364897224,-2,5,12,17,-3,-2,-2,-3
1537905364897224,-1,-2,30,-7,-9,-5,-3,-1
1537905364919165,-3,-1,9,-1,-3,0,-1,-4
1537905364919165,-1,3,-44,0,0,4,0,1
1537905364920163,-1,3,16,8,0,-2,-2,-2
1537905364920163,-1,-2,21,-3,-4,-3,-2,0
1537905364934125,-2,-3,-20,-22,-2,-4,-3,-2
1537905364934125,-3,-7,-16,-4,0,0,0,-2
1537905364935124,2,6,11,32,13,2,1,0
1537905364935124,2,-3,23,-18,-12,-7,-2,-1
1537905364956067,-2,-6,-18,-11,-4,0,-1,-1
1537905364956067,1,0,-3,9,1,0,1,-1
1537905364964045,3,9,18,0,6,3,2,1
1537905364964045,-2,-1,2,3,-8,-4,-4,-4
1537905364979005,-4,1,0,-10,-2,-2,-4,-3
1537905364979005,0,1,-3,11,9,4,-1,-2
1537905364980004,-1,3,3,-5,-2,-1,-2,2
1537905364980004,-5,-3,37,-6,-2,-1,0,-4
1537905365001944,3,3,-40,8,2,-1,-2,3
1537905365001944,-1,-2,4,-4,1,-1,0,0
1537905365002942,-2,-1,4,8,0,0,0,0
1537905365002942,-1,0,10,-21,-1,0,-1,-1
1537905365015907,0,-3,18,13,-2,-3,-3,0
1537905365015907,0,-1,-20,-13,-7,-1,0,0
1537905365023886,1,-1,3,7,3,0,-2,-2
1537905365023886,0,0,-3,-5,-6,-2,1,-1
1537905365038844,-3,-1,2,-2,9,4,0,-4
1537905365038844,0,0,-9,-9,-9,-5,-2,-1
1537905365039842,0,1,9,20,8,2,0,1
1537905365039842,-3,-1,-17,-14,-11,-2,-1,-1
1537905365061782,1,-2,-18,-3,-1,-3,0,1
1537905365061782,-4,2,12,10,5,2,0,-1
1537905365062780,-3,0,14,-5,-6,-3,1,-1
1537905365062780,-3,1,5,15,7,1,-2,-4
1537905365075745,1,-6,-26,-24,-13,-4,0,-1
1537905365075745,4,5,-17,-14,3,3,2,4
1537905365083723,1,-2,3,28,-1,-2,-2,0
1537905365083723,1,-1,21,0,2,-1,0,3
1537905365098683,-5,-3,14,-1,3,1,-1,-3
1537905365098683,-3,-4,4,-1,-1,-1,-3,-2
1537905365099681,1,1,-13,-13,0,0,0,0
1537905365099681,-1,-4,-8,-9,-8,-3,-3,0
1537905365121622,-1,2,-11,8,3,1,-1,0
1537905365121622,2,9,16,-1,-8,-4,-2,2
1537905365128603,-2,2,1,-3,-2,-2,-2,0
1537905365128603,-1,-4,-7,-1,-3,-1,-2,-3
1537905365135585,0,0,-8,-8,-4,-4,-2,-4
1537905365135585,-2,-1,-1,11,8,3,0,-2
1537905365143564,0,2,0,-5,-5,-4,-2,-1
1537905365143564,0,0,-8,-5,-7,-2,-2,-2
1537905365167500,-1,-1,1,-9,1,0,0,1
1537905365167500,-3,-3,22,9,2,0,-2,-2
1537905365167500,2,1,5,-3,-3,-1,0,0
1537905365167500,0,-3,-14,-1,0,-1,1,1
1537905365182461,1,1,14,1,-5,-2,-1,2
1537905365182461,-2,-8,-11,4,0,-3,-1,-1
1537905365182461,-1,-4,-9,-2,1,1,0,-2
1537905365182461,0,4,38,7,-1,-4,0,0
1537905365206397,-2,-10,-29,-6,-4,-1,-2,-2
1537905365206397,-1,-2,0,-3,-1,-2,-1,-2
1537905365208391,-1,-5,-9,-6,2,3,1,0
1537905365208391,-2,1,0,-5,-8,-2,0,-3
1537905365211384,-3,-1,21,11,3,-1,-1,-1
1537905365211384,0,-3,-10,-3,0,-1,-2,0
1537905365220359,0,1,-17,4,-5,-1,-2,1
1537905365220359,-4,-7,-6,0,6,1,1,-1
1537905365234322,-3,14,54,-2,-8,-2,0,-4
1537905365234322,2,-3,-58,-5,3,2,1,3
1537905365234322,0,-1,30,-2,1,0,0,0
1537905365234322,4,5,-14,-3,1,0,-1,2
1537905365256265,-2,4,15,-3,8,4,1,-2
1537905365256265,-4,-3,-32,-1,-9,-9,-6,-5
1537905365257262,1,-7,22,-26,3,2,1,-2
1537905365257262,-1,13,67,40,-23,-6,-4,-1
1537905365272220,6,0,-104,-8,22,7,3,8
1537905365272220,-2,-21,75,21,31,10,5,5
1537905365278204,0,8,-68,2,-28,-13,-9,-2
1537905365278204,-1,-20,24,27,37,11,3,1
1537905365294162,-6,9,-5,-6,-55,-17,-8,-8
1537905365294162,0,23,116,26,16,8,2,-8
1537905365295159,16,5,-10,-11,18,8,6,18
1537905365295159,2,-13,-52,-31,22,5,-1,4
1537905365308124,-4,7,62,23,-12,-4,-2,-4
1537905365308124,4,8,40,41,-24,-12,-6,-1
1537905365316102,0,-18,-61,11,10,0,-1,-1
1537905365316102,4,18,50,21,-2,-4,-5,1
1537905365339041,0,-6,-25,-34,12,-1,2,2
1537905365339041,-7,3,12,-32,0,0,-1,-8
1537905365340040,-6,16,31,22,-14,-7,-7,-10
1537905365340040,14,22,-12,11,12,7,6,13
1537905365354002,-7,-17,44,-7,-4,-5,-5,-6
1537905365354002,4,10,-46,-34,-2,2,2,3
1537905365354999,-7,-4,4,32,5,-4,-2,-3
1537905365354999,-8,-8,-54,-45,-19,-7,-6,-11
1537905365367964,4,7,106,22,24,7,2,1
1537905365367964,1,-9,-79,-21,-14,-7,-3,0
1537905365383922,-2,-9,41,35,18,8,3,-1
1537905365383922,-4,-4,22,-36,-23,-10,-4,-6
1537905365390903,3,-14,-57,-4,5,3,2,2
1537905365390903,-3,-18,17,1,-4,-2,-2,-3
1537905365406860,-8,-20,5,-27,-12,-4,-4,-9
1537905365406860,3,-10,-82,-2,-1,3,2,2
1537905365412844,1,-3,29,-9,-4,-3,-3,-2
1537905365412844,-2,-2,-14,-11,-1,1,-2,-1
1537905365421820,-2,10,5,0,4,1,1,-1
1537905365421820,-5,1,-5,-5,-8,-4,-1,-5
1537905365428801,-2,5,-17,10,4,4,1,0
1537905365428801,0,5,-13,4,-2,-3,0,0
1537905365435783,2,10,0,-24,-15,-7,-3,0
1537905365435783,-3,2,11,13,1,2,0,-2
1537905365450742,0,3,-22,-3,4,1,0,1
1537905365450742,-1,5,-6,-2,-7,-4,-2,0
1537905365458721,1,6,13,-13,-6,-1,-1,0
1537905365458721,-1,0,-1,-1,3,-1,-1,0
1537905365473681,1,2,-12,6,1,0,-1,2
1537905365473681,-1,-3,-12,-2,-2,1,1,-1
1537905365481660,0,2,9,-3,0,-1,-1,0
1537905365481660,-2,1,0,7,3,1,-1,-2
1537905365488641,-2,-4,-8,-4,0,0,0,-3
1537905365488641,0,1,-4,1,-5,-1,-1,1
1537905365495622,-1,-1,0,-7,1,1,0,1
1537905365495622,-2,-2,17,5,0,-1,0,-3
1537905365512577,-2,-3,-11,-22,-8,-2,-3,-3
1537905365512577,3,1,-19,3,0,-1,-1,2
1537905365518561,2,4,7,-4,-2,-1,0,1
1537905365518561,0,-2,0,-1,1,0,-2,1
1537905365533521,0,-2,10,-8,6,3,1,0
1537905365533521,3,2,-6,4,-13,-6,-1,4
1537905365541500,1,-1,-8,-5,-2,1,-2,-1
1537905365541500,-1,2,7,-3,-3,-1,-1,0
1537905365548481,1,0,-8,3,2,-2,0,-1
1537905365548481,1,2,2,-5,5,2,0,4
1537905365555463,-1,-1,2,9,2,-1,-1,-3
1537905365555463,-2,2,24,1,1,-2,0,-1
1537905365570424,4,3,-30,17,0,-3,-3,4
1537905365570424,-3,-5,-2,-8,-3,0,-2,-2
1537905365578403,3,6,23,-10,-1,0,0,2
1537905365578403,-5,-6,-10,-23,-10,-3,-3,-7
1537905365594360,3,-4,-44,4,-9,-3,0,3
1537905365594360,2,1,21,1,9,5,2,0
1537905365601341,0,-4,-8,6,-6,-3,-2,-1
1537905365601341,-1,1,7,3,3,0,-1,1
1537905365616302,-2,-3,18,6,9,2,-1,-5
1537905365616302,1,1,-12,0,-12,-7,-2,-1
1537905365617299,-2,2,-6,-11,-1,1,0,-1
1537905365617299,-1,1,17,12,4,-1,-1,-1
1537905365631261,0,0,-40,-10,-7,-4,-1,2
1537905365631261,-2,3,17,14,13,6,1,-1
1537905365638243,-2,2,3,-3,-1,-1,1,-2
1537905365638243,0,3,-12,4,-3,0,0,2
1537905365655196,-2,2,19,3,4,1,-1,-1
1537905365655196,-2,2,-1,-7,-7,-3,-1,-2
1537905365661180,-1,-2,-13,2,-1,-2,-1,-1
1537905365661180,-1,1,-5,-4,0,0,0,1
1537905365685116,-1,0,21,-4,-5,-2,-1,0
1537905365685116,-2,-6,5,10,3,-1,-2,-2
1537905365685116,-1,4,-17,2,-4,0,0,-2
1537905365685116,4,-5,-37,8,8,4,0,3
1537905365691101,-2,-4,29,-1,-4,-1,-1,-2
1537905365691101,0,-4,-5,-7,-5,-1,0,2
1537905365698081,-3,-6,19,6,4,-2,0,-2
1537905365698081,0,-2,15,-5,0,2,0,-3
1537905365713042,2,-8,-27,8,-4,-3,0,0
1537905365713042,-2,-4,8,-7,-1,0,-1,-2
1537905365722017,-1,-4,-13,-3,-4,0,-1,0
1537905365722017,-1,3,11,-1,-4,-4,0,-2
1537905365735980,-3,2,7,-1,2,1,-1,0
1537905365735980,-1,-2,-9,-2,1,1,-2,-1
1537905365736978,-2,-3,3,-3,1,0,-1,1
1537905365736978,1,0,-7,-2,-6,-2,-1,0
1537905365751937,1,-1,4,2,2,1,0,-1
1537905365751937,0,-1,-8,-5,-6,-3,-1,0
1537905365757921,0,-1,-5,-2,1,-1,-2,1
1537905365757921,-1,-3,-6,-1,-3,-2,-1,-2
1537905365772881,-2,1,3,-2,1,-1,0,-1
1537905365772881,-2,-1,-4,-4,1,1,1,-2
1537905365788839,1,4,9,3,1,-1,-1,-3
1537905365788839,3,-1,-8,2,-1,-1,0,0
1537905365796818,0,1,15,-8,-3,0,-1,-2
1537905365796818,-2,0,-33,-13,2,0,0,-3
1537905365796818,0,-7,-30,15,11,2,-2,1
1537905365796818,2,8,14,3,-10,-3,-1,3
1537905365811777,3,-4,-26,-22,-13,-3,-3,-2
1537905365811777,-2,1,43,26,14,2,2,-3
1537905365818759,-3,-8,-52,-49,-18,-5,-3,-3
1537905365818759,-1,-3,-76,50,13,-1,-2,2
1537905365833719,2,14,86,-43,4,3,1,3
1537905365833719,-1,-32,-68,-12,-15,-6,-1,-2
1537905365841697,-4,23,-13,14,-6,-4,-1,-6
1537905365841697,-7,-13,68,-22,-41,-11,-5,-6
1537905365856658,3,-20,-103,-49,12,6,3,5
1537905365856658,-6,9,69,-17,11,-3,-5,-10
1537905365856658,7,2,-49,31,-9,0,2,9
1537905365856658,2,5,-48,87,18,6,0,5
1537905365870621,-3,12,22,18,-1,-2,-1,-1
1537905365870621,3,-6,-27,-14,5,3,2,5
1537905365878599,-4,-5,42,-18,-2,-1,0,-5
1537905365878599,0,18,15,-28,7,2,1,0
1537905365893560,-4,-2,0,17,-1,-4,-2,-4
1537905365893560,1,15,-13,13,-5,-1,0,-2
1537905365901538,-4,9,83,-7,-3,-1,-3,-3
1537905365901538,-2,-16,-43,-33,-1,-1,-1,-1
1537905365916497,-1,-3,-45,14,2,1,0,-1
1537905365916497,0,6,35,0,-10,-3,-2,1
1537905365917495,1,-15,-9,14,7,0,-1,1
1537905365917495,1,-9,16,-23,6,2,0,0
1537905365930460,-1,-9,7,14,-5,-4,-3,-3
1537905365930460,0,-11,-15,4,-1,0,0,2
1537905365939436,-1,-23,-5,-2,5,2,-1,0
1537905365939436,-2,-16,-6,-10,0,0,1,-3
1537905365953399,-2,-11,20,5,-6,-3,-1,-3
1537905365953399,-2,-7,-9,5,-2,0,0,-1
1537905365961378,-2,5,2,-6,3,-1,0,-2
1537905365961378,-1,10,19,-12,-4,-2,-1,-2
1537905365976337,0,10,2,16,2,0,0,-1
1537905365976337,2,11,1,-4,-2,0,-2,2
1537905365977335,0,8,-1,0,3,2,0,0
1537905365977335,2,8,1,-7,-1,-3,-1,1
1537905365999276,1,8,4,5,-1,-1,-3,0
1537905365999276,-2,3,-11,2,-3,-2,-1,0
1537905366000274,-2,2,6,-2,1,0,0,-1
1537905366000274,0,-1,-2,-8,-5,-4,-2,0
1537905366013239,-1,2,5,2,0,-1,0,1
1537905366013239,-1,2,5,-1,-2,-1,0,-1
1537905366021217,0,-2,1,-1,4,1,0,-1
1537905366021217,-1,1,5,3,3,1,-1,-2
1537905366036178,1,11,5,1,-9,-4,-2,1
1537905366036178,-1,-7,-3,2,1,1,-3,1
1537905366037176,0,-1,-4,1,0,2,-1,-1
1537905366037176,-2,5,-16,-12,-3,0,-2,-2
1537905366051138,0,-1,29,13,12,2,0,0
1537905366051138,2,3,-34,-8,-22,-5,-2,1
1537905366059116,2,-2,7,1,2,-1,0,2
1537905366059116,-1,-1,1,0,5,1,1,-1
1537905366073079,-1,-2,-3,6,1,1,-1,-3
1537905366073079,-1,-2,17,-7,3,-1,1,0
1537905366089037,0,0,-12,0,-3,-4,-2,0
1537905366089037,-1,0,-7,0,0,-2,0,-2
1537905366104994,-5,-4,-7,1,3,0,-1,-2
1537905366104994,1,5,18,-7,-1,0,-1,2
1537905366105993,0,2,8,-4,-11,-5,-1,-1
1537905366105993,-2,-12,-34,7,3,-3,-1,-3
1537905366117959,-2,-1,0,-1,-9,-1,-2,-2
1537905366117959,2,3,-9,6,5,1,0,-2
1537905366132919,0,2,24,-2,1,1,-1,0
1537905366132919,-2,0,18,-5,4,4,1,-3
1537905366141895,-3,-8,-9,-4,-5,-1,0,-3
1537905366141895,-3,-4,-26,-5,-10,-7,-5,-3
1537905366147879,6,10,-20,2,5,1,2,5
1537905366147879,-2,-4,31,2,0,-1,-1,-1
1537905366171815,0,-2,-12,-7,3,2,-1,0
1537905366171815,-4,-3,32,0,1,-2,0,-2
1537905366173810,-2,-9,-29,-12,-15,-3,0,-5
1537905366173810,1,4,-7,-10,-4,-1,1,1
1537905366177799,-1,-4,0,-4,-4,-5,0,-2
1537905366177799,1,-2,-22,1,9,3,1,0
1537905366186775,-2,-4,-12,-3,-1,-2,-2,-1
1537905366186775,-2,-1,48,14,9,5,1,-1
1537905366201735,-1,0,-41,-1,-9,-3,-2,-1
1537905366201735,3,1,7,-12,-7,-2,1,2
1537905366208717,0,-3,-3,-2,4,1,1,-1
1537905366208717,1,-4,7,1,2,0,-1,2
1537905366224675,0,3,-37,-7,-1,-4,-3,-2
1537905366224675,-8,-10,15,4,-7,-2,-3,-6
1537905366225672,1,7,20,-8,10,5,3,1
1537905366225672,-4,-16,-47,-23,-19,-9,-5,-3
1537905366247612,5,18,63,62,35,12,4,5
1537905366247612,-1,-8,-67,-44,-45,-18,-6,0
1537905366248610,-7,-8,53,4,-3,-2,-1,-9
1537905366248610,17,17,-115,28,37,14,4,19
1537905366261575,-1,-3,113,55,8,1,1,1
1537905366261575,-6,-17,-102,-29,6,-1,-2,-6
1537905366275537,-1,18,115,66,41,11,-1,-3
1537905366275537,-8,8,36,-87,-98,-38,-12,-11
1537905366284514,-1,-23,-112,55,24,10,2,1
1537905366284514,8,22,33,26,12,3,2,9
1537905366286508,3,-18,13,-28,-12,-4,-2,7
1537905366286508,1,7,22,70,28,8,2,0
1537905366306455,-15,3,116,-67,-3,4,-2,-16
1537905366306455,-9,-6,-92,4,6,-5,-8,-12
1537905366314434,14,39,59,41,-16,-2,6,12
1537905366314434,3,-9,15,38,6,7,1,7
1537905366321415,5,9,-17,-43,-4,-2,0,9
1537905366321415,-9,-10,48,23,9,2,-1,-8
1537905366328396,-5,1,-85,-16,12,3,0,-4
1537905366328396,-4,1,27,6,1,-3,-3,-6
1537905366344354,-5,-9,-22,-20,-19,-9,-3,-8
1537905366344354,4,9,49,3,17,9,4,3
1537905366346349,-2,-10,-23,-1,-12,-7,-2,-2
1537905366346349,-3,-8,-3,-27,-3,1,1,-1
1537905366367293,1,-3,-22,-17,-7,-4,-1,1
1537905366367293,5,7,26,12,4,2,3,4
1537905366368290,-4,-17,-34,-18,-11,-3,-2,-3
1537905366368290,-3,-13,-14,-3,10,3,-1,-4
1537905366381256,3,11,-10,-6,-4,-2,-1,3
1537905366381256,0,-1,41,16,-3,0,0,1
1537905366388238,-5,-11,-31,-12,-7,-4,-3,-3
1537905366388238,-1,6,14,-8,7,3,0,-1
1537905366404193,1,-7,0,2,-9,-3,-2,1
1537905366404193,1,9,13,-5,0,2,1,1
1537905366412173,-2,-4,-19,-11,0,-2,-1,-2
1537905366412173,0,-3,1,-5,0,-3,0,0
1537905366427132,5,7,-3,-4,-8,-1,-2,0
1537905366427132,-2,6,8,5,4,0,0,0
1537905366428130,0,-13,-17,-5,-1,-2,0,0
1537905366428130,-2,4,4,1,-1,-2,-1,-2
1537905366441095,-2,5,-8,-3,-2,-2,-1,-2
1537905366441095,2,9,16,-4,-4,-4,-1,1
1537905366450071,0,9,-1,0,-4,-2,-3,1
1537905366450071,-3,-11,1,-4,2,1,1,-3
1537905366465031,-1,-10,-13,-5,-4,-4,-2,-1
1537905366465031,-1,-2,7,-1,1,3,-1,-1
1537905366466029,1,3,-14,-11,-9,-3,-1,-2
1537905366466029,-5,-21,-25,-4,3,-1,-1,-2
1537905366486973,3,26,30,12,-1,0,0,-2
1537905366486973,-1,-13,-9,6,3,0,0,0
1537905366488969,-3,4,4,4,14,7,1,-2
1537905366488969,0,6,25,-27,-4,-5,0,0
1537905366500938,-4,-13,-70,-7,-25,-13,-6,-5
1537905366500938,3,-14,-4,-6,-14,-2,-1,4
1537905366509913,0,-5,-10,2,3,-1,-1,-1
1537905366509913,1,10,-13,2,11,4,0,3
1537905366524872,-4,-11,26,4,9,3,2,0
1537905366524872,-1,12,4,3,0,0,1,-3
1537905366525869,0,-8,-15,-4,1,-1,0,0
1537905366525869,0,2,15,6,-2,-2,-1,-2
1537905366546813,-1,-6,-8,-9,-4,-3,-1,1
1537905366546813,-4,-4,-7,9,8,4,2,-2
1537905366548807,-2,2,8,-11,-6,-2,-3,-4
1537905366548807,2,12,5,2,6,3,1,2
1537905366560775,-2,0,16,35,6,0,-3,-2
1537905366560775,-3,2,-22,-32,-23,-7,-4,-2
1537905366569751,-3,9,-19,10,2,1,-1,-1
1537905366569751,1,7,4,-3,-7,-2,-1,-1
1537905366584711,1,10,25,-8,13,7,4,4
1537905366584711,-3,1,15,9,12,2,-1,-1
1537905366585709,-1,-5,-7,-5,-8,-3,-1,-1
1537905366585709,0,-5,3,2,-3,1,0,1
1537905366606652,-1,-10,-23,-10,0,-2,-2,-1
1537905366606652,3,-3,14,3,0,-4,0,1
1537905366614631,0,-10,12,-4,-6,-4,-2,0
1537905366614631,-4,-20,-32,-2,19,4,2,-6
1537905366620615,1,-7,29,-24,-43,-12,-3,-2
1537905366620615,4,-13,-20,-9,13,7,3,4
1537905366629592,-9,-22,76,9,-3,-3,-1,-8
1537905366629592,3,-4,-78,9,3,-1,-2,4
1537905366644552,-6,-3,88,-12,15,5,1,-3
1537905366644552,-2,-1,-90,40,-12,-9,-3,-4
1537905366646547,1,8,-4,6,60,18,6,7
1537905366646547,-8,11,34,-68,-100,-35,-15,-15
1537905366667492,1,4,6,4,7,4,-1,1
1537905366667492,-3,-18,-50,50,28,8,5,0
1537905366668490,17,34,-72,-35,-16,-15,-8,12
1537905366668490,5,11,68,100,104,33,12,8
1537905366680457,-22,-29,-13,-84,-42,-20,-7,-21
1537905366680457,26,56,125,18,47,24,11,19
1537905366689432,-12,-26,10,-33,-99,-24,-8,-9
1537905366689432,13,16,-83,-32,3,8,2,16
1537905366705390,9,17,49,70,41,13,4,8
1537905366705390,-13,-15,-14,1,-3,-5,-5,-9
1537905366706388,-7,9,19,-4,10,3,1,-8
1537905366706388,-9,-1,87,7,-21,-8,-5,-13
1537905366727331,1,8,-117,2,6,3,0,3
1537905366727331,-2,8,-28,-19,-11,-5,-1,-3
1537905366728328,2,6,-45,2,8,0,-1,1
1537905366728328,-5,-20,21,18,2,1,1,-1
1537905366741293,7,-1,-42,16,7,1,2,6
1537905366741293,-3,-9,31,-28,-22,-9,-7,-1
1537905366749271,-1,-17,10,7,8,4,2,-2
1537905366749271,-4,-14,-18,-9,-2,-3,-2,-4
1537905366764231,2,-11,-3,-5,-6,-3,1,1
1537905366764231,-3,-23,12,-21,-8,-4,-3,-2
1537905366771213,-5,-29,-2,8,6,1,-1,-3
1537905366771213,2,14,-5,4,-3,-1,0,1
1537905366794151,-1,-2,-5,-1,-1,0,-1,1
1537905366794151,-5,-2,11,-7,-9,-3,0,-5
1537905366796146,2,5,-15,14,9,3,2,1
1537905366796146,-1,7,-2,-10,-8,-4,-3,-2
1537905366801133,-1,-3,2,2,5,4,0,-1
1537905366801133,-4,3,0,-7,-4,-2,-2,-3
1537905366816093,0,5,-1,0,1,1,-1,1
1537905366816093,-1,7,-7,-10,-6,-2,0,2
1537905366832050,0,-10,-2,-2,-2,-1,0,-15
1537905366832050,-1,23,1,1,1,2,13,56
1537905366834045,-4,19,3,2,4,-3,-18,-53
1537905366834045,-5,-15,-16,-11,-10,-6,-2,1
1537905366847010,3,13,9,6,5,2,-1,-4
1537905366847010,1,12,0,-7,-6,-5,-2,-3
1537905366849005,1,-16,-3,3,3,2,5,17
1537905366849005,-4,37,12,5,3,0,2,-5
1537905366869949,2,-14,-11,-5,-2,-2,-6,7
1537905366869949,-12,-78,-1,-10,-7,-5,-4,-11
1537905366870946,3,17,-10,-2,3,2,2,11
1537905366870946,11,31,20,14,0,0,-3,-8
1537905366884909,-5,-11,29,-4,-5,0,3,9
1537905366884909,5,34,-53,-8,4,2,-3,-12
1537905366885906,0,-4,-5,-1,4,-1,1,3
1537905366885906,-9,-94,-17,-8,1,0,1,2
1537905366906850,5,90,9,5,-19,-7,-2,-2
1537905366906850,-3,-75,-17,10,6,5,0,-4
1537905366908845,9,62,31,10,-5,-3,-1,4
1537905366908845,0,-7,22,2,13,4,1,0
1537905366920812,-1,-31,10,-3,-6,-5,-3,2
1537905366920812,-5,-17,52,3,4,2,-2,-14
1537905366936770,2,-5,-91,-28,-16,-3,3,19
1537905366936770,2,-2,7,4,-4,-2,2,5
1537905366944749,-8,-22,-18,-8,3,-1,-6,-33
1537905366944749,-2,38,35,12,0,-1,-2,-6
1537905366945746,0,2,42,7,6,2,0,-10
1537905366945746,-1,5,-54,-3,-6,-2,-1,4
1537905366966690,0,-6,-5,-5,1,1,4,13
1537905366966690,2,10,-6,-13,-2,0,-2,-6
1537905366968685,-5,-4,17,0,-2,1,-1,-3
1537905366968685,1,-2,-16,-2,-1,0,-1,-3
1537905366980653,-1,-2,7,31,7,2,3,17
1537905366980653,1,17,3,-22,-16,-9,-4,-4
1537905366989629,-6,-60,-32,16,13,3,1,2
1537905366989629,6,46,49,-10,-5,0,3,0
1537905367004589,4,0,-23,0,1,-1,-2,2
1537905367004589,-3,-42,18,11,7,3,-1,-2
1537905367010573,0,10,8,-7,-10,-6,-1,2
1537905367010573,-6,-13,1,0,9,1,-1,-10
1537905367027529,-3,-6,-7,-3,2,1,0,-4
1537905367027529,1,18,-9,4,-6,-2,-3,0
1537905367028527,-1,-2,4,0,6,2,-1,-2
1537905367028527,-2,-9,-8,4,1,1,-1,-4
1537905367040495,0,-6,-9,-15,-2,0,-1,2
1537905367040495,0,17,-9,-1,-6,-2,-1,-1
1537905367049470,-5,-2,10,6,1,0,0,-3
1537905367049470,-2,5,5,-9,-6,-4,-2,2
1537905367072409,-2,-6,-12,-2,-3,-2,-1,0
1537905367072409,0,2,-3,1,3,2,1,-6
1537905367073408,-2,-1,10,-5,3,-1,1,1
1537905367073408,0,-7,-6,3,-13,-6,-2,-1
1537905367087370,-1,18,5,-3,2,-2,-1,-2
1537905367087370,0,-41,0,-18,1,3,1,0
1537905367088367,2,19,4,2,-5,-3,-3,2
1537905367088367,-4,-30,-15,6,4,1,-1,0
1537905367101331,-1,2,3,-7,0,-1,0,-1
1537905367101331,2,19,5,8,-7,-4,-3,-3
1537905367110308,-1,-5,20,-3,-2,0,0,1
1537905367110308,1,-3,-11,-4,4,1,-1,-1
1537905367124270,1,2,-2,-1,-1,-1,0,0
1537905367124270,1,24,10,15,3,1,0,1
1537905367148206,-6,-23,-15,-17,-3,-3,-2,-3
1537905367148206,0,21,10,5,0,0,-1,1
1537905367148206,0,-6,-13,-6,-5,-4,-2,1
1537905367148206,0,14,3,-1,1,0,-1,1
1537905367150200,1,-2,1,2,1,0,0,-2
1537905367150200,0,-4,-10,-1,-2,0,0,-1
1537905367161171,2,4,11,3,-1,1,-1,2
1537905367161171,-5,-25,-7,-2,-3,-1,-3,-3
1537905367177128,0,15,-22,2,-1,0,0,-1
1537905367177128,0,-4,18,-8,1,-2,0,2
1537905367192088,-3,-2,0,-2,9,4,2,-3
1537905367192088,0,12,23,27,-12,-8,-2,0
1537905367198072,0,-20,-95,-14,-2,-2,-2,0
1537905367198072,3,14,65,-12,-10,-3,-3,0
1537905367215027,3,10,-7,-9,2,3,1,3
1537905367215027,2,1,13,-4,2,-4,-2,2
1537905367216024,-4,31,49,8,-5,-2,-2,-5
1537905367216024,-9,-37,-57,-6,0,-2,-1,-7
1537905367229987,5,0,-20,6,9,4,-1,3
1537905367229987,-1,-4,-8,-8,1,1,0,0
1537905367230985,-1,10,2,6,-2,2,1,-1
1537905367230985,-2,8,9,-2,-1,-2,-2,-3
1537905367244947,-5,-3,22,8,-3,-1,-2,-4
1537905367244947,1,0,-35,-6,0,0,-1,-1
1537905367245945,2,-14,21,-1,-2,1,0,1
1537905367245945,1,8,-2,3,1,-1,-1,0
1537905367266888,-2,-6,-10,-4,-7,-4,0,-2
1537905367266888,-2,4,-5,-6,2,0,1,0
1537905367268884,2,0,14,-3,0,1,-2,0
1537905367268884,-4,-25,-2,7,-2,-1,1,-4
1537905367289827,-2,21,-22,-5,-3,-3,-3,-2
1537905367289827,-1,-1,2,-9,-2,0,3,-1
1537905367290825,-2,-10,18,3,2,1,0,0
1537905367290825,0,-3,-21,5,1,-2,-1,0
1537905367303790,-3,-4,16,0,5,-1,-1,-2
1537905367303790,-1,7,0,-2,-8,-2,0,-3
1537905367310772,3,-3,-2,1,-3,-4,-1,1
1537905367310772,0,9,-11,-2,0,-1,-1,0
1537905367326729,-5,-43,3,-2,-1,0,-2,-1
1537905367326729,-3,10,2,-1,11,2,1,-4
1537905367328724,-2,-11,-3,-5,-5,-3,-1,-1
1537905367328724,-1,16,2,-4,-1,2,-1,-1
1537905367349667,0,7,7,7,0,-2,0,-1
1537905367349667,-5,-20,-14,-15,-3,-1,-2,-3
1537905367350665,-1,-1,7,11,0,-1,0,-2
1537905367350665,-3,-10,2,-1,2,0,1,1
1537905367363630,0,-2,-17,1,-5,-2,-1,-2
1537905367363630,2,17,34,2,-3,-2,-3,-1
1537905367372605,-6,-12,-44,-17,2,2,1,-3
1537905367372605,4,17,-5,-1,-2,1,-2,1
1537905367387565,-4,-4,22,8,-3,-4,-1,-2
1537905367387565,0,1,4,1,-1,-3,-1,-1
1537905367388564,-2,-3,1,6,4,0,0,-3
1537905367388564,-3,-25,-5,7,5,-1,-3,-3
1537905367408510,-5,8,-22,7,-5,-4,-2,-1
1537905367408510,0,15,27,-31,-13,-4,-2,-3
1537905367432445,0,-9,2,-3,-1,0,-1,0
1537905367432445,-5,-16,-23,-10,-4,-1,-1,-3
1537905367433443,1,2,-6,4,5,-1,0,1
1537905367433443,-2,-1,-6,17,4,1,0,0
1537905367435438,0,-3,2,1,-1,-1,0,-2
1537905367435438,-1,8,16,-2,-3,-2,-1,-2
1537905367446408,-3,-4,0,-9,-3,0,0,-1
1537905367446408,-1,-6,-26,-2,0,-1,0,-1
1537905367453389,-3,-2,17,-2,-3,-1,-2,0
1537905367453389,-2,4,-4,1,-1,1,2,-1
1537905367469347,-2,1,-4,-2,-7,0,-1,-4
1537905367469347,-2,-13,11,10,6,4,1,-1
1537905367475331,1,12,22,1,-5,-3,-1,1
1537905367475331,-3,-13,-37,-5,0,1,0,0
1537905367484308,2,7,4,14,4,-1,-1,-1
1537905367484308,-2,-14,-21,-48,-13,-5,-2,0
1537905367491289,-3,-5,24,16,3,0,-1,-2
1537905367491289,-2,9,8,0,-3,-2,0,-3
1537905367507246,-6,-20,2,-3,-1,1,-1,0
1537905367507246,1,18,-13,21,10,0,3,3
1537905367508244,-1,1,1,-6,0,1,3,0
1537905367508244,-2,-5,-2,-3,0,0,1,-1
1537905367529187,1,-2,6,0,4,1,0,0
1537905367529187,1,4,-26,1,0,-3,-1,-1
1537905367531181,0,3,10,-3,0,1,0,0
1537905367531181,3,7,10,-3,0,0,-2,2
1537905367543150,2,6,-15,4,3,-1,-1,0
1537905367543150,1,-10,-3,-1,-1,0,0,3
1537905367560104,0,-6,-34,2,-1,-2,-1,0
1537905367560104,4,-1,41,14,2,2,-1,2
1537905367567085,-1,4,10,-19,-6,0,1,1
1537905367567085,2,17,1,-1,0,1,0,1
1537905367569079,1,-19,-19,18,4,0,-2,2
1537905367569079,3,16,0,-12,-7,-5,-4,1
1537905367590024,1,13,-33,-16,-6,-2,-2,-2
1537905367590024,-4,-1,20,10,5,0,-1,-5
1537905367591021,5,3,-7,-3,1,0,0,1
1537905367591021,-4,7,22,12,2,1,-2,-1
1537905367602989,-1,-28,14,-2,0,0,0,0
1537905367602989,-1,-6,-30,-1,-2,0,-1,-2
1537905367611965,-1,7,14,-5,-2,-4,-1,-2
1537905367611965,-3,-10,-13,-4,-7,-2,0,-2
1537905367626926,-2,-9,-33,-4,1,1,0,0
1537905367626926,3,19,32,9,2,0,-1,0
1537905367628920,0,-3,27,-3,2,-1,-1,-1
1537905367628920,2,10,-49,-7,2,1,1,1
1537905367649864,0,-16,13,-2,-4,-2,-2,-1
1537905367649864,0,5,-14,5,0,0,-2,-1
1537905367650861,0,10,10,-4,-1,0,-1,-2
1537905367650861,-2,-11,5,-8,-2,-1,-1,0
1537905367662829,-2,-5,10,2,-1,0,0,-1
1537905367662829,3,7,10,-1,-4,-2,0,-1
1537905367671805,-7,-27,-24,-5,-2,-2,-2,-3
1537905367671805,1,-6,-17,-11,5,2,2,1
1537905367694744,1,-1,12,2,-4,0,1,2
1537905367694744,-6,-5,6,-3,-5,-3,-2,-3
1537905367695741,1,-1,-15,-2,5,2,-1,2
1537905367695741,-1,-2,35,4,-7,-2,0,-3
1537905367709704,-2,9,-38,-4,3,-1,-1,-1
1537905367709704,5,11,4,-1,0,0,0,0
1537905367710702,-4,-4,-2,8,-2,-3,0,-2
1537905367710702,-2,0,-9,1,5,0,-2,0
1537905367723666,1,4,26,-3,-1,-1,0,-1
1537905367723666,-5,-18,0,1,-1,0,0,-1
1537905367732643,4,15,-39,-6,-1,0,2,2
1537905367732643,1,-2,15,7,0,-2,-2,2
1537905367754584,0,13,28,1,-2,0,-3,-3
1537905367754584,-3,-16,-49,-6,-2,0,-1,0
1537905367755581,-2,-9,17,1,0,-1,0,-2
1537905367755581,1,12,1,0,-2,0,1,0
1537905367769544,2,45,23,2,-4,-1,-2,-2
1537905367769544,1,-28,30,6,5,2,0,4
1537905367771539,-3,0,0,-8,-3,-2,-1,0
1537905367771539,-1,0,-12,2,-2,-2,-2,-2
1537905367783507,-2,-12,5,-8,1,-2,0,-2
1537905367783507,-1,6,-1,0,-3,-2,-2,-3
1537905367792483,-2,7,5,1,-2,0,-2,-3
1537905367792483,-1,-4,8,0,0,0,0,-1
1537905367807442,-2,-14,-1,7,3,0,-1,-1
1537905367807442,2,21,-5,-12,-3,-2,-1,-1
1537905367808440,1,-9,-30,12,-1,0,0,1
1537905367808440,-3,2,-4,-9,-4,-4,-3,-2
1537905367837363,0,-5,4,0,2,-1,0,2
1537905367837363,-1,-8,-3,-5,-4,-2,0,-1
1537905367838360,-1,9,26,-1,-4,-3,-1,-2
1537905367838360,-2,-6,-7,-1,3,1,1,-4
1537905367843347,1,9,-36,1,-1,0,-1,0
1537905367843347,-1,-8,3,3,3,-1,-1,3
1537905367852323,-1,4,21,-5,-3,-2,-5,-8
1537905367852323,1,2,-16,4,3,1,0,3
1537905367867283,-1,-9,0,-4,-2,-2,0,-2
1537905367867283,-2,-6,16,5,1,0,1,-1
1537905367868280,-4,7,6,-5,-1,1,-1,1
1537905367868280,5,-5,-6,1,-1,-1,-1,-1
1537905367888227,-3,1,-11,-1,-1,-1,0,-2
1537905367888227,2,24,-3,1,-2,-1,-1,-1
1537905367897203,0,-11,8,-2,-1,0,1,2
1537905367897203,-3,10,6,-3,-1,-1,-2,-1
1537905367903187,-1,4,-10,-2,-4,1,1,2
1537905367903187,0,-14,19,2,1,0,-1,-1
1537905367912163,1,5,4,-4,0,1,-1,1
1537905367912163,0,-7,-30,-1,-1,0,-1,0
1537905367927123,-1,-4,38,5,2,2,1,1
1537905367927123,-2,-10,-45,-5,0,-2,-2,0
1537905367928120,0,-2,-12,-4,-1,-2,-3,1
1537905367928120,-4,-10,9,1,-5,-1,-1,-1
1537905367950062,-1,1,9,-3,-1,-1,-2,-2
1537905367950062,-1,-7,6,7,0,-1,1,-1
1537905367951059,0,9,1,-2,-6,-5,-2,-3
1537905367951059,-1,2,-26,-3,2,1,0,0
1537905367963027,1,-5,-4,-1,-3,-2,-2,0
1537905367963027,0,11,3,-12,-1,1,-2,-1
1537905367977987,-4,-16,-1,-7,-2,0,0,-1
1537905367977987,-2,-8,-2,-1,-2,-1,-1,-3
1537905367986963,-2,-10,21,5,-1,-1,1,0
1537905367986963,0,-2,-14,1,3,1,0,0
1537905367988958,0,8,-6,3,-1,0,0,-2
1537905367988958,-2,-4,1,-4,-1,-2,0,-1
1537905368009902,0,1,-2,-5,-2,-2,-1,-1
1537905368009902,-2,-6,-26,-1,-2,-3,0,2
1537905368010899,0,9,-2,-1,1,0,-2,-8
1537905368010899,-3,-2,38,3,-2,-2,-1,-1
1537905368022867,0,0,-13,-3,-1,0,-2,0
1537905368022867,-3,-7,-17,-1,-3,-2,0,-2
1537905368031843,-2,-9,-7,-2,-1,-1,0,0
1537905368031843,4,34,34,2,-1,-1,0,0
1537905368046803,0,-8,-19,-1,0,-2,-2,-2
1537905368046803,-5,-12,5,-6,-3,0,-1,-6
1537905368048797,4,10,-45,5,5,1,0,8
1537905368048797,0,13,16,-2,-1,-1,0,-1
1537905368068744,-3,-20,-4,-5,0,-1,0,0
1537905368068744,2,11,16,8,3,0,-1,-1
1537905368076723,-2,-4,12,-7,-5,-4,-2,-3
1537905368076723,-5,1,-15,1,1,1,0,-1
1537905368083704,0,4,-8,4,-2,0,-1,-1
1537905368083704,-1,-5,-9,-4,-1,-2,-1,-1
1537905368092680,-1,-4,26,3,1,0,-2,-2
1537905368092680,1,-8,-18,-5,-5,-2,-2,-1
1537905368106643,1,15,32,7,3,1,-1,-1
1537905368106643,0,-5,-9,7,-3,-4,-4,0
1537905368108638,-1,-3,13,-2,0,0,0,-1
1537905368108638,0,2,-5,4,0,0,0,0
1537905368129582,-2,-3,-10,-9,0,0,0,-2
1537905368129582,0,1,-14,1,-2,-1,0,-2
1537905368130579,0,5,21,0,0,1,-1,1
1537905368130579,-1,-6,-13,1,-1,-1,-2,-2
1537905368143545,1,-4,-24,-5,0,-1,-1,-1
1537905368143545,-2,-5,30,-5,1,0,1,1
1537905368152520,-2,-5,-25,3,-1,-2,-3,-6
1537905368152520,-3,-16,-20,-4,0,-3,-1,-1
1537905368167480,3,19,48,6,-1,1,1,0
1537905368167480,-1,2,-36,-5,-1,-1,-1,-2
1537905368168477,-1,0,-19,-2,-2,-2,1,3
1537905368168477,-2,-2,25,-3,0,-2,-1,-2
1537905368189421,-1,-3,-22,0,1,-1,-1,-1
1537905368189421,4,-1,17,-1,0,0,-2,0
1537905368191417,-2,-3,-14,-10,-2,0,0,-2
1537905368191417,0,-3,2,7,-1,2,-1,0
1537905368219341,-4,-4,-9,-3,-1,1,-1,-1
1537905368219341,-2,5,22,3,-3,0,-1,-1
1537905368221336,0,1,-4,1,0,0,0,0
1537905368221336,4,3,1,0,4,-2,0,1
1537905368227320,0,-5,7,0,-4,-3,-2,-1
1537905368227320,-1,1,-9,-4,1,1,0,0
1537905368228318,-2,0,11,0,-2,-1,0,-1
1537905368228318,0,-4,8,-17,-6,-1,-1,-1
1537905368249262,1,9,7,6,1,-2,1,0
1537905368249262,-1,5,7,-5,-2,-1,0,-2
1537905368251256,0,-11,-6,6,2,-1,-2,1
1537905368251256,-2,-6,-30,0,2,1,-1,1
1537905368272200,-1,4,32,-5,-4,-3,-3,-1
1537905368272200,-1,-2,-2,1,-1,-2,-1,-1
1537905368273198,1,2,13,2,4,2,0,2
1537905368273198,-1,7,-17,2,-2,1,-1,-3
1537905368286163,-3,-10,-42,-10,-5,-2,-1,-2
1537905368286163,1,0,18,11,3,1,1,0
1537905368293144,3,16,-15,-4,0,-1,0,5
1537905368293144,-3,-15,22,0,0,-1,-3,-7
1537905368310099,0,0,-21,0,1,0,0,2
1537905368310099,0,-5,9,-5,-2,-2,-1,0
1537905368311096,-3,-3,-5,-4,-5,-1,-1,-2
1537905368311096,1,9,-1,3,1,0,1,2
1537905368332040,-1,-8,6,-1,-1,-1,-1,-2
1537905368332040,-3,0,-19,-5,-1,0,0,-2
1537905368334035,-1,-15,-2,-1,-1,0,2,0
1537905368334035,-1,1,12,0,0,-2,-1,1
1537905368346003,0,3,-3,1,-1,-1,-2,-2
1537905368346003,0,-5,4,0,1,0,-3,0
1537905368352984,2,11,-7,-5,-7,-1,-1,-4
1537905368352984,-1,5,24,1,-2,-1,0,-1
1537905368369939,1,-9,-10,-1,1,0,2,0
1537905368369939,-1,-1,-29,-1,-1,0,-1,1
1537905368370937,-1,1,53,-2,1,0,-1,-4
1537905368370937,0,1,-19,6,1,0,-1,1
1537905368391880,0,1,-7,1,-2,1,0,-1
1537905368391880,-1,-5,7,-3,-1,-1,-1,-1
1537905368393875,-2,-1,-5,-5,-2,-1,-3,0
1537905368393875,-2,-1,4,4,1,0,1,-2
1537905368406840,-4,11,-3,-6,1,0,-3,-1
1537905368406840,-3,-23,-4,-12,-7,-3,-2,-2
1537905368414819,-1,1,-11,-8,-5,-3,0,0
1537905368414819,1,-1,16,4,1,-1,-1,0
1537905368429779,0,5,-13,5,0,-1,-1,-1
1537905368429779,-1,-14,2,6,2,0,0,1
1537905368430776,-6,-1,-6,-1,-1,0,0,-3
1537905368430776,0,3,-17,-3,-1,0,0,3
1537905368450723,-1,2,25,4,1,0,0,-2
1537905368450723,2,15,7,-5,-3,-1,0,-1
1537905368459699,-1,-16,-17,6,2,-2,-2,0
1537905368459699,-2,-11,2,5,1,0,1,0
1537905368466680,-1,20,20,-13,-7,-2,-1,-3
1537905368466680,4,7,-11,12,5,2,1,1
1537905368473662,-3,2,-4,-8,-2,-2,0,0
1537905368473662,-1,-7,-23,-10,-2,-1,-1,-1
1537905368489619,-1,-3,8,1,0,0,-1,0
1537905368489619,-1,6,17,6,1,-3,-2,-1
1537905368490616,-1,3,-20,4,0,0,-1,0
1537905368490616,-2,-1,30,0,-1,-1,0,-2
1537905368511560,-3,-19,-22,0,1,0,0,-1
1537905368511560,-1,5,3,0,-4,-1,-3,1
1537905368513555,-1,-6,-8,0,2,-1,0,-2
1537905368513555,3,10,-10,1,-2,-4,-3,0
1537905368534499,0,-8,27,-11,-2,-4,-1,0
1537905368534499,3,14,16,7,1,1,2,1
1537905368536494,0,2,-10,3,0,0,0,1
1537905368536494,-5,-13,-3,-7,-2,-2,-1,-1
1537905368549459,-2,-3,-13,1,-2,-1,-3,-1
1537905368549459,-1,0,-11,-5,-3,-1,-1,-3
1537905368551454,0,-1,20,-3,-1,0,-1,-1
1537905368551454,-1,3,-2,0,-1,-1,1,-2
1537905368572398,0,-3,-9,9,4,2,0,-1
1537905368572398,-2,-4,1,-1,2,1,-1,0
1537905368573395,1,6,5,-6,-2,-1,-1,-1
1537905368573395,-1,-4,1,4,0,-1,-2,-1
1537905368587358,0,-3,-14,-6,-2,0,1,1
1537905368587358,-3,1,3,0,-1,-3,-2,-1
1537905368600323,0,-10,-19,1,2,0,0,0
1537905368600323,-1,0,22,1,-1,-1,-1,1
1537905368609299,-1,-2,-6,3,1,1,-4,-6
1537905368609299,1,15,1,0,-2,1,-1,-1
1537905368611294,-2,-7,6,-2,0,-1,-1,-1
1537905368611294,-2,-4,-29,-9,-5,-2,-2,-1
1537905368632238,-1,-1,-7,1,-1,-2,0,2
1537905368632238,-2,-3,0,-4,-2,0,-1,-2
1537905368633235,4,12,5,7,2,1,2,1
1537905368633235,-2,-3,7,-5,-1,-1,-1,-1
1537905368646200,-2,-2,5,-2,-2,-1,0,-1
1537905368646200,0,-7,-31,-4,-2,-2,1,-2
1537905368653182,0,1,28,0,0,-1,0,-3
1537905368653182,1,5,-1,0,1,1,0,-1
1537905368669139,0,-15,7,-1,1,1,0,0
1537905368669139,-1,3,1,-2,-3,-3,0,1
1537905368671134,1,-1,2,-2,-2,0,-1,-1
1537905368671134,-1,-2,-12,-1,-1,-1,-2,-3
1537905368692078,-3,-1,20,-3,-1,-1,-1,0
1537905368692078,0,-1,3,5,0,-1,-1,2
1537905368698062,0,-1,-5,-2,-1,-1,-2,-2
1537905368698062,1,-3,-8,-2,0,1,0,-1
1537905368706041,1,13,-26,0,-2,0,1,0
1537905368706041,-3,-19,30,-7,-2,0,-1,-4
1537905368715017,0,5,-19,7,1,-2,0,3
1537905368715017,-1,-2,5,10,-1,-3,1,-1
1537905368728979,-2,8,-8,-16,-2,-1,0,-2
1537905368728979,-4,-15,-37,-3,-1,0,-3,-4
1537905368729977,0,6,28,-2,1,2,1,0
1537905368729977,0,3,13,1,-1,1,0,-1
1537905368759896,-2,-9,-18,3,-2,-1,-1,1
1537905368759896,0,0,-5,-1,0,0,-1,-2
1537905368759896,-2,-5,24,-3,-2,-2,-2,-5
1537905368759896,3,4,-9,1,1,0,-1,1
1537905368774856,0,-3,-5,0,0,-1,-1,0
1537905368774856,-3,0,7,-2,0,0,0,0
1537905368774856,-1,-1,-18,0,-1,-1,-2,1
1537905368774856,0,7,27,-7,0,-1,-1,-4
1537905368788819,-1,-14,-10,6,2,-1,0,1
1537905368788819,3,5,-10,0,1,-1,-1,-2
1537905368789817,-1,-12,-7,-2,0,0,-2,-1
1537905368789817,0,20,2,-6,-1,-1,-1,-1
1537905368811758,3,7,-7,6,1,1,-1,-1
1537905368811758,1,3,14,0,-3,0,-1,1
1537905368811758,-3,-3,-5,-2,-1,0,0,-3
1537905368811758,-2,-8,-11,-2,-1,1,-3,-1
1537905368833699,1,5,10,-1,-1,0,-1,-1
1537905368833699,1,0,4,10,1,0,0,0
1537905368841678,-3,-1,-8,-15,-3,-1,-2,-1
1537905368841678,0,-5,-4,-6,-4,-1,-2,-1
1537905368848659,-2,0,4,4,0,0,-2,-1
1537905368848659,-4,-4,-4,-4,-2,-2,-1,-1
1537905368849657,0,2,5,4,-1,0,-1,0
1537905368849657,-1,-8,-10,0,3,0,1,0
1537905368879576,0,3,5,-1,-1,-1,0,2
1537905368879576,-1,-1,3,0,0,-1,-1,0
1537905368880574,-3,1,-3,3,0,0,0,1
1537905368880574,-3,-10,-8,-8,-3,-1,-1,-1
1537905368885561,-1,4,22,2,0,0,-2,-1
1537905368885561,3,10,-22,-1,-2,-1,0,2
1537905368893540,4,12,1,2,1,-2,-1,1
1537905368893540,-2,-23,-17,0,0,-2,0,0
1537905368908499,-3,0,23,-5,-5,-5,-2,-2
1537905368908499,-1,-10,-9,-3,2,1,-1,-2
1537905368909497,1,3,-3,-3,-8,-4,-1,-1
1537905368909497,0,7,2,8,2,0,-1,0
1537905368931438,-3,-6,-19,-3,1,-2,-2,-1
1537905368931438,-2,-5,12,-5,-7,-2,-1,-1
1537905368932435,-1,-4,-3,10,5,3,0,-1
1537905368932435,-1,8,0,-10,-9,-4,-2,-1
1537905368947395,0,-9,14,4,3,0,1,1
1537905368947395,-1,6,10,-2,1,1,0,0
1537905368954377,-2,0,-8,1,1,-3,-1,-2
1537905368954377,-1,-8,-12,5,2,1,-1,0
1537905368969337,-1,-1,-12,2,-3,-1,0,-3
1537905368969337,0,1,-2,-10,-2,-2,-1,-1
1537905368969337,-1,-8,-19,-5,-3,0,0,-1
1537905368969337,-3,11,36,2,1,0,-1,-2
1537905368991279,3,10,-12,0,-2,0,0,1
1537905368991279,-5,-15,-3,0,3,0,-1,-2
1537905368992276,-1,8,15,0,0,-1,0,-1
1537905368992276,-3,-13,-14,-4,-1,-2,-1,0
1537905369005241,-1,-2,-11,1,3,2,-1,-1
1537905369005241,0,15,22,3,-2,-1,-1,-1
1537905369014216,-2,-14,-17,-5,0,0,-1,-1
1537905369014216,2,10,11,6,0,0,0,2
1537905369029177,-1,6,1,-5,-1,-2,-1,-1
1537905369029177,-2,-15,-10,-2,-1,-1,-1,0
1537905369029177,0,5,3,-1,0,-1,-1,0
1537905369029177,0,11,21,8,3,-1,0,-2
1537905369052115,-3,-1,-15,-12,-1,-1,-1,-2
1537905369052115,-1,2,-8,-5,2,0,-1,0
1537905369052115,0,-3,25,5,-3,-2,0,-2
1537905369052115,1,9,-15,-4,-1,-2,-3,1
1537905369066078,-1,-9,1,7,0,-2,-1,-2
1537905369066078,0,6,1,0,-1,-1,-2,-2
1537905369074057,-1,0,-2,-4,0,0,-3,1
1537905369074057,0,-6,-4,-2,0,0,0,-1
1537905369089017,-1,-5,-33,-1,-3,-1,-1,0
1537905369089017,-2,1,15,0,1,0,-1,-1
1537905369090014,-2,4,17,1,-1,-1,-1,-1
1537905369090014,0,-3,-3,-5,0,-2,-1,1
1537905369110958,1,4,1,3,-1,-2,0,-1
1537905369110958,-2,-4,-7,-1,-2,-2,-2,-1
1537905369111955,0,0,-24,-2,-3,0,-1,-2
1537905369111955,0,-1,3,-1,1,1,0,-2
1537905369133897,1,2,11,-1,-3,0,-1,0
1537905369133897,0,-4,-5,-3,-5,-2,0,0
1537905369140878,-1,-2,0,-3,0,-2,-1,-2
1537905369140878,-3,-3,2,-2,-2,0,-1,-1
1537905369149855,-1,-6,12,2,2,1,-1,0
1537905369149855,3,6,0,3,-1,-1,-2,2
1537905369156836,0,-1,-2,-2,-2,1,-1,-2
1537905369156836,-1,-13,-24,-5,0,-2,-1,-3
1537905369171796,-2,5,11,1,-2,-1,0,-4
1537905369171796,-2,-5,-10,1,-1,-1,-1,1
1537905369171796,0,-2,-3,-1,0,0,-1,1
1537905369171796,-2,-2,-9,1,-1,-1,0,-1
1537905369194735,-1,-3,8,0,-1,-1,-1,1
1537905369194735,-2,1,0,0,1,1,1,0
1537905369195732,0,7,-2,-1,-2,-1,-2,-1
1537905369195732,-2,-13,0,-4,-1,-2,0,-1
1537905369208698,1,3,9,0,0,-2,0,0
1537905369208698,-3,-1,-22,9,3,0,0,-2
1537905369209695,1,-2,5,-3,1,-1,-2,-1
1537905369209695,-2,-1,-10,-3,-4,-1,-2,1
1537905369231635,2,14,49,4,-2,-1,0,0
1537905369231635,-1,-8,-22,-5,0,0,-1,-2
1537905369231635,2,8,16,20,7,2,0,2
1537905369231635,-2,-2,-19,-20,-11,-4,-3,-2
1537905369254574,-1,-1,-24,-3,-2,-2,-2,1
1537905369254574,-2,0,16,1,-1,-2,0,-1
1537905369255571,-2,-7,-4,-1,-3,-1,-1,-3
1537905369255571,0,7,0,2,2,1,-1,-1
