timestamp,emg1,emg2,emg3,emg4,emg5,emg6,emg7,emg8
1537918445482396,-1,2,-2,-4,-5,2,-8,-2
1537918445482396,-3,-7,2,-1,3,7,-3,-4
1537918445483394,0,-3,-11,-1,5,-18,-43,-1
1537918445483394,1,-2,-1,-1,-6,2,-12,5
1537918445484391,1,0,-1,-1,1,5,-1,0
1537918445484391,0,2,2,2,7,4,5,-2
1537918445487383,1,-1,1,-1,-2,4,-6,17
1537918445487383,3,3,-1,-5,-18,-20,2,-13
1537918445494364,-5,1,3,2,1,2,-12,-5
1537918445494364,1,2,-6,-4,-4,-12,1,0
1537918445504338,-7,-5,1,4,8,8,0,-7
1537918445504338,1,-1,-2,3,10,31,32,0
1537918445509324,3,1,0,-2,-5,-27,-8,6
1537918445509324,-1,1,-1,-1,1,-1,-5,-5
1537918445525282,-1,-2,-1,-3,-8,-6,-12,-3
1537918445525282,-1,2,3,3,-1,-8,-3,-10
1537918445534258,-2,-2,-1,-1,-2,6,7,-5
1537918445534258,-1,-3,-1,3,3,-6,5,5
1537918445549218,-2,1,0,-1,2,2,11,-6
1537918445549218,-5,-6,-4,-4,2,25,-25,-2
1537918445555202,4,2,0,3,6,-24,-4,12
1537918445555202,-1,-2,-1,-2,-4,36,49,-5
1537918445569165,1,-1,0,-3,-5,-9,17,0
1537918445569165,-1,-1,-1,-1,5,-4,-5,1
1537918445611053,-2,-3,-1,-3,-3,13,9,-3
1537918445611053,1,3,1,3,2,-11,-6,4
1537918445615042,0,-1,-1,-2,-2,3,-5,-1
1537918445615042,0,-1,0,-2,-1,0,4,-1
1537918445616039,-1,-2,-1,-1,1,-2,-18,3
1537918445616039,-2,0,-2,-2,-1,8,27,-10
1537918445617037,2,-1,0,0,-1,-12,-12,0
1537918445617037,-1,-1,-1,-1,1,5,24,0
1537918445622023,-3,-3,-1,-1,0,2,-1,-20
1537918445622023,3,1,0,1,1,-11,-25,28
1537918445629005,-2,-1,-1,-1,3,5,14,1
1537918445629005,-2,-2,-1,-5,-15,-1,15,9
1537918445635986,1,2,1,0,-6,-16,-11,-8
1537918445635986,-3,-4,-1,0,14,20,-7,-8
1537918445650946,0,0,-2,-2,-15,-18,4,-6
1537918445650946,-2,-2,-3,-3,-5,15,-10,-1
1537918445658925,-1,1,1,-2,-5,-24,-9,5
1537918445658925,3,0,0,-2,-1,-10,22,5
1537918445682861,-1,-1,-1,2,13,10,-6,-2
1537918445682861,-3,-2,1,2,4,2,-6,-10
1537918445683859,-1,-2,-4,0,-4,4,31,8
1537918445683859,-1,-1,1,0,-1,-8,-20,-10
1537918445696824,-2,-4,0,-2,-2,-2,-11,1
1537918445696824,-1,-1,1,4,14,7,22,-2
1537918445697821,0,-2,-1,-3,5,13,-15,0
1537918445697821,0,-1,-1,-1,-14,2,11,-12
1537918445719762,-2,2,-2,-1,-2,-10,7,0
1537918445719762,7,1,-2,-2,-2,-3,-11,19
1537918445720759,-3,-2,-1,1,5,2,17,-33
1537918445720759,-2,-2,-1,-2,1,10,-21,-10
1537918445742700,7,-1,-1,-2,-5,-6,3,16
1537918445742700,-3,1,-1,1,5,-18,-31,-13
1537918445743698,0,0,-1,3,10,15,-22,2
1537918445743698,-8,-3,-4,-5,-12,-13,18,0
1537918445756663,2,-2,0,-1,-6,3,-20,0
1537918445756663,-1,0,0,1,6,5,26,-4
1537918445757661,2,2,0,1,3,-2,4,14
1537918445757661,-2,-1,-1,1,6,13,1,-1
1537918445780599,-3,0,-1,-1,-3,2,-5,2
1537918445780599,1,0,-1,-2,-7,-24,-17,-4
1537918445780599,-1,0,-1,1,-1,11,26,9
1537918445780599,0,-1,0,1,3,-7,-18,-16
1537918445802541,-1,0,2,2,6,20,32,-2
1537918445802541,-1,0,-2,-2,-2,-6,-15,-6
1537918445803538,0,0,-2,-3,-12,-5,0,8
1537918445803538,2,-2,-3,-1,-2,3,-4,-1
1537918445816504,-3,0,1,1,2,3,12,-16
1537918445816504,5,0,0,1,3,-5,-11,43
1537918445824482,0,0,-1,2,2,12,19,34
1537918445824482,3,1,1,-1,-4,-18,16,12
1537918445840439,-1,0,-2,-1,2,5,-17,1
1537918445840439,-5,-2,0,0,1,-7,-14,-18
1537918445841437,-3,-3,-3,-4,-4,-8,0,-11
1537918445841437,-1,-2,-1,-2,-2,2,-13,6
1537918445862382,-4,-2,-2,1,3,4,10,1
1537918445862382,-4,-2,-2,-4,-6,0,-4,-14
1537918445863378,1,-1,1,0,5,-11,-16,-5
1537918445863378,-1,0,-3,-2,-14,1,-8,-6
1537918445877340,-1,-1,0,-1,7,-4,2,-7
1537918445877340,1,0,-1,-1,-3,-4,2,0
1537918445877340,-4,-1,-2,-3,-4,-6,-49,-14
1537918445877340,4,1,-2,1,3,16,46,24
1537918445900280,-4,-2,-3,-8,-6,-14,-17,-1
1537918445900280,0,1,0,3,-5,-5,15,-3
1537918445901277,-1,1,0,1,10,7,-14,1
1537918445901277,-2,-2,0,-1,-5,-5,-18,-15
1537918445923218,-2,-1,-3,-2,-5,-10,3,5
1537918445923218,5,-1,0,0,0,4,-5,-2
1537918445923218,2,-1,-2,-2,-2,-3,9,-6
1537918445923218,-3,-2,-1,-2,5,8,-12,-5
1537918445937181,0,-1,1,1,3,-3,11,2
1537918445937181,-5,-4,1,1,2,16,4,-5
1537918445938179,1,0,-3,-3,-4,-16,8,0
1537918445938179,-1,-1,-1,-6,-11,3,0,3
1537918445960119,0,0,0,0,-5,-3,-16,-4
1537918445960119,-3,-2,0,1,6,4,-4,-4
1537918445960119,-1,-1,0,0,-8,-7,7,-1
1537918445960119,-4,-2,-2,-6,-9,14,-5,-4
1537918445983058,1,0,0,2,3,-8,5,-2
1537918445983058,-2,1,-2,-1,0,-3,-10,-1
1537918445983058,-1,-1,0,3,9,15,27,1
1537918445983058,1,0,1,4,23,2,13,1
1537918445997021,1,1,-1,-6,-47,-40,-15,3
1537918445997021,-1,-1,0,-2,-1,-14,5,1
1537918445998018,-2,0,2,7,37,36,-11,-9
1537918445998018,-1,1,6,25,54,4,-3,0
1537918446021954,3,2,-1,1,26,53,16,-4
1537918446021954,-4,-5,-7,-8,-23,-90,-7,14
1537918446027938,-10,-4,-2,-4,6,-25,0,-16
1537918446027938,0,-2,4,10,7,98,-17,-44
1537918446035917,0,12,14,54,80,-58,-17,33
1537918446035917,5,-2,-3,2,74,118,13,-1
1537918446041901,6,-8,-30,-107,-108,-90,26,23
1537918446041901,-12,-6,-8,-16,74,-56,-27,-11
1537918446048882,-2,0,0,-15,-80,70,37,-13
1537918446048882,-9,-4,-1,-1,89,95,25,-14
1537918446064839,12,9,16,61,59,-62,-24,12
1537918446064839,-8,-2,-13,-43,-91,30,-32,2
1537918446071822,1,-1,8,21,62,-58,-47,-6
1537918446071822,-5,-7,-16,-57,-118,-115,-40,-1
1537918446078803,-4,4,30,72,113,107,18,-12
1537918446078803,-7,-1,-3,17,-84,-105,36,6
1537918446093762,-5,-10,-4,-1,-45,-49,-42,-35
1537918446093762,12,1,-6,-8,83,69,59,20
1537918446101741,-3,-7,-28,-72,-128,35,-24,-55
1537918446101741,12,8,12,41,107,-16,2,4
1537918446108722,-4,1,3,32,105,96,74,16
1537918446108722,-9,-8,-20,-66,-128,-107,-65,-24
1537918446124680,17,-1,1,13,46,43,4,20
1537918446124680,16,2,-4,-9,-60,53,-9,81
1537918446131661,-3,-4,-6,-19,12,119,-44,-20
1537918446131661,-1,17,44,113,127,1,80,3
1537918446138642,-5,-6,-17,-44,-52,120,-7,7
1537918446138642,-12,1,8,17,55,-126,22,-21
1537918446153602,20,5,-4,-13,-21,-105,21,9
1537918446153602,-10,-4,1,13,57,3,-38,-4
1537918446162578,1,3,7,21,22,-128,52,23
1537918446162578,3,1,2,-14,-26,-5,-12,-8
1537918446168562,-17,-7,-3,-22,84,110,11,-20
1537918446168562,6,6,10,33,-50,35,30,5
1537918446184520,-15,-5,-1,-4,82,-37,8,-3
1537918446184520,-10,1,9,41,113,84,7,-28
1537918446191501,-1,-9,-19,-54,-106,-103,-6,8
1537918446191501,6,6,10,48,100,105,-28,12
1537918446198482,-2,0,-13,-23,2,10,-19,-8
1537918446198482,-3,-5,-20,-82,-44,-76,-32,5
1537918446214440,-17,-5,-3,-15,27,-44,26,-18
1537918446214440,19,8,0,-16,-118,60,-4,48
1537918446222418,-6,5,15,52,79,72,6,-48
1537918446222418,-38,-4,9,37,19,0,-63,-33
1537918446229399,23,-3,-18,-61,-77,16,67,35
1537918446229399,1,0,-1,-7,9,-37,8,-5
1537918446245357,6,7,14,42,9,62,-23,5
1537918446245357,-8,-7,-6,-21,-74,-34,33,-19
1537918446251341,6,14,23,69,102,-5,-44,5
1537918446251341,-5,0,-5,40,85,-77,43,-16
1537918446274280,1,-15,-29,-93,-108,40,-83,6
1537918446274280,-1,-4,-6,-33,2,55,45,4
1537918446275277,9,5,2,28,6,-12,-11,5
1537918446275277,11,1,1,-29,-49,-22,29,52
1537918446283257,1,1,1,22,0,-75,28,39
1537918446283257,7,5,6,14,26,3,10,8
1537918446289240,-8,-2,-5,-35,-77,-66,-29,-14
1537918446289240,-3,2,6,12,-61,-32,-73,-44
1537918446305197,4,5,12,31,84,-105,29,-22
1537918446305197,12,0,-2,8,-21,40,-10,-24
1537918446311181,-2,-2,3,15,48,57,-17,-2
1537918446311181,-1,-5,-7,-23,54,29,-23,1
1537918446328136,-12,-2,-2,-46,-72,89,36,-9
1537918446328136,23,9,10,44,45,-3,11,26
1537918446334120,-6,-3,-1,5,39,-5,11,-13
1537918446334120,-24,-5,2,35,-68,3,3,-60
1537918446343096,1,0,7,-14,68,55,8,26
1537918446343096,-17,-8,-12,-43,-96,-28,-24,-25
1537918446349080,2,0,8,18,20,64,-8,12
1537918446349080,-1,-3,-11,-15,87,-29,16,-13
1537918446365038,-23,-3,6,38,-50,-76,2,9
1537918446365038,-6,-8,-17,-42,-78,113,21,-30
1537918446371021,-10,-6,-10,-55,-36,-2,-19,-3
1537918446371021,-2,-2,-2,-32,-85,-57,-17,-7
1537918446395954,4,5,12,71,70,-32,-7,-33
1537918446395954,16,0,0,-7,76,11,-11,79
1537918446396952,-21,-4,2,32,-7,-72,1,-22
1537918446396952,8,-1,-4,-25,14,103,9,4
1537918446402936,7,0,-2,-5,-40,-106,-28,8
1537918446402936,5,2,7,25,71,43,20,3
1537918446416899,7,8,11,32,91,95,23,4
1537918446416899,-16,-9,-12,-26,-69,-66,-17,-9
1537918446424877,-1,-6,-9,-16,-64,53,-17,6
1537918446424877,17,7,8,12,50,-42,-7,11
1537918446431859,1,-3,-4,13,6,-38,-12,0
1537918446431859,-1,-5,-4,-16,51,66,-11,18
1537918446440835,-2,-8,-9,-14,-50,-21,3,-1
1537918446440835,-16,-1,0,-4,-12,-91,6,-47
1537918446453800,6,0,-4,-14,-39,11,-14,31
1537918446453800,17,2,2,22,37,-22,8,6
1537918446462776,-3,0,-4,-21,8,-28,-13,-5
1537918446462776,2,-2,-2,-4,-35,82,3,36
1537918446468760,-9,-6,-9,-27,-59,74,-13,-36
1537918446468760,-3,1,4,14,18,-39,-13,-17
1537918446485715,5,0,-3,7,46,57,39,20
1537918446485715,0,2,4,15,28,-52,-30,-14
1537918446491699,-6,-1,-3,-6,-17,-23,39,0
1537918446491699,-12,-2,0,4,11,19,-7,-9
1537918446500675,10,2,0,-7,13,7,-8,6
1537918446500675,-4,-7,-5,-10,-41,-7,-10,6
1537918446513640,-4,0,1,8,-6,-6,-5,-9
1537918446513640,-4,-3,-4,-18,-53,4,9,8
1537918446522616,-4,1,1,5,-7,-67,-5,-8
1537918446522616,5,0,-5,-3,27,10,13,-1
1537918446528600,4,0,0,1,24,28,-2,11
1537918446528600,-2,-3,-5,-11,-22,0,13,-2
1537918446545555,0,-1,1,5,3,-9,-28,-1
1537918446545555,3,0,-1,-9,-1,3,3,-7
1537918446551539,17,0,-3,-3,-13,-39,-6,40
1537918446551539,11,2,-1,-3,3,42,0,-4
1537918446560515,-2,-2,2,-2,-16,12,-19,-7
1537918446560515,-6,-1,2,11,13,4,10,1
1537918446573480,-1,-2,-2,-3,-3,-14,22,-17
1537918446573480,2,-2,-2,-6,-1,-47,-49,30
1537918446582456,-1,3,0,5,24,49,8,-4
1537918446582456,3,-1,-3,1,-6,-6,-1,0
1537918446596419,-3,-3,-4,-4,-7,-31,-12,-4
1537918446596419,0,0,0,3,3,-13,3,-2
1537918446605396,-5,-3,0,1,20,21,8,-7
1537918446605396,-3,-3,-1,-4,-9,-7,11,4
1537918446620356,2,3,3,2,9,-14,-16,-3
1537918446620356,-1,2,2,1,7,11,10,-7
1537918446621354,3,2,4,4,18,20,-1,-4
1537918446621354,6,1,0,-2,-13,-38,-12,8
1537918446634319,-8,-4,-2,-3,-20,-3,17,-10
1537918446634319,7,1,-1,-3,10,18,4,15
1537918446643296,7,1,-3,-5,5,6,5,15
1537918446643296,-11,-3,-1,5,5,6,0,-19
1537918446656261,16,6,-1,-6,7,13,-12,30
1537918446656261,-8,-3,-2,2,-1,-13,4,-9
1537918446665236,-5,-1,3,2,-11,-18,-4,-18
1537918446665236,12,1,-1,-3,8,17,-3,17
1537918446679198,-12,-7,0,3,-5,-9,5,-20
1537918446679198,1,1,-3,-6,0,-1,-6,1
1537918446686179,-1,0,1,2,-6,-5,-7,1
1537918446686179,-1,-1,-5,-6,-8,1,9,-2
1537918446694158,-5,0,3,5,-1,-4,-5,-14
1537918446694158,0,0,-2,-5,-1,1,0,1
1537918446703134,-3,0,2,3,-2,2,7,-1
1537918446703134,-1,1,-2,-1,0,-7,8,6
1537918446716100,0,-1,-2,-4,1,-2,-3,-1
1537918446716100,-18,-5,2,3,-1,4,-1,-39
1537918446725075,10,2,-4,-7,-4,-8,-3,13
1537918446725075,-4,-1,1,4,-2,-3,-4,-11
1537918446740035,3,-1,0,-2,0,0,-3,5
1537918446740035,-5,0,2,3,0,-3,0,-12
1537918446742030,-5,-2,-1,-4,-7,-3,0,-8
1537918446742030,-2,-2,-2,-1,1,-2,-3,-6
1537918446753998,1,0,-1,-2,0,-2,-3,-2
1537918446753998,4,-1,1,2,2,0,3,5
1537918446762974,-1,1,-2,1,0,1,4,2
1537918446762974,3,-1,-4,-5,-5,-2,-6,3
1537918446776936,-2,-1,0,2,0,0,0,1
1537918446776936,2,-1,-3,-3,-1,-2,2,4
1537918446784915,-2,-2,-2,-2,-4,2,0,-2
1537918446784915,-1,-2,2,6,2,1,0,-1
1537918446799875,-2,-1,-2,-3,-3,-1,-5,-1
1537918446799875,1,0,-1,0,0,1,4,7
1537918446801870,-1,-2,-2,-2,0,-1,0,-2
1537918446801870,0,1,1,2,0,0,2,3
1537918446813838,1,-2,-2,-2,-1,-1,-2,-1
1537918446813838,0,0,0,2,3,2,-1,1
1537918446830793,-1,-2,-3,-3,-3,1,0,3
1537918446830793,-2,-1,-1,-2,0,0,-3,-3
1537918446836776,0,0,-2,2,2,-1,-1,3
1537918446836776,1,-1,1,3,1,0,1,1
1537918446845753,-1,-2,-1,-1,-2,-1,0,-2
1537918446845753,3,0,-4,-4,-2,-1,-2,2
1537918446860713,-1,1,1,-1,0,-2,-2,-3
1537918446860713,-1,0,0,0,1,-2,0,0
1537918446861710,0,-2,-2,-4,-2,-1,0,1
1537918446861710,-3,0,0,0,2,-1,-2,0
1537918446873678,-2,-2,-1,-1,-3,-2,-1,-3
1537918446873678,0,0,-2,-2,-1,-2,0,2
1537918446882654,0,-1,-1,-1,1,0,0,2
1537918446882654,-1,0,0,0,2,1,1,-3
1537918446896617,0,-2,0,1,1,-1,-4,-1
1537918446896617,1,-2,-1,-4,-3,-1,0,3
1537918446905593,-2,-1,-1,-1,-2,0,-2,-4
1537918446905593,-1,-2,0,0,-2,0,0,1
1537918446927534,0,1,0,1,0,-1,0,1
1537918446927534,3,-1,-1,-1,0,1,-1,-1
1537918446929529,-1,-2,-3,-2,0,-2,0,-1
1537918446929529,-1,0,0,1,-1,2,0,-3
1537918446950473,-1,-1,-2,-3,-3,-1,-5,-3
1537918446950473,0,-1,-1,-2,0,-2,0,0
1537918446951470,-1,0,-1,-1,-2,0,-1,1
1537918446951470,0,1,1,2,1,-1,-3,-1
1537918446964435,1,-2,-3,-5,-4,-1,0,0
1537918446964435,-1,-1,-2,-2,0,0,-2,-4
1537918446971416,0,-1,1,1,2,-1,1,0
1537918446971416,-3,1,2,1,-4,-6,-11,-20
1537918446987374,1,-1,-4,0,1,4,9,10
1537918446987374,0,0,-1,-1,-3,0,-1,0
1537918446989369,0,1,-1,-1,0,0,-3,2
1537918446989369,-2,-2,-1,-1,0,0,1,-2
1537918447010313,-2,-1,-1,-2,-2,-2,-3,-7
1537918447010313,0,0,-2,-1,-2,-1,-1,0
1537918447011310,-1,0,-2,0,0,-2,1,2
1537918447011310,-1,-2,0,0,-2,-1,1,2
1537918447024276,0,0,0,-1,-4,-1,-1,-2
1537918447024276,-5,-4,-1,-1,-1,-2,1,0
1537918447033253,6,0,0,1,0,1,-3,-2
1537918447033253,2,0,-3,0,2,1,1,4
1537918447048212,0,0,-1,0,-1,-3,-1,-3
1537918447048212,-4,-4,1,2,1,1,-2,-1
1537918447049210,-3,-2,0,-3,-3,-4,-11,-4
1537918447049210,-17,-3,-2,-1,-1,1,10,-5
1537918447070153,20,1,1,6,21,8,-17,-2
1537918447070153,-6,1,5,9,12,8,-51,10
1537918447072148,7,3,1,4,12,11,35,-4
1537918447072148,1,2,8,18,74,8,54,18
1537918447084116,-1,0,-11,-13,-38,-13,-51,-11
1537918447084116,-8,-6,0,14,26,40,-17,-20
1537918447093092,-16,-9,0,-4,42,12,-33,0
1537918447093092,-3,-7,-12,10,-27,4,-39,-11
1537918447108051,-11,-18,-19,-24,-14,-80,88,4
1537918447108051,-30,-15,-31,-101,-110,105,-8,-8
1537918447109049,18,10,-1,-14,-3,32,-51,1
1537918447109049,-18,-8,-14,-45,-128,-45,36,0
1537918447129993,-4,6,24,82,127,82,-23,-2
1537918447129993,47,-7,-17,-41,-107,-93,-5,-6
1537918447131988,16,12,25,23,44,-48,121,43
1537918447131988,10,22,32,79,127,66,-120,7
1537918447143957,-24,-22,-20,-37,-128,-115,32,-33
1537918447143957,-8,37,39,74,127,27,25,33
1537918447152932,-24,-25,-21,-31,-117,71,-79,-34
1537918447152932,4,-2,12,24,35,-45,68,-39
1537918447167892,-15,-37,-38,-93,-114,-12,4,31
1537918447167892,22,12,0,-21,9,-56,-82,-26
1537918447168889,8,23,11,22,91,-56,81,-15
1537918447168889,-19,13,3,-19,-75,36,43,38
1537918447189833,49,25,30,55,127,127,-18,-43
1537918447189833,18,-21,-34,-63,-105,3,57,66
1537918447191827,-13,-16,-2,24,88,63,-50,-9
1537918447191827,1,9,-14,-24,-95,34,-6,-5
1537918447203795,-1,20,21,51,104,65,-25,-5
1537918447203795,-27,-20,-10,-16,-71,62,57,-7
1537918447212771,-2,-2,-25,-26,-114,58,-59,-7
1537918447212771,-1,-2,21,-1,6,-28,70,15
1537918447227731,-10,0,5,20,59,35,-12,10
1537918447227731,2,15,26,55,112,88,29,-11
1537918447228728,-15,-6,17,45,88,88,-54,-10
1537918447228728,-14,-28,-48,-97,-82,-128,12,-10
1537918447250670,-9,-3,-9,-32,61,102,-8,-2
1537918447250670,4,2,13,58,115,50,-9,-8
1537918447251667,-5,-3,-15,-42,-121,-116,66,3
1537918447251667,33,4,6,1,51,98,-64,-1
1537918447263635,4,21,36,100,59,-42,17,22
1537918447263635,-20,-28,-39,-92,-80,85,-23,-14
1537918447272611,18,24,15,15,3,-50,40,-10
1537918447272611,0,-10,-11,-11,27,73,-38,-13
1537918447289568,-22,-7,6,1,-18,-15,50,-15
1537918447289568,7,6,4,23,-60,-128,-19,-12
1537918447290564,-27,-7,-4,-13,-17,43,33,0
1537918447290564,41,-3,-6,-2,83,120,-64,34
1537918447310511,17,4,-4,-4,-33,-68,19,6
1537918447310511,-10,-13,-1,2,-19,1,8,-14
1537918447311508,-5,14,20,50,68,127,-5,15
1537918447311508,-1,1,-7,-11,-29,34,-4,-21
1537918447324473,1,2,-8,-30,-80,-85,-22,16
1537918447324473,5,-1,4,9,91,30,3,0
1537918447333449,4,-12,-11,-1,-61,-85,-38,10
1537918447333449,-13,-8,6,1,127,-14,6,-4
1537918447347411,-6,-6,-18,-30,-87,45,-24,7
1537918447347411,1,11,29,78,98,35,18,0
1537918447349406,-1,-6,-14,-28,-85,27,-29,-6
1537918447349406,-18,-7,-3,-28,-58,-40,-11,-2
1537918447370350,-24,-12,-8,16,-20,60,17,-24
1537918447370350,45,28,-4,-60,-121,-80,-16,5
1537918447371347,12,-10,-14,-49,97,-75,17,22
1537918447371347,-12,-7,-10,1,-113,23,-5,-13
1537918447384312,-13,-3,1,-22,46,79,-9,-3
1537918447384312,3,4,23,107,53,9,6,2
1537918447399273,28,8,15,82,11,-122,9,21
1537918447399273,-22,0,-7,-63,27,-40,-13,-13
1537918447407251,-9,-8,-10,-35,-31,27,27,15
1537918447407251,42,8,3,-8,-29,-34,-14,0
1537918447409246,0,2,6,14,4,113,39,-3
1537918447409246,-31,4,14,66,127,33,4,-12
1537918447430190,24,4,-12,-20,-57,-118,-47,27
1537918447430190,-24,-19,-25,-112,-85,-128,8,0
1537918447432184,-9,-6,-14,-30,-25,116,-8,-19
1537918447432184,-4,12,29,112,76,58,-18,0
1537918447444152,20,12,7,21,60,18,99,-7
1537918447444152,-8,-5,-11,-31,17,13,-26,16
1537918447453128,-17,-7,-4,-8,-45,-24,-41,-22
1537918447453128,-1,-10,-6,1,87,-19,42,2
1537918447468088,13,19,14,4,-128,-128,0,-21
1537918447468088,-20,-3,0,75,90,83,-19,-6
1537918447469086,-9,0,-6,-84,60,39,72,-8
1537918447469086,35,-4,-6,4,-69,-3,-7,32
1537918447490030,4,2,11,50,127,46,13,-7
1537918447490030,1,-6,-11,-56,-52,0,-55,19
1537918447492025,8,3,1,2,-76,-83,-24,31
1537918447492025,-8,-12,2,8,5,47,2,-20
1537918447519950,-5,12,2,-14,1,-23,-4,-5
1537918447519950,-18,-6,-9,10,-41,38,40,-9
1537918447521945,18,-7,-11,-11,73,35,-33,31
1537918447521945,13,9,0,-18,-90,-123,16,-4
1537918447527929,-11,0,7,69,70,127,-40,3
1537918447527929,-21,-3,-1,-46,-47,-112,-9,-12
1537918447528926,-8,-6,-2,25,-2,1,31,-16
1537918447528926,17,1,-10,-38,-15,41,24,-3
1537918447549870,7,-8,-11,-49,-95,69,-70,20
1537918447549870,-15,1,8,50,100,-58,48,-12
1537918447551865,-1,-2,-14,-40,-77,-92,-9,-11
1537918447551865,-3,0,14,-3,-18,-82,-12,-1
1537918447563832,10,0,8,14,83,-72,26,26
1537918447563832,-16,-10,2,38,12,21,-8,1
1537918447572809,11,14,9,14,36,46,-12,3
1537918447572809,-2,11,8,74,37,25,-18,-1
1537918447587769,-16,-28,-26,-92,-34,0,-3,-11
1537918447587769,16,14,-14,-70,-61,-36,-16,3
1537918447588766,-12,-6,7,46,-43,-58,20,-3
1537918447588766,16,5,-6,12,41,1,-13,1
1537918447610707,-2,-5,5,44,-20,13,14,-9
1537918447610707,-7,-1,0,11,85,109,69,-1
1537918447611705,-16,-12,-14,-70,1,-31,-79,-21
1537918447611705,1,5,13,18,-55,24,18,8
1537918447623673,6,2,2,76,83,-54,-25,0
1537918447623673,1,-7,-10,-60,-39,24,-8,2
1537918447632649,8,-1,-5,-5,10,24,9,-4
1537918447632649,-15,-11,-16,-38,8,6,13,1
1537918447647609,-4,6,-2,-9,-37,-70,-50,-6
1537918447647609,19,2,8,34,-48,-45,0,-1
1537918447649604,-3,-5,18,65,69,-21,28,9
1537918447649604,-30,-5,-6,-56,-25,64,24,-14
1537918447670548,27,0,-10,-3,-55,2,-25,18
1537918447670548,-34,4,22,32,127,73,36,-41
1537918447671546,7,6,-5,9,-111,-67,-11,7
1537918447671546,9,2,3,38,121,6,-7,0
1537918447683514,-21,-12,-24,-95,-71,-15,7,-14
1537918447683514,-5,-7,-13,-51,-25,15,-38,-2
1537918447692490,-4,-7,-6,-22,-53,14,-13,-1
1537918447692490,-3,1,3,-3,-44,20,-9,-9
1537918447707449,6,3,7,35,91,26,29,2
1537918447707449,12,8,12,61,3,-21,-14,15
1537918447709445,-22,0,4,11,70,31,-8,1
1537918447709445,86,5,-4,11,-14,-36,-15,38
1537918447730388,-17,0,1,-21,-42,-100,-5,-17
1537918447730388,-5,-2,-3,12,56,14,-20,6
1537918447731386,11,0,4,31,-20,19,15,33
1537918447731386,-20,-13,-5,-19,43,-107,-45,-13
1537918447744351,-14,-9,-11,-64,-56,97,-4,-13
1537918447744351,25,2,-7,-14,-53,-23,12,18
1537918447753327,-15,-6,-2,-24,47,30,2,-23
1537918447753327,-2,5,-2,23,4,-16,-1,8
1537918447768287,1,-4,5,16,13,-7,-11,5
1537918447768287,-13,-2,3,14,23,40,19,0
1537918447769284,11,7,9,32,12,-17,-35,1
1537918447769284,-3,-1,-4,-2,36,30,8,1
1537918447791224,-26,-6,-9,-45,-81,-22,-18,-13
1537918447791224,9,0,0,7,-23,4,42,-7
1537918447792222,8,9,7,5,67,12,-63,-7
1537918447792222,-7,0,1,-6,-49,-11,24,-1
1537918447804190,-4,3,5,10,19,38,-10,-1
1537918447804190,-1,-4,2,16,15,-17,-15,-2
1537918447813166,-3,-4,-2,-3,11,1,33,-8
1537918447813166,-12,-1,-6,-20,-38,-6,-3,-4
1537918447826131,3,1,2,13,19,-2,5,6
1537918447826131,3,-1,1,13,10,-6,-5,-1
1537918447835108,-2,-1,-4,-15,5,0,19,-8
1537918447835108,-8,-3,-3,-8,-32,-5,-10,-6
1537918447850069,6,2,3,9,24,8,10,1
1537918447850069,-3,-2,0,5,9,-10,-4,1
1537918447852063,-7,7,-4,-13,-10,-5,-2,-7
1537918447852063,9,-3,-1,-2,-15,-6,3,5
1537918447874005,1,-14,3,8,16,-1,-3,-8
1537918447874005,-9,-2,-1,-1,0,-4,16,23
1537918447876996,-9,-19,-4,-7,-2,4,-2,-5
1537918447876996,2,17,-1,-1,-12,-1,-7,13
1537918447879988,12,16,4,2,17,2,0,-34
1537918447879988,2,20,3,4,-5,-5,-23,-1
1537918447887967,-25,-34,-7,-5,-1,-1,23,25
1537918447887967,-14,-7,2,3,-1,2,3,-23
1537918447901930,-26,-21,-2,-4,0,-8,-32,-75
1537918447901930,21,82,1,1,-2,-4,11,62
1537918447908911,35,29,8,4,7,2,20,-48
1537918447908911,-15,-84,-5,-4,-6,4,-8,2
1537918447916889,-3,-3,-3,3,1,-3,26,35
1537918447916889,-28,-50,-6,1,1,-6,-21,-37
1537918447924868,14,61,3,-2,1,-1,18,30
1537918447924868,2,5,-2,-3,-10,-4,0,1
1537918447938830,9,15,1,0,5,2,11,19
1537918447938830,2,-16,-2,-2,0,-5,-12,-14
1537918447947807,4,-22,-6,-4,-6,-3,-5,7
1537918447947807,-7,1,-3,-3,-3,-1,6,-8
1537918447961770,-4,9,6,2,4,2,13,22
1537918447961770,11,14,2,-1,3,-2,-9,-3
1537918447968751,4,8,5,1,0,-2,-8,-27
1537918447968751,-1,-18,-4,-7,-9,-3,4,5
1537918447985705,-11,-20,-5,0,2,0,-6,-1
1537918447985705,0,-8,1,1,2,-1,-2,-11
1537918447986703,-8,-3,-2,-1,0,1,0,6
1537918447986703,7,16,0,-1,-2,0,2,-1
1537918447999669,13,7,1,-1,1,2,4,20
1537918447999669,-5,-17,0,3,2,0,8,-3
1537918448006649,-4,-7,-4,-9,-5,-4,-6,-1
1537918448006649,-1,18,1,-3,-4,2,2,0
1537918448022606,5,-3,0,1,4,1,1,2
1537918448022606,-5,-1,-2,1,1,2,-2,-12
1537918448028591,0,-10,1,3,1,0,0,1
1537918448028591,2,12,-1,-3,-4,-1,3,2
1537918448036569,-1,6,1,2,1,1,1,1
1537918448036569,-4,-9,-2,-2,-1,0,-5,-8
1537918448045545,-4,-11,-1,0,1,-2,-1,5
1537918448045545,13,9,3,0,0,-1,-1,-8
1537918448059508,3,1,0,-3,-1,-2,0,5
1537918448059508,-2,-5,-2,1,-1,0,0,-4
1537918448066491,-7,-8,-1,-1,-1,-1,-3,-3
1537918448066491,-6,8,-1,2,-1,-2,-2,-3
1537918448082447,2,0,0,0,1,0,-1,2
1537918448082447,5,-5,-1,-1,-2,0,-2,3
1537918448089429,4,17,-2,-1,-2,0,-3,-5
1537918448089429,10,-9,2,3,2,1,2,6
1537918448105386,-3,6,-2,-3,-3,-1,-2,-3
1537918448105386,-5,-8,0,1,-2,-1,-2,-8
1537918448106385,0,6,-1,-1,0,-1,-1,4
1537918448106385,-1,7,0,-3,-1,-3,-1,0
1537918448119348,-2,-11,-3,1,0,0,-1,2
1537918448119348,0,2,-1,-2,-1,-2,0,-2
1537918448126329,-4,-12,-2,0,-2,0,-1,-3
1537918448126329,-7,-20,-6,-3,-2,-1,0,-1
1537918448142287,-7,13,0,-1,0,0,0,2
1537918448142287,-10,-10,0,-1,0,-3,1,-3
1537918448149268,14,0,-1,-1,0,0,0,-1
1537918448149268,-4,-4,-3,-1,-2,-2,-1,-2
1537918448165225,1,3,-3,2,1,1,0,2
1537918448165225,-1,-2,0,-1,0,-2,-1,-1
1537918448166223,-11,-8,0,-1,-2,-1,-2,-3
1537918448166223,3,10,0,-2,-2,-1,2,-3
1537918448179188,5,-6,-2,1,0,-2,-3,-2
1537918448179188,2,3,-1,-1,-2,-2,-1,-3
1537918448186169,1,-6,-1,1,-2,-2,-1,0
1537918448186169,-6,6,-3,-3,-5,-3,-3,-3
1537918448202127,0,-4,1,-1,-2,-1,0,5
1537918448202127,-1,-6,-4,0,-3,-3,-7,-6
1537918448209107,-7,-1,-1,1,0,-2,3,0
1537918448209107,0,2,-1,-3,-4,-2,18,15
1537918448225065,4,-2,0,-1,0,0,-11,-3
1537918448225065,-5,-1,-3,0,0,0,9,13
1537918448227060,0,-5,1,-1,-1,-1,-2,-5
1537918448227060,-9,2,0,1,0,-1,-23,-23
1537918448239027,3,-2,-2,-1,-1,-2,-2,-8
1537918448239027,-6,-2,-2,-2,-3,6,6,1
1537918448248004,5,-2,-2,-1,-1,-3,-17,18
1537918448248004,1,1,3,12,37,2,-31,-7
1537918448263961,0,2,3,7,14,56,94,4
1537918448263961,0,-3,-1,4,12,-101,-85,-14
1537918448268948,-9,0,1,-2,1,23,-2,-11
1537918448268948,-11,0,-6,-16,-49,-103,-70,5
1537918448284905,1,-3,-1,2,-61,92,38,-4
1537918448284905,15,5,-3,-12,-15,-31,-13,23
1537918448286900,-11,-10,-12,-25,-77,-31,51,-17
1537918448286900,5,9,13,21,59,36,-41,19
1537918448299865,-4,-2,-4,-4,-4,46,-31,-3
1537918448299865,4,5,14,44,108,-78,9,-6
1537918448313828,-10,1,-4,-16,-20,-24,-46,-5
1537918448313828,0,-5,-1,-1,-90,39,11,19
1537918448321806,0,-4,-7,-22,-75,42,-15,-7
1537918448321806,-1,-5,-4,1,6,-40,25,-8
1537918448336766,6,2,3,20,127,121,-47,14
1537918448336766,-9,3,5,-2,-67,-109,47,-22
1537918448344745,-6,-6,-15,-39,-90,-43,-43,-15
1537918448344745,-4,-3,-3,-11,-16,3,14,7
1537918448346740,1,-6,4,12,72,23,51,0
1537918448346740,-15,9,6,7,-18,108,9,-15
1537918448358708,13,2,3,20,123,-88,-10,16
1537918448358708,-31,3,14,27,53,28,-18,-47
1537918448367684,25,-1,-16,-36,-119,-110,14,14
1537918448367684,-7,-2,5,21,127,60,-4,-5
1537918448382644,-4,-2,3,6,5,-64,7,-8
1537918448382644,-4,-12,-24,-52,-78,127,9,15
1537918448388628,5,2,13,38,53,-58,-33,17
1537918448388628,-6,-7,-14,-25,-93,-56,-3,-25
1537918448405582,-6,-4,-7,-17,-1,-74,28,20
1537918448405582,-4,6,8,6,-37,6,6,-3
1537918448406580,2,0,6,46,85,87,-50,7
1537918448406580,5,-12,-23,-69,-122,-92,33,3
1537918448418548,-8,8,18,37,121,127,-4,-21
1537918448418548,5,1,-5,-17,-43,86,0,2
1537918448427524,-8,5,12,40,52,-4,-9,-15
1537918448427524,1,-6,-8,-15,28,8,4,-4
1537918448442484,-1,-15,-5,16,48,72,-12,8
1537918448442484,23,22,19,51,33,23,22,30
1537918448448468,-6,4,-9,-42,31,114,4,-14
1537918448448468,5,-11,-15,-32,-13,-79,-1,3
1537918448465422,-13,1,2,-12,15,-96,-12,-20
1537918448465422,13,-6,5,26,70,127,5,-12
1537918448466420,-14,-7,-1,-6,-111,-128,11,-3
1537918448466420,6,11,10,30,37,57,10,16
1537918448479385,21,0,-8,-21,-26,113,-29,24
1537918448479385,-20,-9,-10,-24,-32,-22,-13,-58
1537918448487364,13,20,36,97,87,-15,3,10
1537918448487364,-9,-13,-24,-48,25,113,-6,2
1537918448502324,-11,-2,-2,-17,9,7,-7,-19
1537918448502324,2,-4,-3,-15,19,-42,-2,11
1537918448509305,7,3,-6,-17,-46,-8,17,9
1537918448509305,1,6,16,46,76,110,11,-7
1537918448525262,16,10,9,34,34,-4,-12,41
1537918448525262,12,-8,-14,-21,-66,-21,-19,37
1537918448526260,-20,-12,-15,-48,-52,67,4,-37
1537918448526260,11,2,10,27,-12,-24,-10,17
1537918448539225,3,12,16,45,42,-83,12,4
1537918448539225,-5,-5,-19,-51,-86,-86,22,-3
1537918448548202,-12,-14,-19,-57,3,49,-5,-10
1537918448548202,-13,6,18,39,51,-28,19,-4
1537918448562164,21,-4,-18,-42,-46,-61,-15,13
1537918448562164,7,8,22,64,117,94,-3,10
1537918448569145,4,3,-1,15,49,-45,2,12
1537918448569145,-35,-6,-2,-9,30,93,26,-53
1537918448585102,-5,-6,-7,-25,-78,-19,-14,-2
1537918448585102,8,2,5,26,72,29,6,11
1537918448587097,7,-2,-6,-33,-103,-38,-17,1
1537918448587097,-7,0,0,8,-44,-76,-18,-12
1537918448599065,0,1,2,3,-84,15,6,-19
1537918448599065,16,-1,-6,-7,20,-36,-7,14
1537918448615022,-7,-7,-8,-17,-73,108,14,-7
1537918448615022,16,11,14,37,116,50,-10,14
1537918448622004,-25,-10,-17,-28,-56,-32,0,-31
1537918448622004,-10,-8,-5,-42,17,-82,-28,-22
1537918448628985,19,-6,-9,-17,-46,-79,1,52
1537918448628985,14,2,-6,-20,-13,-16,-10,21
1537918448644943,10,4,9,24,51,115,3,14
1537918448644943,-24,1,10,46,69,95,12,11
1537918448644943,6,3,-1,7,56,46,16,-26
1537918448644943,-4,-14,-29,-76,-128,52,-13,-7
1537918448666884,-5,-1,13,30,108,82,-1,-1
1537918448666884,2,10,15,49,26,-70,-12,-17
1537918448667882,-7,-8,-10,-28,-51,-18,8,24
1537918448667882,-9,-1,1,0,-17,-5,-11,-42
1537918448682842,5,0,2,23,59,76,2,29
1537918448682842,-8,-11,-18,-66,-128,-99,4,-36
1537918448688826,-4,9,12,43,63,127,-3,-14
1537918448688826,10,6,0,-11,8,-35,4,11
1537918448704783,-9,-6,-4,6,71,14,-25,-7
1537918448704783,-7,-1,-8,-22,-41,93,15,-5
1537918448705780,2,-4,-4,-30,-43,5,-15,-6
1537918448705780,-1,0,5,14,-52,22,18,-1
1537918448726725,21,8,12,47,100,86,10,21
1537918448726725,-7,-4,-9,-27,-113,55,4,14
1537918448727724,-11,1,4,13,-12,-36,-2,-28
1537918448727724,7,3,11,35,99,23,-12,27
1537918448742683,-9,-4,-5,-11,-15,-128,24,14
1537918448742683,7,-8,-16,-42,-53,-52,-15,-5
1537918448748666,-8,3,2,-4,-5,-53,-10,-10
1537918448748666,8,-3,-9,-9,-77,-17,11,2
1537918448771605,-7,0,2,-23,69,78,-19,-31
1537918448771605,-1,-7,-2,28,-5,-11,-3,5
1537918448772602,6,3,1,9,20,-8,-4,8
1537918448772602,3,-2,-10,-25,20,40,-4,-10
1537918448794543,-23,-3,-5,-22,-99,-102,21,-15
1537918448794543,12,1,-5,-32,-43,-56,-12,28
1537918448795540,3,-1,12,37,37,-12,14,-18
1537918448795540,7,0,3,34,20,65,1,21
1537918448809502,-1,-7,-15,-48,-128,-76,0,-5
1537918448809502,-18,7,8,17,35,58,-6,-12
1537918448810500,-1,2,6,28,38,16,9,-18
1537918448810500,-4,-2,-9,-35,-18,-62,12,15
1537918448832441,4,5,6,17,-12,6,-12,-5
1537918448832441,0,-6,0,25,16,5,6,-5
1537918448832441,-1,-3,-12,-61,-17,-70,6,7
1537918448832441,-3,-1,6,10,40,34,2,16
1537918448854382,1,-5,-10,-12,-80,7,-13,-25
1537918448854382,-4,-1,-2,-20,19,2,6,-8
1537918448855380,-8,2,13,33,84,20,11,10
1537918448855380,7,0,2,31,34,55,-6,-4
1537918448869343,-16,-2,1,-10,-7,-18,15,-14
1537918448869343,15,-2,0,12,28,23,-2,14
1537918448870340,1,2,-10,-18,-23,-23,-18,-18
1537918448870340,-10,-3,4,4,-11,-16,15,1
1537918448892282,21,5,-4,8,-23,25,-13,15
1537918448892282,0,-3,-3,-11,-80,-41,3,-5
1537918448893280,-10,-9,-5,2,-16,-11,-3,0
1537918448893280,0,-2,-4,-14,69,-10,-14,-1
1537918448914223,-4,-1,4,7,9,56,-2,-5
1537918448914223,-1,-4,-3,-10,76,17,2,-10
1537918448915221,-2,-4,-8,-24,-96,28,-2,22
1537918448915221,0,5,11,28,14,-9,1,0
1537918448929183,-3,-1,-6,-9,52,-25,-5,-6
1537918448929183,-2,1,3,11,-11,39,3,6
1537918448930181,0,-1,-1,-3,13,27,-1,-5
1537918448930181,-14,-3,-4,-6,-2,3,-1,-12
1537918448952122,2,-2,3,0,-17,-24,-1,5
1537918448952122,-3,-2,3,15,7,-8,-1,3
1537918448953120,5,1,2,4,31,50,-2,3
1537918448953120,0,-1,-3,-12,-43,-46,-3,-2
1537918448975061,4,-1,-3,4,-3,9,-1,12
1537918448975061,-1,2,1,0,24,0,2,1
1537918448975061,-4,-5,-1,-5,-11,10,1,-3
1537918448975061,-6,0,-1,4,-1,-2,-5,-4
1537918448989023,10,2,2,7,21,20,1,4
1537918448989023,1,0,-1,-8,4,8,3,3
1537918448997001,2,0,1,3,-2,-13,-6,2
1537918448997001,1,-4,-1,2,-20,7,-2,-7
1537918449011961,-6,-1,-3,-7,5,-19,2,0
1537918449011961,-4,-3,-1,4,10,14,2,-7
1537918449012959,0,2,1,3,-3,-13,1,7
1537918449012959,6,1,-2,-4,2,-5,-4,5
1537918449034900,-9,6,0,-4,-4,-3,5,-7
1537918449034900,5,2,3,3,9,7,2,1
1537918449034900,-5,-21,-7,-1,-2,17,-4,-2
1537918449034900,6,20,5,-2,-4,-5,-12,6
1537918449048863,-5,-10,0,-2,6,1,15,18
1537918449048863,7,38,6,4,3,-1,7,12
1537918449056843,29,7,-4,-1,-1,7,-4,-17
1537918449056843,13,42,9,-8,-8,-7,-25,-36
1537918449071802,7,-112,-25,5,5,-8,8,19
1537918449071802,-5,57,17,3,4,5,13,6
1537918449072801,20,14,-6,-2,-4,5,-17,-15
1537918449072801,-17,-28,-6,3,-2,-5,6,22
1537918449094741,-28,73,7,-13,-8,-3,-21,-104
1537918449094741,-33,-112,-6,3,8,9,-20,73
1537918449095739,23,35,9,8,5,9,-2,-63
1537918449095739,33,23,-9,-6,-9,-9,25,58
1537918449117681,-15,-1,12,10,8,4,-2,-45
1537918449117681,-9,26,-9,-7,-9,-7,-9,11
1537918449118679,-31,-26,-2,-2,-4,6,54,96
1537918449118679,5,-21,6,5,7,-1,-23,-77
1537918449131642,25,19,0,5,6,7,10,36
1537918449131642,-6,2,-5,-2,-1,-3,-12,-103
1537918449132639,-1,-15,-4,-3,-5,-4,-13,9
1537918449132639,12,37,14,-5,-2,-3,-38,-22
1537918449154580,-4,-26,-8,8,9,11,83,-9
1537918449154580,7,8,3,0,-5,-8,-44,-77
1537918449155578,53,39,0,-1,1,2,8,58
1537918449155578,-57,-51,-12,1,-2,1,35,-40
1537918449168543,-22,-15,-3,-12,-11,-15,-49,12
1537918449168543,16,31,3,-1,0,3,16,2
1537918449177519,-39,-24,-6,-3,-4,-4,-32,-81
1537918449177519,9,8,1,-2,-2,4,62,113
1537918449192479,-12,-3,-5,-8,-3,-6,-22,16
1537918449192479,-2,-28,-6,-2,3,3,22,24
1537918449192479,-19,9,2,-6,-3,-9,-38,-9
1537918449192479,5,-16,-3,6,3,6,-14,-20
1537918449214420,4,13,4,-4,-6,0,-8,16
1537918449214420,20,4,-7,-6,-3,-5,-38,32
1537918449215417,-15,-9,2,1,2,7,8,-48
1537918449215417,-9,-7,-2,1,3,0,-10,-28
1537918449229380,2,7,-3,0,-2,-2,10,33
1537918449229380,3,-3,-1,1,1,2,12,-3
1537918449237359,-15,-14,-1,0,0,-8,5,27
1537918449237359,0,-8,-6,0,-2,8,1,-10
1537918449252319,-19,14,4,-2,-4,-6,-19,5
1537918449252319,33,-9,-2,-1,0,1,5,-11
1537918449252319,-5,-3,0,1,2,2,-2,-10
1537918449252319,-3,2,-3,-3,-2,-4,-1,12
1537918449274261,11,3,2,2,1,-3,-2,-27
1537918449274261,-14,-6,-1,-1,-1,0,-2,-3
1537918449275258,1,-4,-2,-1,-3,1,17,15
1537918449275258,3,-1,-2,-3,-3,-2,0,-3
1537918449289221,1,3,3,3,3,2,-23,-2
1537918449289221,-6,-8,0,1,4,0,15,-12
1537918449290219,-2,1,1,-1,-3,-2,-5,15
1537918449290219,-13,-8,-4,-5,-3,-6,1,-4
1537918449312160,40,7,-1,-2,0,-1,-7,-4
1537918449312160,-4,2,0,0,0,2,4,8
1537918449313158,-3,-2,0,2,2,3,25,21
1537918449313158,1,-3,-2,1,1,-1,-11,28
1537918449335099,4,3,-2,-2,-3,-4,12,14
1537918449335099,-3,0,0,-2,-3,-2,0,4
1537918449335099,-7,-7,-2,-1,-1,0,4,3
1537918449335099,6,-1,-1,-1,-3,-3,-4,-7
1537918449350059,-6,3,2,2,1,2,0,23
1537918449350059,11,-2,-3,-1,-3,-2,9,12
1537918449350059,-6,-2,1,0,0,-1,0,-17
1537918449350059,-1,-2,-2,3,1,-3,-4,-5
1537918449371999,-3,1,1,2,6,14,5,-2
1537918449371999,-11,0,1,7,19,6,0,-14
1537918449372997,0,-1,1,11,39,-4,-12,0
1537918449372997,-1,3,0,-12,-45,-10,-7,-18
1537918449394938,-13,-11,-12,-19,-69,70,16,7
1537918449394938,-18,-13,-9,-22,-1,-52,-12,-17
1537918449394938,35,16,3,-8,-47,-7,-15,11
1537918449394938,-11,-4,7,30,77,9,7,-7
1537918449408900,-5,1,0,-12,-75,-58,-39,-18
1537918449408900,-3,8,0,2,31,12,40,-2
1537918449416879,-5,-3,-11,-41,-128,-103,20,6
1537918449416879,-18,-1,-2,-5,82,11,18,-41
1537918449431839,17,-3,3,-4,-9,88,-24,55
1537918449431839,9,4,1,-2,-34,-99,2,-4
1537918449432836,-23,-3,-2,-2,28,119,37,8
1537918449432836,7,7,7,12,0,-11,-30,-10
1537918449454778,-8,-9,-2,8,35,46,39,-12
1537918449454778,-2,7,4,11,68,11,-24,-6
1537918449455775,-4,7,12,22,-27,-8,-1,-30
1537918449455775,5,-3,-2,-1,-25,-15,14,20
1537918449468740,2,-12,-9,-20,-9,21,-30,-24
1537918449468740,1,6,5,13,-15,39,4,13
1537918449476719,-2,1,14,63,55,33,60,17
1537918449476719,9,-15,-22,-56,-46,-35,-25,-3
1537918449491679,-5,4,17,43,125,-91,-33,-20
1537918449491679,7,-3,-17,-62,-113,119,56,48
1537918449492677,-6,-7,-5,9,127,107,-29,-10
1537918449492677,-1,8,8,35,-29,-75,37,60
1537918449514618,8,4,-5,6,81,87,-3,61
1537918449514618,-4,-2,2,12,-8,-107,-44,-7
1537918449515615,-4,-7,-15,-34,-25,33,-66,-19
1537918449515615,7,4,2,-4,-49,35,38,44
1537918449528581,4,9,4,10,53,-60,20,-13
1537918449528581,-9,-4,14,39,75,-47,-3,-2
1537918449537556,1,-7,-7,-21,-83,-90,-34,-4
1537918449537556,0,-3,-1,-14,-34,63,-2,-11
1537918449552516,-2,-1,7,24,53,78,15,-4
1537918449552516,-21,-3,-4,-25,-89,-11,-16,-13
1537918449552516,11,-2,0,-8,26,-68,-5,-6
1537918449552516,-17,-7,7,26,86,20,-21,-14
1537918449574458,-2,11,-5,-18,-110,-63,24,-20
1537918449574458,-12,-11,0,4,60,-21,-14,-44
1537918449575455,-1,4,7,6,40,99,19,56
1537918449575455,3,2,-12,-23,-60,9,0,-6
1537918449588420,-10,-8,-9,-26,-99,-62,0,-26
1537918449588420,10,10,5,31,112,63,12,-24
1537918449597397,-9,-4,-6,-20,-107,47,1,-7
1537918449597397,8,0,5,16,27,7,7,13
1537918449612356,3,16,8,23,24,48,2,0
1537918449612356,5,-4,-5,-1,10,76,10,-8
1537918449612356,-7,-2,8,29,99,-11,-37,-47
1537918449612356,1,-8,-21,-57,-95,-56,14,32
1537918449634298,12,0,1,8,25,-42,-15,-1
1537918449634298,3,-1,-5,-17,-95,102,-47,-16
1537918449635295,2,8,11,34,113,2,65,13
1537918449635295,-8,-5,-1,3,44,-9,-66,-34
1537918449649258,2,-5,-7,-33,-58,-71,50,60
1537918449649258,7,-1,5,27,90,25,-17,47
1537918449657237,-1,-6,-12,-26,-83,-56,-35,-18
1537918449657237,-4,7,14,40,99,52,-20,24
1537918449672197,-8,2,-2,-1,-2,-26,3,-11
1537918449672197,5,-17,-18,-46,-96,-37,24,-16
1537918449673194,5,11,0,-19,-51,-128,-7,-10
1537918449673194,-9,3,1,-2,4,74,12,-63
1537918449694138,-12,-8,-6,-11,-12,3,-51,-23
1537918449694138,-6,0,9,28,70,-29,-15,6
1537918449695135,-4,-9,-9,-9,36,-47,0,-26
1537918449695135,10,1,3,0,-10,-88,4,-3
1537918449718074,-10,-9,-20,-53,-93,-81,-8,-25
1537918449718074,10,1,2,16,80,-55,-5,45
1537918449718074,-4,-2,5,19,44,120,14,-10
1537918449718074,11,1,-4,-5,-70,-34,-3,5
1537918449732036,-8,1,9,25,36,69,39,-66
1537918449732036,-11,-5,2,12,7,-66,12,-32
1537918449733034,-11,0,-1,-7,45,-8,8,34
1537918449733034,5,0,-11,-21,-21,-72,6,17
1537918449754975,-12,-11,1,6,31,39,10,-8
1537918449754975,18,13,4,10,0,21,-10,7
1537918449754975,-9,-6,-9,-24,-82,125,0,-36
1537918449754975,-8,0,16,44,123,115,13,-13
1537918449778911,18,-1,-21,-56,-92,-88,-21,30
1537918449778911,-10,1,0,-4,25,112,27,-42
1537918449779909,14,-7,-2,14,74,-83,-38,22
1537918449779909,27,9,1,-5,38,63,9,64
1537918449791876,-21,-5,-7,-20,-87,-43,19,-32
1537918449791876,16,5,2,1,32,49,-26,1
1537918449792874,-13,3,4,1,-5,-85,1,61
1537918449792874,14,1,3,14,-34,-14,-32,-47
1537918449814815,4,4,16,47,127,-45,-29,11
1537918449814815,-16,-4,0,1,6,111,56,-21
1537918449814815,4,-4,-17,-54,-128,0,-30,34
1537918449814815,-2,4,4,27,99,87,-8,12
1537918449837754,-11,6,12,42,116,108,-1,-16
1537918449837754,-17,-10,-13,-46,-68,-62,-25,-34
1537918449838751,21,-9,-7,-16,-53,-50,-5,28
1537918449838751,-13,8,4,8,-11,-5,25,-58
1537918449851716,22,12,23,80,127,127,16,63
1537918449851716,-13,-7,-12,-26,-64,0,-10,-5
1537918449852714,-9,-4,-8,-21,28,80,5,0
1537918449852714,1,-8,-3,-4,58,-85,5,12
1537918449875652,7,3,1,-9,-64,-47,-27,-31
1537918449875652,6,-1,17,50,111,-52,-17,59
1537918449875652,15,4,-14,-24,-88,-93,-10,1
1537918449875652,-37,-6,-5,-24,22,44,-15,-65
1537918449897594,12,4,-6,-17,-21,57,25,53
1537918449897594,-12,-3,3,3,-26,-128,-13,34
1537918449898591,6,1,9,33,99,84,1,-54
1537918449898591,-6,-16,-26,-81,-128,-56,12,19
1537918449911556,-5,-5,0,1,53,-61,2,-4
1537918449911556,10,2,-5,-16,7,42,-7,-3
1537918449912554,-17,-3,14,40,63,29,1,-35
1537918449912554,9,8,5,20,40,16,-11,-13
1537918449935492,-6,-10,-21,-55,-98,-19,14,-23
1537918449935492,-10,-5,-15,-49,-87,-43,42,44
1537918449936490,-1,4,7,24,101,66,-27,-58
1537918449936490,-12,-5,3,-1,11,-12,4,14
1537918449957434,11,-9,-24,-47,-100,-105,-42,1
1537918449957434,14,4,4,15,20,78,14,23
1537918449958432,-1,9,6,15,29,47,23,0
1537918449958432,-8,-2,7,23,31,-15,-1,-28
1537918449972394,-1,-7,4,19,56,2,-12,-4
1537918449972394,-9,4,1,1,-33,22,3,-45
1537918449972394,-1,3,7,34,72,-75,13,14
1537918449972394,1,-24,-28,-79,-89,-8,-5,0
1537918449994335,7,12,6,29,110,59,-6,19
1537918449994335,3,-12,-12,-29,-21,33,-34,27
1537918450002314,2,0,-4,-5,-12,-97,-5,9
1537918450002314,5,4,3,0,-42,-5,50,40
1537918450017275,-9,2,13,25,87,108,-6,-9
1537918450017275,12,1,0,2,-46,-81,-12,-39
1537918450019269,-7,-1,2,17,87,117,63,19
1537918450019269,8,5,4,-2,3,70,-85,-27
1537918450032234,4,-6,-12,-35,-113,-49,-3,16
1537918450032234,4,5,11,25,53,25,5,-12
1537918450033231,-2,8,0,-13,-73,95,22,-31
1537918450033231,1,3,1,12,-18,-42,29,24
1537918450055173,-2,4,9,26,98,-13,2,-9
1537918450055173,-14,-2,2,7,17,-27,-3,-30
1537918450056170,28,2,2,4,40,-4,11,58
1537918450056170,-13,-3,-3,13,-41,-4,-19,-63
1537918450078111,3,6,7,-3,17,74,15,25
1537918450078111,6,-7,-14,-31,-67,79,-29,20
1537918450078111,-4,-5,-6,-12,39,58,-1,-15
1537918450078111,-5,-3,3,21,32,92,-11,11
1537918450092074,-15,-4,-11,-28,-82,-76,39,-17
1537918450092074,10,14,6,4,-13,-12,12,2
1537918450093071,-3,1,5,8,-34,-15,25,21
1537918450093071,5,2,-1,6,42,-36,17,-7
1537918450115012,-21,-14,-1,3,-13,-61,-22,-44
1537918450115012,10,9,4,-2,0,102,32,67
1537918450117008,-17,-6,-7,-24,-128,-18,-8,-53
1537918450117008,6,-4,1,9,33,13,-12,27
1537918450137951,2,4,1,8,12,76,15,-3
1537918450137951,-14,-1,3,23,24,1,-24,-63
1537918450138949,5,-6,-8,-10,-11,-27,-26,5
1537918450138949,-1,-5,-4,-15,-14,13,7,10
1537918450150917,1,-2,-3,-9,-7,-41,-20,8
1537918450150917,-2,0,2,8,44,55,-10,-3
1537918450159893,-4,0,-2,-3,-7,-54,16,37
1537918450159893,1,4,2,3,9,-48,-5,-2
1537918450174853,2,1,7,10,13,22,4,-9
1537918450174853,1,-2,-1,5,19,-72,5,35
1537918450175850,-3,-5,-7,-16,-47,-33,-16,-13
1537918450175850,3,3,1,5,14,-37,1,9
1537918450197791,3,1,0,0,1,8,-10,5
1537918450197791,-6,-6,-2,-1,-10,-15,1,-22
1537918450198789,-11,-1,1,-4,6,-26,-13,-8
1537918450198789,11,4,1,2,4,20,8,18
1537918450211754,0,-1,0,3,8,7,-3,-4
1537918450211754,2,-3,-4,-3,-2,-37,9,-1
1537918450220730,-4,0,-2,-3,-5,-1,-8,-11
1537918450220730,-7,-2,-1,2,5,0,3,-2
1537918450236687,12,3,1,0,-2,-3,-3,7
1537918450236687,-6,-9,-3,-3,1,-23,6,6
1537918450242671,5,10,1,2,11,3,-11,-13
1537918450242671,-11,-16,-4,0,-6,4,-2,-5
1537918450251647,-12,-20,-5,-4,-5,-10,-5,-1
1537918450251647,-5,18,6,2,3,3,7,-2
1537918450252645,8,34,-2,1,2,-1,-6,-5
1537918450252645,9,8,6,1,2,-7,1,-2
1537918450263615,-1,-14,15,0,0,3,-1,6
1537918450263615,-8,6,-20,5,3,-6,5,-7
1537918450271594,10,27,3,-3,-5,-6,-10,-10
1537918450271594,-12,-52,5,4,1,-3,8,9
1537918450286554,16,35,-2,-2,-1,1,-5,0
1537918450286554,-16,-15,8,-2,-1,-5,-1,-4
1537918450294533,-12,-10,-11,-1,2,-4,-4,-8
1537918450294533,-28,-21,7,-2,-3,2,-3,-8
1537918450309493,58,-35,-8,0,4,4,4,15
1537918450309493,20,60,-8,-3,-1,-7,3,0
1537918450310490,-55,6,11,-2,-2,-3,-9,1
1537918450310490,39,34,-5,1,2,3,23,13
1537918450323455,-13,-23,-23,-2,1,-1,-7,-15
1537918450323455,7,9,6,-2,-3,-8,4,-4
1537918450331434,26,0,2,3,3,4,6,40
1537918450331434,-34,-31,6,2,-1,0,-6,1
1537918450346395,-12,17,-3,2,-1,-3,-8,-5
1537918450346395,-2,-23,-6,-3,-1,1,4,-7
1537918450354373,-13,-24,3,0,-1,-2,-32,-5
1537918450354373,3,15,-6,-1,0,-1,28,-1
1537918450369333,11,35,7,-1,-1,0,9,20
1537918450369333,-18,-28,-1,-4,-3,-7,-13,-36
1537918450370330,29,-6,4,1,2,4,13,7
1537918450370330,21,18,-7,-4,-3,-6,-23,-8
1537918450384293,-12,-4,2,1,2,0,-6,-12
1537918450384293,-13,-4,4,-2,-4,-3,10,1
1537918450391274,-4,-12,-5,-2,-2,-2,10,-11
1537918450391274,0,6,-3,-2,0,3,-8,8
1537918450406234,-6,1,4,-1,-2,1,5,-12
1537918450406234,2,-7,0,-1,-3,-3,-4,19
1537918450414213,-24,-16,-5,0,3,-5,-5,-15
1537918450414213,18,9,2,0,-3,8,1,-1
1537918450429173,-7,6,2,-1,-1,2,-3,1
1537918450429173,3,-4,-3,-1,2,3,-2,1
1537918450430170,4,1,0,3,31,32,0,1
1537918450430170,-5,3,-2,-1,-25,-31,0,-5
1537918450444133,-15,-6,-6,-4,-8,-12,-6,-3
1537918450444133,9,-2,0,0,1,3,-3,11
1537918450451114,-4,-9,0,-2,-4,-2,5,-9
1537918450451114,-9,4,-1,1,16,12,-9,-8
1537918450466075,7,1,2,2,2,5,-2,11
1537918450466075,2,-4,0,-1,-3,-5,8,-16
1537918450475050,0,-3,-1,-1,0,-3,-8,3
1537918450475050,-8,5,0,0,2,0,-14,-21
1537918450490011,-11,0,-1,-1,-6,-5,1,-4
1537918450490011,-6,-7,1,-1,1,1,-9,2
1537918450490011,11,-4,-3,-1,-9,-7,9,13
1537918450490011,0,2,-1,-1,-1,-3,1,-2
1537918450503973,11,0,-1,0,3,0,-1,1
1537918450503973,0,-2,-2,-3,1,-1,-7,5
1537918450510954,-16,-16,-4,-3,-8,-5,4,-10
1537918450510954,12,6,-3,-3,0,-2,-1,14
1537918450525914,-10,8,3,3,6,4,2,-3
1537918450525914,-1,-2,-2,0,-3,-1,0,6
1537918450534890,6,1,1,-1,-7,-8,-3,-7
1537918450534890,14,-1,0,-3,1,2,-2,1
1537918450549850,-13,-6,-4,-3,-2,0,1,3
1537918450549850,18,1,-1,0,-4,-1,1,4
1537918450549850,-1,0,-2,-2,-5,-3,-9,-7
1537918450549850,-5,0,1,0,2,3,9,9
1537918450563813,-3,1,0,1,0,-1,2,-5
1537918450563813,1,-2,-1,-1,-3,-3,-1,17
1537918450571791,0,-2,-1,0,-1,0,-13,2
1537918450571791,-13,-4,-5,-3,-3,-8,27,11
1537918450586752,0,1,3,7,18,-5,-42,-69
1537918450586752,-3,-2,2,6,1,24,25,12
1537918450594730,0,-2,-1,-7,-9,-9,27,18
1537918450594730,0,2,1,-2,-11,-31,-18,-6
1537918450609690,-6,-5,0,9,38,-4,4,-44
1537918450609690,-6,-1,4,16,17,21,0,35
1537918450609690,4,-1,-5,-4,44,54,-26,-62
1537918450609690,-2,0,1,4,-14,-82,-17,-16
1537918450625648,-19,-6,-9,-30,-21,48,25,39
1537918450625648,-12,-7,-1,19,46,-18,-17,-28
1537918450631632,6,2,0,-18,-112,-41,33,-17
1537918450631632,-4,-4,-18,-59,-98,-75,-24,-38
1537918450646591,-3,-8,2,16,33,-2,13,5
1537918450646591,-1,8,3,0,15,88,19,-36
1537918450654571,6,0,-1,-2,23,57,11,75
1537918450654571,-16,-1,17,74,127,-43,-56,-73
1537918450669530,18,-1,-9,-59,-128,56,44,22
1537918450669530,-2,-2,-17,-43,-2,-128,-28,27
1537918450670528,-2,7,20,58,105,73,11,-4
1537918450670528,10,5,-3,-9,31,127,22,32
1537918450683493,8,5,20,54,23,-89,-18,15
1537918450683493,-8,-17,-14,-33,-34,47,-16,-27
1537918450691472,-11,-12,-20,-56,-92,-19,-7,-3
1537918450691472,25,6,11,21,-27,58,20,56
1537918450706432,-10,-2,9,46,127,66,-12,-20
1537918450706432,1,-8,1,-5,-73,22,29,7
1537918450714410,-12,11,-18,-51,-90,-92,-22,-25
1537918450714410,-4,0,9,25,118,32,0,-2
1537918450728373,26,13,7,15,-28,-54,50,38
1537918450728373,-6,2,5,29,110,-46,-9,-23
1537918450737349,-14,-7,1,15,59,58,-43,-23
1537918450737349,-22,0,-11,-34,-125,-92,53,-32
1537918450744330,-6,7,7,30,127,46,-21,-3
1537918450744330,2,0,-4,-22,-92,-45,-20,9
1537918450751312,0,-7,-3,-12,-82,-20,25,27
1537918450751312,3,3,7,24,102,12,26,31
1537918450766272,-4,-8,-9,-26,-65,-128,-54,-30
1537918450766272,7,5,9,14,23,-56,6,28
1537918450774250,2,-2,4,7,9,-33,-27,-15
1537918450774250,-7,-10,-11,-32,-103,-72,-19,5
1537918450789211,4,0,5,5,49,114,53,34
1537918450789211,0,-11,-8,-15,-39,69,-20,-6
1537918450797189,14,7,11,34,80,-22,4,-2
1537918450797189,-2,9,6,11,31,76,13,-4
1537918450804171,-6,-7,-13,-27,-72,-24,-2,7
1537918450804171,8,8,4,10,15,-2,3,-20
1537918450811152,3,-10,-2,7,22,-2,11,8
1537918450811152,3,-6,-1,18,100,32,-9,-6
1537918450826112,-10,0,-11,-34,-75,-2,-22,1
1537918450826112,-2,-1,-2,0,-32,-3,-28,-72
1537918450834091,11,7,4,23,81,31,-11,58
1537918450834091,7,-6,-17,-56,-128,55,47,26
1537918450849050,-11,-4,-4,-2,4,-23,-36,-22
1537918450849050,0,5,8,20,62,-47,51,33
1537918450857029,0,0,0,1,3,6,4,-20
1537918450857029,-4,1,0,4,3,-2,-17,2
1537918450864010,1,-6,-1,-1,3,-19,-8,-2
1537918450864010,-1,0,1,-4,-21,17,6,8
1537918450870992,5,-4,-3,-1,7,-56,-9,-31
1537918450870992,-11,1,-3,-8,-29,72,-10,6
1537918450885952,5,4,-4,-14,-63,66,34,11
1537918450885952,3,-1,1,6,45,15,-9,14
1537918450894928,-18,-4,0,-4,-41,-88,12,6
1537918450894928,0,1,-1,-2,19,68,-38,-35
1537918450908891,-6,-2,2,-3,-23,-21,4,4
1537918450908891,5,3,-2,-3,-15,14,5,7
1537918450916869,-2,-3,-1,2,8,23,15,-10
1537918450916869,-8,-9,0,3,19,20,-33,2
1537918450931829,0,9,0,-6,-31,20,5,62
1537918450931829,13,2,3,13,55,-18,25,10
1537918450932827,3,0,-6,-13,-40,-33,0,-19
1537918450932827,3,-1,4,14,38,-119,-22,1
1537918450946789,-20,-9,-4,-9,-2,-11,-28,-36
1537918450946789,6,-2,-7,-17,-45,-5,23,6
1537918450954768,9,9,12,33,85,27,-2,18
1537918450954768,1,3,-2,1,34,52,17,1
1537918450968730,10,-3,-2,-5,-4,6,-2,-9
1537918450968730,-6,-3,0,-2,-17,-20,12,11
1537918450976709,1,10,2,0,-7,-72,-11,-15
1537918450976709,2,-5,-3,-10,-50,-8,-3,44
1537918450991669,11,2,2,14,67,19,-9,-2
1537918450991669,-6,-10,-5,-12,-52,23,-10,14
1537918450992667,-4,1,-4,-9,-25,38,-16,-3
1537918450992667,-5,4,7,18,63,-70,9,-14
1537918451006629,-2,-6,-10,-16,-58,-114,-7,-9
1537918451006629,-9,2,5,15,80,5,-9,-2
1537918451014608,-5,-11,-6,-23,-103,16,-1,-10
1537918451014608,-2,-3,-8,-20,-60,-44,5,-2
1537918451028570,-3,-7,1,5,-7,85,-4,-9
1537918451028570,6,12,7,18,55,10,-7,-29
1537918451037547,8,2,5,18,96,-10,8,46
1537918451037547,-3,-6,-10,-23,-51,-40,-13,-34
1537918451051510,-8,-5,1,6,44,71,17,5
1537918451051510,-6,-3,-2,-6,-3,-85,-33,-38
1537918451052507,-6,-1,0,-5,-44,-10,22,-7
1537918451052507,3,-1,3,7,0,83,3,11
1537918451066470,8,-4,-2,5,24,-104,-25,-20
1537918451066470,-5,4,-8,-27,-74,23,-42,4
1537918451074448,0,0,1,8,43,98,11,-13
1537918451074448,-25,-7,-2,2,4,-14,0,-14
1537918451088410,19,5,2,-1,-22,-87,8,11
1537918451088410,-7,-7,-8,-8,-20,8,8,14
1537918451097386,-2,-5,-9,-25,-104,24,-16,7
1537918451097386,-1,-1,3,4,7,14,18,-38
1537918451111349,-4,9,10,27,127,92,-4,4
1537918451111349,-4,-2,-3,-15,-68,-17,0,-3
1537918451120325,1,-2,0,6,56,31,7,-9
1537918451120325,7,-1,-1,-5,-13,52,10,13
1537918451134288,0,-2,-4,-13,-91,-107,13,4
1537918451134288,1,0,6,19,80,-19,-2,-10
1537918451141270,2,-1,-6,-17,-74,-97,40,62
1537918451141270,3,1,2,8,27,-85,-27,-10
1537918451157227,0,-3,-4,-12,-22,20,-3,-7
1537918451157227,-2,0,0,-8,-40,1,30,10
1537918451159221,0,-1,3,13,53,-52,-19,-15
1537918451159221,6,2,-2,-2,-2,19,8,5
1537918451180165,3,-2,-3,-10,-34,32,25,47
1537918451180165,-3,0,1,9,38,24,-24,-18
1537918451181163,2,-3,-3,-15,-49,-14,2,-1
1537918451181163,6,2,-7,-2,5,-11,6,25
1537918451194128,-6,0,6,18,80,14,-5,-21
1537918451194128,10,0,2,3,-11,49,-3,-2
1537918451203104,-9,-6,6,-14,-37,78,2,-26
1537918451203104,3,3,-4,0,-11,2,-4,45
1537918451218064,9,1,-8,10,40,38,0,23
1537918451218064,-7,-1,0,5,24,-26,24,-3
1537918451219061,5,2,3,5,33,-16,-12,0
1537918451219061,1,-2,7,6,13,1,6,-41
1537918451240006,-7,0,3,13,97,15,-1,-16
1537918451240006,-2,0,3,0,-25,-19,-2,14
1537918451242000,-7,-3,-9,-4,21,32,-17,-13
1537918451242000,0,-2,-2,-3,-44,-19,38,7
1537918451253968,3,1,4,7,15,-7,-9,-31
1537918451253968,2,-1,-8,-11,-32,-13,0,36
1537918451262944,-3,-4,-2,1,14,0,-7,-7
1537918451262944,-2,1,2,6,28,-22,-13,-3
1537918451277904,-15,-2,1,2,18,28,14,-7
1537918451277904,6,-3,-5,-19,-73,-59,-9,4
1537918451278901,-1,1,0,11,41,6,-14,-21
1537918451278901,-3,0,2,6,19,-2,-2,5
1537918451299846,-2,-3,-3,-12,-32,13,-7,4
1537918451299846,-6,-3,-2,-3,10,-3,-7,-3
1537918451301840,1,1,-1,2,15,-5,5,6
1537918451301840,-4,-3,-4,-3,-7,26,-10,-13
1537918451323781,-1,-3,-4,-19,-82,-92,-2,-5
1537918451323781,-10,0,4,13,44,44,6,-15
1537918451325776,4,-2,-6,-13,-64,-56,-2,1
1537918451325776,1,0,1,0,12,-23,-5,8
1537918451337744,-4,2,1,5,31,23,2,-1
1537918451337744,7,-3,-4,-16,-69,-15,1,13
1537918451338741,3,-1,0,6,29,16,3,15
1537918451338741,2,0,-2,-4,-25,-31,1,0
1537918451359685,-3,-1,0,-6,-22,-16,-12,-4
1537918451359685,8,1,-1,6,40,23,-3,-3
1537918451361680,-8,1,0,3,3,3,-4,-17
1537918451361680,1,-3,-2,-2,-4,-5,-2,15
1537918451373648,3,-3,-3,-6,-10,0,1,-5
1537918451373648,1,-1,3,6,18,7,-1,-6
1537918451382624,-7,4,0,1,4,-3,-1,-4
1537918451382624,14,18,-9,-4,-2,9,-2,9
1537918451396587,-21,-39,-9,-6,-14,-10,3,-6
1537918451396587,-16,5,3,3,11,16,-3,-7
1537918451403568,15,-9,-9,-7,5,-7,4,-3
1537918451403568,-32,6,13,6,6,5,-1,-6
1537918451420523,-1,14,9,-2,-26,-12,-4,-3
1537918451420523,21,-6,-59,-5,14,10,4,-1
1537918451421520,-14,-6,7,-2,6,1,-5,-11
1537918451421520,25,-4,11,-2,-4,-4,-5,1
1537918451433488,5,-12,-1,-1,-8,-4,1,9
1537918451433488,-7,-1,18,6,6,7,-1,-1
1537918451442464,5,4,-5,2,6,0,2,5
1537918451442464,7,-6,-9,-4,-2,2,-5,0
1537918451457424,1,10,8,-1,-8,-5,-2,2
1537918451457424,4,2,5,-2,5,3,-5,-4
1537918451463408,1,2,-4,-1,0,0,2,-1
1537918451463408,-19,-11,4,0,-2,-1,4,-2
1537918451481360,15,4,-9,-1,-3,0,-23,0
1537918451481360,-6,14,25,4,2,-10,-54,-8
1537918451483355,-17,-1,-19,-4,-4,-2,21,-7
1537918451483355,-18,-4,-12,5,5,21,60,19
1537918451502304,15,6,-13,-17,0,-2,4,-2
1537918451502304,-2,-15,-16,-22,-2,-5,-11,-3
1537918451509285,-3,-6,0,4,-6,4,-77,-21
1537918451509285,2,-3,1,-4,-8,-15,-96,-15
1537918451516267,-1,4,0,5,-8,-26,5,10
1537918451516267,3,8,7,-1,-1,-10,-36,-7
1537918451525243,10,-3,14,3,8,17,1,3
1537918451525243,-14,-9,-8,1,7,5,13,-1
1537918451548181,7,13,10,7,-2,25,-38,6
1537918451548181,-1,-5,1,0,0,21,55,3
1537918451549179,5,12,-3,-1,-1,-22,-13,-1
1537918451549179,-1,-27,2,0,-3,-19,4,-8
1537918451563141,-17,11,-3,-3,-5,-19,4,-11
1537918451563141,10,19,-4,-5,0,8,-10,-5
1537918451564139,-34,-47,-46,-2,0,-2,6,-3
1537918451564139,34,33,-11,4,6,64,66,7
1537918451576107,9,-10,-6,-28,-3,-40,-43,16
1537918451576107,-17,-10,17,10,-3,2,35,-7
1537918451585083,9,9,24,3,5,-7,-51,4
1537918451585083,-7,-5,-5,2,-3,-1,41,0
1537918451600043,0,-3,-2,11,1,-36,4,3
1537918451600043,8,6,1,3,8,35,4,6
1537918451602038,-1,2,-2,-5,-2,13,45,1
1537918451602038,-22,-7,5,-2,-6,-38,-14,-47
1537918451622982,11,4,5,3,2,23,-11,23
1537918451622982,-3,-9,-2,-1,2,-17,-20,-30
1537918451623979,13,6,7,-2,-8,-20,1,-2
1537918451623979,-3,-5,0,-7,5,25,17,39
1537918451635947,6,5,7,11,9,10,63,22
1537918451635947,0,-6,-6,-2,-15,-62,-39,7
1537918451644924,-4,-1,5,-1,-8,29,31,-10
1537918451644924,8,6,4,-1,7,8,-22,-11
1537918451659883,-15,-10,-7,-3,1,16,12,-27
1537918451659883,-1,-6,1,0,-7,-7,5,29
1537918451661878,4,7,7,-2,-5,-9,36,12
1537918451661878,-8,-2,4,1,1,-27,-42,-6
1537918451682822,-2,-2,0,4,12,20,-1,-7
1537918451682822,-12,-5,0,1,2,6,33,-21
1537918451683820,-5,5,3,-2,-15,-10,-15,-28
1537918451683820,-7,-8,-3,1,6,-6,-11,-6
1537918451696784,5,4,-1,3,1,7,10,-6
1537918451696784,-3,1,1,3,-1,27,27,-16
1537918451703766,-7,1,3,8,23,0,-3,8
1537918451703766,12,2,-4,-7,-9,-29,-14,6
1537918451719723,-9,-5,-4,-6,-17,8,38,-8
1537918451719723,-8,-5,0,3,13,-2,0,0
1537918451721717,6,2,1,0,-3,-32,-24,9
1537918451721717,-5,2,-1,0,-3,22,11,-12
1537918451742661,-4,-2,-1,2,5,-34,-33,-4
1537918451742661,-4,0,-3,1,20,70,-3,10
1537918451743659,8,-5,-1,-1,1,10,9,8
1537918451743659,8,4,-1,-12,-32,-68,-18,11
1537918451756624,-3,-7,-3,-5,-9,37,8,1
1537918451756624,4,1,-2,-2,-5,-21,-2,18
1537918451765600,1,2,3,5,20,4,0,1
1537918451765600,4,0,-5,-4,-3,2,-11,10
1537918451780560,-9,-7,1,2,-3,7,11,-15
1537918451780560,-7,2,1,-1,3,3,54,18
1537918451781558,8,6,2,2,0,-3,-33,-4
1537918451781558,6,0,3,0,-2,1,10,16
1537918451802502,-10,-1,-3,-2,-3,-4,24,-19
1537918451802502,-2,-5,-1,3,1,-14,-6,-17
1537918451804496,-11,3,2,-3,-5,12,18,-1
1537918451804496,4,14,-1,0,1,6,-10,-9
1537918451825440,1,-3,1,0,1,-7,-16,-3
1537918451825440,2,-3,-1,-3,-8,5,-4,-1
1537918451826438,27,-3,-9,-7,-10,-8,-3,54
1537918451826438,2,-3,0,4,11,3,-25,1
1537918451840400,-14,0,-1,0,4,-9,-12,-30
1537918451840400,12,1,-2,-2,-2,-1,-34,4
1537918451841398,-13,-1,3,2,0,-1,25,-1
1537918451841398,0,-3,-2,-7,-15,-18,-15,-29
1537918451862342,8,-1,1,-4,-3,8,-14,7
1537918451862342,-5,-4,2,0,-12,8,-1,-3
1537918451864336,-2,-5,-3,-7,3,-4,39,-10
1537918451864336,-4,0,4,3,8,2,15,19
1537918451876304,-4,3,-3,-1,-2,16,-7,-8
1537918451876304,-3,-2,-1,0,9,-21,-29,-14
1537918451885281,-9,-1,0,2,3,28,35,-12
1537918451885281,20,11,1,0,-7,-5,-7,10
1537918451900241,-1,-28,-7,-4,-3,-8,-1,14
1537918451900241,-15,32,29,10,-2,-3,13,16
1537918451901238,-11,18,-36,-16,-8,-7,-21,-6
1537918451901238,-4,-29,12,5,4,5,-7,-9
1537918451922182,-14,-25,-22,-14,-11,-6,-5,4
1537918451922182,-12,-2,-6,0,-3,-4,8,3
1537918451924177,18,-14,14,4,1,-1,-3,3
1537918451924177,-18,16,-3,3,6,10,-12,-20
1537918451936144,12,0,6,-1,-7,-31,-2,33
1537918451936144,-7,-12,-11,-9,-16,-67,-43,-39
1537918451945121,0,13,4,1,5,67,67,3
1537918451945121,-4,-9,-5,0,4,83,-30,10
1537918451960080,8,9,11,10,12,-45,29,5
1537918451960080,10,1,-9,-4,-10,-22,-33,-5
1537918451962075,-4,-5,-1,7,11,14,14,-1
1537918451962075,0,-5,0,-5,0,86,24,-2
1537918451983019,-4,16,1,-2,-4,7,-2,-7
1537918451983019,7,-9,-4,0,3,-13,-62,6
1537918451984017,-4,-6,9,2,-14,-85,1,10
1537918451984017,9,-11,-6,-3,-7,17,57,13
1537918451995984,-2,16,1,0,5,21,-60,2
1537918451995984,-6,-5,-1,-2,-3,10,65,-7
1537918452004960,-5,-5,5,5,2,6,-53,-20
1537918452004960,-2,8,6,2,3,-76,-5,-3
1537918452019920,-6,-5,-5,2,0,22,1,-15
1537918452019920,6,-4,-1,-3,-3,7,2,13
1537918452021915,-9,-5,-1,-1,2,21,57,4
1537918452021915,2,7,-1,-1,-5,-30,-22,-18
1537918452042859,0,2,0,4,8,19,3,-1
1537918452042859,-3,-4,0,2,11,12,-8,-1
1537918452043857,6,5,0,-4,-6,-10,3,0
1537918452043857,-7,-5,-4,-2,-2,-11,-10,13
1537918452056822,-21,-13,2,-2,-7,-1,4,-16
1537918452056822,33,11,0,0,5,1,25,21
1537918452063803,1,-4,2,0,6,0,-4,8
1537918452063803,0,5,-3,-1,0,8,19,-6
1537918452079760,-6,-12,-2,-3,-5,-18,6,-36
1537918452079760,-6,15,3,1,-3,11,2,47
1537918452081755,-2,-12,-4,-1,0,0,-38,-14
1537918452081755,0,9,2,-2,1,-6,17,12
1537918452102699,10,10,-7,-1,-4,-7,-1,7
1537918452102699,3,-8,-5,-3,0,-9,1,-8
1537918452103697,7,11,0,-1,0,18,-21,-2
1537918452103697,-11,-17,-3,1,1,-27,-6,-1
1537918452116662,3,11,6,1,1,14,3,-2
1537918452116662,-6,0,-2,3,11,34,11,-14
1537918452125638,2,-5,-3,-5,-13,-24,-6,12
1537918452125638,2,-3,-4,-2,-3,-7,-30,0
1537918452140598,-1,3,8,0,-4,-31,-3,-10
1537918452140598,-4,-9,-9,2,-5,10,28,8
1537918452146582,-10,4,4,1,4,9,-3,-16
1537918452146582,-3,-4,-2,3,5,-12,-37,-6
1537918452162539,13,3,-2,-3,-2,2,16,26
1537918452162539,-4,0,2,-1,0,3,12,-10
1537918452164534,-7,-6,-2,-2,-1,3,-19,-1
1537918452164534,1,2,-2,-3,-7,-17,16,4
1537918452176502,-3,-2,0,-2,-3,-7,-26,11
1537918452176502,-10,-8,11,-1,-2,4,27,-18
1537918452185478,-1,3,-18,-3,3,25,-17,-9
1537918452185478,-10,-4,-9,-2,5,1,22,-3
1537918452200438,12,8,2,0,-1,7,-18,5
1537918452200438,-9,-9,3,-3,-8,-44,9,-12
1537918452201435,2,17,7,0,-4,0,-25,-2
1537918452201435,2,1,-2,1,6,3,-1,2
1537918452222379,-2,-7,-13,-6,-8,-10,23,-1
1537918452222379,-5,2,-6,0,9,22,-26,-22
1537918452224374,1,-4,8,1,-4,-24,-10,8
1537918452224374,7,3,-5,-5,-7,-5,-12,18
1537918452236342,2,2,5,4,12,8,2,0
1537918452236342,-11,-5,-6,-9,-24,-5,-24,-5
1537918452245318,2,-5,-1,2,3,-26,9,-23
1537918452245318,9,1,5,2,5,22,29,16
1537918452260278,-14,-6,0,2,3,-10,-9,-7
1537918452260278,0,2,1,3,10,37,14,5
1537918452261275,6,-4,-4,-3,-4,-20,-31,-6
1537918452261275,-13,-3,-2,2,-2,-14,16,-21
1537918452282219,-9,-8,2,-3,-2,-2,-2,-8
1537918452282219,11,5,-3,1,1,-5,3,22
1537918452284214,-4,-1,1,-2,-5,-9,-6,3
1537918452284214,-9,-6,-2,-1,2,10,-7,-21
1537918452296182,10,3,-6,-1,0,22,6,19
1537918452296182,5,1,4,-1,-2,-26,-10,3
1537918452305158,-4,-2,0,-1,-3,-10,3,6
1537918452305158,12,1,1,-1,-3,2,-7,13
1537918452320118,-3,4,-2,-2,-3,0,-3,-17
1537918452320118,4,-4,-4,-2,2,6,24,7
1537918452322113,0,-1,-4,-1,-5,-5,-11,8
1537918452322113,-5,-3,6,-4,-9,-53,-7,-16
1537918452343057,-4,-2,0,-2,-3,56,1,1
1537918452343057,2,-1,-4,-1,2,-23,-26,-14
1537918452344055,-10,-6,-3,-1,3,22,13,-4
1537918452344055,1,0,-2,-1,0,-6,-9,9
1537918452356022,9,4,0,-1,-6,-19,-4,3
1537918452356022,-7,-9,-2,-1,0,15,-3,5
1537918452364998,3,-4,-1,-1,1,-13,3,0
1537918452364998,-5,2,-2,-2,-8,0,-10,-9
1537918452379958,2,-4,2,2,5,3,3,-10
1537918452379958,-3,0,-2,0,-1,7,-1,5
1537918452381954,-3,-2,-1,-2,-3,-11,-1,-3
1537918452381954,-1,-1,-1,0,7,28,11,-2
1537918452402897,-6,-2,0,-1,-4,-7,-4,-14
1537918452402897,13,0,-3,-3,-4,-16,-1,16
1537918452403894,-6,-8,0,0,2,20,-6,-4
1537918452403894,5,2,-1,-1,-3,-33,-16,-8
1537918452415862,-8,-5,-3,0,6,39,24,4
1537918452415862,-3,2,-1,0,0,-9,-11,-20
1537918452424838,-1,-1,2,4,13,15,13,7
1537918452424838,-3,-2,-2,-6,-15,-6,-1,-13
1537918452439798,-1,-1,0,-1,-17,-17,-7,21
1537918452439798,0,1,1,-1,1,20,7,-12
1537918452441793,-1,0,-2,0,-4,3,-13,-1
1537918452441793,-10,-1,1,3,10,10,17,-30
1537918452462737,6,2,-2,-2,1,-14,5,37
1537918452462737,3,-2,-4,-2,-5,-4,5,26
1537918452463735,7,3,-1,0,-1,-14,-40,-35
1537918452463735,8,-6,3,1,3,23,24,13
1537918452476700,-4,-3,4,-1,-1,-18,-22,-2
1537918452476700,2,-4,-6,-1,0,1,-5,-13
1537918452485677,-3,-1,11,1,-2,-28,4,11
1537918452485677,-27,-5,-10,-3,-4,-1,13,5
1537918452500636,-7,-3,-4,-3,-2,27,6,-21
1537918452500636,1,2,0,0,2,-5,-16,-2
1537918452501633,3,8,-6,-4,-6,-16,-7,6
1537918452501633,4,1,3,0,-1,11,-6,-13
1537918452522577,11,-2,-2,-2,-3,-22,11,39
1537918452522577,-7,-1,0,2,3,31,-6,-18
1537918452524636,3,-6,-2,-4,-6,7,17,37
1537918452524636,6,1,-1,-1,4,15,-13,-14
1537918452545516,2,4,-1,3,5,-25,-42,-9
1537918452545516,-3,-3,-1,-2,-6,-12,4,-11
1537918452546513,-1,-1,-1,0,-1,11,8,3
1537918452546513,2,0,1,-1,-1,-5,2,10
1537918452560476,-2,-1,-4,-2,-6,-36,4,-14
1537918452560476,-4,-1,1,-5,-3,44,1,-2
1537918452561473,-6,-4,-3,-1,-2,-6,17,-8
1537918452561473,1,2,-3,0,0,0,-7,9
1537918452582418,-4,-2,0,1,3,8,6,-32
1537918452582418,1,-1,0,2,0,-29,1,13
1537918452584415,0,0,4,-4,0,13,5,0
1537918452584415,4,-1,-1,0,-3,2,-29,2
1537918452605357,1,-1,-3,-2,-2,4,30,-3
1537918452605357,-1,4,0,0,0,-14,3,-2
1537918452606355,-3,-14,-3,1,1,12,-7,-8
1537918452606355,-4,-3,-3,-1,-4,-13,-26,-13
1537918452620317,9,2,2,-1,2,-3,7,12
1537918452620317,6,2,-2,-2,-3,-1,2,16
1537918452621315,2,3,-2,0,-2,-3,14,1
1537918452621315,3,3,-2,0,1,-1,-8,3
1537918452642258,0,0,-1,-2,-2,-1,7,-3
1537918452642258,-7,-9,2,1,1,-6,3,-6
1537918452644255,-6,1,-2,2,3,8,-8,-5
1537918452644255,2,-4,-2,-3,-7,-18,1,2
1537918452665197,-1,3,-4,-1,-3,-3,-7,5
1537918452665197,-4,-4,-2,-1,0,-2,3,-1
1537918452666194,-8,-5,0,1,2,-1,-5,-6
1537918452666194,-7,-2,0,0,0,12,10,-4
1537918452680159,17,11,2,2,1,12,-4,15
1537918452680159,-3,1,-2,-2,0,-16,0,-12
1537918452682153,-2,0,-2,-1,-4,2,9,-14
1537918452682153,1,-3,0,-2,0,5,-3,5
1537918452703094,1,-5,-2,-1,0,-7,-18,-2
1537918452703094,-3,0,0,0,6,5,-3,-6
1537918452704092,5,3,0,-2,-6,-22,5,1
1537918452704092,0,-1,-3,-4,-5,14,-1,-4
1537918452725036,-9,-3,-1,0,0,-2,-3,1
1537918452725036,-1,2,-2,0,-5,-9,-9,11
1537918452727030,4,-2,-1,-1,4,4,7,8
1537918452727030,-1,0,2,2,5,3,-5,-1
1537918452739998,-4,-1,-1,-1,-2,5,7,-8
1537918452739998,6,1,0,-2,1,5,-3,-6
1537918452745979,-2,2,-3,-1,-1,-3,-2,-3
1537918452745979,11,2,-3,-2,-4,-11,-13,14
1537918452762934,-5,-7,0,0,-1,-8,2,-3
1537918452762934,-1,1,-12,-2,-2,24,28,-1
1537918452763932,3,4,19,1,-2,-18,-2,-9
1537918452763932,1,-3,2,1,0,8,2,9
1537918452784876,-6,-2,-2,-1,0,-1,17,-15
1537918452784876,1,0,1,0,-4,-39,-38,12
1537918452786870,0,-1,-9,-4,-4,11,-10,-11
1537918452786870,-5,2,-2,-1,3,12,12,-2
1537918452799836,-3,-3,1,-1,-3,-6,-3,-3
1537918452799836,-4,-6,0,0,-3,5,14,-3
1537918452805820,4,9,-4,0,-1,2,9,-10
1537918452805820,6,-2,0,1,0,-11,-3,23
1537918452822775,10,0,-5,-3,-2,10,-3,0
1537918452822775,-2,-1,1,-1,-1,-13,-13,-10
1537918452823772,-3,-5,-4,0,0,22,-4,12
1537918452823772,-7,-2,-1,-1,-2,-8,2,-32
1537918452844717,-1,-1,1,0,2,4,2,20
1537918452844717,0,-1,0,-1,0,-9,6,4
1537918452846722,-3,-5,-1,-2,-3,-10,-7,-2
1537918452846722,-2,0,-1,0,-4,9,22,-2
1537918452859677,-7,-1,-1,-2,-4,21,-1,-3
1537918452859677,1,-1,2,2,2,-36,-12,-9
1537918452866659,2,-1,-4,0,2,-6,-7,28
1537918452866659,2,-2,-3,-4,-2,7,19,-17
1537918452882616,-1,-3,1,3,4,12,-1,-3
1537918452882616,-4,6,0,0,-3,19,6,3
1537918452884611,-1,-3,-2,-1,0,-15,-4,-11
1537918452884611,1,-2,-2,0,-2,-15,-4,19
1537918452905554,-3,-1,0,-4,-4,-3,1,-13
1537918452905554,4,-3,-2,-1,-1,5,-13,-2
1537918452906552,-7,-3,-2,1,-2,-2,1,-2
1537918452906552,1,0,1,0,-1,5,-5,4
1537918452919516,-2,-1,-3,-1,-1,-25,5,-6
1537918452919516,7,-1,-1,-1,0,13,5,11
1537918452926497,0,1,-2,-3,-4,2,2,-10
1537918452926497,-6,-2,-1,0,2,18,7,-3
1537918452942454,-5,0,2,3,5,6,-15,-11
1537918452942454,-2,-2,0,-2,-1,-27,-15,-1
1537918452944449,4,-1,-1,1,0,7,-6,-7
1537918452944449,-1,-4,-2,-2,-4,-12,-2,-2
1537918452965393,0,-1,-1,-1,-2,0,15,19
1537918452965393,2,15,-1,-1,-2,10,9,-2
1537918452966390,0,-12,-3,-2,-2,1,-13,-7
1537918452966390,7,1,1,0,2,-13,-8,-4
1537918452979356,-3,-3,-2,-1,-2,-2,-17,-1
1537918452979356,11,-2,-2,-1,-3,9,12,1
1537918452986337,-15,-6,-10,-2,-2,-10,1,-4
1537918452986337,6,-7,11,7,0,-1,-9,6
1537918453002294,30,21,-7,-6,0,-4,2,11
1537918453002294,2,-1,-10,3,1,3,1,1
1537918453004289,-34,-14,3,0,0,8,6,-15
1537918453004289,3,8,-1,-1,2,-8,-11,-2
1537918453025233,-1,0,8,3,-1,1,0,-4
1537918453025233,-7,-3,3,1,-2,5,11,-6
1537918453026231,11,6,0,-5,-6,-28,-5,5
1537918453026231,-11,-4,-3,-1,5,35,-11,-15
1537918453039196,-4,-3,0,-1,-3,-26,7,14
1537918453039196,-5,-3,-1,-5,-7,-13,-12,-5
1537918453055154,-4,0,1,3,8,57,15,5
1537918453055154,-5,1,-1,-1,0,-8,-19,-4
1537918453063132,-1,-4,-4,-1,-5,-45,-11,-12
1537918453063132,-9,-8,1,-1,2,37,1,-4
1537918453064130,3,0,2,-1,-4,-38,-3,7
1537918453064130,6,8,-7,-2,-3,-7,-4,16
1537918453085073,15,-25,13,-3,0,4,-23,-16
1537918453085073,-6,5,-10,-2,-6,-29,13,-1
1537918453087069,-11,-10,13,1,-4,-6,1,4
1537918453087069,-1,-1,-6,-2,-1,-3,0,4
1537918453099036,-10,2,-26,-10,-5,5,-17,-18
1537918453099036,13,-8,-10,-3,4,3,10,13
1537918453108012,14,-12,-5,1,2,16,-4,4
1537918453108012,-23,7,7,4,0,-9,10,-29
1537918453122972,-7,2,4,3,0,7,5,13
1537918453122972,-7,7,5,-2,-3,4,-11,-13
1537918453123970,18,5,-6,-9,-15,-71,6,26
1537918453123970,0,-7,8,4,19,75,1,2
1537918453144913,-4,12,-2,1,-1,-90,-11,-16
1537918453144913,-8,-8,1,-4,-10,77,26,14
1537918453146908,12,8,6,13,34,48,-41,-31
1537918453146908,3,3,-6,-7,-20,-114,-34,6
1537918453158876,-7,-10,0,3,9,127,49,4
1537918453158876,-7,-7,2,4,10,51,-11,-23
1537918453167852,-2,6,-6,-4,-10,-45,-1,17
1537918453167852,4,0,4,-5,-6,-25,9,6
1537918453182812,-15,-7,0,-2,-7,-59,-1,-10
1537918453182812,3,0,3,-3,-10,-54,-14,-7
1537918453183809,-7,5,-9,-2,2,52,12,-5
1537918453183809,6,-3,-4,0,3,-5,-8,3
1537918453204753,-12,-5,0,-4,-7,-4,3,8
1537918453204753,-4,0,3,2,5,8,-7,-2
1537918453206748,2,6,-3,-3,-3,-3,-12,-4
1537918453206748,-4,-8,-6,-4,-8,-23,30,4
1537918453218716,4,4,3,3,4,24,-30,-11
1537918453218716,4,1,0,2,4,-12,-11,3
1537918453227692,-1,2,1,0,-3,-5,18,5
1537918453227692,-5,-5,1,-2,-9,13,5,-11
1537918453242653,-1,1,-3,-5,-1,7,-42,-2
1537918453242653,2,1,0,2,5,-8,43,3
1537918453243650,-3,-3,1,-1,-5,-20,-5,3
1537918453243650,0,-1,-1,2,13,26,20,4
1537918453265591,2,0,-2,1,-1,14,0,4
1537918453265591,-3,-3,0,0,5,-27,-28,-3
1537918453266589,0,0,1,-1,5,5,23,1
1537918453266589,0,-1,-2,-1,-5,10,-10,5
1537918453278557,2,-1,1,1,-5,-15,-5,-9
1537918453278557,-3,-1,0,-2,-7,-17,12,8
1537918453287533,0,0,-1,-2,2,21,3,2
1537918453287533,3,-2,-2,0,4,4,22,8
1537918453302493,-4,-1,-1,1,0,1,9,-7
1537918453302493,3,0,-1,0,-1,-18,-32,9
1537918453304488,0,2,0,-1,5,37,37,-4
1537918453304488,-3,-1,-1,-3,-2,-1,-12,-11
1537918453325431,-3,-1,1,-1,-1,-14,11,10
1537918453325431,0,0,-2,0,-1,22,8,-12
1537918453326429,-3,-3,-3,-1,-6,-41,-26,7
1537918453326429,1,0,-1,-1,-9,-4,32,-8
1537918453338396,-1,1,0,1,8,34,11,-5
1537918453338396,-6,-3,-4,-7,-7,-39,-29,-7
1537918453347372,3,1,0,-2,-20,-14,5,2
1537918453347372,-1,-1,1,2,4,19,8,5
1537918453362333,5,2,1,0,-2,-3,8,12
1537918453362333,-8,-4,1,0,5,-8,4,-38
1537918453364327,0,0,-2,-2,1,8,-37,19
1537918453364327,-1,0,-2,-1,-2,-23,-17,6
1537918453385271,-2,-1,0,1,0,9,44,18
1537918453385271,10,2,1,0,0,0,4,10
1537918453386268,1,-1,-2,-2,-3,3,1,-8
1537918453386268,0,1,-2,-1,0,-2,3,16
1537918453399233,-3,-4,-2,-1,2,4,5,-5
1537918453399233,-5,0,-1,0,-5,3,-13,10
1537918453408210,5,1,0,-2,-2,-20,-16,9
1537918453408210,5,-1,-2,-1,4,10,0,-8
1537918453422172,2,-1,-2,-3,-3,-7,-22,-8
1537918453422172,4,0,1,1,0,-4,-5,17
1537918453429153,-4,-2,-2,1,-2,-4,4,-33
1537918453429153,-3,0,-3,-3,-6,-5,-38,-6
1537918453445111,0,1,-1,0,8,-1,17,2
1537918453445111,3,-6,0,1,4,18,45,-2
1537918453446108,-17,1,-1,2,1,4,6,-1
1537918453446108,3,0,-1,-4,-23,-11,-18,-5
1537918453459074,-4,-1,-1,0,-2,-2,1,-5
1537918453459074,7,1,1,2,8,-13,-23,6
1537918453468050,-2,-4,1,-1,-3,18,3,-11
1537918453468050,1,-2,-1,-1,2,-3,-4,-5
1537918453482013,-13,0,0,0,-3,2,-5,0
1537918453482013,-1,-5,-1,-3,-2,1,16,1
1537918453489992,4,-2,-2,1,3,1,2,5
1537918453489992,-2,2,1,0,2,-6,-11,-1
1537918453504953,0,-1,-2,-1,-1,-5,-15,-2
1537918453504953,-5,1,-1,-1,-4,4,13,0
1537918453506947,-2,-1,-1,-1,-2,8,0,-6
1537918453506947,-1,-4,-2,-1,-1,-13,16,2
1537918453527890,1,0,-1,2,7,8,-17,-8
1537918453527890,-5,-1,-1,-2,-1,7,-3,-17
1537918453528887,6,0,-2,-2,-5,-23,6,29
1537918453528887,-6,-4,0,0,1,11,-4,-19
1537918453541852,7,-5,0,-2,-4,0,1,-11
1537918453541852,3,11,3,0,-4,-2,-6,-5
1537918453549832,0,0,1,0,3,-1,13,23
1537918453549832,-3,-1,0,4,10,3,-28,-8
1537918453564791,-18,-3,1,-1,-4,-9,18,4
1537918453564791,-1,-3,-3,-2,-5,2,1,0
1537918453564791,1,0,-2,-1,4,6,-1,-17
1537918453564791,-2,-1,-1,0,0,-3,2,2
1537918453586732,2,-1,-2,-1,-1,5,-1,7
1537918453586732,-5,-4,-2,-1,-1,-4,-6,-8
1537918453587730,4,3,1,0,0,5,3,17
1537918453587730,-3,-2,-2,0,1,3,3,0
1537918453601693,2,0,-2,0,-5,0,5,-1
1537918453601693,-6,0,-2,-3,-3,-14,-37,11
1537918453609671,4,-2,-1,0,4,15,35,-13
1537918453609671,3,1,1,-2,-4,-12,6,1
1537918453624631,3,-1,-2,-2,1,14,14,1
1537918453624631,2,0,0,-2,-6,-8,-12,4
1537918453625629,-3,0,-2,-2,0,7,0,-17
1537918453625629,0,-1,-1,-2,-1,-12,-20,4
1537918453646572,1,-1,-2,-2,-2,0,12,-7
1537918453646572,-1,-2,-2,0,3,12,11,2
1537918453647570,-3,-2,0,-2,-13,-15,-14,-4
1537918453647570,-2,-1,0,0,3,1,8,-9
1537918453661533,5,-1,-1,-1,-3,-5,-17,22
1537918453661533,2,2,0,-3,-15,-24,-5,4
1537918453662530,-3,-2,1,3,14,46,15,1
1537918453662530,3,1,0,-1,-4,7,-14,-14
1537918453684471,5,1,-1,0,3,-5,0,3
1537918453684471,-11,-3,-3,0,3,-4,19,-1
1537918453685469,1,0,-2,0,-4,-29,-21,-1
1537918453685469,5,-1,-2,-1,-3,-10,5,8
1537918453707410,-2,0,-1,1,4,32,-18,-7
1537918453707410,-2,-2,0,0,1,5,27,0
1537918453707410,-3,-2,-2,-3,-3,-12,-27,-28
1537918453707410,-2,-2,0,0,0,7,5,5
1537918453721373,0,2,0,-1,-3,-20,-19,-10
1537918453721373,1,-1,-1,-3,-2,16,9,-2
1537918453729351,-4,-3,-2,-1,-2,-12,-27,-3
1537918453729351,4,1,-2,0,0,-13,51,16
1537918453744311,1,0,2,-1,0,14,-5,1
1537918453744311,-5,-1,-5,-3,-2,-18,-24,-7
1537918453745308,0,3,5,-3,-1,36,-38,-6
1537918453745308,-10,-1,3,3,5,-8,46,-13
1537918453767250,12,6,-4,-3,-3,-12,-48,7
1537918453767250,-3,-15,3,2,5,-9,59,-18
1537918453767250,-3,-7,2,-2,-4,-13,6,15
1537918453767250,-14,-5,-20,-6,-7,-15,-53,-6
1537918453782209,-11,-6,2,0,-2,21,-15,-18
1537918453782209,11,12,-1,3,1,-19,-16,-1
1537918453782209,1,-6,-5,-4,-2,-3,1,-3
1537918453782209,-1,-3,5,-1,-1,5,-2,10
1537918453804151,-5,1,-1,-3,-6,-10,28,-17
1537918453804151,2,-6,-5,-2,-2,5,-31,8
1537918453805148,2,2,1,0,-2,-28,-18,-3
1537918453805148,-1,0,1,1,-1,40,8,0
1537918453827089,-3,-1,-2,0,4,-12,-15,0
1537918453827089,-5,0,2,0,3,-7,-9,-1
1537918453828087,7,4,1,3,-3,-3,29,18
1537918453828087,2,2,-2,-2,-9,-9,-11,-3
1537918453842050,-1,-4,0,1,3,-1,37,8
1537918453842050,-4,-2,0,-2,4,17,2,5
1537918453843047,-2,0,-5,-5,-7,-13,-21,-9
1537918453843047,1,-1,2,7,30,29,1,-9
1537918453863991,1,-1,0,-8,-14,-14,-2,6
1537918453863991,-7,-1,2,3,10,2,4,7
1537918453864989,2,2,-1,-5,-31,-50,-6,25
1537918453864989,-3,0,-1,-5,3,77,-3,-7
1537918453886930,-6,-5,-5,-6,-27,-27,25,5
1537918453886930,22,7,-1,-2,4,12,-36,15
1537918453887928,-13,-4,-2,3,19,32,45,-21
1537918453887928,-11,-5,1,7,12,-32,-15,-12
1537918453900895,-32,-5,0,3,10,8,-24,-59
1537918453900895,1,-1,-1,-3,3,-2,3,38
1537918453909870,19,5,-1,3,31,49,107,-29
1537918453909870,9,-1,4,14,35,37,-95,17
1537918453924830,-19,-4,9,29,43,-84,-38,-23
1537918453924830,2,1,-13,-25,-62,-30,66,28
1537918453924830,-12,-4,-3,-8,50,62,-90,-20
1537918453924830,-4,-2,-9,-14,-90,32,64,-25
1537918453946770,4,-3,-2,3,52,-48,-43,36
1537918453946770,0,-2,9,8,5,-102,0,39
1537918453947768,-2,-5,-12,-32,-94,35,-6,-9
1537918453947768,0,-1,-3,-15,-12,-128,-38,7
1537918453961730,-4,-3,-3,-11,-38,74,26,-27
1537918453961730,18,8,6,11,31,101,-7,-13
1537918453969709,-7,-2,12,45,121,-86,-24,-33
1537918453969709,7,-1,-6,-32,-81,-43,9,19
1537918453984669,11,6,10,42,101,127,50,10
1537918453984669,-26,-8,-15,-39,-101,-98,-45,-28
1537918453984669,-1,-1,-5,-6,-32,30,59,27
1537918453984669,0,-1,-3,-3,36,123,-93,-33
1537918454006610,10,8,1,-13,-19,-89,60,44
1537918454006610,-31,-7,8,14,82,-19,-66,-99
1537918454007608,5,3,3,-5,-67,-45,-35,37
1537918454007608,-11,-2,2,10,35,44,60,-11
1537918454021570,13,6,3,4,33,-5,-76,-46
1537918454021570,-8,-5,1,16,2,15,-51,1
1537918454029549,8,13,20,46,94,87,117,10
1537918454029549,-13,-4,9,28,-31,-126,61,-13
1537918454044509,-1,-15,-35,-74,-53,-81,-24,9
1537918454044509,-2,-6,-11,-21,-88,127,-85,-48
1537918454045507,14,-5,-14,-16,13,-53,32,46
1537918454045507,6,16,41,99,127,-9,-75,15
1537918454067448,8,0,-2,-3,-96,10,89,11
1537918454067448,2,1,-3,-17,22,-92,49,22
1537918454067448,-13,-13,-21,-46,-57,86,-31,24
1537918454067448,6,3,-2,-13,48,-50,-52,-65
1537918454081411,-10,-7,-3,-23,-44,-1,-45,20
1537918454081411,18,2,4,11,3,16,6,-18
1537918454089390,-10,3,13,31,35,-43,-24,5
1537918454089390,10,4,-4,-3,20,77,38,32
1537918454104350,-7,-3,-7,-10,-55,73,-53,-26
1537918454104350,12,4,-3,3,31,37,87,25
1537918454105348,0,-1,-1,-9,-15,-9,-47,-19
1537918454105348,-15,-11,-5,-9,1,-6,48,1
1537918454127289,19,19,10,15,45,-8,35,23
1537918454127289,-35,-52,-9,3,15,57,14,-3
1537918454127289,19,28,32,0,-30,-46,-95,20
1537918454127289,-4,14,-18,-28,-28,1,23,6
1537918454141251,22,7,24,26,22,-13,-13,13
1537918454141251,-19,-25,-38,-5,-8,-22,8,-18
1537918454149229,-31,-5,-2,-23,24,0,-20,-13
1537918454149229,17,-2,15,-3,-33,-25,-18,5
1537918454165186,-14,-16,-1,-12,-6,14,11,-12
1537918454165186,-16,-27,-32,20,19,6,28,24
1537918454165186,-29,-57,-66,-15,-15,-33,-50,-16
1537918454165186,32,-10,-9,-17,-14,44,103,60
1537918454187127,10,38,17,0,7,-6,11,12
1537918454187127,4,43,40,13,21,0,-35,-17
1537918454188124,21,29,32,12,-1,-12,66,12
1537918454188124,-8,-5,-4,-18,-22,-15,-39,-22
1537918454201090,-26,-64,-14,7,23,-21,24,25
1537918454201090,30,36,8,-3,6,37,-2,-7
1537918454209068,3,19,4,4,-12,14,-6,-49
1537918454209068,-7,-20,-13,5,1,-1,-16,56
1537918454224029,8,0,7,2,17,-26,-7,0
1537918454224029,2,6,-7,-24,-12,-2,-14,15
1537918454225026,-14,-11,2,10,-17,-26,5,-20
1537918454225026,8,5,12,-1,-10,-1,-10,8
1537918454246967,-12,3,-25,5,26,2,-47,-29
1537918454246967,22,7,13,-2,1,-8,54,43
1537918454247965,12,0,13,0,-14,-12,20,-22
1537918454247965,-14,2,-20,-17,-20,-12,-30,-3
1537918454260930,29,12,-24,-5,-4,20,11,13
1537918454260930,-31,-39,-55,-4,11,-4,-15,-3
1537918454269906,26,23,-28,-8,12,-8,-9,-7
1537918454269906,-3,14,7,19,-2,-9,-22,-6
1537918454284868,-1,-10,36,11,2,19,19,29
1537918454284868,23,25,-25,-1,1,-16,-41,1
1537918454284868,-22,-28,-24,-18,0,2,17,29
1537918454284868,-31,-32,-1,-1,-5,-15,2,-21
1537918454306809,15,-1,-22,-5,-1,6,4,-6
1537918454306809,-22,-3,30,12,4,-9,-18,-18
1537918454307808,8,22,7,4,4,8,25,19
1537918454307808,2,3,-4,-12,-2,-4,-25,-16
1537918454321769,-13,-22,8,5,-8,5,17,-14
1537918454321769,11,23,11,-1,-8,-37,-4,9
1537918454329747,-12,-12,-12,-1,-4,-1,-13,-41
1537918454329747,-6,-7,-17,-12,-1,46,39,29
1537918454344708,22,25,10,13,13,58,-14,9
1537918454344708,10,3,34,5,1,-44,23,1
1537918454344708,26,-14,-18,1,2,16,-121,-5
1537918454344708,-10,11,6,4,9,-70,94,5
