timestamp,emg1,emg2,emg3,emg4,emg5,emg6,emg7,emg8
1537910850860620,-1,1,3,6,41,-2,-2,-2
1537910850860620,0,1,4,15,11,1,-1,-1
1537910850861618,0,-2,1,11,3,-1,-1,-1
1537910850861618,0,1,2,-5,-12,-2,0,-1
1537910850861618,1,0,4,4,-8,-1,0,2
1537910850861618,0,1,7,0,-23,-1,2,-3
1537910850862616,-4,-1,3,5,65,7,0,-9
1537910850862616,4,-1,-1,1,-8,-3,2,28
1537910850867602,0,-3,-1,-3,-11,0,0,-1
1537910850867602,2,-2,-4,-1,4,-2,-3,0
1537910850874583,-1,1,-1,-3,-26,-7,-1,2
1537910850874583,-2,-3,-1,0,5,3,-1,-9
1537910850889543,-2,1,-5,3,13,4,1,-2
1537910850889543,-3,-2,-5,-16,-11,-17,-6,2
1537910850897521,1,1,7,1,-10,13,6,-1
1537910850897521,0,1,3,11,9,5,-6,-5
1537910850903504,-2,-3,4,3,-39,-8,16,5
1537910850903504,-3,-3,-3,24,57,6,-3,-10
1537910850927440,-1,-2,-10,-70,-24,-10,-10,-1
1537910850927440,-5,-5,-5,-13,2,-6,20,1
1537910850928438,-1,-1,-4,-6,-42,5,2,2
1537910850928438,-2,1,5,33,24,-8,12,4
1537910850967333,0,-4,-9,-22,-16,6,13,8
1537910850967333,-1,2,4,6,-4,1,-11,-5
1537910850968331,0,0,1,3,-4,0,-1,-1
1537910850968331,0,0,1,9,7,-1,-9,-5
1537910850972320,-1,0,-1,2,-3,-5,2,-1
1537910850972320,-1,-4,-7,-7,-15,-2,-3,-1
1537910850973317,-2,-3,-2,-6,-23,-6,9,1
1537910850973317,-1,-1,-3,-1,33,-4,-8,-5
1537910850978304,-1,-1,-1,1,-34,-5,-5,-5
1537910850978304,1,1,1,-3,34,1,3,1
1537910850986282,1,-1,4,36,17,19,-6,-3
1537910850986282,0,-3,-5,-19,-11,0,0,0
1537910850995259,0,0,-4,-22,31,-7,-11,-3
1537910850995259,1,0,3,2,-81,-6,5,2
1537910851009221,1,-1,-3,-12,-13,-6,2,1
1537910851009221,-2,-3,0,21,5,-2,-1,0
1537910851016202,-1,-4,-3,-15,2,7,-2,-1
1537910851016202,0,-1,-3,-3,30,7,-2,-2
1537910851040139,-2,1,6,-2,-22,-5,-7,-5
1537910851040139,-1,-1,-1,9,14,3,2,1
1537910851041137,-2,1,0,10,7,-3,-2,-2
1537910851041137,-1,-1,1,-2,-1,0,0,0
1537910851053105,-1,0,-1,-1,5,-3,1,1
1537910851053105,2,3,1,-1,-3,5,3,-1
1537910851062081,1,1,0,6,7,1,-1,0
1537910851062081,-2,-5,-4,3,13,-5,20,6
1537910851077041,-1,-1,0,-10,-24,-2,-3,-1
1537910851077041,-1,-4,-7,-12,-2,-4,7,4
1537910851079036,-1,2,3,10,23,1,-7,-6
1537910851079036,2,1,2,-1,-47,4,2,1
1537910851099980,41,9,2,1,80,10,-2,-1
1537910851099980,-37,-14,-7,-17,-78,-19,-5,-3
1537910851100977,3,2,10,59,64,-11,3,1
1537910851100977,-3,4,7,-6,29,11,-10,-3
1537910851113943,-2,-11,-22,-69,-36,40,14,5
1537910851113943,11,2,-5,-43,-5,13,-3,-2
1537910851121922,-1,-3,-8,-35,-46,-29,-3,0
1537910851121922,-2,0,0,11,3,51,-9,-5
1537910851136882,-9,0,9,60,24,-5,-2,-4
1537910851136882,10,10,13,45,-32,17,-1,1
1537910851138878,-7,-1,2,-20,50,-45,-1,1
1537910851138878,5,-1,-4,-21,27,31,5,0
1537910851159819,-11,-7,-7,-49,-63,42,-14,-4
1537910851159819,1,4,16,35,-17,-49,-3,0
1537910851160817,1,-1,8,50,21,44,-17,-7
1537910851160817,0,8,32,118,-29,-66,8,-2
1537910851173781,-12,-20,-85,-77,-70,-9,18,4
1537910851173781,4,8,35,98,69,1,4,-1
1537910851182757,-3,-13,-46,-123,68,50,7,1
1537910851182757,-6,-9,-4,3,-41,-39,-9,-4
1537910851197717,-3,10,37,112,41,-4,6,6
1537910851197717,3,-4,-13,-107,-55,-47,0,2
1537910851198715,3,12,43,127,79,-9,0,-1
1537910851198715,-1,-1,-18,-109,7,8,-17,-2
1537910851222650,-8,-5,19,94,35,-46,-24,-15
1537910851222650,-3,-20,-70,-116,-82,52,25,7
1537910851223648,3,10,51,92,37,-51,-10,-4
1537910851223648,-7,-19,-52,-113,-102,43,3,0
1537910851226640,-1,4,8,-11,86,-12,-9,-1
1537910851226640,-1,-6,-24,-116,87,-33,-22,-9
1537910851243594,-5,-6,13,4,-20,28,61,19
1537910851243594,4,3,6,33,7,-7,-4,-2
1537910851249578,8,26,70,64,11,17,-21,-4
1537910851249578,7,10,32,127,-97,33,32,10
1537910851255562,-11,-28,-51,-68,-70,-79,-37,-11
1537910851255562,12,22,74,110,85,68,3,4
1537910851271520,-8,-16,-54,-128,-125,0,36,10
1537910851271520,7,25,64,127,18,13,-15,-7
1537910851278501,-1,-6,-47,-81,-125,7,1,3
1537910851278501,-2,-1,0,31,-60,-16,15,4
1537910851285482,-1,-3,1,-41,-69,-2,-14,-6
1537910851285482,-11,-31,-71,-95,122,-28,-5,-5
1537910851300442,12,30,45,35,79,37,4,2
1537910851300442,-10,-24,-58,-106,0,-40,-5,-3
1537910851309419,-4,-8,3,88,-13,-37,30,-1
1537910851309419,10,30,65,80,53,52,-23,-3
1537910851315403,-17,-45,-84,-85,-18,-13,7,-5
1537910851315403,-1,-2,9,49,127,-6,14,4
1537910851331360,7,22,45,55,0,-34,-9,4
1537910851331360,-20,-49,-118,-112,-18,-37,6,-3
1537910851338342,6,10,10,-18,93,38,1,1
1537910851338342,2,6,7,80,-128,-71,-11,-1
1537910851346321,-4,-12,-31,61,83,54,-5,-2
1537910851346321,7,19,36,57,37,38,44,7
1537910851354299,4,7,11,12,-97,8,-30,-9
1537910851354299,14,34,66,55,127,-11,10,10
1537910851369260,-21,-49,-69,-87,16,-37,-35,-19
1537910851369260,1,3,33,127,123,30,-16,-5
1537910851376240,-1,-5,-1,57,-92,-99,4,2
1537910851376240,-2,2,17,126,-50,3,5,-7
1537910851391201,9,18,15,1,104,58,4,5
1537910851391201,3,0,-6,-60,-64,9,-8,3
1537910851398182,-10,-13,-19,-4,-24,-59,17,-4
1537910851398182,2,9,3,14,23,64,-12,-4
1537910851406160,-5,-6,-34,-113,-81,-3,3,-1
1537910851406160,-5,-9,-1,21,-21,-62,-7,1
1537910851415137,9,22,46,94,1,20,2,6
1537910851415137,-12,-21,-51,-104,-46,-16,-18,-11
1537910851429100,4,6,21,48,2,2,13,4
1537910851429100,8,23,56,121,-47,-9,-5,-2
1537910851436080,-3,-2,2,36,-95,33,-2,-3
1537910851436080,-1,-9,-17,-73,127,9,2,1
1537910851452038,-2,-1,11,46,48,-23,-4,-2
1537910851452038,3,9,23,-7,-95,-23,-3,2
1537910851458022,-5,-14,-43,-75,31,47,8,1
1537910851458022,-6,-14,-32,-60,-60,-10,-30,-13
1537910851466000,5,18,39,87,62,-39,-2,0
1537910851466000,4,10,22,109,-29,55,-17,-4
1537910851474977,-4,-7,-11,-13,109,-9,10,2
1537910851474977,-2,-10,-16,-39,35,9,6,-2
1537910851488940,4,7,10,-22,30,11,5,4
1537910851488940,-5,-9,-17,-50,-5,31,-5,-5
1537910851495923,1,0,0,-34,-34,1,-10,-3
1537910851495923,-1,5,15,52,-27,-32,-3,0
1537910851511879,-1,0,2,1,-9,-2,6,3
1537910851511879,-5,-13,-37,-107,23,-38,2,-2
1537910851518860,4,10,16,33,28,30,-7,0
1537910851518860,-1,-3,-8,0,15,-4,8,3
1537910851525842,-2,-5,-7,-25,-41,-9,-13,-5
1537910851525842,-3,-8,-10,-45,-23,6,5,2
1537910851540801,2,9,19,24,-33,0,-7,-2
1537910851540801,1,5,14,25,22,0,2,2
1537910851556757,-2,-4,-10,-38,-11,-2,-1,-1
1537910851556757,-2,-1,-1,-12,-9,-14,-3,-3
1537910851558752,1,7,13,15,-12,10,2,0
1537910851558752,-4,-9,-12,-27,-14,-7,-2,-1
1537910851571718,-2,1,2,3,-15,8,-7,-3
1537910851571718,-4,-7,-8,-16,29,-6,4,2
1537910851578699,0,-1,4,5,0,1,-5,-1
1537910851578699,-2,-1,-2,0,6,1,-1,-1
1537910851585680,-1,4,5,4,-7,-4,-4,-7
1537910851585680,0,-5,-9,-11,15,-2,-1,2
1537910851600640,0,-3,-5,-12,6,0,5,10
1537910851600640,-2,0,5,5,-24,-5,-6,-10
1537910851610614,2,0,0,0,-7,3,7,7
1537910851610614,-3,1,-7,-19,17,-5,-1,-3
1537910851615600,-2,-3,3,5,-2,3,-11,-17
1537910851615600,1,-3,-1,2,-5,1,12,13
1537910851631557,0,1,-2,-5,-7,-3,-1,10
1537910851631557,-1,-2,-2,-9,16,-5,-3,-18
1537910851638539,8,5,2,6,-1,3,-3,29
1537910851638539,-24,-4,-2,3,-4,0,-9,-11
1537910851645521,19,-4,-1,-8,-1,-2,-9,-13
1537910851645521,2,2,0,-5,0,-5,0,4
1537910851660481,-7,-2,3,2,1,4,10,-9
1537910851660481,-1,1,-4,-8,-4,-5,-6,-7
1537910851669457,-4,0,-1,0,-4,2,11,11
1537910851669457,3,-1,0,-1,5,-2,-12,-8
1537910851676439,-3,-4,-2,-2,-3,-2,9,25
1537910851676439,16,-1,3,-1,1,-1,5,20
1537910851691399,-19,1,1,0,-2,-2,-10,-33
1537910851691399,4,-3,-2,-4,0,-4,-6,-2
1537910851698379,-6,5,0,-1,0,-3,-9,-14
1537910851698379,-3,-4,-3,2,-4,-1,1,-14
1537910851705360,4,-1,-1,-3,-3,0,-11,3
1537910851705360,-12,-3,-3,-6,1,-4,14,-2
1537910851721317,11,-1,2,-1,-2,1,4,10
1537910851721317,10,2,1,0,0,-2,3,7
1537910851729296,1,0,-3,-3,-4,-2,-2,-3
1537910851729296,-3,-3,0,0,6,0,1,10
1537910851736277,1,7,6,0,-3,-2,-8,-10
1537910851736277,-7,-4,-1,-2,-5,-4,6,0
1537910851751237,-3,-5,-3,-3,-4,-6,-3,7
1537910851751237,2,2,2,-1,2,3,2,3
1537910851758219,-5,-1,2,1,0,5,-13,-13
1537910851758219,-5,0,-6,-6,-2,1,11,-20
1537910851766197,-1,-2,-5,0,-2,0,4,26
1537910851766197,-4,-3,-2,-1,-1,-2,3,-2
1537910851781157,1,-1,-3,-1,1,-1,-7,-15
1537910851781157,3,2,2,1,1,0,-11,-5
1537910851789136,-2,-1,0,-1,0,1,-4,-8
1537910851789136,4,2,-2,0,0,0,5,6
1537910851796117,-2,-2,-3,-1,-1,0,1,-1
1537910851796117,1,1,-1,1,-3,3,1,11
1537910851811077,-2,-1,-3,-2,-3,-3,8,-5
1537910851811077,1,-1,0,0,3,5,-9,-3
1537910851818059,-3,-5,-5,-3,-2,-2,8,2
1537910851818059,-1,0,-1,2,-2,-2,-9,-3
1537910851826037,1,2,0,-2,4,-1,-8,-3
1537910851826037,-1,0,-2,-2,-1,-2,3,-2
1537910851840997,-2,-3,-2,0,-1,1,1,0
1537910851840997,-1,-1,-2,-1,-1,-1,-7,-1
1537910851848976,1,-1,-3,-1,-1,1,15,7
1537910851848976,-2,1,-1,1,-1,-2,4,2
1537910851855957,-2,-1,-1,1,0,1,-12,-8
1537910851855957,2,1,0,0,1,-1,-3,2
1537910851871915,-3,-1,-2,0,1,-1,-4,-4
1537910851871915,0,0,-3,0,-1,-2,-7,2
1537910851877899,0,0,-3,-2,0,3,14,4
1537910851877899,1,2,0,2,4,3,1,1
1537910851885877,1,1,0,2,1,1,3,-1
1537910851885877,2,1,1,-4,-1,-1,-3,-3
1537910851900838,3,2,-1,-2,0,-1,0,-1
1537910851900838,3,1,0,-2,2,0,-2,2
1537910851908816,-2,-2,-1,-1,-1,0,6,-1
1537910851908816,-1,0,-1,0,-2,-3,-2,0
1537910851915798,0,-2,1,-1,1,-1,-2,-2
1537910851915798,-3,-1,1,-1,-1,-2,-1,1
1537910851930757,-1,-1,-2,-2,1,0,1,-3
1537910851930757,-1,0,3,-1,3,1,2,0
1537910851939734,-1,0,-1,-1,1,1,-4,-1
1537910851939734,-1,0,4,2,3,2,-5,-2
1537910851954694,0,-1,0,-1,-2,-2,-3,-2
1537910851954694,-2,-3,0,-1,-2,-2,0,-1
1537910851960678,-2,-2,-1,-4,-2,-4,-8,-6
1537910851960678,1,5,-1,-3,-2,0,2,-3
1537910851976636,-7,-18,-3,-4,-2,-3,7,3
1537910851976636,-1,1,1,1,0,-2,-3,-1
1537910851977633,-1,-1,-1,0,-1,-3,-1,-3
1537910851977633,-1,-2,1,-2,-3,-1,-7,-2
1537910851998577,-1,3,3,-1,0,2,-5,-2
1537910851998577,-4,-1,-1,-1,1,-2,-2,-28
1537910851999574,-1,-4,0,1,-2,-3,-2,24
1537910851999574,0,3,4,1,0,0,-4,-2
1537910852014533,8,-1,0,0,-1,1,2,1
1537910852014533,-5,-2,3,-2,0,2,7,8
1537910852020518,-5,-6,-2,1,1,-3,-3,-9
1537910852020518,5,11,3,-1,0,-1,2,0
1537910852036475,-4,-3,1,0,-1,-1,-15,-12
1537910852036475,1,-3,1,-2,-2,-2,4,9
1537910852037472,6,0,-4,-1,-1,0,4,4
1537910852037472,-31,-19,-8,1,0,2,6,-24
1537910852059413,1,-1,-7,-5,-4,-6,-20,-12
1537910852059413,-1,1,-2,-1,-1,2,7,8
1537910852059413,6,4,2,-2,0,1,3,4
1537910852059413,2,12,6,2,1,0,2,-10
1537910852074373,-18,-13,-3,2,1,5,-2,-6
1537910852074373,0,2,-2,-4,-3,-4,-14,-36
1537910852081355,7,0,0,0,-3,-5,-2,33
1537910852081355,21,17,7,0,0,-2,5,-5
1537910852096315,41,15,1,1,-4,0,25,14
1537910852096315,-13,-34,-11,-2,-3,-3,5,62
1537910852097313,5,-6,-22,0,-1,2,0,-85
1537910852097313,-33,-3,-15,-3,-8,-10,-3,1
1537910852126236,25,64,3,-2,0,-1,3,46
1537910852126236,23,-35,3,2,2,0,-12,11
1537910852127233,9,3,5,-2,6,4,2,56
1537910852127233,-41,6,26,3,0,6,14,-96
1537910852141196,55,-75,-30,-10,-9,-12,-6,18
1537910852141196,7,62,21,-2,0,-2,-12,46
1537910852142194,-30,-8,4,2,-1,-1,9,41
1537910852142194,10,-54,-21,-8,-7,-13,-49,2
1537910852172113,2,42,22,6,4,6,21,52
1537910852172113,-13,-35,-14,0,2,9,-4,-43
1537910852173112,52,53,5,-2,-4,-1,8,15
1537910852173112,4,7,10,1,1,3,-4,81
1537910852186076,-23,-16,8,-3,-6,-6,-29,-97
1537910852186076,-47,-82,-26,-2,0,-1,0,1
1537910852187077,13,43,17,4,0,-1,-10,-20
1537910852187077,2,15,-15,1,3,8,19,28
1537910852201035,-29,-65,-6,-2,3,-1,-25,-66
1537910852201035,2,104,11,-5,-5,-5,-6,-31
1537910852202032,-20,16,21,6,5,11,14,-37
1537910852202032,-43,-47,-30,-9,-7,-7,-15,-79
1537910852223974,-75,7,-8,-2,1,4,11,-79
1537910852223974,57,-25,-6,0,-3,-5,-16,50
1537910852224971,-33,38,11,-7,-8,-16,-14,57
1537910852224971,56,42,1,-4,-2,-3,-1,16
1537910852246912,-32,13,3,6,6,8,4,40
1537910852246912,-31,-4,1,-1,-3,-6,-10,-20
1537910852246912,33,-25,-8,1,0,1,13,32
1537910852246912,76,-11,5,5,3,9,5,2
1537910852261872,-36,-6,-26,-9,-8,-13,-45,-61
1537910852261872,10,-16,-6,-3,-3,-10,-5,18
1537910852261872,6,-37,-4,-5,-1,2,-1,-17
1537910852261872,-37,35,2,-2,-1,-3,1,0
1537910852283813,88,1,11,7,1,-1,21,117
1537910852283813,-47,13,3,5,-2,6,14,-10
1537910852284811,-32,-10,-21,-11,-6,-10,-19,-22
1537910852284811,37,-42,-6,6,9,12,24,82
1537910852306752,53,-8,-3,-5,-8,-14,-10,45
1537910852306752,-19,18,8,-1,1,-1,4,29
1537910852306752,2,-6,2,3,1,2,-1,-20
1537910852306752,35,57,11,3,2,1,6,61
1537910852321712,70,-2,20,7,2,4,9,-2
1537910852321712,-5,-15,-9,-6,-1,-1,-9,-43
1537910852322710,-5,-28,-7,-3,-7,-4,-9,47
1537910852322710,-2,71,36,8,6,0,5,-43
1537910852345649,-40,-22,-29,-9,-5,1,3,25
1537910852345649,10,-4,7,3,4,2,-2,-80
1537910852345649,25,4,-10,-3,2,6,14,8
1537910852345649,-52,-38,18,5,1,8,15,-8
1537910852366592,-26,-10,-26,-7,-2,-6,-28,-86
1537910852366592,33,58,12,7,-2,-2,46,72
1537910852367590,-9,-42,-19,-8,-5,-5,-13,-5
1537910852367590,24,33,12,-1,-3,0,3,-7
1537910852381553,-26,-22,-3,6,9,18,42,57
1537910852381553,27,-8,-21,-4,-2,-2,-26,-56
1537910852382550,20,-13,6,-1,-2,-3,-1,-24
1537910852382550,-43,-22,5,-2,-4,-2,4,-80
1537910852404491,19,53,5,-2,0,-8,18,91
1537910852404491,-52,-70,-77,-34,-24,-20,-35,-41
1537910852404491,-18,-10,13,1,3,-4,-22,6
1537910852404491,0,-76,-17,-5,-1,-1,0,71
1537910852426433,46,61,17,1,3,3,-11,19
1537910852426433,6,51,20,8,4,5,13,-38
1537910852427430,-30,-59,-13,3,0,3,33,25
1537910852427430,24,-51,-35,-15,-11,-23,-40,-5
1537910852441392,-6,7,22,5,3,8,1,-47
1537910852441392,40,32,35,20,13,16,40,61
1537910852442390,35,39,10,3,6,4,-8,27
1537910852442390,-19,25,4,-1,-1,-5,10,-28
1537910852464331,-11,-42,-35,-6,-3,0,-16,-80
1537910852464331,20,-20,12,-5,-7,-12,-28,26
1537910852464331,-88,74,44,13,7,11,35,-8
1537910852464331,-21,27,-31,-1,4,10,0,-53
1537910852486272,-11,20,6,-8,-6,-12,-15,6
1537910852486272,24,41,25,7,2,7,25,35
1537910852487270,2,-2,-4,-3,-2,0,3,-27
1537910852487270,13,29,12,1,-3,-3,5,37
1537910852501233,-25,-16,14,4,0,3,18,21
1537910852501233,11,16,14,3,3,4,1,15
1537910852502230,19,-28,-21,-8,-10,-12,3,-17
1537910852502230,-6,-30,-18,-5,-1,-3,-31,-59
1537910852524171,-20,11,10,2,2,0,-2,-6
1537910852524171,-9,-25,-8,-1,-2,-3,1,1
1537910852525168,1,19,3,2,2,-1,-14,-20
1537910852525168,-9,-21,-3,-5,-3,-6,-5,24
1537910852546113,-10,12,4,3,0,1,7,-4
1537910852546113,-2,15,3,1,3,3,-6,-13
1537910852547110,-11,-25,-11,-2,0,-2,-8,-12
1537910852547110,-2,9,4,2,-1,-3,6,16
1537910852561073,-4,3,7,-5,-3,-5,-15,-15
1537910852561073,-10,-21,-5,0,1,2,14,-1
1537910852562071,-4,0,-6,-2,0,-1,-12,-24
1537910852562071,9,-3,-1,0,-2,-1,3,26
1537910852584012,-18,6,2,-1,-4,-3,-5,-5
1537910852584012,-3,-13,-4,0,0,-1,-6,-7
1537910852585009,5,0,1,9,-12,-2,-7,-10
1537910852585009,2,13,7,26,11,4,3,5
1537910852606950,-11,-11,-13,-57,-5,-2,-7,-12
1537910852606950,-12,-7,-10,-5,-6,-5,7,0
1537910852607947,6,-1,1,-8,1,2,-4,-5
1537910852607947,-6,-2,4,3,-8,-3,-8,5
1537910852621910,0,8,13,56,-3,-1,12,5
1537910852621910,-4,-7,-1,-12,9,2,-6,-12
1537910852621910,0,-2,-15,-33,2,1,-9,-8
1537910852621910,-3,-7,1,-9,1,-4,-9,-1
1537910852643851,4,-3,-3,-7,-3,5,29,23
1537910852643851,-2,3,9,13,-3,-1,-5,-7
1537910852644848,-12,-1,12,26,0,-3,0,-11
1537910852644848,4,-1,1,25,0,1,-1,7
1537910852666790,1,8,18,41,-21,-2,-3,-7
1537910852666790,-5,-4,-9,-35,34,4,-3,1
1537910852667788,-4,-19,-48,-110,-23,3,5,-2
1537910852667788,-6,-11,-25,-32,-4,-5,-3,1
1537910852681750,-1,2,-2,10,13,0,1,-3
1537910852681750,-5,1,9,49,-20,-4,2,3
1537910852681750,10,9,19,44,8,-3,-7,-6
1537910852681750,-4,9,13,37,-21,-2,-1,3
1537910852703691,8,5,9,43,49,11,-1,-1
1537910852703691,-2,-1,-3,-53,-8,0,-1,-5
1537910852704689,-7,-11,-18,-19,-29,-16,-5,-3
1537910852704689,-3,-5,-10,-32,-24,-4,-2,-6
1537910852727627,5,2,2,-17,-1,8,22,18
1537910852727627,-5,1,7,20,10,3,-6,-5
1537910852727627,2,3,8,39,17,0,-5,-3
1537910852727627,-1,0,4,0,3,-4,3,3
1537910852741590,-4,-4,-5,-10,1,-2,-14,-10
1537910852741590,-2,-2,-7,4,0,9,2,0
1537910852742587,-1,-2,8,46,31,-7,1,1
1537910852742587,1,3,-5,-20,-49,-7,0,-2
1537910852763532,-5,-7,-15,-75,9,14,-5,-3
1537910852763532,-3,-5,-6,-21,-41,-7,0,-1
1537910852764529,2,3,12,20,13,-2,2,1
1537910852764529,0,1,5,14,33,7,4,5
1537910852787468,0,0,-1,13,-2,-10,-7,-2
1537910852787468,-3,-2,-8,-1,-18,-6,-2,-7
1537910852788465,-3,1,0,10,-17,-3,-12,-14
1537910852788465,3,2,-1,-4,25,8,15,10
1537910852802428,-1,-3,-4,-5,-26,-6,-5,-6
1537910852802428,-2,-3,0,11,11,1,-3,1
1537910852809409,0,3,6,-8,-2,2,3,1
1537910852809409,1,0,3,-4,8,0,-3,-5
1537910852824369,-1,-2,1,-5,-2,-4,2,2
1537910852824369,0,-1,2,10,5,-4,-5,-6
1537910852824369,1,-2,-4,-8,-15,-3,-1,-1
1537910852824369,-1,3,2,-8,44,14,-1,4
1537910852847308,0,22,7,7,-25,-14,1,-7
1537910852847308,-3,-16,-6,-1,-23,-2,-9,-21
1537910852848305,-31,-38,-4,-2,3,-1,8,-2
1537910852848305,16,35,-8,-4,-3,-8,-9,0
1537910852861271,-50,-102,-73,-10,-8,-4,-10,-27
1537910852861271,36,74,0,-3,27,5,-3,-3
1537910852862269,-24,-34,-16,-12,-7,-10,-2,3
1537910852862269,5,13,13,3,-12,4,2,-2
1537910852884211,13,27,20,13,21,6,6,5
1537910852884211,-6,-20,-3,22,-28,-10,-4,-2
1537910852885207,30,18,11,58,-8,15,-1,2
1537910852885207,3,1,-2,-87,-25,-19,9,15
1537910852907148,-11,-9,-7,-23,-30,-20,-6,0
1537910852907148,-9,-16,3,27,122,30,-7,-4
1537910852908145,8,16,-1,-41,-33,-17,-2,1
1537910852908145,-2,-15,-9,34,-3,41,-2,-3
1537910852921110,12,16,13,19,6,-14,-8,0
1537910852921110,-11,-2,6,23,-20,-23,-1,-4
1537910852922108,3,7,7,107,13,-30,-6,2
1537910852922108,-3,-13,-6,-74,-28,-15,1,-2
1537910852944049,-3,-5,-23,-45,-56,22,-8,-1
1537910852944049,0,1,12,30,8,46,29,18
1537910852945046,9,20,28,74,84,49,4,5
1537910852945046,-2,5,36,26,-59,2,-5,3
1537910852966988,-2,2,-19,37,127,-79,-27,-14
1537910852966988,8,11,27,-6,-93,-21,14,13
1537910852967986,-1,2,6,24,47,-29,-1,-4
1537910852967986,-4,-13,-39,-61,127,106,11,5
1537910852981948,5,22,71,115,-97,15,7,4
1537910852981948,9,4,-10,-122,-103,4,15,18
1537910852981948,-32,-64,-92,0,87,-84,-44,-25
1537910852981948,6,13,81,127,-84,-56,-30,-10
1537910853003890,-2,-10,-31,2,4,7,24,13
1537910853003890,-1,8,21,0,-63,-37,-7,-3
1537910853004889,14,35,56,-64,-35,91,14,5
1537910853004889,-9,-24,-54,35,45,-46,-3,3
1537910853026828,0,-8,-34,-57,19,21,-33,-13
1537910853026828,13,41,89,90,127,88,19,10
1537910853027825,-14,-34,-106,-128,-28,-24,-23,-16
1537910853027825,6,32,107,127,13,-32,13,5
1537910853040791,6,18,19,-108,-39,7,5,3
1537910853040791,-34,-64,-120,-117,42,-42,-41,-39
1537910853048769,6,13,49,115,-55,0,29,13
1537910853048769,5,13,18,39,62,37,12,10
1537910853063729,4,5,19,-38,-52,-64,-4,1
1537910853063729,-4,-11,-9,24,5,35,-12,-1
1537910853064726,5,6,-36,-113,5,1,-5,-3
1537910853064726,-22,-51,-114,-102,-48,-23,-12,-23
1537910853087665,10,23,53,127,27,17,8,8
1537910853087665,0,-5,-36,-18,-4,-7,-10,-1
1537910853087665,14,31,76,122,42,14,20,15
1537910853087665,-3,-4,-21,-94,-29,-29,13,15
1537910853100630,-4,-3,-16,46,55,75,-22,-18
1537910853100630,-4,6,35,70,-37,-67,14,10
1537910853108609,-14,-6,-15,-3,14,18,-13,-8
1537910853108609,1,-26,-74,-37,-117,15,5,-3
1537910853123569,2,0,28,10,104,10,4,1
1537910853123569,1,-16,-45,29,-89,-73,3,13
1537910853124566,5,19,49,12,-19,84,-6,-4
1537910853124566,-5,6,8,61,66,-7,-9,-5
1537910853148502,5,4,20,-82,24,15,29,9
1537910853148502,-12,-14,-19,53,16,-13,-9,-9
1537910853149500,6,-10,-27,-28,-87,-56,-12,0
1537910853149500,-3,2,9,76,-10,12,7,-5
1537910853160470,10,20,30,58,38,-6,-4,7
1537910853160470,-3,7,12,-9,51,57,5,-6
1537910853169446,1,6,35,2,-80,-23,23,19
1537910853169446,2,0,1,-31,43,8,-8,-10
1537910853184406,1,3,2,41,6,-35,-1,5
1537910853184406,-2,1,-7,32,22,10,-5,-5
1537910853184406,-17,-45,-92,-65,92,26,8,4
1537910853184406,6,12,54,127,-27,3,3,2
1537910853207346,-2,-7,0,62,-66,-7,-6,-5
1537910853207346,-3,4,13,-31,10,19,-21,-12
1537910853208343,12,13,7,-19,-74,-43,-5,-1
1537910853208343,-4,-2,-10,-58,56,62,3,-10
1537910853221308,-6,-7,-24,-46,0,-1,-2,-1
1537910853221308,5,7,37,127,-23,-17,2,5
1537910853229287,-2,2,2,-18,5,5,1,-4
1537910853229287,-4,-8,-9,-20,-26,-33,-9,-3
1537910853244246,6,7,11,22,-74,7,-1,-1
1537910853244246,-1,-4,-1,-82,-37,-2,16,11
1537910853244246,0,2,3,-22,34,36,-3,-3
1537910853244246,-2,-8,-12,10,12,-38,-6,-9
1537910853267185,-1,1,0,26,10,20,15,15
1537910853267185,-3,-5,-12,-60,29,8,-2,-3
1537910853268182,5,14,38,122,-78,-2,-4,4
1537910853268182,-4,-2,-1,-15,16,-2,6,7
1537910853290123,-5,-8,-16,-19,-13,-10,1,-3
1537910853290123,-3,-8,-11,-49,15,7,0,-5
1537910853290123,3,9,20,49,-8,-3,8,1
1537910853290123,1,5,9,11,5,-7,-3,-5
1537910853304086,-6,-12,-24,-45,-14,-5,0,1
1537910853304086,2,2,11,43,-20,-3,-3,0
1537910853305084,-3,1,3,0,26,-3,-2,-8
1537910853305084,-1,-3,-5,-46,-5,-3,-2,4
1537910853327025,-3,-9,-20,-34,23,2,20,9
1537910853327025,3,4,14,15,17,4,-2,1
1537910853328022,2,2,4,29,-29,-10,-2,-1
1537910853328022,-5,-5,-7,-53,37,13,0,-4
1537910853356945,0,0,9,24,-29,-2,-5,0
1537910853356945,2,-1,-3,-3,12,-5,-2,-5
1537910853357942,-2,-1,-7,-18,8,-1,3,-4
1537910853357942,-2,2,4,18,-31,-1,-5,2
1537910853363927,3,1,-3,3,-1,-8,3,7
1537910853363927,-4,-7,-4,-9,5,3,-7,0
1537910853364924,-2,0,-12,-32,16,-7,4,-2
1537910853364924,0,17,11,16,-3,1,-4,-7
1537910853386866,-7,-16,-13,-13,4,7,-10,-14
1537910853386866,-10,-26,9,-17,-2,-16,-2,-5
1537910853387863,7,0,-3,-4,6,-6,-13,-4
1537910853387863,0,3,4,1,-4,-3,1,-2
1537910853409805,2,57,11,5,-4,27,12,1
1537910853409805,-3,-83,-26,5,-2,-10,-2,1
1537910853410802,-1,11,-5,-9,11,1,-4,-7
1537910853410802,0,1,-2,-4,-8,-19,-11,6
1537910853431746,-12,-1,-1,-6,-2,23,-12,-23
1537910853431746,6,42,11,3,5,2,16,21
1537910853432743,-5,-9,4,-10,12,3,-2,-5
1537910853432743,2,-7,-3,-4,-4,-2,-4,-2
1537910853446705,-1,-9,5,2,-8,-12,-13,-5
1537910853446705,5,18,0,-1,6,7,7,3
1537910853447702,-18,-38,-11,-11,-4,-9,-2,-25
1537910853447702,0,12,4,0,-8,-2,-5,2
1537910853470641,5,-9,-6,-3,-2,-7,0,2
1537910853470641,-17,-1,2,-3,2,1,-1,-20
1537910853472636,41,29,-3,0,6,3,-3,38
1537910853472636,-16,-10,-1,0,-4,1,13,33
1537910853483606,22,-11,1,-3,-1,-4,-8,-30
1537910853483606,-11,-1,-5,-7,0,0,0,-19
1537910853492582,-4,19,8,1,3,2,1,9
1537910853492582,5,-6,-1,3,-1,4,7,-2
1537910853507542,3,12,-5,-1,-3,-8,0,21
1537910853507542,6,12,1,-1,-3,-2,-7,8
1537910853508540,-4,12,3,1,1,2,3,-39
1537910853508540,-3,-21,-15,-3,-1,-2,5,11
1537910853529484,-9,-19,-4,1,-4,-5,9,7
1537910853529484,7,9,3,4,8,2,-4,-2
1537910853531479,-11,-5,-9,-13,-5,-5,-4,0
1537910853531479,-2,-2,3,0,-3,-1,-6,-22
1537910853543447,-1,2,6,12,4,-5,-10,1
1537910853543447,-1,3,-4,54,-9,-3,-10,-15
1537910853552423,-2,-7,-17,-92,5,2,10,29
1537910853552423,-1,3,11,52,-20,-3,-1,-14
1537910853567383,-2,-13,-15,-43,12,-2,0,3
1537910853567383,2,7,-7,-18,-7,-5,12,9
1537910853568380,-7,-15,-3,-8,1,-2,-14,-9
1537910853568380,3,-1,-3,0,-7,6,0,-8
1537910853589324,-6,-1,4,25,2,-2,14,8
1537910853589324,0,4,2,5,-8,4,-3,-3
1537910853591319,-2,-1,3,20,0,-2,0,-2
1537910853591319,5,2,1,-19,9,5,-9,1
1537910853603287,0,-4,-1,14,-7,-2,4,-3
1537910853603287,1,3,-3,-26,6,-4,-3,5
1537910853612264,0,-4,4,13,-8,-19,4,4
1537910853612264,-1,2,1,-1,5,-2,1,-1
1537910853627223,-5,-4,-1,3,5,12,0,-2
1537910853627223,0,-1,-1,-19,-10,-4,-1,0
1537910853628221,-3,0,0,15,3,0,2,0
1537910853628221,0,1,1,0,-1,-7,-7,-5
1537910853649164,-1,-2,-1,-16,-12,-1,-4,0
1537910853649164,1,2,9,28,15,3,-7,1
1537910853651159,-1,-5,-2,11,4,2,6,1
1537910853651159,2,5,13,33,-22,2,2,-3
1537910853663127,-2,-11,-30,-102,1,0,-3,2
1537910853663127,1,2,-4,13,6,-9,-3,-1
1537910853672103,-4,-5,-5,-23,18,17,-2,0
1537910853672103,1,2,1,24,1,-7,-4,-2
1537910853687063,-1,4,8,42,3,4,-4,-10
1537910853687063,3,3,-1,-6,-9,0,11,15
1537910853689058,-4,-2,-2,19,-7,-3,-2,-1
1537910853689058,-2,-2,-4,-22,10,-1,2,-1
1537910853710001,-2,1,3,16,-2,-4,-5,-3
1537910853710001,0,-2,-5,-26,0,2,-3,-1
1537910853710999,0,0,5,15,-6,2,-7,-5
1537910853710999,-1,-2,-6,-16,9,4,-4,-1
1537910853722967,-2,-1,-2,1,-6,-6,1,1
1537910853722967,-2,-4,-2,0,-2,3,-4,-1
1537910853731944,0,1,4,6,2,-2,-1,1
1537910853731944,-3,-4,-5,-18,-2,0,-9,-9
1537910853746903,-2,3,3,10,-3,-3,-8,-3
1537910853746903,-1,-3,-1,-5,0,1,-1,-3
1537910853748898,1,1,2,7,-1,-1,-4,1
1537910853748898,-1,-1,-6,-15,2,1,-2,-4
1537910853769842,-1,-1,2,9,-5,-2,-2,-2
1537910853769842,-2,0,-1,-2,4,0,7,1
1537910853775825,0,-1,0,-2,-4,-2,-6,-3
1537910853775825,2,2,1,-1,1,-1,3,3
1537910853783804,-2,-3,-1,2,-2,-1,-1,-1
1537910853783804,-1,-1,0,-4,-3,0,-3,-1
1537910853791782,-2,-2,0,4,-2,0,9,2
1537910853791782,0,1,-2,-6,0,-2,-1,-3
1537910853806742,1,1,-1,2,0,-3,-2,-4
1537910853806742,-1,-1,-1,-6,-1,0,-5,3
1537910853808737,1,-3,0,3,-3,1,10,4
1537910853808737,-1,-1,-2,-4,0,-1,-6,-3
1537910853829682,-1,-1,1,0,-1,-4,4,-3
1537910853829682,-3,-3,-3,0,-3,-1,-8,-5
1537910853830679,-1,0,1,0,-3,-4,-6,-3
1537910853830679,-2,-1,0,-5,-1,2,4,2
1537910853843644,-2,-5,-5,0,-1,0,0,2
1537910853843644,-1,2,1,0,-1,0,-2,-2
1537910853852620,0,-2,-2,2,-1,-1,-6,-4
1537910853852620,1,-1,-4,-3,-1,0,20,12
1537910853867580,0,2,4,4,0,-15,-7,-5
1537910853867580,-1,0,-3,-2,1,7,1,5
1537910853868577,6,2,2,0,3,6,0,-1
1537910853868577,-9,0,1,2,1,-3,9,-20
1537910853888524,1,-5,-2,1,-1,11,0,25
1537910853888524,-1,1,1,-3,-5,-8,-1,5
1537910853897500,-4,-4,-4,-3,-1,-4,-5,-7
1537910853897500,3,-3,-2,-4,-4,-38,-23,-2
1537910853903484,-7,2,2,2,4,68,50,-10
1537910853903484,-4,0,0,-2,-2,-91,-12,-19
1537910853912460,3,2,2,4,1,58,0,8
1537910853912460,1,-3,1,-3,-1,-31,-3,9
1537910853927420,3,3,18,109,-1,-16,-15,1
1537910853927420,0,2,14,-39,1,-54,-25,-8
1537910853928417,-6,-3,-5,95,28,49,35,-6
1537910853928417,5,6,7,-97,-65,53,-4,13
1537910853949361,-1,-11,-27,32,97,-103,-16,-4
1537910853949361,10,17,58,8,-95,67,39,11
1537910853951356,-16,-25,-71,-122,52,-50,-37,-14
1537910853951356,1,8,32,125,-20,52,20,1
1537910853963324,18,25,43,-128,30,42,30,18
1537910853963324,-23,-53,-101,-1,-61,-77,-15,-13
1537910853972301,0,6,45,107,-77,51,-11,-6
1537910853972301,16,29,43,79,-17,27,11,13
1537910853987260,-31,-35,-78,-34,-32,-24,-19,-20
1537910853987260,14,28,94,125,20,-39,-16,6
1537910853988259,5,-17,-81,-128,-5,4,-13,-8
1537910853988259,-25,-35,-57,44,-81,-53,-15,-17
1537910854009202,26,20,33,-11,-38,39,8,14
1537910854009202,-10,16,26,67,80,37,-15,-9
1537910854011197,5,18,52,127,-26,-9,-6,5
1537910854011197,-33,-15,-5,-121,63,-5,-16,-18
1537910854023165,25,9,20,100,57,-39,15,17
1537910854023165,9,-16,-55,-128,-96,127,62,24
1537910854032141,-6,19,80,127,39,-64,11,-2
1537910854032141,0,-7,-6,-46,66,16,-6,-17
1537910854046105,-14,12,31,103,-56,55,-13,1
1537910854046105,15,-25,-65,-52,52,-47,-6,1
1537910854053084,13,1,33,79,1,21,1,5
1537910854053084,-3,-11,-3,104,8,-106,-2,3
1537910854070039,-5,-3,19,127,4,-12,-19,-11
1537910854070039,7,12,2,12,14,16,-8,-3
1537910854071037,-11,-5,-40,-111,1,-30,-11,0
1537910854071037,0,-1,-32,-42,25,65,2,4
1537910854083004,7,16,8,-48,51,67,-11,-6
1537910854083004,0,28,46,127,50,-13,16,12
1537910854091980,-13,-38,-96,-117,-99,12,20,-14
1537910854091980,-6,15,58,127,91,-26,-7,9
1537910854106940,17,-5,-29,-83,-103,-13,23,4
1537910854106940,-15,-18,-25,-60,18,60,-8,-13
1537910854112924,0,10,46,63,16,-17,-10,-3
1537910854112924,18,1,0,16,7,-16,-3,11
1537910854129879,-14,-18,-20,-58,-45,-20,-18,-12
1537910854129879,-7,-6,7,34,32,14,-2,-6
1537910854130877,4,6,8,-12,25,-44,-4,1
1537910854130877,7,-2,-16,-31,-10,19,14,6
1537910854153816,-14,1,13,32,15,-75,-13,0
1537910854153816,7,5,19,-18,-40,-32,-17,-4
1537910854154814,-11,4,5,-8,12,-62,11,8
1537910854154814,4,1,-3,-39,-1,65,-18,-17
1537910854166781,5,7,19,68,-17,23,16,5
1537910854166781,-5,-9,-18,-64,8,20,6,2
1537910854174760,-2,0,8,91,18,-30,-1,2
1537910854174760,-7,1,7,-17,34,-65,5,-9
1537910854189720,-3,-21,-48,-107,-13,-11,-1,-2
1537910854189720,-1,-5,-14,25,-31,-30,0,-4
1537910854190718,8,17,40,87,71,65,8,6
1537910854190718,-18,-21,-67,-102,-128,-31,-3,1
1537910854203683,2,-3,0,78,60,-14,-16,-6
1537910854203683,0,1,-7,-20,13,-8,3,-5
1537910854212661,-8,-10,-18,-71,-62,-43,-23,2
1537910854212661,18,11,31,97,39,12,-9,0
1537910854226621,-39,-12,-13,-119,-35,-10,7,-2
1537910854226621,27,-1,-4,-22,-14,17,1,-7
1537910854233602,19,11,5,-15,-24,-48,-11,9
1537910854233602,3,1,-7,-46,1,-1,-3,-2
1537910854249559,-3,-7,-5,-17,-80,-33,0,3
1537910854249559,-10,2,15,85,30,11,10,-2
1537910854251554,-6,-5,-6,-36,-7,-17,7,-8
1537910854251554,8,7,24,102,-25,6,7,19
1537910854272498,-13,-11,-28,-92,-30,9,-16,-9
1537910854272498,1,7,10,32,1,-59,-13,-7
1537910854273495,9,-3,4,47,-6,39,35,15
1537910854273495,-3,1,1,-7,25,-19,-31,-22
1537910854286460,7,10,29,53,9,4,7,5
1537910854286460,-11,-10,-13,-41,9,3,4,8
1537910854293441,-10,1,-2,36,34,23,12,-2
1537910854293441,9,-1,-1,-1,77,-36,-5,-1
1537910854309399,0,-3,0,-41,19,-16,-16,-4
1537910854309399,-8,-2,2,-18,26,45,7,3
1537910854311394,7,-2,-21,-72,-17,-4,-6,-1
1537910854311394,-5,2,11,56,-5,26,13,6
1537910854332338,11,0,3,-13,-5,5,3,4
1537910854332338,-10,-1,4,36,-3,-19,-4,1
1537910854333335,-10,0,10,13,-2,-46,-20,-8
1537910854333335,-1,-2,-13,-54,-9,40,15,3
1537910854345303,4,5,6,44,-18,20,-6,-3
1537910854345303,-1,-3,2,-44,-68,-63,-21,-7
1537910854354279,-2,-5,-13,-59,-2,93,22,4
1537910854354279,-1,-4,-6,-28,-10,-25,-4,-3
1537910854369239,0,-1,3,12,-4,25,3,-3
1537910854369239,4,8,8,63,46,5,2,4
1537910854371234,-1,-7,-6,-14,15,31,3,3
1537910854371234,0,-4,-6,-31,-48,4,1,-2
1537910854392178,-4,3,14,71,41,7,-2,-4
1537910854392178,-3,-4,-28,-77,36,-54,3,9
1537910854393175,1,-1,-5,-24,-3,27,13,-1
1537910854393175,0,3,7,31,6,12,-1,3
1537910854407137,0,-6,-10,4,-20,-70,4,7
1537910854407137,-5,-3,-3,14,-35,22,13,2
1537910854413122,4,2,5,3,-3,-24,-9,-8
1537910854413122,-4,-1,-4,-21,5,-41,-6,-6
1537910854430077,0,4,0,20,28,59,-12,-6
1537910854430077,2,2,4,6,-8,55,-17,-6
1537910854431074,-1,3,13,19,4,-26,28,12
1537910854431074,0,-1,-1,19,-13,11,2,-6
1537910854453017,-1,-4,-5,-43,1,-8,6,-2
1537910854453017,1,-1,6,13,-4,-1,2,3
1537910854454014,-4,-2,-1,-1,-2,-1,-22,-12
1537910854454014,1,-2,-2,5,-6,0,7,4
1537910854466978,0,-1,-4,7,14,10,6,0
1537910854466978,-3,-1,-1,1,3,8,-6,-6
1537910854472964,0,2,4,12,1,-9,-12,-5
1537910854472964,-1,-1,-3,-23,-9,1,5,6
1537910854489916,-2,-3,-5,-8,1,1,-1,-3
1537910854489916,3,3,4,6,-7,7,3,-2
1537910854490914,-12,-4,-4,4,-4,-2,-2,0
1537910854490914,14,2,2,-3,-3,5,-3,-1
1537910854511858,2,3,2,-2,6,-7,-8,-7
1537910854511858,-3,0,3,14,-2,10,6,-4
1537910854513853,-2,-4,-4,0,-3,4,-7,3
1537910854513853,-9,-3,1,-8,0,12,3,4
1537910854526818,-18,-6,-1,3,1,8,1,-14
1537910854526818,24,4,1,5,-1,13,-4,8
1537910854534797,12,9,1,-3,-1,7,-6,16
1537910854534797,-13,-5,-3,-7,-8,2,-7,-19
1537910854549756,-35,6,6,10,8,1,-2,-54
1537910854549756,45,29,-3,3,0,-17,23,62
1537910854550754,13,-51,-10,-12,-8,-14,-8,19
1537910854550754,-43,26,3,-4,-7,-12,-34,-83
1537910854571697,-4,-3,-3,15,14,7,32,72
1537910854571697,-47,-37,-17,-8,-6,-44,-37,-99
1537910854573692,38,14,14,1,-1,-6,13,61
1537910854573692,44,-103,-24,-12,-4,-12,7,9
1537910854585660,-69,106,19,3,5,-8,0,-71
1537910854585660,8,-124,-19,9,2,-1,4,6
1537910854594637,14,102,2,-2,0,5,-25,-9
1537910854594637,42,-19,-1,-15,-2,8,6,19
1537910854609596,63,-5,12,7,2,-1,52,118
1537910854609596,-126,-44,4,4,0,31,22,-64
1537910854610594,82,85,16,11,2,-18,18,63
1537910854610594,-79,78,15,0,1,20,-39,-24
1537910854632535,45,-37,-28,-7,-3,-14,15,-16
1537910854632535,1,98,16,4,0,15,-7,87
1537910854633533,-115,-128,-20,-3,0,-5,25,-53
1537910854633533,35,23,10,2,-8,-4,-19,43
1537910854645500,-68,-47,-10,-4,-1,-7,16,-33
1537910854645500,74,12,4,-3,-1,12,-3,-10
1537910854654476,27,8,-12,-3,-1,-11,-3,66
1537910854654476,-29,-10,-6,0,-2,-11,25,-17
1537910854669436,-19,-15,1,-7,-2,-7,-32,-59
1537910854669436,41,-2,8,1,1,-14,16,-1
1537910854671432,2,-4,0,-3,-1,-20,-20,39
1537910854671432,-24,-9,3,6,2,13,12,6
1537910854692375,70,-19,-9,-8,-8,-5,-32,0
1537910854692375,-46,25,11,-3,2,10,-16,-56
1537910854693373,-13,34,6,6,1,-3,-11,-112
1537910854693373,-15,-47,-1,3,6,-6,7,64
1537910854705340,17,10,5,0,0,8,5,16
1537910854705340,39,-2,-1,2,-3,-13,12,103
1537910854714316,11,-17,0,-2,-2,15,-15,-97
1537910854714316,-44,-16,-11,2,0,13,15,-54
1537910854729277,-13,0,-1,-1,-3,-3,-25,19
1537910854729277,22,13,-3,-4,-2,10,-7,-26
1537910854731271,-25,-24,-4,0,2,21,26,24
1537910854731271,16,13,-3,1,-1,-4,8,-1
1537910854752215,-34,-13,-2,-3,-1,-4,-8,-5
1537910854752215,-11,4,0,0,-1,-6,-4,2
1537910854753213,-15,-1,0,12,6,13,17,84
1537910854753213,29,24,6,-5,-3,-6,3,20
1537910854766178,33,5,2,2,0,4,15,9
1537910854766178,0,0,-5,-5,-3,4,-15,7
1537910854775154,-39,-25,1,-3,-3,-4,-11,-52
1537910854775154,27,10,1,5,3,12,24,26
1537910854790114,9,-6,-3,1,-3,-11,-10,45
1537910854790114,-43,9,-1,-3,-2,2,4,-44
1537910854791111,-14,-9,-3,-4,-3,-6,-3,-21
1537910854791111,4,2,-4,-1,-3,-9,-4,1
1537910854812055,-8,8,1,-6,-1,-4,-20,-29
1537910854812055,-11,-9,-3,1,0,-2,9,-17
1537910854813053,-15,-2,-4,-5,-5,-2,-35,-42
1537910854813053,0,0,-4,-1,-2,-9,5,23
1537910854826018,15,-1,-1,0,-2,3,-9,-30
1537910854826018,-12,-14,-4,-1,-1,-4,4,-14
1537910854834994,-6,1,-1,-1,-1,0,2,8
1537910854834994,-9,6,3,2,3,0,4,2
1537910854849954,-4,0,-4,-5,-3,-4,1,-2
1537910854849954,4,10,-1,-1,-2,-3,-12,4
1537910854850951,13,-13,-3,-1,-2,-9,-9,-12
1537910854850951,3,5,3,2,-1,2,0,-57
1537910854871895,-20,0,-1,-2,-1,-6,-18,21
1537910854871895,12,-4,-3,1,0,0,3,17
1537910854873890,19,1,-2,-2,0,7,8,23
1537910854873890,11,-6,-2,-4,-3,-9,-19,-39
1537910854894834,-8,0,-1,0,-1,5,-1,-4
1537910854894834,37,18,5,2,2,0,-6,1
1537910854895832,-13,-7,-2,-2,-5,-8,-6,-40
1537910854895832,-2,2,-3,-2,-1,12,26,14
1537910854908797,7,8,4,0,-1,1,2,-3
1537910854908797,-22,-8,-3,-3,-3,4,-7,-6
1537910854915778,-6,2,0,0,3,-5,-5,-4
1537910854915778,14,-1,-1,2,0,-4,-5,11
1537910854931735,-6,-10,-2,0,0,-5,-1,2
1537910854931735,-12,0,0,0,0,3,5,-1
1537910854933730,21,-1,-3,-2,-1,6,6,12
1537910854933730,-2,-6,-1,-2,-3,-9,-13,-10
1537910854945698,6,3,0,-2,-1,2,-6,5
1537910854945698,-3,0,4,1,0,-2,0,-6
1537910854954674,-7,1,3,-2,-1,-1,11,30
1537910854954674,-2,4,4,0,1,-1,-3,25
1537910854968636,-29,-7,0,2,-2,1,-14,-15
1537910854968636,24,4,-2,-3,-2,-4,-7,-36
1537910854975618,-21,-4,-4,-3,0,0,-3,-9
1537910854975618,0,0,-4,-1,-1,-2,-5,12
1537910854992572,0,-5,-2,0,-2,0,5,5
1537910854992572,-12,-5,-1,-1,-1,0,-1,9
1537910854993570,7,-3,-1,0,-1,0,-2,-11
1537910854993570,6,9,-1,-1,-1,-6,-2,15
1537910855005538,11,-6,-4,-3,0,3,8,-29
1537910855005538,-10,-3,-1,-1,0,-3,-2,26
1537910855014514,6,2,-1,-1,-1,1,0,-10
1537910855014514,4,-5,-4,-1,0,-2,-3,2
1537910855029474,9,4,-1,-1,1,0,6,18
1537910855029474,-12,-6,-3,-3,-2,-2,6,-13
1537910855031469,-17,-2,0,-2,1,-1,-12,-5
1537910855031469,-1,4,2,3,-1,0,-2,18
1537910855052413,-7,-6,-3,-3,-4,-5,10,0
1537910855052413,1,0,-1,-1,-1,-3,2,4
1537910855053410,5,1,1,-1,-2,1,12,-3
1537910855053410,-3,-3,-1,-2,-1,2,-3,-9
1537910855065378,4,0,3,1,0,2,-3,-4
1537910855065378,-3,-1,-3,-2,-4,-2,0,19
1537910855074355,3,0,0,2,0,-1,5,1
1537910855074355,-4,-9,1,1,0,-2,2,-6
1537910855089314,4,3,0,0,1,4,-3,7
1537910855089314,-4,0,0,-1,1,-2,-1,-1
1537910855091309,-1,0,2,1,0,0,-1,-2
1537910855091309,2,-2,0,-1,-1,-2,-8,-16
1537910855112253,3,3,3,2,0,-1,5,6
1537910855112253,-6,-5,-4,-1,-1,-1,-1,5
1537910855113250,3,1,-3,-2,-1,0,-1,-2
1537910855113250,0,0,-2,-1,2,0,3,7
1537910855126215,-3,-1,-2,-1,-2,-1,-10,-5
1537910855126215,-2,-1,-1,0,-1,0,9,9
1537910855135191,0,-1,0,0,-2,-1,-3,-4
1537910855135191,-3,-3,0,-2,-2,1,2,-6
1537910855149154,0,0,-1,1,-1,-2,-7,-5
1537910855149154,-5,-1,-1,-2,-1,-2,-18,-9
1537910855151149,2,-1,-1,-1,-2,-1,-2,-4
1537910855151149,2,0,-1,0,0,-1,-2,2
1537910855180071,1,0,0,0,2,0,6,2
1537910855180071,-1,0,-1,1,-2,-5,-4,-2
1537910855181069,-2,2,-1,0,-2,12,4,2
1537910855181069,-1,2,2,-1,1,10,-4,-7
1537910855196029,1,0,-1,2,0,-1,-2,2
1537910855196029,-2,-1,-2,-3,0,-2,-3,1
1537910855197026,-2,-7,-8,-5,-2,-2,-1,-4
1537910855197026,1,0,0,7,-3,-15,3,5
1537910855209991,-1,3,11,39,6,10,-13,-11
1537910855209991,-11,0,-1,9,0,-21,18,0
1537910855210989,9,-6,-19,-83,-31,2,-11,-2
1537910855210989,2,2,8,58,24,-12,-2,4
1537910855231933,-2,5,32,81,2,-21,-35,-3
1537910855231933,5,8,13,-25,9,-24,31,5
1537910855233927,-11,-12,-35,15,-12,-12,-24,-5
1537910855233927,-12,-17,-29,-84,31,4,-7,-13
1537910855254871,4,-2,-10,-35,-9,13,-18,3
1537910855254871,10,20,56,2,42,-9,-17,0
1537910855255869,0,0,-2,87,-39,-28,10,6
1537910855255869,-6,-7,-6,-50,-102,-50,-22,-11
1537910855267837,4,-3,-39,-71,39,-22,20,8
1537910855267837,3,-12,-56,-128,45,86,0,6
1537910855276813,-9,-7,-12,30,53,3,4,-9
1537910855276813,8,8,9,12,-111,2,13,8
1537910855291773,-15,-9,1,-72,15,-63,1,-7
1537910855291773,28,30,102,127,-11,49,-4,-2
1537910855293768,19,19,-12,-128,75,-5,13,24
1537910855293768,-15,-26,-54,-38,-54,50,4,-8
1537910855314711,-6,-9,-18,72,51,-42,-4,-3
1537910855314711,-6,2,-6,83,-2,-6,-20,-8
1537910855315709,1,15,56,94,3,-2,14,13
1537910855315709,-8,10,45,40,24,13,-3,-2
1537910855328674,13,16,27,35,62,65,27,6
1537910855328674,-24,-24,-39,-62,-61,-9,-2,0
1537910855337650,28,34,90,127,-44,17,-19,-9
1537910855337650,-32,-40,-116,-124,-37,-14,0,-6
1537910855352610,21,-4,24,92,-4,6,2,0
1537910855352610,-9,-5,14,72,59,-3,-4,-4
1537910855353608,-7,-21,-43,-88,-108,32,-17,-16
1537910855353608,14,19,47,101,84,-1,-22,-3
1537910855374552,-4,-2,-1,53,-58,-58,19,4
1537910855374552,2,-10,-37,-21,-8,-49,11,3
1537910855376546,-9,-10,-24,-78,5,-43,0,-5
1537910855376546,8,10,21,-5,45,21,4,-3
1537910855388514,-6,-4,-20,-4,-36,18,-11,-1
1537910855388514,3,4,-14,38,47,-42,-15,2
1537910855397490,-6,-8,-37,-101,-13,11,8,-2
1537910855397490,6,12,16,70,36,-21,5,4
1537910855412451,-9,-2,-9,-128,-51,31,-9,-10
1537910855412451,3,-4,2,8,-40,1,-1,-2
1537910855413448,-9,-1,11,-2,90,-1,-3,-7
1537910855413448,-3,-12,-8,-4,-20,11,-6,2
1537910855433394,-3,-17,-32,-75,10,15,-1,-9
1537910855433394,-6,-3,17,72,-8,35,4,-5
1537910855450349,-3,-6,0,64,10,-13,6,-1
1537910855450349,5,10,18,-35,-20,-16,3,2
1537910855451346,0,0,2,13,8,37,0,2
1537910855451346,0,4,9,26,-86,-78,-22,-7
1537910855457330,-6,-8,-13,20,45,73,10,5
1537910855457330,4,18,47,123,-32,-14,6,1
1537910855472291,-4,-11,-44,-104,-16,24,23,4
1537910855472291,-4,-10,-27,-61,-23,-21,-6,-4
1537910855473288,-4,6,20,60,-11,4,6,3
1537910855473288,-3,4,10,16,41,23,9,1
1537910855494232,4,6,13,48,16,-53,-19,-9
1537910855494232,5,-9,-21,-71,-5,16,11,7
1537910855496227,-5,-3,12,70,-8,-76,-12,-5
1537910855496227,-3,-10,-34,-109,37,90,11,-2
1537910855508194,1,17,44,127,17,0,5,9
1537910855508194,-5,-7,-17,-60,36,17,-8,-3
1537910855517170,5,4,14,28,-9,46,-8,-3
1537910855517170,-6,-12,-18,-52,31,-51,-4,-3
1537910855532130,-2,0,9,-4,-22,-7,7,2
1537910855532130,-1,-2,-4,-35,16,21,9,2
1537910855533128,-2,-6,-11,-37,-39,-18,0,-1
1537910855533128,5,5,8,35,-15,-12,2,2
1537910855555069,-3,-5,-9,-21,31,24,-2,-1
1537910855555069,2,1,3,-9,4,23,-8,-3
1537910855556066,-2,0,3,5,11,4,-2,-2
1537910855556066,3,5,17,62,28,-24,-2,-2
1537910855568034,-3,-1,-2,-12,-43,-21,1,-4
1537910855568034,-3,2,3,-2,-16,21,4,-1
1537910855577011,-2,-3,-6,6,7,-29,-5,-2
1537910855577011,5,5,9,42,13,16,6,6
1537910855591970,-3,-5,-4,-32,-5,2,-5,-3
1537910855591970,-3,-5,1,24,3,7,10,2
1537910855593965,-4,-4,-7,-39,7,10,-5,-3
1537910855593965,-5,-1,1,-15,-11,-22,12,0
1537910855614909,8,1,7,18,3,0,-13,2
1537910855614909,1,-1,-4,7,-5,4,-3,0
1537910855615907,-2,-3,-1,-6,1,-14,5,2
1537910855615907,0,0,2,11,8,-9,-5,-1
1537910855627874,-8,0,-1,-3,-4,9,-1,-3
1537910855627874,0,1,9,20,8,-1,3,-1
1537910855636850,2,-3,-1,-13,-3,6,-3,-1
1537910855636850,0,-1,-5,-11,0,0,-9,-6
1537910855650813,-1,-1,-1,-8,-2,-8,-7,1
1537910855650813,-1,-1,-4,-1,-7,0,-8,1
1537910855659789,-1,4,6,4,5,3,12,4
1537910855659789,1,-4,-7,-10,-1,1,1,-2
1537910855674749,2,2,1,4,-1,3,-1,-3
1537910855674749,-5,-1,-3,16,3,-8,0,-1
1537910855675746,-1,0,2,-2,1,1,-3,-4
1537910855675746,7,-1,0,0,5,-5,-2,26
1537910855688712,-5,-1,-3,-2,-5,4,1,-39
1537910855688712,-6,0,-2,2,-2,-10,1,-2
1537910855696690,-8,-2,0,-8,1,-4,11,17
1537910855696690,7,3,0,-5,0,-8,-3,-32
1537910855711650,6,-1,0,2,-2,-5,1,20
1537910855711650,6,-2,-1,0,1,-4,5,-10
1537910855718632,3,-3,-2,-3,-1,-3,-15,-20
1537910855718632,-10,6,1,3,1,0,8,16
1537910855734589,-11,-26,-1,2,-3,-1,1,-6
1537910855734589,0,3,-3,-1,-2,-5,-6,-4
1537910855736584,-3,0,0,-5,-1,-2,-6,2
1537910855736584,-1,-2,-6,-4,-2,-3,-5,-2
1537910855748552,-4,6,1,1,-1,4,0,-18
1537910855748552,6,-1,-1,0,-2,-4,2,42
1537910855757528,2,-1,-1,2,0,-1,0,-9
1537910855757528,1,2,2,-2,-1,-1,-3,2
1537910855772488,2,2,2,-3,-2,-2,2,9
1537910855772488,-3,-2,5,2,-1,-4,1,-8
1537910855773485,0,2,0,-1,-2,-2,-1,-3
1537910855773485,2,-3,-2,-2,-1,-2,1,1
1537910855794429,1,1,-2,0,0,0,1,16
1537910855794429,-6,-3,-5,-1,-2,1,-7,-13
1537910855796424,0,0,-3,-2,1,1,4,6
1537910855796424,-1,-3,-3,-3,-4,-2,-2,-3
1537910855808392,-1,-1,-4,-1,-1,-3,1,0
1537910855808392,0,1,-1,-2,-1,0,2,-6
1537910855817368,1,-1,-1,2,-1,0,8,5
1537910855817368,-2,-1,0,-1,1,-1,-3,-6
1537910855832328,0,4,-2,0,0,0,2,7
1537910855832328,-2,-2,0,-3,-8,-10,-9,-4
1537910855833325,1,-1,-2,9,16,6,3,1
1537910855833325,0,0,6,29,4,2,-5,-6
1537910855854269,1,0,-10,-52,-8,-7,8,11
1537910855854269,-3,-3,1,30,-1,-9,-2,-4
1537910855856264,-1,-4,-10,-78,-22,14,-2,-3
1537910855856264,-2,-2,2,1,-1,-1,3,2
1537910855868232,1,3,9,58,1,-2,-5,-1
1537910855868232,0,1,0,-20,28,7,4,-1
1537910855877208,-2,-1,-5,-1,-10,-8,1,0
1537910855877208,-1,-3,0,13,0,-5,-5,-1
1537910855891171,-3,0,-3,-21,-15,8,-1,-2
1537910855891171,0,0,3,15,0,-1,0,0
1537910855898152,0,1,6,23,8,-12,-2,0
1537910855898152,-1,-1,-3,-27,-11,5,4,-1
1537910855914109,0,0,3,18,8,-3,-6,-1
1537910855914109,-2,-2,-3,-8,-5,0,1,1
1537910855916104,-2,0,0,1,2,1,2,-4
1537910855916104,-1,-2,-4,-3,-3,1,0,-1
1537910855928072,-1,1,0,-1,3,-2,0,3
1537910855928072,-1,1,-1,-6,-1,5,-1,0
1537910855943032,-1,-1,0,3,-5,-2,-5,-2
1537910855943032,0,-2,-4,-1,3,-7,0,-2
1537910855951010,-2,0,-2,2,4,3,-5,-3
1537910855951010,0,-2,-1,-15,-20,0,0,1
1537910855957992,1,2,2,22,27,-1,0,-2
1537910855957992,2,-1,-2,-5,-1,-2,-2,0
1537910855974946,0,-1,0,4,-2,-2,1,0
1537910855974946,-2,-1,-2,-7,-4,0,-2,-1
1537910855975944,0,2,2,2,-3,-1,0,2
1537910855975944,-2,-3,-3,-5,-5,0,-3,-3
1537910855987912,1,-3,-1,3,14,-1,0,1
1537910855987912,-1,-1,0,1,1,-2,-1,-1
1537910855996888,-1,-1,0,0,-7,1,-3,-1
1537910855996888,-3,0,-1,-5,-4,-1,-2,1
1537910856011848,-1,1,2,3,-3,2,3,0
1537910856011848,-1,-4,-5,5,4,1,-2,-2
1537910856017832,1,0,0,0,0,-2,-3,-1
1537910856017832,1,-1,-1,-2,-1,-1,1,1
1537910856034787,0,-1,-1,-4,-2,-1,-2,1
1537910856034787,1,0,1,2,2,-2,-1,-1
1537910856035785,0,-1,-3,-2,-8,-2,-2,1
1537910856035785,-1,-1,-1,-1,2,-1,-1,-2
1537910856048750,-1,1,2,-3,-1,1,0,-1
1537910856048750,-2,0,-2,-3,-2,2,0,-1
1537910856056729,-3,-1,0,5,-3,0,1,-1
1537910856056729,-1,1,0,-2,2,-2,-1,1
1537910856071690,0,-4,-1,-3,-2,-1,-2,-1
1537910856071690,-1,2,-2,2,-3,-1,-1,-2
1537910856078670,1,0,0,2,-2,-2,0,1
1537910856078670,0,1,-1,-4,1,0,-2,-1
1537910856094629,-2,-3,-3,-5,-4,0,-1,-1
1537910856094629,-2,0,1,2,-1,-2,0,1
1537910856096624,0,-4,-3,-1,-1,1,1,-2
1537910856096624,-1,1,1,-1,-2,-2,1,1
1537910856108592,0,1,1,3,-1,-2,-2,1
1537910856108592,0,-1,-2,1,0,-1,-4,-4
1537910856117568,-1,-3,-2,-2,-2,-2,-2,2
1537910856117568,-2,0,1,-1,-1,-2,2,-1
1537910856132525,-2,-5,-5,0,-4,-1,-1,-4
1537910856132525,1,0,4,2,3,-1,0,1
1537910856133524,0,-1,-4,-16,-5,1,0,-1
1537910856133524,-1,-2,-1,0,-1,0,0,1
1537910856154467,1,2,2,-3,0,-1,0,-2
1537910856154467,0,0,-1,2,1,-1,-1,0
1537910856156462,0,0,2,6,1,-2,-4,0
1537910856156462,-2,-4,-3,-3,0,2,3,0
1537910856177406,-1,1,-2,0,0,0,-1,0
1537910856177406,-1,0,-1,-3,-2,-1,-2,0
1537910856178403,0,2,1,3,0,-1,3,-1
1537910856178403,2,-1,-3,-3,-2,0,-2,-1
1537910856192365,-1,-2,-1,-2,-1,-1,-3,0
1537910856192365,1,-1,-1,0,-1,1,0,1
1537910856193363,-2,-1,-1,-1,-2,-1,-1,-4
1537910856193363,-1,-1,1,2,0,-1,-4,-5
1537910856214307,0,2,1,1,0,-1,1,-2
1537910856214307,-1,1,-1,-4,-1,-3,-1,1
1537910856216302,-3,-3,-3,-1,-2,3,-3,-3
1537910856216302,-1,-2,-3,-2,-1,0,1,0
1537910856237245,1,0,0,-3,-3,-4,-9,-4
1537910856237245,0,-1,0,32,3,-6,9,1
1537910856238243,0,4,18,86,-1,-34,-11,-3
1537910856238243,1,2,7,-44,7,11,-11,-3
1537910856251208,-1,-4,-2,97,-5,46,5,3
1537910856251208,3,3,-9,-101,-17,73,41,5
1537910856259187,-4,-10,-13,31,53,-3,-19,-7
1537910856259187,0,8,28,22,-43,97,31,3
1537910856274147,5,-3,-31,-110,38,-102,30,12
1537910856274147,-16,-25,-27,63,32,-13,-1,-7
1537910856276142,5,10,29,-58,33,-56,-51,-13
1537910856276142,-5,-23,-94,-104,-45,-65,-18,5
1537910856297085,-10,-12,-3,-71,25,43,29,-5
1537910856297085,14,31,73,53,66,-4,-43,-2
1537910856298083,-8,-28,-85,-99,-8,88,43,10
1537910856298083,5,19,68,114,-68,-65,-53,-17
1537910856311048,-11,-2,-75,-128,-59,10,17,1
1537910856311048,9,-3,27,74,3,36,-12,6
1537910856320025,8,-1,29,84,-28,-16,-1,6
1537910856320025,8,18,41,79,64,27,10,6
1537910856334984,-7,-4,-4,-5,-99,21,-22,-6
1537910856334984,-5,25,54,72,60,-23,-7,-6
1537910856335982,-34,17,39,-44,-16,53,25,5
1537910856335982,33,-34,-61,-18,-47,-29,-3,1
1537910856356925,-2,11,82,127,17,-58,-34,-12
1537910856356925,18,-20,-97,-121,10,-29,0,-4
1537910856358920,7,11,29,36,-49,-12,11,2
1537910856358920,-19,1,-5,-24,42,15,8,-8
1537910856370888,5,-4,-2,1,59,47,11,10
1537910856370888,-11,-15,-2,41,19,-57,-2,-7
1537910856379864,17,-1,-6,-12,-52,58,21,9
1537910856379864,-11,-5,-8,6,23,-51,1,-1
1537910856394824,10,4,3,19,38,-8,-1,4
1537910856394824,-12,1,-5,-3,-30,-7,8,0
1537910856395822,3,6,-7,59,43,-44,-8,-3
1537910856395822,-3,5,-10,-44,-11,23,5,2
1537910856416765,1,5,5,-1,11,-19,-20,0
1537910856416765,-6,-3,-16,-72,-27,-18,-13,-6
1537910856418760,-1,-5,-13,-83,-22,8,13,6
1537910856418760,-1,3,20,23,27,2,5,1
1537910856430728,-2,1,10,-18,-111,8,-8,-2
1537910856430728,-4,-10,-8,-87,-21,24,-1,-3
1537910856439704,4,0,16,34,7,-6,-7,-2
1537910856439704,-11,-10,-21,-54,57,8,0,-4
1537910856454664,4,2,21,68,0,-7,8,2
1537910856454664,3,5,25,118,-29,2,6,4
1537910856455661,-4,-14,-42,-103,-13,11,-1,-4
1537910856455661,-1,2,3,8,-15,-9,-7,1
1537910856478600,-1,-2,1,-8,-6,-33,-10,-7
1537910856478600,-1,4,4,48,-16,1,0,-1
1537910856479598,-2,1,-2,-37,8,-1,-6,-5
1537910856479598,-5,0,0,0,-5,-51,-1,-2
1537910856490568,-5,-10,-22,-40,0,68,1,-6
1537910856490568,-5,-1,5,6,-8,-23,10,6
1537910856499544,2,3,4,8,3,-22,-6,-1
1537910856499544,5,2,3,-14,11,-12,8,3
1537910856514505,0,0,6,-13,11,-14,-4,-3
1537910856514505,0,-2,-10,-30,-17,11,-2,-2
1537910856516499,-4,-2,3,30,3,-15,-7,-7
1537910856516499,-3,-2,3,-13,-8,21,2,0
1537910856537443,1,1,6,22,31,-8,-1,3
1537910856537443,-1,-2,-10,-32,-11,3,-2,-2
1537910856543427,0,-4,-8,9,2,-2,-2,-2
1537910856543427,-1,2,7,17,-2,14,5,0
1537910856550409,0,1,-2,-4,7,4,-1,2
1537910856550409,-1,0,-1,-16,-5,2,0,0
1537910856559385,-1,-1,-1,1,-1,-2,-8,-3
1537910856559385,0,-3,-4,0,-6,17,-1,2
1537910856574344,-2,1,0,5,4,4,4,-2
1537910856574344,0,-1,-4,-24,-13,1,-2,-1
1537910856576339,0,-2,3,16,12,-6,1,0
1537910856576339,0,-2,5,0,0,7,0,-4
1537910856597283,1,-1,-2,2,5,-5,1,3
1537910856597283,-3,-3,-6,-6,-7,-2,-5,-3
1537910856598281,-4,-2,-5,4,2,-12,5,4
1537910856598281,-6,0,-3,1,-1,-11,-5,-6
1537910856610248,22,3,1,-4,2,-8,-7,-14
1537910856610248,2,2,-1,-8,-3,-1,19,27
1537910856619225,-10,-1,3,5,0,-15,-12,-11
1537910856619225,11,-3,-2,-7,-4,6,5,27
1537910856635183,-5,1,1,8,10,-2,4,19
1537910856635183,-31,-14,-6,-10,-3,0,-11,-69
1537910856641167,13,-1,-1,0,-2,-6,-11,22
1537910856641167,-34,-4,0,1,-1,3,6,-71
1537910856657124,26,13,4,3,2,-1,6,55
1537910856657124,21,5,-1,-2,1,0,12,57
1537910856658122,-12,-17,-5,-4,-2,-4,-18,-14
1537910856658122,-13,-3,9,0,-2,-2,-9,-11
1537910856671086,4,-9,-3,-2,-2,-2,7,-14
1537910856671086,-8,8,-1,-5,-3,7,16,2
1537910856680062,-8,4,-8,2,0,0,-2,-17
1537910856680062,14,5,-2,4,-2,-10,-1,7
1537910856702003,-10,1,-3,-1,2,21,1,5
1537910856702003,-18,-9,-5,-5,-5,6,-3,-20
1537910856703998,23,6,0,0,-2,-2,0,22
1537910856703998,-2,1,2,2,1,-12,0,9
1537910856716963,-6,-2,0,-4,-2,-11,-9,-5
1537910856716963,-1,-2,0,-4,-2,-4,-9,-5
1537910856718959,-3,-1,1,1,2,2,6,-10
1537910856718959,-3,-1,-3,-3,-2,4,-18,-6
1537910856730927,-1,-1,-2,-1,-1,-3,5,-13
1537910856730927,10,0,-2,-4,0,-5,-14,5
1537910856739903,-8,-1,0,1,-1,-7,14,-3
1537910856739903,7,-2,-2,0,1,9,2,8
1537910856754862,-14,-4,-4,-2,-2,-7,-6,-8
1537910856754862,13,-2,-4,-2,-3,-2,0,0
1537910856755860,2,1,2,1,0,0,-4,-5
1537910856755860,3,2,0,-2,-1,4,11,17
1537910856776804,-13,-5,-1,-1,1,4,-4,-14
1537910856776804,-14,-10,-2,-2,-2,-1,-1,-3
1537910856778798,38,14,4,2,1,-2,3,1
1537910856778798,6,1,-1,-3,-3,1,-1,4
1537910856790766,-5,-2,-1,1,-2,-10,-1,-8
1537910856790766,1,3,0,-2,0,1,-9,-2
1537910856799742,-15,-6,-3,0,-1,0,8,1
1537910856799742,0,-2,0,1,1,-2,-7,-3
1537910856812707,4,2,0,2,0,0,-1,-3
1537910856812707,-4,-4,-4,-3,-1,-1,-4,-1
1537910856821683,-5,-2,-3,0,0,2,2,7
1537910856821683,-12,4,4,5,2,5,-1,5
1537910856836643,4,-4,-4,-2,-1,-4,-7,-14
1537910856836643,15,4,2,3,-1,-1,-4,9
1537910856836643,-12,-3,-4,-2,-2,-4,-5,-20
1537910856836643,9,-1,0,2,0,2,7,10
1537910856858584,-14,-2,-2,-3,-1,-3,-21,-71
1537910856858584,0,1,1,-1,0,-1,3,-5
1537910856859582,-2,-3,-3,-1,-2,-11,-8,9
1537910856859582,-14,-3,-3,-3,-2,13,8,15
1537910856873544,8,3,6,10,8,-18,-6,19
1537910856873544,10,14,33,110,20,-15,-4,-1
1537910856881523,-5,6,17,34,-52,21,19,-14
1537910856881523,13,-4,-16,-22,90,33,-20,-7
1537910856896484,-1,9,39,-38,-92,-27,37,20
1537910856896484,-6,-19,-74,-68,107,-50,-56,-13
1537910856897481,-19,-41,-65,-7,-76,-106,-33,-11
1537910856897481,20,0,-40,-128,10,-34,45,30
1537910856919423,5,0,44,109,58,69,-10,1
1537910856919423,-2,13,-22,-91,-68,-51,-14,-3
1537910856919423,-2,20,20,102,-34,79,7,-13
1537910856919423,-18,-31,-43,-88,-24,-30,29,-7
1537910856934384,-3,-3,-30,60,52,-43,-16,2
1537910856934384,30,18,43,78,-45,117,30,13
1537910856934384,-17,-10,2,37,95,-5,47,18
1537910856934384,3,-4,-12,-38,-128,24,-13,-6
1537910856956326,5,14,34,78,21,41,2,5
1537910856956326,-20,28,91,73,81,-20,-1,-3
1537910856957322,-24,-18,-68,-107,-71,8,1,-2
1537910856957322,14,-7,18,117,3,-6,-30,-5
1537910856979263,-29,-9,-15,9,-20,-6,1,-7
1537910856979263,-22,-10,-5,-46,-34,-37,-10,-21
1537910856979263,41,21,62,59,74,-2,0,20
1537910856979263,-9,4,25,-62,32,-9,-2,-2
1537910856993225,5,-18,-43,-83,-74,-88,-19,1
1537910856993225,-30,-16,-18,-5,30,-2,29,1
1537910857001203,26,8,27,15,19,3,25,12
1537910857001203,2,-3,-28,-10,-3,-27,-5,-10
1537910857016163,7,10,18,95,-23,29,13,10
1537910857016163,-5,-23,-55,-64,-45,26,3,-3
1537910857017161,-5,3,-6,-16,-7,-43,-21,-4
1537910857017161,9,18,32,127,30,33,-12,-2
1537910857039103,-14,1,-10,-115,-26,33,7,-1
1537910857039103,9,0,1,-40,-19,1,6,12
1537910857040101,3,1,-1,-29,3,31,-18,-2
1537910857040101,-13,7,21,33,7,-6,-22,-5
1537910857054063,7,-2,-5,-10,25,13,9,6
1537910857054063,7,-8,-6,18,-4,-7,6,1
1537910857055061,-8,-9,-9,-71,-8,-2,-5,-6
1537910857055061,7,-1,14,21,-1,-24,-2,-1
1537910857077999,-9,-7,-2,25,17,-26,-4,-2
1537910857077999,23,-6,-5,-24,-9,-21,-4,0
1537910857078997,-13,-3,-8,-85,-5,-16,-7,-2
1537910857078997,-6,3,11,13,-15,7,4,-6
1537910857098943,5,2,-10,-32,18,-1,-9,-1
1537910857098943,-5,3,10,57,-1,18,7,1
1537910857099941,1,4,11,70,19,11,-15,-4
1537910857099941,-1,-1,-14,-45,17,54,-15,-8
1537910857113905,0,2,-2,-21,-22,-32,14,3
1537910857113905,1,0,2,18,3,69,-3,-4
1537910857114901,-1,-1,0,-9,-4,-20,-7,-1
1537910857114901,-1,3,8,32,-6,6,9,-1
1537910857136842,-4,-3,-1,3,13,-4,-7,-2
1537910857136842,-1,-2,1,4,-11,-13,-6,-1
1537910857136842,4,-2,-2,-9,0,10,-2,-3
1537910857136842,-4,-2,3,33,0,-7,7,2
1537910857158783,-2,-8,-19,-56,9,12,-2,2
1537910857158783,3,-1,-2,-22,-20,-11,3,1
1537910857159782,0,-3,-6,13,-11,8,-3,1
1537910857159782,-5,1,3,-10,0,-9,3,-3
1537910857173742,-7,-5,-6,-1,-1,9,-6,-6
1537910857173742,14,2,-3,12,-7,-8,-4,3
1537910857174740,-5,1,4,25,-1,17,-10,-11
1537910857174740,2,-1,-4,-3,-4,-12,28,12
1537910857204660,-2,-2,-8,-12,-1,27,4,2
1537910857204660,-6,-1,4,8,-2,-16,-7,-4
1537910857205657,-4,3,8,4,7,15,2,-7
1537910857205657,-2,-3,-2,2,-6,-26,-15,-9
1537910857218622,9,4,1,-8,1,3,22,16
1537910857218622,-4,-4,-2,-6,-4,11,9,-1
1537910857219620,2,1,5,-11,6,-7,-6,2
1537910857219620,-7,-4,-4,-2,-4,-3,-2,-2
1537910857242559,2,-1,0,-2,1,-6,-6,0
1537910857242559,-9,-1,-2,0,-4,-9,-2,-2
1537910857243557,5,-1,2,-4,3,-1,0,0
1537910857243557,-5,-1,8,9,2,8,-4,-7
1537910857256521,-5,-2,4,-2,-3,-10,-19,-11
1537910857256521,-8,-4,0,-4,-3,-3,5,18
1537910857257519,9,3,1,-4,1,3,3,-23
1537910857257519,14,6,1,8,2,1,13,37
1537910857279460,-6,-7,-11,-14,-7,-9,-27,-37
1537910857279460,-5,-5,-9,-6,-3,1,11,-16
1537910857279460,-3,27,0,2,1,-4,2,19
1537910857279460,-5,-9,10,13,6,4,-2,32
1537910857294420,17,-2,1,-1,-1,1,-4,-17
1537910857294420,-34,14,0,-3,0,-4,9,-11
1537910857294420,57,25,-13,-1,0,-2,0,78
1537910857294420,0,40,12,2,0,2,-17,-76
1537910857316361,-36,-2,-2,1,6,-1,-4,-53
1537910857316361,6,-29,-26,-7,-8,-3,24,36
1537910857317359,-24,19,7,-7,2,5,10,-22
1537910857317359,30,-8,-13,-5,-7,-4,-13,55
1537910857339301,-2,-20,-3,-2,-3,-2,-7,-28
1537910857339301,5,3,12,4,-2,-26,-20,-31
1537910857339301,-26,-30,-7,-2,5,57,12,-26
1537910857339301,-4,16,-1,-1,-3,15,23,6
1537910857354260,-4,-5,1,3,3,-17,1,22
1537910857354260,11,-2,-3,1,-2,30,24,13
1537910857354260,-3,-6,13,32,4,42,13,-15
1537910857354260,1,-11,14,106,21,-44,-4,-3
1537910857376201,5,23,22,-49,7,77,31,22
1537910857376201,-5,-13,6,95,-62,-33,-33,-7
1537910857377198,-19,-49,-92,-26,73,18,-65,-18
1537910857377198,-16,9,53,54,-29,100,51,-28
1537910857399139,-8,-35,-106,-95,70,-61,-23,28
1537910857399139,-3,1,1,52,-75,-63,-17,1
1537910857399139,-25,-18,-34,-56,76,40,-8,-9
1537910857399139,52,22,71,89,-97,4,8,18
1537910857414100,23,4,-26,32,-10,-29,6,17
1537910857414100,-2,31,72,-32,-19,89,-6,-1
1537910857414100,-7,-49,-84,-73,-95,-37,43,1
1537910857414100,-36,-17,6,73,48,-37,-43,-17
1537910857436041,-6,46,109,63,88,100,52,16
1537910857436041,28,1,1,82,45,52,-9,-15
1537910857437038,41,36,69,101,6,-3,17,17
1537910857437038,-12,11,-20,-78,21,34,-6,11
1537910857458979,2,7,16,127,-77,-49,-18,-3
1537910857458979,-33,-17,-20,-41,87,-28,4,-8
1537910857459977,22,9,30,-11,-54,12,-24,-9
1537910857459977,-8,-15,-31,-40,-65,-113,-16,-4
1537910857473939,-20,-28,-54,-74,-31,1,-4,-1
1537910857473939,-12,3,-8,11,-7,28,23,-17
1537910857474937,-15,2,23,10,-4,-30,-3,11
1537910857474937,7,-24,-35,-27,17,-10,-16,-18
1537910857495881,11,4,18,39,-22,-5,-13,10
1537910857495881,0,3,-11,-40,-13,5,-6,1
1537910857496878,-7,2,1,-18,-19,-35,-6,-7
1537910857496878,8,-2,-14,-42,18,36,8,2
1537910857518819,1,14,21,28,3,15,-9,4
1537910857518819,3,-5,-37,-115,-36,-3,-7,-1
1537910857519817,4,11,32,40,25,-16,7,2
1537910857519817,-12,-1,-6,-17,11,4,-3,-5
1537910857535775,1,-6,0,20,1,17,3,0
1537910857535775,3,-9,-17,-57,43,-33,-6,5
1537910857535775,-3,5,23,22,0,0,10,3
1537910857535775,-7,-7,-9,-39,22,12,2,-4
1537910857556719,3,-4,-1,-11,-28,-14,-12,-7
1537910857556719,9,7,8,4,14,7,2,3
1537910857556719,-2,1,5,14,-38,38,-7,-3
1537910857556719,-5,-4,-9,-14,38,-15,-5,-9
1537910857578660,-13,-5,11,32,19,2,-7,-11
1537910857578660,36,13,3,22,-4,9,17,24
1537910857579658,-5,2,-1,-13,0,-17,0,-2
1537910857579658,-9,-6,-5,12,-23,-19,0,-6
1537910857593620,12,2,0,-10,2,-1,-1,1
1537910857593620,-9,-2,2,11,7,-9,-8,-10
1537910857594617,0,-3,5,-1,-6,-25,-7,-3
1537910857594617,2,-1,-3,3,16,9,5,7
1537910857616559,-4,-4,-7,-21,-8,-8,-2,5
1537910857616559,-2,-3,-1,1,7,6,-5,-6
1537910857617556,-12,5,10,20,10,-25,-7,-4
1537910857617556,9,-3,-9,-9,-4,7,-2,-5
1537910857638500,-1,-3,-7,-29,-6,-9,9,7
1537910857638500,6,1,3,21,-9,5,-8,3
1537910857639498,-10,-1,1,8,6,-4,6,-4
1537910857639498,-3,-5,-8,-17,-4,-9,-5,6
1537910857653461,1,-1,0,-12,-11,-6,7,-13
1537910857653461,7,8,6,18,12,-7,-20,-14
1537910857654459,-6,-4,-2,-6,-2,-11,16,34
1537910857654459,5,0,-3,-10,2,-1,-3,0
1537910857676400,3,-1,-2,2,3,-4,-5,-7
1537910857676400,-15,-7,0,6,1,-6,-8,-19
1537910857677398,24,15,10,2,7,-4,15,19
1537910857677398,-27,-4,2,-3,-7,-1,-28,-28
1537910857699339,15,0,10,-5,-1,3,18,39
1537910857699339,-37,-14,-1,-1,-2,-5,4,-13
1537910857699339,34,6,3,-1,-5,-4,-19,-7
1537910857699339,12,2,-6,2,-1,2,28,30
1537910857723275,-17,3,5,-3,2,4,-15,-39
1537910857723275,-19,-11,-3,-6,-3,-9,12,26
1537910857726267,5,-3,-5,2,0,-3,-13,-5
1537910857726267,0,10,1,0,-4,0,4,68
1537910857729260,-58,-16,-11,-1,5,5,-15,-45
1537910857729260,86,8,-7,3,2,-3,1,31
1537910857737237,-28,-2,-2,2,4,3,20,3
1537910857737237,21,-9,-13,-10,-3,4,-4,-16
1537910857751200,26,9,-2,-5,-7,-6,-5,-1
1537910857751200,-4,5,2,3,1,-8,7,20
1537910857752199,3,2,-8,-4,-3,-5,-12,-24
1537910857752199,-6,1,-11,-3,-3,-30,9,-5
1537910857767158,0,2,-11,3,0,8,6,-12
1537910857767158,3,9,6,70,26,4,-18,1
1537910857773143,0,-1,20,45,-50,-21,17,-14
1537910857773143,-8,5,-4,15,1,53,7,-10
1537910857788100,22,-9,-15,-80,0,32,8,35
1537910857788100,-11,-4,17,76,30,-96,-17,-29
1537910857796079,-6,11,17,84,-74,-100,-19,10
1537910857796079,-8,-19,-53,-50,99,-78,-51,-37
1537910857811038,-2,-1,-21,-85,-21,-57,18,11
1537910857811038,-36,-27,-43,-102,-44,-96,-37,-26
1537910857812036,49,-28,-55,54,65,110,17,0
1537910857812036,-3,31,117,98,23,-72,3,-4
1537910857826996,32,5,-16,-86,-97,-47,-3,11
1537910857826996,-11,22,36,86,-23,56,-18,-1
1537910857832980,-28,-9,-30,-128,-11,70,-19,-7
1537910857832980,-50,-17,-10,21,7,55,8,-10
1537910857847940,18,9,36,127,127,113,-5,2
1537910857847940,-62,-3,17,78,-21,101,23,-3
1537910857855918,60,22,23,-20,3,62,-16,-1
1537910857855918,56,18,-9,21,56,79,-1,10
1537910857870878,-17,-5,8,-36,-102,-29,-12,-3
1537910857870878,-26,-9,-12,-25,71,12,8,-8
1537910857871876,-13,-8,9,-79,5,-77,11,-12
1537910857871876,-15,5,23,7,-50,-12,1,-4
1537910857885838,2,2,22,64,12,-86,-29,-5
1537910857885838,26,1,-1,-14,13,-48,22,12
1537910857892820,-31,-8,-8,-18,16,16,-28,-16
1537910857892820,7,-17,-42,-37,-55,-47,23,-1
1537910857907781,-5,-8,-20,14,40,-18,5,10
1537910857907781,17,0,-11,-32,6,27,23,-3
1537910857915759,-25,-2,-6,9,-5,-46,-10,5
1537910857915759,7,0,-10,-38,-51,19,-4,1
1537910857931716,-5,6,0,0,17,80,10,4
1537910857931716,20,10,8,2,39,55,-9,-17
1537910857931716,0,9,14,38,-1,60,30,32
1537910857931716,-15,-2,-9,-9,1,39,-10,-10
1537910857945678,-7,7,8,14,5,-1,13,8
1537910857945678,17,-4,-2,-23,-59,-30,1,-3
1537910857953657,-18,-10,0,34,67,-46,-1,-9
1537910857953657,-11,-18,-4,-9,-7,-39,-7,-8
1537910857968617,5,-5,9,21,-6,14,1,2
1537910857968617,5,-6,-11,-58,-33,-12,2,6
1537910857975598,-2,-2,10,18,11,2,5,-2
1537910857975598,3,4,15,70,16,-64,0,1
1537910857991556,0,0,-7,-59,-7,-28,-8,-9
1537910857991556,7,2,-6,-13,-9,13,6,6
1537910857992553,-10,-6,-12,-40,9,31,-4,-7
1537910857992553,4,4,3,10,-15,48,10,-2
1537910858005518,-6,-1,-5,11,6,-27,7,2
1537910858005518,1,3,6,-5,-6,-19,-7,3
1537910858013497,-8,3,2,2,-13,-42,-13,-9
1537910858013497,6,-1,-2,-13,-9,49,17,5
1537910858028457,-3,-2,-2,15,5,2,4,-1
1537910858028457,8,-2,-6,-16,4,3,7,6
1537910858035438,2,1,10,35,-6,-18,0,-1
1537910858035438,-3,-5,-3,-17,2,-13,-13,-7
1537910858051396,-13,-2,6,11,-1,5,-8,-9
1537910858051396,16,4,-3,2,4,-3,5,9
1537910858058377,-3,-6,-5,-8,19,-22,-4,-4
1537910858058377,-4,0,2,-30,-28,3,2,1
1537910858067353,2,1,9,68,-1,8,-2,0
1537910858067353,-10,-10,-25,-68,-57,44,-1,-7
1537910858073337,-1,0,-7,-13,16,-7,4,-2
1537910858073337,0,-1,2,3,6,56,-5,-1
1537910858088297,3,-1,2,38,14,-16,0,0
1537910858088297,-1,1,1,19,1,-20,-1,1
1537910858095279,1,-2,-4,11,-18,-16,-2,0
1537910858095279,-1,0,-6,0,3,-9,3,-4
1537910858112233,2,-3,-10,-26,-5,12,-2,1
1537910858112233,-2,1,6,8,16,1,2,0
1537910858119215,-2,-3,-7,-19,-17,-13,0,-1
1537910858119215,-2,0,-1,0,8,-14,-13,-5
1537910858125198,0,0,-3,-20,-7,0,-1,-2
1537910858125198,0,0,5,10,12,-3,10,3
1537910858133177,-12,-3,8,18,-1,3,1,-3
1537910858133177,10,-1,1,-11,-10,-16,-2,1
1537910858148137,1,1,-2,-5,1,11,-5,-2
1537910858148137,-1,-1,2,10,8,-10,-5,-4
1537910858156116,0,1,2,-4,-10,1,1,-4
1537910858156116,-7,-2,-2,-8,-1,-3,1,-6
1537910858171076,0,0,-3,-6,5,-4,17,17
1537910858171076,8,1,2,10,10,0,0,3
1537910858179055,2,5,4,-4,-7,3,-1,2
1537910858179055,-5,-7,-5,-6,-1,-9,1,-6
1537910858186036,1,3,10,-1,-7,-2,-18,-10
1537910858186036,-4,-5,0,3,-1,1,1,3
1537910858193017,5,4,6,-4,-8,6,-11,-8
1537910858193017,-12,-2,-4,-1,-1,-8,9,3
1537910858207977,5,-1,-6,-3,-2,-2,6,5
1537910858207977,3,4,0,3,2,-6,-9,1
1537910858215956,-1,-2,-4,-4,-7,-3,-10,-16
1537910858215956,-3,1,-4,0,1,-1,11,25
1537910858230916,3,-4,-6,-7,-3,0,1,-3
1537910858230916,-1,0,1,0,1,-3,-8,-8
1537910858238895,0,-1,-2,8,1,-10,14,16
1537910858238895,-7,2,0,4,-3,62,0,-11
1537910858245876,-4,2,10,46,18,-31,11,4
1537910858245876,5,1,16,86,-22,-77,-15,1
1537910858252857,-24,-22,-32,-25,55,61,-4,-8
1537910858252857,6,-14,-55,-97,-68,27,8,-1
1537910858267817,12,-4,25,73,-3,22,17,15
1537910858267817,-8,10,18,63,-70,-29,21,-11
1537910858275796,-5,-23,-57,112,54,-115,3,-7
1537910858275796,12,9,-2,-59,46,89,48,10
1537910858290756,-15,-47,-115,-79,93,-103,-1,-4
1537910858290756,6,0,20,97,33,31,-14,-3
1537910858298735,11,28,68,114,55,-28,-4,9
1537910858298735,3,5,9,-39,-53,-27,-22,-8
1537910858313695,2,17,29,107,19,19,-24,-18
1537910858313695,-4,13,15,58,103,12,5,1
1537910858314692,-19,-7,-11,-103,-7,94,-6,0
1537910858314692,-13,-18,33,56,-25,-25,-36,-9
1537910858328654,-1,14,32,-109,-21,-15,28,7
1537910858328654,-9,-6,0,-30,7,58,-13,-3
1537910858335636,79,33,46,26,-51,76,-7,10
1537910858335636,2,3,11,119,34,-81,-8,-5
1537910858350596,-16,-4,-12,-48,-76,19,-7,-3
1537910858350596,-9,-12,-24,-45,-26,-35,-2,-2
1537910858358575,-6,-4,-16,-25,-24,-89,14,-3
1537910858358575,-14,-8,-31,13,8,55,-8,-3
1537910858373535,4,1,5,26,7,3,-11,-9
1537910858373535,3,-1,-23,-128,-3,-8,-9,0
1537910858374533,-8,-2,-3,-10,-58,-15,-3,-1
1537910858374533,4,3,7,19,42,12,0,0
1537910858388495,-3,9,12,27,-11,40,-10,-2
1537910858388495,6,-2,-9,-41,-21,14,8,0
1537910858395477,-15,-6,-7,-25,-17,48,2,1
1537910858395477,4,4,13,14,4,-41,-2,-1
1537910858410437,5,0,0,-15,33,31,0,-1
1537910858410437,-4,-4,1,-2,-53,-43,0,1
1537910858419412,-7,-7,6,19,-6,-18,8,-1
1537910858419412,4,2,3,-3,38,-23,-2,1
1537910858434372,-2,-4,2,13,9,2,-16,-2
1537910858434372,1,-7,-8,5,13,18,5,-8
1537910858434372,-3,-4,1,-12,27,-26,7,10
1537910858434372,4,6,8,1,18,34,4,33
1537910858448335,-7,-2,1,-14,-24,-2,-5,1
1537910858448335,-1,-8,-7,-10,15,-5,11,-22
1537910858455316,2,0,1,-11,-23,-8,1,26
1537910858455316,4,9,-10,-10,42,-63,-3,-22
1537910858470277,-33,-8,12,29,-1,-18,-2,-65
1537910858470277,-12,3,-3,-6,69,27,-2,-20
1537910858479254,-6,-3,-6,-27,-128,-30,-7,-11
1537910858479254,28,-6,5,35,63,-4,4,-1
1537910858494213,-10,3,0,-12,-47,-4,-7,1
1537910858494213,-1,11,0,5,72,1,-1,32
1537910858494213,-2,-13,1,-4,-34,3,10,-28
1537910858494213,10,-4,-6,-8,26,23,1,36
1537910858508175,-1,-11,-9,-21,57,-4,-12,-19
1537910858508175,16,33,7,35,-74,-43,-9,26
1537910858516154,-15,-3,-6,0,40,27,-2,-2
1537910858516154,1,6,2,-2,-64,-39,-9,-13
1537910858531113,3,-8,-4,7,-27,0,-1,-22
1537910858531113,-16,-27,-2,-5,4,-8,20,4
1537910858539092,0,21,4,14,51,88,5,18
1537910858539092,-6,3,0,-10,-44,-21,-3,-21
1537910858554052,11,-5,-6,-10,-2,-14,-11,9
1537910858554052,1,-8,-8,-12,-8,18,-17,-3
1537910858554052,5,3,3,10,-38,-23,-3,-8
1537910858554052,-7,-9,4,-1,46,34,8,-2
1537910858568015,6,16,8,8,-89,-21,8,33
1537910858568015,4,-5,0,0,-15,23,-24,-15
1537910858575993,-3,-9,-3,-21,-12,-20,13,4
1537910858575993,-8,-1,3,19,84,0,-10,-9
1537910858591951,-2,-3,3,-9,-29,5,6,7
1537910858591951,-1,2,0,-20,-36,-1,-3,-14
1537910858598932,-1,-11,-17,-4,32,6,8,4
1537910858598932,-6,-3,-9,-18,-128,-24,-3,-1
1537910858621871,11,10,-2,10,46,10,17,18
1537910858621871,-2,-6,-3,9,-27,-5,22,10
1537910858623866,1,6,0,9,27,-11,-10,-1
1537910858623866,-5,4,3,-6,-36,1,-4,-31
1537910858644810,1,-6,-6,10,21,24,5,24
1537910858644810,4,5,9,4,45,-4,-30,-3
1537910858645808,-4,-2,4,1,-20,-36,-11,-33
1537910858645808,-12,-8,-5,-5,-28,13,25,5
1537910858657776,0,-2,-2,-4,22,8,-6,-21
1537910858657776,-4,0,-1,1,37,5,-3,-11
1537910858666752,17,0,-3,-7,-17,-23,10,20
1537910858666752,-3,2,5,8,2,43,-10,4
1537910858681713,0,4,1,-11,-2,16,-22,-3
1537910858681713,1,-6,-2,-2,-35,-8,18,17
1537910858683708,-4,1,2,4,24,0,-9,-3
1537910858683708,-2,-1,-2,1,2,-52,-12,0
1537910858695676,6,1,2,4,6,3,0,8
1537910858695676,-1,2,-2,-2,-32,6,-5,-9
1537910858712629,-2,1,2,7,-56,5,-7,-5
1537910858712629,-1,1,4,8,61,2,1,5
1537910858718614,-4,-6,-18,-21,15,-14,11,2
1537910858718614,-1,-5,-3,-16,4,8,-2,-1
1537910858725595,-1,-2,1,-1,15,-11,-2,-5
1537910858725595,2,-2,3,7,-23,-23,6,8
1537910858742550,0,3,-7,13,-13,2,-20,0
1537910858742550,3,1,-9,3,14,21,13,7
1537910858743547,2,1,0,6,-26,-23,-1,4
1537910858743547,-3,-5,-2,-5,10,-5,-4,-8
1537910858755515,-3,0,5,-4,8,-19,1,-2
1537910858755515,10,2,-5,-5,5,31,2,8
1537910858770476,-15,-5,-1,-5,25,0,-18,-19
1537910858770476,-2,4,6,5,-62,-25,8,-1
1537910858779451,2,-2,4,-10,-18,-25,2,9
1537910858779451,-2,-4,2,5,10,-32,-18,-2
1537910858785435,1,1,-4,-3,4,24,-3,-1
1537910858785435,-2,-3,-7,-1,27,56,23,22
1537910858802388,0,0,0,-4,-44,-32,-6,-23
1537910858802388,-4,-3,3,6,32,-8,8,-1
1537910858803386,2,1,8,7,-12,-22,-9,3
1537910858803386,-3,-4,-1,-10,-40,4,1,-4
1537910858815355,0,-3,0,-6,38,46,6,0
1537910858815355,-2,-2,1,1,-20,-1,-6,-3
1537910858824330,-9,-2,3,31,31,-12,-21,-7
1537910858824330,9,-2,-11,-42,-41,-27,-21,-5
1537910858839290,1,-2,-9,-47,-5,21,20,9
1537910858839290,0,2,1,-4,9,13,3,-7
1537910858845273,0,0,0,9,23,62,7,-2
1537910858845273,-6,1,6,31,9,10,-15,5
1537910858862228,3,2,4,15,-11,11,12,5
1537910858862228,-1,-2,-3,0,-4,-14,6,8
1537910858863227,-1,-2,-3,-9,-8,-2,0,-9
1537910858863227,-3,-1,-1,3,13,22,-3,-13
1537910858875194,2,-1,-1,3,-14,1,13,16
1537910858875194,-5,1,0,8,-5,4,33,1
1537910858884928,4,0,-2,-8,36,-15,19,13
1537910858884928,-2,-1,-5,-12,-9,14,-4,-5
1537910858899129,-3,1,3,13,-5,-13,-13,-11
1537910858899129,2,-2,-1,2,-7,0,-7,-1
1537910858906111,-1,-1,-5,-21,-28,-25,-3,1
1537910858906111,2,0,0,11,79,15,11,5
1537910858922068,-4,-1,6,27,-22,-31,-12,-5
1537910858922068,-2,-1,2,8,22,15,22,2
1537910858923066,0,-4,-8,-38,-21,-41,-4,-3
1537910858923066,0,-1,-3,-10,14,15,24,2
1537910858945007,-1,0,1,3,-1,13,-5,-6
1537910858945007,-6,-2,-2,-19,-7,0,-11,-5
1537910858946005,4,-2,-3,24,-6,-18,10,13
1537910858946005,6,8,11,12,-15,-17,-1,2
1537910858957972,-1,0,-2,-4,25,27,-21,-1
1537910858957972,3,-2,-1,11,-26,-24,15,11
1537910858966949,-4,-1,2,2,18,20,-12,-10
1537910858966949,-3,-5,-7,-18,-64,-31,-15,-7
1537910858981910,1,-1,-3,2,29,12,6,2
1537910858981910,-5,0,-2,-5,15,0,0,-7
1537910858983908,2,1,-2,-4,-14,-20,5,7
1537910858983908,-1,-3,-3,8,9,-10,-11,-2
1537910859003851,-4,-1,-4,-23,-16,-90,-3,-3
1537910859003851,1,0,2,11,9,66,-3,-4
1537910859010832,3,3,5,-1,37,69,7,6
1537910859010832,-3,-1,0,2,4,-14,-10,-4
1537910859017813,0,0,2,4,-22,18,1,0
1537910859017813,0,-1,-2,-8,-16,-41,-33,-7
1537910859026789,0,1,-1,1,34,11,24,2
1537910859026789,-8,-2,-2,2,-19,-5,-10,-2
1537910859041749,5,-1,-1,-7,-18,16,2,2
1537910859041749,-1,-1,-5,-8,16,-86,-15,-2
1537910859047733,2,2,2,17,-6,56,6,3
1537910859047733,-3,-4,-1,-3,12,-14,0,-3
1537910859064687,-4,-1,0,-2,12,20,8,0
1537910859064687,0,0,0,-11,-40,-9,2,-4
1537910859065685,-2,-3,-2,-9,-24,13,-13,-6
1537910859065685,1,1,-1,11,47,-7,-4,1
1537910859078650,2,2,3,8,-12,-28,1,5
1537910859078650,2,-1,-1,-3,-3,35,-12,-2
1537910859085631,0,-4,-1,-2,-3,-7,-6,-3
1537910859085631,-3,0,-1,-4,-13,-21,6,-3
1537910859101588,0,-1,-1,2,2,-8,5,2
1537910859101588,-1,-2,-1,4,-10,0,15,3
1537910859103583,-1,-2,0,2,26,30,-1,0
1537910859103583,-1,-2,-3,-15,-17,-44,-14,-6
1537910859124527,2,1,4,21,21,55,6,6
1537910859124527,1,2,4,5,-22,18,26,4
1537910859125524,-3,-1,-8,-35,-23,-49,-19,-9
1537910859125524,1,-3,-2,-7,10,-15,3,4
1537910859138490,-5,-2,-3,-4,-7,-19,-12,-7
1537910859138490,-1,1,-2,4,-47,1,-5,-1
1537910859145471,-6,-1,2,6,16,-28,-2,-3
1537910859145471,6,1,2,12,19,23,2,-1
1537910859162426,-6,-4,-2,-3,-3,-3,-12,-7
1537910859162426,2,-3,-3,1,11,48,9,3
1537910859169407,0,-2,-3,-5,-9,-27,-24,0
1537910859169407,-1,-4,-3,-3,-13,34,42,9
1537910859169407,3,2,3,3,16,16,-4,4
1537910859169407,2,0,-1,-6,5,-13,-14,10
1537910859176389,-5,2,1,2,3,9,-10,-12
1537910859176389,-6,-3,-2,-1,-7,2,-24,-13
1537910859190351,2,1,-3,-2,-4,3,0,2
1537910859190351,-6,3,0,0,18,-7,1,-17
1537910859199327,-9,-8,-8,-6,-28,-13,9,-6
1537910859199327,4,3,0,-4,-40,11,1,13
1537910859213291,-2,-4,-4,-6,37,7,8,-14
1537910859213291,-2,0,3,7,-18,-20,-15,-2
1537910859221269,5,-1,0,2,-51,-7,13,7
1537910859221269,-2,-1,-1,-8,78,11,-7,-10
1537910859237227,-4,-6,-5,-13,29,-15,-7,-1
1537910859237227,4,3,8,26,30,-27,6,9
1537910859238224,0,4,4,-2,77,86,26,9
1537910859238224,-1,-4,0,24,-38,-38,-7,0
1537910859251188,1,0,-6,-40,-36,-20,-3,-1
1537910859251188,-2,-3,-5,-6,-5,-20,-18,-4
1537910859259167,1,-2,-3,-4,13,-14,3,-5
1537910859259167,-2,0,1,0,-34,-7,6,-2
1537910859273130,-3,1,4,23,23,-6,8,1
1537910859273130,-1,-3,-2,-6,-1,25,-9,-6
1537910859282106,1,-2,0,1,-9,-32,6,4
1537910859282106,0,-2,-1,-3,3,6,-4,-1
1537910859304047,-1,0,4,10,-34,-3,-5,0
1537910859304047,-1,-3,-5,-16,13,0,7,1
1537910859306042,-1,-2,0,7,5,19,-9,-5
1537910859306042,1,2,4,3,1,-8,-7,1
1537910859311029,-1,-1,-2,-1,15,19,0,-4
1537910859311029,-2,-2,-1,-6,-24,-7,4,4
1537910859320005,1,0,2,0,-5,-26,-4,-1
1537910859320005,-1,-1,-2,-1,-17,-13,-4,-1
1537910859332970,-2,0,3,13,-10,-3,-2,1
1537910859332970,-2,-4,-6,-20,-10,1,-7,-4
1537910859341946,2,1,-2,2,-10,-11,-9,1
1537910859341946,-1,-4,-2,4,-5,-1,31,9
1537910859356906,-1,-1,-5,-30,-49,5,1,3
1537910859356906,-2,0,-3,1,74,-7,-14,-7
1537910859358902,4,2,3,5,-7,5,-4,0
1537910859358902,-8,-4,2,8,13,15,-10,-5
1537910859370871,3,-1,0,15,-5,-12,13,10
1537910859370871,-5,-2,-1,1,-18,8,1,-6
1537910859379848,-3,-1,-2,-5,-17,-9,-4,3
1537910859379848,1,0,1,-5,37,7,-16,-34
1537910859393810,0,-1,1,4,-4,2,5,5
1537910859393810,-3,-1,-1,-7,-8,8,-3,10
1537910859401787,4,1,0,4,10,-4,1,-5
1537910859401787,-4,1,0,-3,-6,-12,-11,-7
1537910859416746,1,-1,-2,-1,35,21,2,-1
1537910859416746,-2,-2,-1,4,-23,11,3,-3
1537910859418741,-2,0,-1,2,22,6,5,-1
1537910859418741,4,-13,-5,-11,-42,0,3,11
1537910859430709,-3,7,0,-2,0,-3,-5,-2
1537910859430709,5,0,-1,5,0,-4,6,5
1537910859439685,-6,-3,-2,1,14,-19,-14,-6
1537910859439685,-3,-4,-6,-11,-14,-29,5,13
1537910859452650,3,0,4,7,24,54,1,7
1537910859452650,-8,0,2,2,-24,-14,-5,-34
1537910859461626,5,0,-1,-10,-41,-14,5,14
1537910859461626,-1,3,0,-2,18,-12,-11,-15
1537910859476586,-14,-1,0,7,33,-14,-3,-1
1537910859476586,23,10,3,3,6,25,13,22
1537910859478581,-6,-3,-5,-1,12,-29,-7,-17
1537910859478581,0,2,-1,-5,-16,11,-16,14
1537910859490549,1,1,4,1,-53,-8,10,1
1537910859490549,-2,-3,1,3,55,36,1,1
1537910859499525,-2,-1,-1,6,-11,1,16,2
1537910859499525,4,4,2,-5,-7,2,-20,-12
1537910859513488,0,-1,-3,-2,-12,13,22,14
1537910859513488,-6,-3,3,6,56,-24,8,7
1537910859522464,2,-1,2,-6,-18,-10,-26,-1
1537910859522464,-3,1,-3,2,21,21,-4,-5
1537910859535429,0,-4,0,7,15,-30,-25,-11
1537910859535429,-4,-5,-6,-15,-56,-11,-3,-8
1537910859544405,2,3,4,8,-6,-3,-6,1
1537910859544405,-2,-1,-3,1,3,16,8,5
1537910859552384,-3,-4,-2,-2,-21,-57,-10,-13
1537910859552384,3,-3,-5,-2,-21,-7,0,7
1537910859559365,-5,1,1,-1,30,6,1,-5
1537910859559365,-2,1,-1,-4,-42,2,-1,-2
1537910859573327,2,-3,-3,5,75,1,16,4
1537910859573327,-6,-3,0,-3,-26,-31,-28,-10
1537910859582303,1,-3,-1,0,-45,-30,28,8
1537910859582303,7,2,1,-10,38,23,15,11
1537910859604246,-6,-5,-3,-4,-25,-22,-11,-2
1537910859604246,0,2,0,6,31,-11,-9,-12
1537910859606240,-9,-9,-4,-8,-29,27,3,-1
1537910859606240,2,2,0,12,19,-14,4,4
1537910859610229,0,-2,0,-5,-18,-16,-10,-8
1537910859610229,0,-1,-3,-5,8,31,9,4
1537910859619205,3,2,-1,4,36,23,-2,5
1537910859619205,-1,-3,2,1,-2,28,-8,-3
1537910859633167,3,6,2,1,-7,-2,-2,-2
1537910859633167,-3,-3,-2,1,-34,-48,-1,-3
1537910859642143,6,5,5,13,37,100,29,9
1537910859642143,-2,0,-1,-4,17,-3,-4,0
1537910859656106,1,-1,1,4,18,19,-3,-1
1537910859656106,-3,-5,-3,-20,-19,7,-3,-2
1537910859664085,-4,-3,-4,-3,-19,-20,9,-1
1537910859664085,0,0,-1,5,-7,-21,-13,-4
1537910859671066,3,2,2,3,-3,32,23,4
1537910859671066,-2,0,-1,-2,-11,5,4,1
1537910859679045,-1,-2,1,5,47,-5,-17,-5
1537910859679045,-3,0,-3,-2,-13,-9,4,-1
1537910859693007,-1,-4,-5,-12,-14,-15,-4,-2
1537910859693007,-2,-3,1,3,1,13,2,1
1537910859701984,3,-2,0,-2,-9,-12,-5,-4
1537910859701984,-3,-1,-4,1,17,5,1,-3
1537910859716943,-3,-2,-2,-12,-4,28,-11,-4
1537910859716943,3,2,4,6,-6,20,16,6
1537910859718938,0,2,-1,-6,22,2,-13,-2
1537910859718938,0,-1,-1,-3,-21,7,1,-3
1537910859730906,2,-3,1,16,-1,-21,-2,-2
1537910859730906,-3,-2,-4,-15,23,1,-6,-1
1537910859739882,-1,1,1,-5,-44,-8,-12,-2
1537910859739882,1,1,2,3,45,5,6,1
1537910859752847,-2,0,-3,1,-7,-3,-1,-3
1537910859752847,1,1,-2,3,-2,1,-6,3
1537910859761823,-2,-2,-4,-3,10,5,-14,-4
1537910859761823,-5,-4,-2,0,-21,-3,4,-5
1537910859778778,2,-1,-1,-1,0,-14,-13,-6
1537910859778778,-1,-3,0,5,11,2,3,2
1537910859779776,-2,-1,-2,-6,-14,-9,-14,-5
1537910859779776,10,5,2,3,-12,-6,9,4
1537910859790746,-9,-9,-6,-6,18,-4,8,-2
1537910859790746,-3,3,2,4,-33,-13,-12,-5
1537910859799723,4,1,1,-3,-5,7,2,-1
1537910859799723,-1,0,1,-2,-20,-14,6,0
1537910859812688,5,2,0,1,-15,-14,-6,-1
1537910859812688,-7,-3,-4,0,65,-12,-1,1
1537910859821664,0,-2,3,3,-22,-4,19,9
1537910859821664,-4,0,1,-2,22,-3,-1,-3
1537910859836624,2,2,2,-10,-22,-20,4,5
1537910859836624,-2,-3,-2,-15,-19,24,9,-5
1537910859838618,-3,-3,-2,-2,15,-1,-6,-5
1537910859838618,-3,-4,2,-5,-35,-27,-20,-11
1537910859850587,3,3,1,12,35,24,16,4
1537910859850587,0,1,1,10,22,-10,-5,-4
1537910859859563,-3,-2,-6,-14,-55,-8,14,4
1537910859859563,-2,-5,-2,-4,-4,-14,0,3
1537910859882501,-5,-1,3,4,6,-26,-8,-6
1537910859882501,4,1,1,-1,-36,10,-10,-4
1537910859883498,-4,-5,0,2,45,-12,2,-5
1537910859883498,-2,2,1,0,-18,35,-6,0
1537910859897461,-1,-1,-1,-2,14,-15,13,2
1537910859897461,0,-2,-2,3,9,-18,-4,1
1537910859898458,-4,-2,3,0,-26,-44,-13,-14
1537910859898458,0,-1,1,14,-8,-44,-2,6
1537910859910427,2,0,-4,-25,1,38,8,6
1537910859910427,1,0,2,-8,-32,-2,-4,3
1537910859919909,1,-2,-4,8,42,-25,-8,-1
1537910859919909,-2,2,6,1,-11,8,-3,-3
1537910859932874,-6,-2,-4,7,-10,-22,-8,-5
1537910859932874,2,-2,-2,0,-18,-9,0,2
1537910859941850,6,2,-2,-3,7,29,5,8
1537910859941850,-13,-4,-3,2,29,15,4,-9
1537910859956810,9,0,0,-7,-45,-4,-26,-6
1537910859956810,-2,0,1,1,39,-6,29,3
1537910859962795,0,0,2,10,18,42,9,4
1537910859962795,6,1,3,-5,-24,-10,-4,9
1537910859970773,-12,-4,1,0,8,-21,-21,-7
1537910859970773,-3,-3,-1,-3,-7,-4,-4,-4
1537910859979749,2,0,0,-2,-9,-10,-18,-19
1537910859979749,-1,-4,-8,-3,0,-9,27,7
1537910859992714,-1,3,2,3,-16,11,-5,-4
1537910859992714,9,3,-2,-5,46,22,1,6
1537910860001690,-13,-9,-3,2,1,-17,10,-2
1537910860001690,2,0,1,-18,-5,30,-6,-6
1537910860016650,-8,-5,-1,-1,12,-16,3,4
1537910860016650,0,0,4,10,-23,23,2,-4
1537910860022634,2,2,-1,-1,-12,16,4,3
1537910860022634,2,-1,-3,-1,12,-1,-10,-1
1537910860030613,6,3,5,15,-2,25,-4,-9
1537910860030613,-6,-4,-7,-11,3,-14,4,0
1537910860039589,1,-2,-1,-4,-19,12,12,7
1537910860039589,1,1,-2,12,28,39,-7,3
1537910860061530,0,1,0,-9,-39,-34,-15,-8
1537910860061530,2,0,5,10,-6,36,-4,2
1537910860068512,-4,0,3,4,32,8,-14,-11
1537910860068512,-4,-2,-6,-9,-17,-29,9,1
1537910860084469,-2,-3,-4,-2,18,26,10,1
1537910860084469,-4,-3,-2,-1,-50,-20,-4,-2
1537910860086464,0,0,-4,-11,-37,-45,-20,1
1537910860086464,-1,-1,2,7,54,13,23,-2
1537910860107409,5,0,-3,-12,13,44,3,5
1537910860107409,-3,-3,1,-4,-19,3,0,-3
1537910860108406,-1,-1,1,1,21,-7,2,1
1537910860108406,-2,0,-2,1,-20,-7,-15,-6
1537910860121372,-1,-2,-3,0,-5,1,4,0
1537910860121372,-1,-1,-4,-2,-4,-18,0,-1
1537910860128353,-1,0,-2,-5,-28,10,4,1
1537910860128353,7,2,0,4,70,-7,-4,0
1537910860144310,-5,2,5,5,-22,4,13,4
1537910860144310,-7,-7,2,5,-21,-25,-5,-5
1537910860146305,0,0,0,0,17,-14,-15,-5
1537910860146305,0,-1,-3,1,-3,21,11,3
1537910860167248,5,0,-2,-7,-6,-17,-10,-3
1537910860167248,-3,-3,-8,-9,5,27,32,6
1537910860168245,7,3,2,-3,-12,20,-6,5
1537910860168245,-10,-5,-2,2,14,-18,-11,-5
1537910860181211,-1,-1,-1,6,24,-16,3,-6
1537910860181211,-4,-1,1,3,-9,-23,-11,5
1537910860188192,2,0,-1,1,15,3,1,0
1537910860188192,0,-3,-5,-10,-29,13,-4,-2
1537910860204149,-2,2,-1,2,-10,-3,-7,-12
1537910860204149,0,1,0,-4,0,-6,-11,-14
1537910860206144,2,-4,-2,-6,-18,5,10,8
1537910860206144,-1,0,2,8,36,4,-9,-2
1537910860227088,2,-2,-2,-9,48,-18,1,2
1537910860227088,-2,0,5,12,-43,-2,-1,-4
1537910860228085,0,-1,-2,3,9,-6,8,8
1537910860228085,-1,-2,-6,-29,-41,-11,10,2
1537910860241050,-1,-4,-2,13,4,5,-3,0
1537910860241050,1,0,0,-1,31,9,-14,-2
1537910860248031,-3,-1,-1,-1,6,-10,-2,-8
1537910860248031,1,2,5,5,-32,12,19,4
1537910860263989,0,1,-2,-11,-7,5,-6,5
1537910860263989,-2,-1,-2,0,15,15,7,0
1537910860265984,-5,-4,-3,2,-2,-15,-4,-1
1537910860265984,2,1,0,1,0,-2,-11,-1
1537910860286928,-2,-3,-1,-4,-6,-3,5,-2
1537910860286928,0,0,-3,-2,-18,-2,-6,-2
1537910860288922,2,1,-1,1,24,-21,-1,0
1537910860288922,-10,-3,1,-3,-25,-11,-5,-4
1537910860300891,-1,0,-2,-2,-22,16,13,6
1537910860300891,-1,-2,-1,-1,14,-26,-6,1
1537910860307872,0,-5,-2,2,42,51,1,-7
1537910860307872,1,2,-1,-2,-1,-13,-17,-4
1537910860324827,-3,-1,1,5,-52,-12,-4,2
1537910860324827,5,1,-1,11,21,-12,6,0
1537910860325824,0,-1,-1,-24,-25,-8,-7,-4
1537910860325824,-1,-1,2,5,-1,7,12,5
1537910860346768,0,-4,-3,-4,15,4,-11,-7
1537910860346768,-4,1,-2,-1,8,-5,-7,-3
1537910860348763,-3,0,0,9,-35,-31,7,0
1537910860348763,5,1,2,20,19,6,-5,0
1537910860361728,0,0,-2,-36,-21,-14,-5,-3
1537910860361728,-2,-3,-5,-8,53,23,3,3
1537910860367712,0,2,2,-1,-21,-26,-4,-2
1537910860367712,2,-2,-1,-1,-38,22,-1,2
1537910860384666,-1,-1,1,23,43,19,11,4
1537910860384666,3,3,2,-7,-29,-12,-9,-7
1537910860385664,-1,2,0,5,16,3,-4,-4
1537910860385664,-3,-2,-5,0,30,11,1,-1
1537910860406608,-8,-5,1,1,-4,-7,-1,-1
1537910860406608,3,0,-2,-4,1,19,2,2
1537910860408602,-1,-2,1,3,-1,3,2,0
1537910860408602,2,2,1,-3,-2,-17,-7,-5
1537910860420571,-1,-3,-5,-4,5,-13,0,-1
1537910860420571,1,2,3,8,23,54,5,2
1537910860429547,-4,-2,-1,-3,-16,7,0,2
1537910860429547,-3,-1,2,-1,-48,-10,-2,-6
1537910860444507,0,-2,-6,-2,34,-6,4,4
1537910860444507,1,-1,-1,-1,-15,-23,-4,-3
1537910860445504,-3,0,-2,0,0,-3,-6,-3
1537910860445504,1,-5,-5,-4,14,1,12,15
1537910860467445,6,3,1,2,-15,8,-4,-12
1537910860467445,-10,-3,-2,0,9,-15,0,2
1537910860468443,-5,-7,-3,-2,36,16,-4,-7
1537910860468443,-4,-1,-1,-13,-8,-20,-4,-5
1537910860480411,11,3,-1,0,-39,-13,9,7
1537910860480411,-7,0,1,9,47,18,3,0
1537910860489387,2,-1,-1,-8,-12,4,-4,-2
1537910860489387,1,-1,0,0,0,-31,-4,1
1537910860504346,-3,-1,1,7,33,45,7,-1
1537910860504346,5,-1,1,-6,-25,-5,-8,-2
1537910860506341,0,1,0,3,-15,-12,-2,1
1537910860506341,-2,-1,0,3,-12,-7,0,-3
1537910860527285,-2,0,-1,-7,-7,-5,-10,-4
1537910860527285,0,-2,-2,3,33,-10,4,1
1537910860528283,-1,-2,-1,0,21,16,5,0
1537910860528283,1,-1,-1,-4,-24,-7,-3,-1
1537910860540250,-4,-2,0,2,-22,-5,-2,0
1537910860540250,1,-1,-3,-2,-7,2,1,-1
1537910860549226,-1,-1,-1,-2,-5,-17,-1,2
1537910860549226,-3,-3,-3,-3,7,-6,-6,-8
1537910860565184,-1,0,4,2,2,16,-6,1
1537910860565184,2,-1,-2,-3,-3,-11,2,4
1537910860566181,0,0,-3,-1,-8,10,0,2
1537910860566181,1,1,1,1,10,1,-4,1
1537910860587125,-2,-2,-1,0,-34,-33,-3,-2
1537910860587125,-6,0,1,-2,13,8,4,-10
1537910860588123,2,1,0,1,-5,-27,-5,9
1537910860588123,-5,-3,-3,-5,9,23,11,-10
1537910860601088,-1,-4,-1,3,-5,5,-2,4
1537910860601088,-1,-2,0,-1,-24,8,10,3
1537910860609067,-3,0,-1,-2,-5,15,0,-4
1537910860609067,0,-2,-2,-4,-23,2,6,3
1537910860624026,0,-3,-1,-2,60,0,4,0
1537910860624026,3,6,2,3,-28,-57,-16,-5
1537910860626021,-3,-3,-2,2,27,28,-1,-2
1537910860626021,0,-1,0,-2,-4,-5,-3,-1
1537910860646965,-1,-2,-1,-2,-22,-1,6,-1
1537910860646965,-3,-3,-1,-4,-23,15,-7,-4
1537910860647963,-1,1,-1,0,24,-31,-12,-5
1537910860647963,0,1,-1,4,1,15,3,2
1537910860669904,-1,1,0,8,-25,-9,1,0
1537910860669904,2,-2,-2,-7,47,3,-4,1
1537910860670901,2,1,0,-10,-68,5,2,-1
1537910860670901,0,-1,1,14,91,-1,5,3
1537910860684864,3,2,-1,-3,0,8,-5,-3
1537910860684864,-17,-11,-4,0,-19,-21,-1,-2
1537910860685861,1,0,0,9,-15,4,-2,-3
1537910860685861,1,-2,-3,-8,-9,-6,21,7
1537910860706805,4,2,0,1,11,4,-2,5
1537910860706805,5,2,-2,2,-4,-13,-4,-3
1537910860708800,-5,-4,-1,-3,18,7,3,-2
1537910860708800,-2,-2,-1,-2,0,-16,-10,-7
1537910860720768,-2,-1,-1,5,-7,7,-1,-3
1537910860720768,2,-1,-7,-23,-51,12,3,4
1537910860729744,-1,-3,1,8,52,-5,-1,0
1537910860729744,2,2,3,4,11,1,-7,-3
1537910860744704,-5,-1,-2,-9,-10,4,0,-1
1537910860744704,0,0,0,5,-20,-10,-6,-3
1537910860745702,2,3,0,-4,-29,17,1,-1
1537910860745702,0,-2,-4,-6,-32,-4,-4,-1
1537910860766645,-4,-3,-1,3,13,-14,5,3
1537910860766645,4,0,-1,-2,-13,22,2,1
1537910860768640,-2,-2,-1,0,44,-8,-2,-4
1537910860768640,1,-2,1,-4,-17,4,1,3
1537910860780608,-5,-2,1,1,-35,-4,-13,-8
1537910860780608,3,0,-1,-8,-28,-7,-3,0
1537910860789584,-1,-1,-1,3,21,3,-3,-4
1537910860789584,-6,0,0,5,-1,21,12,13
1537910860804544,5,0,0,1,-8,0,1,3
1537910860804544,0,0,3,8,7,1,-9,-5
1537910860805541,-2,-2,-1,-12,-21,-6,3,-2
1537910860805541,-1,-1,-3,-7,-12,-31,-12,-8
1537910860834464,-2,1,3,2,-5,8,4,2
1537910860834464,-1,-1,2,6,51,-3,-1,-1
1537910860835462,2,-1,-1,-4,-41,4,0,1
1537910860835462,-1,-3,-5,-9,35,9,-2,-1
1537910860849424,-4,2,4,10,-17,-13,0,0
1537910860849424,1,1,3,7,-2,10,8,2
1537910860851419,-3,-2,-4,0,4,-8,-9,-6
1537910860851419,2,0,2,-3,17,9,14,8
1537910860864384,-1,-2,-4,-10,9,14,3,0
1537910860864384,-1,0,-1,2,21,10,-4,-6
1537910860866379,-1,-1,0,2,-38,4,4,4
1537910860866379,-2,0,-2,0,-8,-10,-16,-3
1537910860887323,1,-3,-3,-7,-46,-15,1,-1
1537910860887323,-2,-1,-3,-2,61,28,15,2
1537910860888320,-1,-2,-2,-5,-12,-17,-3,-2
1537910860888320,-1,-2,0,6,-12,-11,-4,-5
1537910860909264,5,2,1,-3,-15,-11,-3,3
1537910860909264,-7,-6,0,-4,-19,20,0,-8
1537910860911259,1,3,2,10,56,12,11,3
1537910860911259,-1,-2,-4,-6,-13,1,7,3
1537910860923227,0,-1,-1,-2,32,-4,-5,-5
1537910860923227,6,2,0,6,-41,-28,-5,3
1537910860932203,-9,-3,-2,-16,-13,6,-3,-1
1537910860932203,1,-3,-1,2,28,-9,-5,-1
1537910860947163,-3,-1,-1,-6,33,33,3,0
1537910860947163,2,0,0,-5,-46,-10,-5,-1
1537910860948160,-1,-1,-1,8,-15,-8,20,3
1537910860948160,5,4,2,4,25,12,-4,-1
1537910860969104,-13,-7,-4,-5,13,-4,3,0
1537910860969104,0,0,0,4,22,6,0,2
1537910860971099,1,0,1,8,-3,8,-10,-5
1537910860971099,-1,-2,-4,-25,-73,-22,-3,2
1537910860984064,3,1,1,9,76,27,-6,-5
1537910860984064,-2,-2,-2,-4,-36,-15,4,1
1537910860986059,2,0,1,-2,-2,8,-1,1
1537910860986059,-9,-6,-1,8,4,6,-4,-5
1537910861007003,0,-1,-1,-1,-5,-7,-9,0
1537910861007003,-4,-3,0,-5,-32,-23,-1,0
1537910861008000,3,0,1,4,10,-11,3,4
1537910861008000,-1,0,0,1,0,2,-6,-5
1537910861029943,-3,-3,-3,-11,-42,-13,-3,0
1537910861029943,1,3,1,7,56,2,-17,-8
1537910861030939,-1,-2,-1,-4,11,-22,4,0
1537910861030939,6,2,-1,9,-1,30,-3,-1
1537910861043904,-12,-7,-3,-15,1,-28,7,-1
1537910861043904,5,2,1,-1,0,18,13,3
1537910861050885,-2,-3,1,-2,-15,11,-7,-3
1537910861050885,4,-1,-3,-12,6,-9,-6,1
1537910861066843,2,1,3,14,18,-9,-10,-5
1537910861066843,-7,-6,-5,-5,14,-1,6,-2
1537910861068837,-2,-2,-1,-3,-1,1,0,2
1537910861068837,10,5,2,3,-36,-1,2,0
1537910861089781,-15,-7,-2,3,38,0,-4,-2
1537910861089781,0,1,-1,-2,-5,-8,-1,1
1537910861090779,2,0,-2,0,8,15,-4,-1
1537910861090779,-5,0,1,3,15,13,-15,-6
1537910861103744,7,4,-3,-6,-42,-13,-3,3
1537910861103744,-1,-1,0,5,38,10,10,6
1537910861110725,-2,0,-1,-4,13,-5,-13,-6
1537910861110725,-5,-4,-3,-7,-15,-40,-9,-6
1537910861126683,4,3,4,12,-3,14,12,2
1537910861126683,-1,-1,1,10,3,-3,2,4
1537910861128678,3,0,-1,-27,-35,3,11,7
1537910861128678,-7,-4,1,8,61,-18,-11,-3
1537910861149622,1,-2,-7,-22,-41,-8,0,-4
1537910861149622,-1,-1,1,8,-2,-6,-13,-5
1537910861150619,-2,0,-3,1,-15,0,6,0
1537910861150619,-3,-2,0,-1,-31,-6,7,0
1537910861163584,0,-2,-3,1,42,-16,-6,-7
1537910861163584,1,0,1,-6,-23,10,-2,2
1537910861170565,0,-1,0,5,25,-7,-2,2
1537910861170565,-2,-1,1,-2,-18,11,4,0
1537910861186523,0,-2,-4,-1,-2,0,12,1
1537910861186523,-2,-1,0,-1,-8,-6,4,4
1537910861188518,-2,-1,0,0,-22,2,-2,0
1537910861188518,-2,0,-4,6,21,-11,-2,-3
1537910861208464,1,1,0,2,-10,21,-7,-2
1537910861208464,-1,-3,-2,-21,5,-11,-5,2
1537910861217440,-4,-3,-4,-1,34,-25,-8,-5
1537910861217440,-2,0,0,-2,-57,4,7,1
1537910861223424,8,1,1,12,40,7,8,5
1537910861223424,-2,-2,-4,-15,-13,-15,-9,-8
1537910861230405,-1,-4,-5,-2,0,3,8,6
1537910861230405,-6,0,0,-7,-24,6,-2,-2
1537910861247360,1,0,1,0,-66,12,1,4
1537910861247360,-3,-2,0,9,72,-1,-2,-7
1537910861248358,0,-2,0,0,3,-6,0,-2
1537910861248358,0,-2,-4,3,7,15,5,2
1537910861269302,-2,0,1,-2,0,3,-2,-2
1537910861269302,1,-1,-5,-6,-42,-9,1,0
1537910861271296,-4,-1,0,4,18,11,-9,-8
1537910861271296,0,-1,-1,0,12,6,3,2
1537910861284261,-1,-2,-3,-4,-14,-15,8,2
1537910861284261,-1,0,-3,-3,-8,15,-5,2
1537910861290246,0,1,3,4,-12,6,7,-1
1537910861290246,-1,-3,-2,-3,-1,0,1,0
1537910861307200,-4,-1,-2,-2,23,-5,-12,-6
1537910861307200,-2,0,0,4,-22,-25,-5,-1
1537910861308198,2,-1,-1,6,20,43,9,1
1537910861308198,2,0,1,-1,-11,-6,-3,2
1537910861329141,0,-2,1,-2,10,-10,-2,1
1537910861329141,0,-1,0,2,-7,-14,-8,-2
1537910861331136,-3,-3,-5,-19,-22,-5,-8,-7
1537910861331136,-3,-1,0,1,20,14,-1,1
1537910861343104,5,3,2,8,30,-5,-3,-2
1537910861343104,-2,-2,-4,-6,-27,9,13,6
1537910861352081,-1,-3,0,2,-6,-8,-7,-3
1537910861352081,-3,-4,0,-2,-12,-4,7,-4
1537910861367041,-1,-1,-2,-3,-35,-11,-10,0
1537910861367041,3,2,2,7,67,30,-2,-2
1537910861368038,-2,5,1,2,-17,-6,-25,-8
1537910861368038,-1,-2,-2,-3,13,8,0,1
1537910861389979,-1,0,0,-2,-16,1,-4,0
1537910861389979,0,1,0,-1,-10,-3,-5,-4
1537910861390977,-1,0,-2,2,16,-2,0,3
1537910861390977,-4,-1,0,2,-10,-15,-6,-7
1537910861402945,-2,-4,-2,-3,6,15,-3,-5
1537910861402945,-2,-2,-1,0,10,16,11,2
1537910861411921,1,1,2,0,-6,-3,9,7
1537910861411921,2,1,0,0,9,-17,-12,-4
1537910861426881,-3,-3,-4,-6,20,6,13,2
1537910861426881,0,-2,0,-5,-64,-22,-4,-2
1537910861428875,0,-2,-1,5,48,20,6,4
1537910861428875,-5,-1,0,5,-9,7,1,2
1537910861449820,9,2,0,-5,-9,14,-4,0
1537910861449820,-2,-4,-2,2,21,5,-6,-7
1537910861450817,-1,-1,-2,-3,-47,-23,15,4
1537910861450817,0,1,-1,-6,-23,-3,-5,-2
1537910861462785,-4,-1,2,7,50,4,-1,1
1537910861462785,-3,-3,-2,-3,-10,-16,10,0
1537910861471761,-2,-1,-1,1,18,-3,-19,-8
1537910861471761,2,-1,-1,-1,-25,3,5,-1
1537910861486721,-1,0,-1,-1,-29,-14,1,-1
1537910861486721,-1,1,0,-1,-4,12,3,-1
1537910861488716,-3,-1,-1,-1,38,6,-5,-3
1537910861488716,0,0,-1,0,-11,9,-9,-2
1537910861509659,-2,0,2,-2,-14,-18,-4,-3
1537910861509659,-2,0,2,4,34,22,10,3
1537910861510657,3,-2,-3,-5,-27,-7,12,1
1537910861510657,2,0,-1,-2,10,4,-7,-2
1537910861522626,-3,-4,-2,-2,-8,-14,26,5
1537910861522626,-2,-4,-5,0,11,-18,-8,-1
1537910861531601,-2,2,5,-2,-17,5,-16,-5
1537910861531601,-1,-3,-1,-1,10,19,10,-1
1537910861546561,-2,-3,-2,-3,-16,-4,3,6
1537910861546561,-1,0,-1,-3,-4,-1,-2,0
1537910861548555,-1,-5,-5,0,-6,-26,9,2
1537910861548555,-2,-1,0,-3,5,-11,-5,0
1537910861569499,-2,1,2,3,21,30,-13,-8
1537910861569499,-1,-2,-2,-1,1,-31,-12,-3
1537910861575483,1,0,3,15,-25,34,5,1
1537910861575483,-1,-5,-5,-7,13,-22,16,3
1537910861583462,-2,-2,-3,-12,-8,-37,-5,-1
1537910861583462,0,0,1,1,18,22,2,-1
1537910861592438,-2,3,2,0,-11,44,-14,-6
1537910861592438,-6,2,1,12,0,-9,0,1
1537910861607398,6,0,-5,-7,16,6,1,-3
1537910861607398,0,1,0,1,-28,-21,-17,-5
1537910861608395,0,0,1,5,23,-12,4,-2
1537910861608395,0,-1,1,5,4,17,15,5
1537910861629340,-4,-1,-1,-2,-6,-10,-11,0
1537910861629340,1,-1,-1,-4,2,0,-1,2
1537910861631334,0,-2,-4,-7,-22,-10,-1,-1
1537910861631334,1,2,0,-2,27,45,-1,0
1537910861643302,-2,-1,-2,1,6,3,-8,-5
1537910861643302,0,0,1,2,-6,-10,2,2
1537910861652278,1,-2,0,-3,-13,-26,4,1
1537910861652278,2,-1,-3,-2,-3,-48,4,3
1537910861667238,0,-1,2,-6,-41,-32,-4,-1
1537910861667238,1,0,0,-3,13,64,26,2
1537910861668236,-2,0,0,2,-4,-15,-1,3
1537910861668236,0,-3,0,-3,26,30,-21,-9
1537910861689179,-1,-1,-2,-3,-14,9,9,4
1537910861689179,-3,0,-2,-9,-16,-28,-4,-5
1537910861691174,-2,-4,-3,-6,-19,23,6,-2
1537910861691174,-6,-3,-5,2,16,-11,-10,-4
1537910861711121,8,2,1,14,34,-1,-7,-5
1537910861711121,0,0,1,-1,3,3,-5,3
1537910861712118,-2,-2,-4,-10,-5,-7,16,-4
1537910861712118,1,0,-1,2,-11,-23,0,2
1537910861726080,-3,-2,-1,3,5,7,-3,1
1537910861726080,-2,-2,-1,4,-29,-1,-6,-2
1537910861727078,2,1,1,3,21,35,-6,-1
1537910861727078,0,-2,-2,-7,-21,35,17,1
1537910861749019,-3,0,0,-1,8,-5,-11,-5
1537910861749019,1,1,1,2,1,-13,-15,-5
1537910861749019,-3,-2,-2,-5,-8,-17,-5,2
1537910861749019,0,-2,-1,-2,11,-18,-9,-6
1537910861770960,-4,-1,1,4,-11,19,-3,-1
1537910861770960,-1,-1,-2,0,3,-4,-1,-1
1537910861771958,0,0,1,1,1,-18,-1,0
1537910861771958,1,3,3,2,-8,5,-6,-4
1537910861785921,-3,0,1,0,2,30,-2,-6
1537910861785921,-3,-2,-2,-5,3,15,7,2
1537910861786918,-1,0,-2,2,1,-19,2,2
1537910861786918,0,-2,-1,-4,9,-10,6,3
1537910861808859,-2,0,-1,3,-13,-7,-7,-3
1537910861808859,-1,-1,0,12,-1,2,7,1
1537910861815840,8,-1,-3,-9,0,-4,-15,-4
1537910861815840,0,-1,-3,-19,-16,9,8,1
1537910861830801,-5,-2,-1,-4,-3,-63,-22,-2
1537910861830801,0,-1,-3,12,42,-6,6,0
1537910861831798,-4,0,1,13,-14,14,-4,-2
1537910861831798,-1,0,-1,-34,-12,-10,-2,-3
1537910861854736,-1,-2,-2,-5,17,2,4,2
1537910861854736,-1,0,2,3,-23,-12,-6,-4
1537910861854736,0,0,-1,15,6,15,4,3
1537910861854736,2,2,0,15,17,-15,-1,-3
1537910861868700,1,-1,-1,-4,-14,25,11,2
1537910861868700,-2,-2,-3,-5,-19,-12,5,2
1537910861869697,-1,-2,-1,-7,-33,24,4,-1
1537910861869697,-1,-1,1,8,22,-15,-9,-2
1537910861891638,1,0,2,6,41,6,8,3
1537910861891638,0,-2,-3,-12,-8,2,5,2
1537910861891638,0,0,3,6,39,-13,-30,-9
1537910861891638,1,-2,-2,-3,-14,-3,6,4
1537910861906598,-5,-2,-2,-3,-40,8,1,-4
1537910861906598,1,0,5,13,12,-1,-4,-3
1537910861906598,-2,-2,-7,-19,-1,-21,-3,-2
1537910861906598,0,0,2,17,40,16,-2,-2
1537910861928539,3,2,1,4,10,30,3,4
1537910861928539,-1,-4,-2,-15,-16,-23,2,4
1537910861929537,-3,-2,-2,-5,22,-4,2,-1
1537910861929537,0,-1,-1,2,-55,24,12,3
1537910861951478,-3,-3,-4,-6,2,-15,4,-2
1537910861951478,1,1,0,1,14,12,-9,-3
1537910861958459,0,1,1,3,10,-16,5,2
1537910861958459,-1,-1,-1,0,-29,-3,-11,-1
1537910861966438,1,0,1,-1,6,-1,5,-2
1537910861966438,0,-1,-1,0,12,22,-2,-2
1537910861967435,-1,0,-1,-7,-36,-9,5,2
1537910861967435,-2,-1,-1,4,7,-11,-13,-6
1537910861988380,-1,-3,-3,0,70,32,14,5
1537910861988380,-2,1,-2,3,-43,-26,-6,-1
1537910861989378,-1,-2,-2,-11,-11,-9,-3,-3
1537910861989378,-2,0,-2,0,1,16,5,1
1537910862011318,-1,-1,1,-2,-16,3,-6,-5
1537910862011318,0,1,0,-1,-5,12,5,2
1537910862012316,-2,0,4,28,35,2,-1,2
1537910862012316,-3,-1,-2,-35,-10,-30,-3,-3
1537910862026279,-1,-1,-3,5,-9,27,10,-1
1537910862026279,3,0,-2,-14,9,-7,-4,-5
1537910862027279,0,1,1,1,-35,4,-1,2
1537910862027279,1,-1,1,6,40,8,2,2
1537910862049217,-3,0,1,4,-23,-19,-5,-2
1537910862049217,-3,-3,-1,6,-16,-6,-7,-4
1537910862049217,-1,-2,-2,-12,8,-18,1,-4
1537910862049217,-4,-2,0,6,-13,16,-1,0
1537910862071159,3,1,1,4,-20,12,-5,2
1537910862071159,1,-1,-2,-6,52,-7,7,3
1537910862072157,-1,-2,-2,1,-32,-21,-12,-6
1537910862072157,0,1,3,11,72,4,2,0
1537910862086118,-1,-2,-3,-6,-38,-6,7,4
1537910862086118,1,0,1,26,-18,7,-3,3
1537910862087116,-7,-2,-3,-37,0,-8,0,-1
1537910862087116,10,-1,-4,-14,-13,-23,-4,-2
1537910862109057,-2,-3,-2,-5,0,-15,-3,-5
1537910862109057,2,3,5,0,25,20,7,7
1537910862109057,-1,-1,2,9,-7,2,-5,-2
1537910862109057,-4,-3,-1,11,-21,-6,-3,-7
1537910862130998,0,3,5,10,9,-10,-4,3
1537910862130998,-1,-4,-5,-2,31,-2,-8,-5
1537910862131996,2,0,0,-5,-2,2,7,3
1537910862131996,0,-2,0,-3,-30,-6,1,0
1537910862145959,-1,0,0,3,11,7,-3,0
1537910862145959,-5,-3,-3,-7,-26,-10,-1,-3
1537910862146956,-1,1,4,34,3,1,-5,-3
1537910862146956,4,-3,-8,-28,0,6,3,4
1537910862168897,0,-1,-1,-18,31,20,-11,-6
1537910862168897,0,0,-1,-8,-58,-23,1,1
1537910862169894,1,1,-1,5,13,19,6,-2
1537910862169894,-4,2,6,35,23,3,-8,-3
1537910862190838,0,-2,0,-12,-42,-22,-10,-3
1537910862190838,-1,-4,-8,-28,10,13,-2,0
1537910862191835,-1,-2,-4,-4,-10,-19,9,2
1537910862191835,-4,-1,-1,3,0,-2,-2,-3
1537910862205798,3,0,0,7,-5,1,6,4
1537910862205798,-2,-1,5,11,35,-8,-1,-4
1537910862206796,2,-2,-3,-7,-3,-6,3,2
1537910862206796,0,0,-2,2,-3,-26,-4,-2
1537910862228738,-3,-4,-7,-2,-2,-6,6,-1
1537910862228738,-2,1,2,-4,-42,-6,-6,-4
1537910862229736,0,-1,-3,-2,2,7,7,5
1537910862229736,-2,0,0,1,39,6,6,3
1537910862251677,-2,0,1,-3,-36,-25,-6,0
1537910862251677,-1,0,-1,2,27,-6,-10,-6
1537910862252675,0,-2,-2,-4,30,17,-4,-2
1537910862252675,-2,-3,-1,2,-27,-11,3,0
1537910862266636,-1,-1,-1,-2,14,-31,2,-2
1537910862266636,-1,-1,-1,6,1,-14,9,-1
1537910862266636,1,-2,0,-17,-17,9,-1,0
1537910862266636,-3,0,0,-5,-17,-4,-3,0
1537910862288577,-1,0,0,14,11,0,1,-1
1537910862288577,0,-2,0,-3,8,-10,-2,0
1537910862289575,0,-1,-4,0,-4,10,-3,-4
1537910862289575,-2,1,-1,-2,-15,55,10,1
1537910862311516,-2,-1,-1,-1,17,15,1,-2
1537910862311516,-1,-3,0,1,-11,-2,-4,0
1537910862312513,-2,-1,-1,4,11,-7,-4,-4
1537910862312513,-1,0,2,5,-13,1,-3,1
1537910862326476,2,-1,-4,-1,-5,-7,5,3
1537910862326476,-2,-1,-4,2,-27,1,-9,-2
1537910862327473,-2,-3,0,-17,25,-9,-4,-3
1537910862327473,-1,0,-2,-1,31,-17,9,0
1537910862348418,2,0,5,6,-20,-7,-11,-2
1537910862348418,-1,-1,-3,-7,-1,28,-7,-3
1537910862349416,1,2,1,2,-12,-28,-4,0
1537910862349416,-2,0,0,12,-13,-5,-10,-6
1537910862379335,-1,-1,-3,-25,5,-3,8,3
1537910862379335,-1,-1,-1,2,6,23,5,3
1537910862380332,-3,-2,-3,0,-34,14,-1,1
1537910862380332,-2,-2,0,4,25,-24,-2,0
1537910862394294,0,-2,-2,4,-11,-5,12,2
1537910862394294,-2,-2,-1,-8,-12,18,4,-3
1537910862395292,0,0,-1,-1,-4,-50,3,0
1537910862395292,-2,-2,-3,-1,32,16,-8,-2
1537910862408257,1,-1,2,8,43,66,0,0
1537910862408257,-2,1,2,-3,-9,-12,-3,2
1537910862409254,-1,-1,1,5,3,58,16,1
1537910862409254,0,1,1,-5,-32,-6,-6,-1
1537910862439174,-1,-1,0,-2,12,-14,-9,-5
1537910862439174,0,-1,0,1,-5,-11,-1,1
1537910862440172,-1,1,0,3,9,-4,-10,-2
1537910862440172,1,-4,-3,-7,-19,-6,-1,0
1537910862445158,-2,0,-1,0,-1,7,-1,-2
1537910862445158,-1,-3,-2,-2,3,-10,2,0
1537910862454134,-1,-1,-3,1,4,-12,7,0
1537910862454134,0,-1,3,0,3,19,-6,3
1537910862469095,0,-1,-1,-3,-21,-7,-4,1
1537910862469095,-2,1,0,3,6,12,-7,-3
1537910862469095,2,-1,0,3,27,-3,1,2
1537910862469095,0,1,1,-4,-51,4,-1,-1
1537910862492034,-1,-1,-1,3,28,-14,-6,-3
1537910862492034,-2,-2,0,-4,-7,-9,5,1
1537910862492034,0,-1,-3,3,4,-6,-5,-2
1537910862492034,0,-2,-3,-6,-3,-12,11,0
1537910862505996,-2,1,1,-1,-23,-6,-8,0
1537910862505996,-1,-2,-4,0,16,0,3,-2
1537910862513975,0,0,1,2,-6,-5,4,-1
1537910862513975,0,-1,-3,-1,-2,-2,-3,0
1537910862528935,-1,-2,-1,2,-1,4,4,-2
1537910862528935,1,0,-1,-2,5,-2,0,-1
1537910862529933,-1,-2,0,-1,-6,3,-6,-1
1537910862529933,-1,-2,0,2,-35,1,0,-1
1537910862551874,1,0,-1,4,45,-34,1,2
1537910862551874,-1,0,-2,-26,-38,18,1,1
1537910862552871,-2,-2,-2,-4,-41,-23,-9,-3
1537910862552871,-1,-1,0,-1,47,-22,14,1
1537910862565836,0,0,1,7,-24,47,8,2
1537910862565836,-3,-3,-7,-2,11,-21,-1,-1
1537910862573815,-1,-1,-1,-6,-4,9,-5,0
1537910862573815,-1,1,-1,-1,-25,-9,-16,-8
1537910862588776,-1,-3,-1,0,7,0,3,-1
1537910862588776,0,-1,2,7,4,5,0,1
1537910862589774,-1,-1,0,-1,11,16,-1,-1
1537910862589774,0,1,0,1,3,-3,-9,-3
1537910862611714,1,1,0,-2,-12,-4,1,-1
1537910862611714,1,1,1,8,13,-1,-6,-3
1537910862612713,-3,-3,-4,-10,-24,-5,-1,-1
1537910862612713,0,-3,-4,-9,42,-9,4,1
1537910862625677,-4,-1,-2,-6,10,28,3,-1
1537910862625677,-2,0,2,15,16,-11,2,-1
1537910862633656,0,1,2,3,-11,1,2,0
1537910862633656,0,-1,-2,-10,-18,-12,-6,0
1537910862648616,-2,-3,-4,-12,-12,-4,7,2
1537910862648616,2,3,3,-3,-21,-5,-18,-3
1537910862649614,-1,-3,-1,7,12,23,5,0
1537910862649614,-2,-1,-1,6,33,1,1,-1
1537910862671555,-1,-1,-1,0,-10,16,-6,-2
1537910862671555,0,1,2,4,17,-5,0,-1
1537910862672552,0,-1,-5,-15,-19,0,-7,-1
1537910862672552,-2,-2,-3,-2,-50,0,-3,-2
1537910862685518,-1,0,1,14,20,-17,-10,-3
1537910862685518,-1,-3,-1,-4,-45,-29,0,0
1537910862693496,2,1,-2,-7,52,18,11,1
1537910862693496,0,-2,1,1,-30,-4,-1,-1
1537910862708455,-2,0,0,9,40,1,2,-1
1537910862708455,-2,-3,-2,-13,-32,-17,-3,-2
1537910862709453,-1,0,2,7,29,35,-1,2
1537910862709453,-2,-1,-1,0,-8,11,3,0
1537910862732391,1,-2,-2,-4,-28,-21,1,0
1537910862732391,0,-1,-1,2,35,7,5,2
1537910862732391,-1,-2,-3,-4,-31,-17,-5,-3
1537910862732391,0,-1,-1,11,77,1,2,0
1537910862754332,1,0,3,-1,-35,10,-5,-1
1537910862754332,2,0,-1,-2,13,7,4,0
1537910862755330,-2,-1,0,-1,-9,-18,-4,-3
1537910862755330,0,-1,-2,-2,-15,3,1,2
1537910862777271,-3,-4,-4,-7,5,-17,8,1
1537910862777271,0,1,-1,-1,2,32,12,1
1537910862777271,-1,-1,1,4,1,-31,-5,0
1537910862777271,0,0,0,3,3,-2,-8,-3
1537910862792231,-2,-3,-3,-17,-15,-18,2,-3
1537910862792231,-2,-2,4,5,2,4,-7,-1
1537910862792231,-2,1,2,10,11,7,4,1
1537910862792231,-2,-2,-3,-1,8,-4,-8,-3
1537910862814172,0,0,-2,0,-3,3,-8,-2
1537910862814172,-2,-2,-4,-6,-5,-2,2,-1
1537910862815169,0,0,0,4,-17,2,-3,-2
1537910862815169,-1,0,1,8,35,3,1,1
1537910862829132,0,-1,2,-6,-20,-6,-8,-3
1537910862829132,0,1,-1,4,-26,-2,-5,-3
1537910862829132,-1,0,-2,-14,31,11,4,-1
1537910862829132,-1,0,0,4,-38,-6,-3,2
1537910862852071,0,1,2,8,28,9,-4,-2
1537910862852071,0,-1,2,4,-1,-5,-4,-1
1537910862853068,-2,-2,-3,-6,-5,-18,9,0
1537910862853068,0,-1,-1,-9,-64,6,-3,-2
1537910862874012,-1,2,-1,4,37,4,3,1
1537910862874012,-2,-1,-4,-4,35,-5,-13,-2
1537910862875009,-1,-1,-1,5,-26,4,0,1
1537910862875009,-1,-1,-1,-6,11,-7,3,-1
1537910862888972,1,0,0,-2,-44,10,-1,0
1537910862888972,0,-3,-3,0,41,7,24,7
1537910862888972,0,0,0,1,-4,-8,-5,-2
1537910862888972,-2,0,-2,-5,24,-1,-9,-4
1537910862911911,-2,0,0,0,-43,6,-3,-2
1537910862911911,0,0,0,-1,19,-1,0,-1
1537910862912908,0,-1,-1,-1,-28,-3,4,-1
1537910862912908,-1,0,0,6,28,7,3,0
1537910862934849,0,1,-3,-2,17,-13,-1,0
1537910862934849,-1,-3,-2,-7,-12,-3,-5,-3
1537910862934849,9,4,3,-2,-34,3,-9,-1
1537910862934849,-9,-2,-2,-2,8,7,1,-2
1537910862948812,0,-4,-2,-4,11,-6,-2,-2
1537910862948812,0,1,-1,3,7,7,-1,0
1537910862949809,-8,-6,-3,2,-13,-15,-4,-5
1537910862949809,9,-1,-1,-3,-15,11,6,7
1537910862971751,-9,-2,1,-3,-2,-5,-1,-9
1537910862971751,0,-3,-1,-1,-7,4,-3,3
1537910862972748,-1,-1,-1,2,21,-3,0,-7
1537910862972748,-5,-4,-1,1,17,-3,2,1
1537910862994689,4,0,-1,-3,-41,-8,-3,4
1537910862994689,-2,0,-1,4,-24,-2,-4,-4
1537910862994689,-1,-2,-3,0,24,-12,1,2
1537910862994689,2,2,2,-3,-10,12,1,-2
1537910863008652,3,1,0,-3,17,13,-1,3
1537910863008652,-2,-3,-2,-5,-15,-2,-3,-5
1537910863009649,-1,-1,0,8,13,-10,-4,3
1537910863009649,-1,-1,-3,-14,-9,1,-2,-6
1537910863031591,1,-1,-1,-6,-9,3,-4,2
1537910863031591,1,3,2,2,3,-5,3,1
1537910863032589,-4,-2,-2,-3,7,0,-3,-3
1537910863032589,1,1,0,3,-2,-19,-5,1
1537910863054530,0,-1,3,3,-14,12,4,-6
1537910863054530,-2,-1,-2,-2,-10,-4,2,0
1537910863055527,0,2,-1,3,20,14,-3,2
1537910863055527,0,0,0,0,-13,-6,4,-3
1537910863068492,-2,-3,-3,-1,5,-6,4,-2
1537910863068492,1,-1,-1,-1,8,-2,-7,-2
1537910863069490,-1,0,0,-2,-17,3,8,1
1537910863069490,-1,-2,1,2,-13,6,-1,0
1537910863092429,-2,-1,-4,3,68,-18,-7,-3
1537910863092429,1,0,4,-2,-17,13,9,4
1537910863092429,0,-1,1,3,2,-12,-8,-3
1537910863092429,-1,-1,-2,-15,-11,-6,1,0
1537910863114370,0,-2,-5,-7,-13,4,-1,4
1537910863114370,-3,0,2,6,5,9,-20,-12
1537910863115368,-1,-2,-3,0,20,24,4,3
1537910863115368,-2,-2,0,5,-9,1,2,-1
1537910863128332,-2,1,3,4,-1,-14,-9,-3
1537910863128332,1,-1,-1,-5,-35,-3,3,0
1537910863129330,0,-1,0,4,32,-7,1,-2
1537910863129330,-2,-3,-3,2,10,7,11,5
1537910863152268,0,-1,-2,-3,0,12,-3,-2
1537910863152268,-1,-5,-3,-9,-28,-12,1,1
1537910863152268,0,1,0,-5,11,-2,-5,-1
1537910863152268,3,3,2,1,-12,-1,-4,-4
1537910863174210,-6,-2,2,18,-12,-11,2,-1
1537910863174210,-7,-3,-5,-10,8,-2,6,0
1537910863175207,2,1,-2,1,29,14,-8,-1
1537910863175207,-1,0,-1,2,21,1,6,-2
1537910863189170,5,1,5,-3,-23,-6,3,2
1537910863189170,1,0,-1,11,-17,-19,-17,-4
1537910863189170,-5,-4,-1,-2,-17,-5,25,3
1537910863189170,1,-3,-1,-5,-36,8,-13,-7
1537910863212109,0,-1,-4,-3,26,-7,10,2
1537910863212109,-2,-1,0,-3,4,13,-3,-4
1537910863213107,-1,0,0,-3,-2,-1,-17,-5
1537910863213107,-2,-2,-2,1,-2,-11,20,4
1537910863235048,-1,-3,-1,-6,-13,5,-12,-4
1537910863235048,-1,0,0,4,14,-1,-2,2
1537910863236045,1,1,1,-2,-23,7,-16,-13
1537910863236045,-2,-2,-1,-7,-29,-12,8,3
1537910863249013,-1,-1,0,6,49,4,-7,-3
1537910863249013,1,-1,-3,-2,17,4,3,2
1537910863249013,-1,2,-1,4,-22,-6,0,2
1537910863249013,-1,2,-1,-1,5,2,-6,5
1537910863271951,-1,-2,-2,-6,-15,-11,-4,-9
1537910863271951,1,-1,2,3,3,13,1,1
1537910863272948,-2,-2,-3,0,-21,-3,-1,1
1537910863272948,-1,0,-1,-10,51,-9,-13,-9
1537910863294888,0,0,0,0,-3,-4,7,7
1537910863294888,-2,-2,1,2,-19,-22,8,2
1537910863295886,1,0,-1,-21,-6,6,-5,-2
1537910863295886,0,-2,1,2,0,26,4,-2
1537910863307854,0,-2,-2,-3,7,-11,18,1
1537910863307854,-2,-1,-4,8,19,5,-1,-1
1537910863316829,-3,-2,0,5,1,0,-9,-2
1537910863316829,0,-1,0,1,-6,-2,0,-2
1537910863331788,-4,0,1,0,5,4,3,1
1537910863331788,1,0,2,-5,-19,-7,-6,-1
1537910863333783,-4,-4,-3,1,-15,-5,5,2
1537910863333783,1,1,-1,3,23,-3,-12,-4
1537910863354727,1,2,1,-1,-9,15,0,4
1537910863354727,-1,-2,-1,-9,-6,-17,2,0
1537910863355724,1,0,-4,-6,-8,-12,12,4
1537910863355724,-2,-2,-2,0,-13,3,-2,-2
1537910863367692,-2,-2,-1,-3,-33,-7,-3,-1
1537910863367692,0,-1,-4,3,35,-2,-5,-5
1537910863376668,2,5,12,12,43,3,-8,-2
1537910863376668,1,-2,-6,-18,-27,4,-5,1
1537910863391628,0,0,-3,-4,-20,15,-3,-2
1537910863391628,-3,-1,-3,0,1,7,-1,-3
1537910863393623,-2,-5,-5,-14,-39,-8,3,-2
1537910863393623,-2,1,2,16,57,-1,1,-1
1537910863414567,-1,-1,1,2,-4,1,-5,-3
1537910863414567,1,0,0,-2,-30,-4,-7,-3
1537910863415565,-1,-1,-3,6,44,15,3,3
1537910863415565,0,-1,0,-7,-10,-5,-3,-1
1537910863428529,0,-1,0,-3,-25,1,1,-3
1537910863428529,-1,-1,1,1,16,4,5,2
1537910863436508,0,0,2,-1,-21,-1,-18,-7
1537910863436508,-3,-4,-2,-3,-14,-5,6,0
1537910863451468,-2,-2,0,5,18,26,1,-3
1537910863451468,1,0,-1,1,27,-2,-5,0
1537910863453463,-1,0,-1,-8,2,-38,-8,-2
1537910863453463,-1,0,1,7,-4,13,-3,-2
1537910863474407,-2,-1,-2,1,21,-14,-6,-1
1537910863474407,-1,-2,0,-4,1,29,-1,-1
1537910863476402,-2,-3,-4,2,-10,-2,1,1
1537910863476402,-1,-1,0,-3,-27,-11,-1,-2
1537910863488370,0,-1,-2,-3,0,-22,5,4
1537910863488370,0,0,0,-2,-3,14,9,0
1537910863497346,-3,-2,0,4,9,-7,7,2
1537910863497346,0,-2,-1,-3,-8,-7,-8,-4
1537910863512306,0,-1,-4,-7,-2,-2,22,11
1537910863512306,0,-1,0,0,18,-10,-6,-1
1537910863513304,-2,-2,2,2,5,3,5,-1
1537910863513304,-1,0,1,6,-31,3,-4,0
1537910863534247,-1,-2,-2,-7,9,4,-17,-8
1537910863534247,1,0,2,3,-14,-18,3,2
1537910863536242,0,-2,-2,2,16,16,11,4
1537910863536242,-1,1,2,-9,-22,-24,4,1
1537910863548210,-1,-1,1,1,-4,-1,-10,-8
1537910863548210,0,-3,-4,-1,-3,8,5,1
1537910863557186,2,-1,-2,3,-1,5,-12,-7
1537910863557186,-1,0,-1,2,16,12,3,-1
1537910863572146,-3,0,1,0,-16,-17,10,3
1537910863572146,-1,0,0,-3,32,16,2,4
1537910863573144,0,0,1,0,-16,1,-8,-3
1537910863573144,0,-1,-2,0,22,3,-4,1
1537910863594088,1,-1,0,1,5,2,5,-2
1537910863594088,-2,-1,-2,-2,-28,-16,2,-2
1537910863596083,-2,0,-3,-2,-3,6,-4,-1
1537910863596083,-1,2,0,1,8,4,-7,-1
1537910863608050,1,0,-1,0,7,5,-5,-1
1537910863608050,3,-1,-2,-3,-3,-9,7,5
1537910863617027,-7,-7,-3,-4,-9,4,3,-2
1537910863617027,-1,0,2,2,10,3,-6,-6
1537910863631988,0,-1,-1,2,-6,-4,-7,-3
1537910863631988,1,3,1,1,0,5,-12,-5
1537910863632986,0,-2,-6,-5,6,-5,3,0
1537910863632986,-2,-1,-2,1,-3,6,6,7
1537910863654925,1,-1,-2,-9,-44,-11,-1,2
1537910863654925,-1,0,0,4,50,17,-3,-7
1537910863655923,2,2,4,10,-9,-3,-3,9
1537910863655923,0,-3,-6,0,3,-10,-1,7
1537910863676866,-1,1,1,4,-3,-10,-6,-7
1537910863676866,0,0,-2,1,23,22,0,1
1537910863678860,1,0,-1,-4,3,15,5,0
1537910863678860,2,3,6,15,53,-6,5,-1
1537910863691826,0,-2,0,0,-31,1,-5,6
1537910863691826,-3,-3,-4,-5,-43,-14,-3,-8
1537910863693820,1,0,-2,-3,17,-7,2,-4
1537910863693820,-2,-3,-2,-7,-8,-6,-3,0
1537910863714764,-2,-2,-4,-7,-13,-7,-3,-5
1537910863714764,-3,-3,-1,-1,5,15,6,-2
1537910863715762,0,1,0,0,-11,-8,0,0
1537910863715762,1,0,-2,-5,-8,-4,-1,-3
1537910863737703,0,-1,-1,4,26,-3,-9,-1
1537910863737703,-1,-2,-1,-2,-17,8,9,4
1537910863738701,0,0,0,-2,-1,1,-3,0
1537910863738701,-2,-3,-1,-3,-13,-5,5,-3
