timestamp,emg1,emg2,emg3,emg4,emg5,emg6,emg7,emg8
1537918910778108,0,-3,-4,-12,-26,-9,0,1
1537918910778108,0,-1,-2,0,1,-22,-6,-1
1537918910785089,-3,0,0,3,5,-5,6,-3
1537918910785089,-2,-2,-5,-12,-16,10,-16,-7
1537918910787084,-1,-1,0,2,8,8,12,0
1537918910787084,-2,0,3,6,16,-8,-2,-1
1537918910788082,-1,-1,0,3,5,27,-3,0
1537918910788082,-2,-2,-3,-2,1,-26,-9,-4
1537918910800048,0,-1,0,2,-1,13,11,2
1537918910800048,-2,-1,-2,-1,13,-4,-2,-3
1537918910802044,2,-2,1,2,-12,-11,-16,2
1537918910802044,-1,-4,-2,-5,-24,-8,-3,2
1537918910814011,1,0,-1,0,-4,-13,-6,-1
1537918910814011,1,-1,1,3,13,35,9,-1
1537918910819995,0,0,-2,-5,-2,-15,-9,2
1537918910819995,1,-2,3,6,7,7,6,2
1537918910834955,-2,0,-2,-1,1,2,-23,-6
1537918910834955,1,0,1,3,5,13,22,2
1537918910851912,-1,0,-1,-9,-24,-41,-1,0
1537918910851912,-1,1,0,1,10,44,8,0
1537918910857894,-3,-2,0,4,16,-14,-2,-3
1537918910857894,-1,-1,-3,-7,-20,-7,-5,-1
1537918910898783,1,-1,0,2,-7,-28,-14,-3
1537918910898783,0,0,-1,-1,12,24,4,0
1537918910899781,0,0,-1,-4,-29,-47,-31,-2
1537918910899781,-1,-1,-1,-5,2,3,44,2
1537918910902772,-2,-1,0,0,-7,24,1,0
1537918910902772,-1,0,0,0,0,-6,-17,-2
1537918910903770,0,0,0,2,10,13,15,-1
1537918910903770,-1,0,-2,1,0,-10,-22,-3
1537918910911749,-1,0,-1,-1,0,-9,-8,-2
1537918910911749,-1,0,-2,-1,-2,5,23,0
1537918910917732,-1,0,-1,-1,3,6,-3,1
1537918910917732,0,0,-1,-1,-3,-9,-9,-1
1537918910933690,2,-1,-1,0,3,-2,5,1
1537918910933690,-2,-2,-2,-3,-5,2,-10,-3
1537918910939674,-1,-1,-2,-2,2,5,2,-3
1537918910939674,0,0,-1,-2,-4,5,2,2
1537918910948650,-1,-3,-3,-3,0,-2,-3,1
1537918910948650,0,0,0,-1,-4,-18,-3,1
1537918910971589,0,-1,-1,-1,-1,4,7,-1
1537918910971589,-2,0,0,0,2,-1,-7,-3
1537918910972586,-1,-1,-1,-2,2,7,-1,1
1537918910972586,-1,0,-1,-3,3,-10,0,0
1537918910984554,-2,-1,0,1,2,8,3,1
1537918910984554,-1,-1,3,6,20,-18,-2,-6
1537918910993530,2,2,-2,-4,-35,18,5,2
1537918910993530,-5,0,1,7,27,-4,4,0
1537918911008491,-4,1,3,9,48,44,-16,-11
1537918911008491,-1,-3,-6,-24,-79,-46,-7,-6
1537918911010486,6,1,3,6,33,68,26,29
1537918911010486,-8,-3,-3,4,-10,-48,15,-48
1537918911031429,-4,-3,0,1,7,-25,8,-16
1537918911031429,-21,3,9,34,56,-15,-25,63
1537918911032426,14,-3,-11,-24,-55,-42,-39,-64
1537918911032426,19,4,-2,-10,-1,99,35,50
1537918911045391,1,-1,-1,1,13,46,16,-11
1537918911045391,-10,-4,-2,-14,-46,-11,-7,19
1537918911054368,-13,7,19,48,121,34,-11,-16
1537918911054368,2,1,4,-11,-107,13,21,-14
1537918911069328,18,-7,-9,2,17,48,-45,32
1537918911069328,-17,-1,-4,-24,-79,-79,9,-70
1537918911070325,7,-4,-5,-9,-29,42,11,8
1537918911070325,-9,3,14,54,67,123,37,-27
1537918911091269,10,2,-10,-39,-128,-112,-26,13
1537918911091269,-17,-11,-13,-30,91,-35,26,-43
1537918911093263,-9,-17,-28,-75,-122,-29,-69,28
1537918911093263,-1,-6,2,8,117,-33,22,-13
1537918911105231,5,7,19,54,53,92,-6,10
1537918911105231,11,12,3,0,0,-51,13,23
1537918911114207,-15,5,21,61,112,15,22,-19
1537918911114207,4,-3,-9,-19,-83,57,68,24
1537918911129168,-9,-5,3,6,12,-128,-33,-2
1537918911129168,0,-6,-12,-11,18,127,29,-17
1537918911130165,-10,-16,-30,-88,-71,-79,-23,6
1537918911130165,-9,1,4,-4,-61,49,-108,-75
1537918911151109,14,10,4,23,-5,102,36,23
1537918911151109,8,2,8,12,30,-23,5,-6
1537918911153104,0,4,12,48,66,63,63,-2
1537918911153104,-9,-2,-1,7,83,-73,-113,-2
1537918911165071,-12,-9,-16,-52,-115,-88,45,-44
1537918911165071,25,-2,-1,19,24,-22,-11,65
1537918911174047,0,10,14,8,-27,58,21,-11
1537918911174047,-10,-7,-25,-54,-32,-66,23,3
1537918911188010,-5,-6,-8,-39,-35,74,-24,5
1537918911188010,9,-2,17,66,53,127,-33,-20
1537918911195989,9,4,-3,-12,-59,-125,6,33
1537918911195989,-14,-2,-11,-50,-41,-58,0,16
1537918911210949,-12,0,1,-7,41,-83,25,-10
1537918911210949,18,13,15,38,45,-76,0,8
1537918911212944,-10,-2,1,27,21,2,-57,-38
1537918911212944,2,-1,0,1,38,35,68,21
1537918911224911,-16,2,14,53,96,15,-15,-6
1537918911224911,4,-5,-9,-25,-79,-54,-22,16
1537918911233887,17,4,-2,-8,34,-55,-17,7
1537918911233887,-5,3,12,48,94,19,12,29
1537918911248847,-12,-8,-14,-29,-122,-53,67,-39
1537918911248847,7,-6,-11,-76,-30,31,-92,29
1537918911249845,1,3,8,44,9,-85,-18,1
1537918911249845,-3,-10,-7,-38,36,45,75,4
1537918911272783,-9,-3,1,17,-44,15,-67,-5
1537918911272783,13,4,4,11,-69,-61,15,-4
1537918911273781,-5,-1,-6,-24,-4,-38,13,11
1537918911273781,7,1,5,20,-28,-31,-14,18
1537918911284752,-16,11,24,78,114,101,16,-65
1537918911284752,-10,-5,-14,-30,44,24,-20,-24
1537918911293727,-15,-10,-10,-43,-89,46,34,7
1537918911293727,25,6,3,6,-94,0,-66,-21
1537918911307690,0,4,3,0,95,34,45,29
1537918911307690,-18,-5,-5,28,-37,11,-14,-33
1537918911314671,2,1,6,-5,68,32,25,18
1537918911314671,16,1,1,9,-45,-33,-19,5
1537918911331626,26,0,-9,-2,20,-80,-48,20
1537918911331626,-8,-1,5,3,63,56,9,52
1537918911332624,2,-4,-3,6,-44,-11,-14,13
1537918911332624,-9,-3,-6,-15,0,10,15,-20
1537918911344591,2,-3,-6,-34,-103,-40,-25,10
1537918911344591,0,4,4,23,8,-10,13,-24
1537918911353567,-5,0,-1,7,6,59,-21,-37
1537918911353567,0,2,1,5,-6,-11,-8,62
1537918911368527,7,3,3,11,38,7,-10,10
1537918911368527,-7,-6,-7,-14,-3,25,9,-21
1537918911370522,-4,0,-1,-6,10,4,15,0
1537918911370522,3,0,1,12,-13,-26,-13,-17
1537918911391466,2,-4,-6,-20,5,5,2,8
1537918911391466,-5,-2,-5,-9,-25,-2,16,0
1537918911392464,-2,-1,5,16,7,-13,16,-9
1537918911392464,-1,0,-2,6,11,15,-27,-10
1537918911413407,-1,-3,-6,-27,-31,-28,-5,0
1537918911413407,-5,-3,-1,-8,-8,23,20,-14
1537918911415402,-13,0,0,11,10,1,11,-3
1537918911415402,7,-1,2,-1,15,-22,-16,-2
1537918911428367,-7,-3,-2,-7,-1,13,13,0
1537918911428367,3,1,1,9,3,16,16,-8
1537918911430362,0,-2,-1,0,6,9,1,6
1537918911430362,-6,-2,-2,-3,-6,-26,-14,-2
1537918911451306,2,-1,-1,0,3,19,10,1
1537918911451306,-1,0,0,2,-10,-6,9,-4
1537918911453301,-4,-3,-5,-8,2,2,-9,-12
1537918911453301,4,3,4,6,4,-6,-6,8
1537918911465269,4,0,-1,3,10,5,8,2
1537918911465269,-2,0,-2,-5,-7,3,-2,-3
1537918911474246,7,1,-1,0,-3,1,3,-1
1537918911474246,-3,7,0,4,7,-8,1,-11
1537918911488208,-3,0,0,-6,3,8,5,6
1537918911488208,5,-16,-6,-10,-8,-1,-3,1
1537918911495189,6,3,3,6,7,13,1,10
1537918911495189,-4,-2,-2,-1,-3,-17,-2,2
1537918911511146,-4,0,-3,-9,-3,-1,0,-5
1537918911511146,-7,-2,3,4,-2,7,2,-8
1537918911513141,8,-17,-1,0,4,1,0,1
1537918911513141,-4,19,-1,-2,3,-8,-3,-2
1537918911525109,2,2,-4,-3,-4,3,-2,3
1537918911525109,0,4,1,3,0,4,10,-5
1537918911534085,0,-3,-1,-1,3,3,-1,3
1537918911534085,-2,-7,0,1,2,-4,-3,-2
1537918911549045,1,-4,-4,-3,-2,3,1,4
1537918911549045,-1,3,0,2,-3,-2,1,0
1537918911555029,-2,4,-1,-1,1,-1,-1,-4
1537918911555029,1,-6,1,0,-1,-3,-2,-3
1537918911570986,-2,0,-1,0,3,0,0,1
1537918911570986,0,-2,-2,-2,-2,-1,1,0
1537918911572981,0,5,1,1,-2,1,-1,0
1537918911572981,-2,-6,1,-1,0,-3,-1,-5
1537918911593925,-2,-6,0,-2,-1,1,-2,-1
1537918911593925,0,4,0,-1,-2,-1,2,2
1537918911594922,2,2,-2,-3,-2,1,-1,0
1537918911594922,-3,-2,-1,1,1,-3,-1,-2
1537918911607888,-2,-1,-2,0,3,-3,0,-3
1537918911607888,2,0,0,0,0,7,-2,-3
1537918911616864,-2,1,1,1,0,-1,3,-5
1537918911616864,-1,-6,-3,-5,-3,-6,-1,0
1537918911631824,0,-1,-1,1,10,8,-4,0
1537918911631824,1,3,2,7,29,15,11,11
1537918911632821,-5,-5,-4,-14,-63,-42,-7,-9
1537918911632821,-7,-3,1,-1,-5,-1,-7,-7
1537918911653765,5,-1,-1,-3,-7,-5,-2,-9
1537918911653765,3,2,0,0,6,9,-1,-5
1537918911655759,3,2,1,1,22,17,8,13
1537918911655759,-4,-3,-2,-2,-3,-9,-16,-4
1537918911667728,-6,-4,1,1,0,0,-5,-3
1537918911667728,-1,-2,-1,0,-3,6,15,10
1537918911676704,0,-2,-4,-1,8,2,-3,-6
1537918911676704,7,1,-1,2,-6,-10,-3,-2
1537918911691665,-3,-2,-2,3,5,8,8,15
1537918911691665,-2,-1,-3,-5,-13,-9,-12,-12
1537918911692662,-1,1,2,3,5,5,9,6
1537918911692662,-4,-3,-2,-1,12,7,-59,-11
1537918911713605,-12,0,3,5,10,7,75,-7
1537918911713605,33,2,-7,-3,6,-8,-35,51
1537918911715600,-4,0,-1,-5,11,16,-14,-3
1537918911715600,-8,-3,-1,-6,-27,-7,9,-16
1537918911727568,-19,-4,-1,2,12,1,-43,-26
1537918911727568,-6,-4,1,6,39,33,-22,-9
1537918911736544,6,1,-2,-1,-9,1,73,39
1537918911736544,14,-3,-8,-16,9,-19,-49,7
1537918911751503,1,1,-3,-12,-58,-39,48,-34
1537918911751503,-16,-2,6,8,15,35,-4,2
1537918911752501,0,1,8,36,7,-23,-92,-50
1537918911752501,6,-9,-18,-30,78,53,22,2
1537918911773445,-6,-2,-3,-18,-72,106,15,5
1537918911773445,-13,4,20,51,13,-114,31,-84
1537918911775440,-6,12,-27,-62,47,0,0,-39
1537918911775440,-20,-41,-1,-19,-113,-3,-13,-34
1537918911787408,4,9,5,0,30,2,-18,6
1537918911787408,-13,8,40,14,82,76,20,-5
1537918911796384,-29,-56,-42,71,-1,9,2,8
1537918911796384,40,33,6,1,127,-21,6,17
1537918911811344,-46,-79,-3,-52,-65,-23,-33,-16
1537918911811344,-11,-3,-57,-50,-122,-65,21,11
1537918911812341,5,7,28,29,75,41,-21,-5
1537918911812341,13,-10,-2,21,30,-21,10,17
1537918911834282,67,61,13,40,26,-32,-17,-8
1537918911834282,-2,2,-5,-41,81,-56,-30,16
1537918911835280,25,31,6,-79,-128,-37,27,15
1537918911835280,-31,42,14,34,5,69,7,3
1537918911847248,18,-9,6,39,107,78,-12,6
1537918911847248,28,58,-13,3,-42,-66,59,-2
1537918911856224,41,-54,35,8,7,2,45,59
1537918911856224,-17,50,0,25,-39,-19,-32,-45
1537918911870186,11,10,9,18,36,-48,54,-4
1537918911870186,-4,-18,-17,-19,-11,74,-36,25
1537918911879163,-13,-17,1,-19,-5,1,-16,5
1537918911879163,21,-16,-2,-20,-27,-6,53,17
1537918911894123,-15,5,-8,-9,-51,15,-34,-12
1537918911894123,3,-10,20,47,36,22,3,-28
1537918911895120,-3,16,3,34,93,-35,6,-10
1537918911895120,-32,-28,-21,-78,-85,10,5,2
1537918911916064,-12,0,-25,-44,-21,-14,-13,-55
1537918911916064,4,-9,4,-24,-74,-42,26,34
1537918911918059,24,7,4,29,32,12,-41,44
1537918911918059,-2,6,13,58,91,31,21,7
1537918911930027,-9,-1,1,13,20,-17,1,19
1537918911930027,8,-14,-2,-3,-26,15,-30,-21
1537918911939003,-37,11,1,8,10,41,21,-33
1537918911939003,16,-12,-7,-4,-19,-36,-6,-1
1537918911953962,3,1,0,-9,-15,-9,-1,34
1537918911953962,-12,-13,0,5,4,8,7,-4
1537918911954960,-9,10,-9,-14,-7,0,-9,-22
1537918911954960,5,-6,2,-3,-22,-13,12,34
1537918911975904,-2,-8,-2,7,15,-20,-18,2
1537918911975904,-3,0,3,5,-3,-5,-15,-5
1537918911977899,1,5,-10,-26,-31,19,-2,-10
1537918911977899,-4,-9,2,-3,-6,7,-3,-8
1537918911989866,-5,-1,-2,4,13,-8,-8,15
1537918911989866,-4,-4,-4,-13,-15,-11,2,-5
1537918911998843,0,6,-4,-10,-21,1,3,8
1537918911998843,-8,-6,2,12,-7,-13,7,-12
1537918912012805,5,3,-1,5,30,10,-9,14
1537918912012805,-2,0,3,-1,8,23,-11,-12
1537918912019786,-2,-1,-3,-1,-8,-25,-7,-13
1537918912019786,-4,1,1,5,15,8,-3,-3
1537918912036741,1,-2,-3,-2,-2,-10,-1,9
1537918912036741,0,-3,-1,1,-5,12,3,2
1537918912037738,-4,2,1,3,5,-1,12,-2
1537918912037738,-4,-5,-1,-2,0,-9,4,-13
1537918912049706,-2,0,-2,-6,-11,-1,-10,-9
1537918912049706,-1,-2,-1,0,2,9,-1,9
1537918912058682,-2,3,-2,-3,-1,-5,3,-8
1537918912058682,-2,-1,2,2,-7,-5,-2,7
1537918912072645,-2,-3,-2,-2,-6,-19,1,2
1537918912072645,-1,-1,-2,-1,8,12,0,-4
1537918912079628,-2,-1,-1,-2,-2,-2,-4,-1
1537918912079628,0,-1,0,4,-3,1,3,-15
1537918912096582,1,0,-1,-1,5,0,-2,9
1537918912096582,1,-2,-1,-2,-3,-2,-7,1
1537918912097579,-1,1,2,-1,-2,-15,0,8
1537918912097579,-2,-4,-2,-3,-8,12,2,-8
1537918912109547,0,-1,-1,-4,-5,-9,-4,6
1537918912109547,-4,-3,-1,-1,-2,5,-5,-1
1537918912126501,-3,-1,1,0,1,-8,-1,-6
1537918912126501,1,-1,1,3,8,4,4,12
1537918912133483,-1,0,-2,-2,1,7,-8,-9
1537918912133483,-2,-3,-2,-4,5,-2,-4,-7
1537918912140464,3,0,-3,-1,-16,-15,15,6
1537918912140464,0,1,0,0,6,4,1,4
1537918912156421,0,-2,1,1,1,3,3,-3
1537918912156421,0,-2,-1,-1,1,1,-8,7
1537918912157419,-1,-1,-2,0,6,4,-6,-6
1537918912157419,-1,-2,-1,-1,-4,-12,3,3
1537918912178363,-1,-2,-1,0,-4,-3,-5,0
1537918912178363,1,-1,-1,-2,3,12,2,-1
1537918912180358,-1,-1,1,-1,0,-1,-4,-6
1537918912180358,0,-1,0,0,-8,-16,0,5
1537918912193323,-1,0,1,3,8,10,5,4
1537918912193323,-1,-1,-2,-1,9,5,-3,-3
1537918912200304,0,-1,-1,-6,-19,-35,-7,3
1537918912200304,0,-2,-3,-9,-32,5,-1,2
1537918912216261,0,-1,-2,-1,-3,-6,1,-1
1537918912216261,0,0,0,2,8,27,3,-1
1537918912218256,-1,0,0,3,30,25,-3,-8
1537918912218256,0,-1,-2,-2,-31,-61,-3,-1
1537918912238203,1,-1,-2,-4,-4,-3,4,3
1537918912238203,0,0,-2,-3,-11,-1,-1,0
1537918912246181,-2,-1,-2,0,9,15,-1,5
1537918912246181,-1,-1,0,3,21,17,-8,-12
1537918912253163,-1,1,2,2,4,2,7,3
1537918912253163,-4,-1,-2,-3,-4,-13,-3,-8
1537918912260144,2,1,-1,0,-7,8,0,2
1537918912260144,0,-1,-1,-1,4,-2,-1,3
1537918912276101,-5,-1,0,1,-2,-3,-1,-5
1537918912276101,-2,0,0,-1,-1,-14,-2,-3
1537918912278096,-3,-1,-2,-3,-6,20,0,-5
1537918912278096,-1,-1,-2,0,2,4,-2,4
1537918912299040,0,-1,-1,3,14,2,2,2
1537918912299040,2,-1,-1,-2,-9,-18,4,4
1537918912300037,-2,-2,-4,-6,-13,6,-3,-2
1537918912300037,-2,-1,1,4,15,10,3,-5
1537918912313003,0,-1,0,0,2,7,-2,1
1537918912313003,-1,-1,-1,1,1,-15,-2,1
1537918912319984,3,-1,1,-3,-9,-6,2,-4
1537918912319984,-5,-1,0,-1,13,22,3,0
1537918912335942,2,1,0,0,-3,-26,-5,0
1537918912335942,1,-1,-2,-2,-10,-4,-6,2
1537918912337936,-9,-2,2,4,2,-4,-6,-8
1537918912337936,2,0,-2,-2,-1,3,5,11
1537918912358880,-3,-1,0,0,4,9,-3,-14
1537918912358880,1,0,-2,-3,-1,1,-2,6
1537918912359877,1,-1,-1,1,5,10,1,-3
1537918912359877,1,-1,0,1,-1,-10,0,2
1537918912372843,-2,-2,-1,-1,-1,13,6,7
1537918912372843,-3,-1,0,2,-5,-14,-4,-7
1537918912379824,0,-1,-1,-4,0,-1,-2,-1
1537918912379824,0,-1,-2,0,6,2,1,-4
1537918912396779,1,0,-1,-3,-4,-7,-2,5
1537918912396779,-1,-1,0,0,2,11,1,0
1537918912397776,0,-1,-1,2,6,0,6,2
1537918912397776,1,0,-2,-1,-8,-5,-4,-3
1537918912418720,-2,0,-1,-3,-9,-16,-5,-2
1537918912418720,0,-1,1,6,23,46,2,-1
1537918912420715,-1,0,-4,-11,-44,-54,-1,-1
1537918912420715,-5,-2,-1,-3,-1,-7,-4,-8
1537918912432683,0,-1,-2,-3,-3,7,0,4
1537918912432683,-1,-1,1,2,4,-1,-1,-1
1537918912439664,0,0,1,6,17,10,-9,1
1537918912439664,-1,-1,0,-2,-4,-1,5,2
1537918912456619,-2,1,0,-2,6,-4,-3,-3
1537918912456619,-1,-1,-2,-3,-9,-8,3,2
1537918912457616,0,0,-2,-1,-2,3,-4,-2
1537918912457616,-1,1,0,1,2,0,-5,-3
1537918912478560,0,0,-1,1,1,6,2,-1
1537918912478560,1,0,-1,3,-3,-3,0,8
1537918912480555,-2,-1,-3,-2,-2,2,-5,-9
1537918912480555,-1,-2,0,-1,1,1,4,1
1537918912492523,0,-1,-1,-1,-2,-2,-1,-1
1537918912492523,-3,1,-1,-3,-5,-3,-3,-3
1537918912501499,0,-2,0,-2,2,0,0,-2
1537918912501499,-1,0,-1,2,4,1,-1,1
1537918912516460,0,-2,1,0,-6,-1,0,1
1537918912516460,0,0,0,-4,-1,-4,-1,-5
1537918912517457,2,-1,-1,2,5,6,-1,4
1537918912517457,-1,-2,-3,-4,-5,-2,-1,-1
1537918912538400,2,-2,-2,0,4,3,0,7
1537918912538400,-4,-1,-2,-6,-19,-15,-1,-13
1537918912540395,-4,-3,-4,-4,-3,2,1,-2
1537918912540395,7,1,4,6,14,4,-3,14
1537918912552363,10,4,2,11,3,5,-2,7
1537918912552363,36,5,1,11,18,-13,-20,45
1537918912561339,-15,-3,-6,-2,48,50,9,-22
1537918912561339,24,-1,-9,-24,-40,-46,-14,15
1537918912584278,-12,-1,4,22,-11,-25,3,-26
1537918912584278,-12,3,14,27,30,71,10,-16
1537918912585275,-7,-2,-5,1,99,-3,6,12
1537918912585275,-13,-13,-31,-86,-54,-34,-24,-7
1537918912599238,-2,-6,-17,-97,-95,-46,-13,0
1537918912599238,-13,4,4,1,21,56,25,-4
1537918912600235,21,0,9,18,95,30,-25,7
1537918912600235,6,5,19,57,-9,-50,17,2
1537918912612203,11,11,6,41,-37,47,3,-3
1537918912612203,-51,-26,-4,2,39,-45,-21,-32
1537918912621179,23,-16,5,5,-50,33,19,-39
1537918912621179,-49,3,-3,7,34,31,3,-3
1537918912636139,7,12,2,-3,4,-16,5,-52
1537918912636139,13,4,13,14,-34,7,-1,66
1537918912638134,-8,4,-4,30,54,-7,-5,-11
1537918912638134,19,23,-9,-29,-5,-19,-1,9
1537918912659077,-4,-66,-15,-17,-57,-15,5,15
1537918912659077,-13,38,6,-10,5,-16,-16,-82
1537918912660075,31,-27,-12,1,-48,-69,-3,44
1537918912660075,-5,-35,12,30,56,33,-9,31
1537918912672043,2,80,-7,-40,-15,-1,3,20
1537918912672043,5,-72,-27,-36,-68,-42,14,-27
1537918912681019,-13,-6,5,-15,-63,2,-5,38
1537918912681019,-2,-18,8,44,55,25,-17,-23
1537918912695979,-38,-26,2,3,41,5,-6,45
1537918912695979,19,9,-2,-10,-16,-6,17,-4
1537918912697974,-7,18,5,4,-19,-4,7,-23
1537918912697974,20,6,-7,-3,10,19,22,34
1537918912718918,-4,-4,9,28,56,-3,-21,-50
1537918912718918,0,3,-6,-14,-13,7,6,19
1537918912719915,-18,0,-4,-30,-29,-14,-5,-22
1537918912719915,1,10,2,-9,-62,-4,1,-29
1537918912732880,3,3,5,17,33,25,5,-7
1537918912732880,0,9,-4,18,59,-4,-6,3
1537918912741857,-3,-2,-3,-22,-40,-7,-4,-8
1537918912741857,-8,7,2,2,-14,4,-2,-12
1537918912755819,0,-8,-7,0,28,3,-1,1
1537918912755819,0,-5,-2,-8,-14,-2,0,6
1537918912757814,-5,11,0,-4,-18,-8,2,12
1537918912757814,-2,-1,3,2,0,11,1,-12
1537918912778757,2,-3,3,18,26,5,1,9
1537918912778757,7,7,1,0,12,-4,-8,6
1537918912779755,-3,6,0,-3,-16,-1,0,0
1537918912779755,-3,0,-3,2,-1,4,-1,-8
1537918912792720,6,-4,-1,2,15,3,6,3
1537918912792720,-3,2,-4,-8,-15,-4,-7,0
1537918912801696,-5,3,1,4,-6,-8,-1,-3
1537918912801696,-1,-3,1,3,14,12,2,-5
1537918912816656,0,0,0,-5,3,4,3,3
1537918912816656,2,2,-1,-4,-13,-5,0,-1
1537918912817654,-4,2,0,6,10,3,2,2
1537918912817654,1,3,-1,-4,2,-6,0,-4
1537918912838598,1,-1,-1,-3,-6,-3,-9,0
1537918912838598,-2,-1,0,6,3,-6,9,8
1537918912840592,-1,-1,-3,-6,-3,17,-12,-17
1537918912840592,-5,2,-2,-5,-15,-16,-2,-12
1537918912861536,7,0,0,2,2,4,6,23
1537918912861536,0,-1,2,4,6,-3,-4,-9
1537918912862534,-3,2,-2,-2,-2,-10,-1,2
1537918912862534,-1,-2,-2,-3,6,8,-1,-14
1537918912876496,-1,-3,-1,2,-2,1,-11,-5
1537918912876496,-2,-1,-2,-2,1,-1,4,5
1537918912877494,4,-1,-1,-2,-5,-3,-3,15
1537918912877494,0,-1,-1,0,2,2,-6,-10
1537918912898438,1,-1,-2,0,7,-1,4,10
1537918912898438,-3,1,-2,-6,-5,1,-10,-18
1537918912900433,1,0,-1,-3,-8,-7,15,15
1537918912900433,-1,-3,0,1,5,2,0,3
1537918912912401,3,0,-2,-3,0,1,0,-4
1537918912912401,5,1,-2,-3,-6,-2,-9,3
1537918912921376,-1,-1,0,-2,-1,-1,-2,25
1537918912921376,0,1,1,2,6,0,2,-4
1537918912935339,0,-1,0,1,-5,-3,-2,0
1537918912935339,-3,0,-2,-1,-6,3,6,5
1537918912942320,-2,0,1,5,7,5,-1,-7
1537918912942320,-3,0,-1,0,15,9,-1,-12
1537918912959275,-2,0,-2,-6,-25,-39,8,5
1537918912959275,-4,-3,-3,-5,-12,0,-27,-9
1537918912960273,-2,-1,-1,-2,10,15,21,-11
1537918912960273,-1,-1,1,4,-1,2,-11,7
1537918912972240,-5,-2,6,17,44,10,20,-18
1537918912972240,10,2,1,6,-14,-18,12,34
1537918912981216,-8,-1,-2,5,31,-39,-20,-16
1537918912981216,0,0,-1,1,16,77,20,4
1537918912995179,3,-4,-9,-22,-46,-62,-7,-6
1537918912995179,-2,1,4,16,31,20,-3,42
1537918913003158,18,1,-3,-13,-19,-8,-16,-5
1537918913003158,-1,-2,1,-13,-55,-3,4,37
1537918913018118,-9,4,8,55,102,56,-12,-5
1537918913018118,-1,-3,-18,-70,-88,-97,-9,-15
1537918913019116,-16,-7,-11,-46,-97,-53,-4,-26
1537918913019116,6,6,2,-3,-23,22,-32,-18
1537918913041056,-18,-26,10,40,87,65,23,-46
1537918913041056,-14,1,-10,0,26,-1,-18,-11
1537918913041056,33,18,6,3,-56,-10,5,87
1537918913041056,23,-9,-13,-34,-18,-54,-17,3
1537918913055019,-3,14,-2,4,-8,22,7,7
1537918913055019,-14,-23,34,62,67,5,3,-27
1537918913062998,10,11,-14,-15,49,47,23,0
1537918913062998,-8,-26,-25,9,-16,-9,5,-30
1537918913077958,14,-6,-11,-26,-14,67,-84,40
1537918913077958,17,3,7,27,-31,-46,38,39
1537918913078955,-57,-22,14,15,57,-48,-2,-115
1537918913078955,31,55,6,-19,-28,-26,32,104
1537918913100896,39,-15,-35,-93,-107,-48,-48,54
1537918913100896,16,65,-2,-36,-91,3,-7,-67
1537918913100896,-26,-35,17,66,65,39,-37,-40
1537918913100896,1,34,17,27,37,-3,-2,-62
1537918913114860,-7,30,8,10,25,-39,12,-9
1537918913114860,-17,-31,8,-17,9,30,7,13
1537918913122838,22,10,-20,4,-21,17,6,5
1537918913122838,-35,-63,1,25,50,-8,-28,-28
1537918913137798,34,78,20,10,-26,-8,15,4
1537918913137798,-13,-6,-17,9,85,38,-5,-47
1537918913138795,-20,-6,-6,-32,-64,-14,-14,-3
1537918913138795,-3,-41,-9,-25,5,-47,-5,14
1537918913160737,-20,-17,-4,3,-50,18,36,-3
1537918913160737,-4,-15,0,18,6,32,10,4
1537918913161734,18,26,3,5,51,11,-4,28
1537918913161734,-6,2,-3,-16,-49,-56,-15,-29
1537918913174699,-3,-25,9,23,-16,-24,6,-44
1537918913174699,13,21,-9,-17,51,28,8,35
1537918913182678,-4,-26,-8,-15,-45,23,12,17
1537918913182678,5,11,7,13,35,13,-2,-3
1537918913197638,-21,-10,-2,-17,-1,0,12,-10
1537918913197638,-4,-12,-7,-5,-37,-3,-13,30
1537918913198635,10,9,9,21,32,0,7,-13
1537918913198635,-12,1,3,14,30,20,17,-6
1537918913220577,0,2,-5,-7,-13,-19,4,10
1537918913220577,3,-5,-1,4,11,2,-7,3
1537918913221574,-3,-13,2,2,-3,-9,4,17
1537918913221574,2,20,1,2,-1,15,-4,4
1537918913234539,-7,-19,-1,1,8,-1,1,1
1537918913234539,6,-1,1,1,-15,-4,2,-3
1537918913243515,-9,6,0,-1,7,4,-6,-7
1537918913243515,-6,-6,-3,-6,-14,8,11,4
1537918913258475,-6,-5,-1,1,7,-7,1,-8
1537918913258475,-1,-5,-2,0,10,-5,-1,-6
1537918913258475,4,9,0,-5,-23,-28,-1,20
1537918913258475,-2,0,0,0,5,15,-2,0
1537918913280417,2,-6,-7,-14,-20,-13,-2,1
1537918913280417,2,5,-1,1,-5,18,-7,-7
1537918913281414,5,-4,2,1,5,10,1,12
1537918913281414,2,2,-1,2,3,-4,1,-4
1537918913295377,-6,-2,-2,0,9,-5,-4,-1
1537918913295377,-4,-3,-1,0,0,4,-3,-2
1537918913303355,-1,0,-5,-8,-16,-10,1,0
1537918913303355,-6,-1,1,0,-5,-6,2,-11
1537918913318316,0,2,1,2,5,2,8,-5
1537918913318316,2,-3,-1,-2,1,3,-8,-1
1537918913319313,6,0,0,2,5,3,4,8
1537918913319313,-3,2,-2,0,-2,2,1,1
1537918913340257,-1,-4,2,2,7,4,-7,-6
1537918913340257,0,1,-3,-3,-2,-14,7,5
1537918913341254,1,3,-2,-2,-6,-8,-3,-1
1537918913341254,-3,-2,-4,-7,-1,18,3,-1
1537918913355217,-2,-4,0,1,-2,2,-1,-1
1537918913355217,2,-5,0,-5,-5,-10,-2,-5
1537918913363196,1,1,0,3,7,6,0,0
1537918913363196,-1,-2,0,0,-5,-8,-2,1
1537918913378155,1,-1,0,2,5,-4,-3,0
1537918913378155,-3,1,-1,3,0,-4,-3,-1
1537918913379153,2,-1,-1,-2,2,16,1,3
1537918913379153,-1,-1,-4,-6,-19,-9,6,2
1537918913401094,-4,-4,-2,1,2,-5,-7,-4
1537918913401094,-3,-1,1,0,-3,13,4,-4
1537918913401094,2,1,0,3,11,-5,-27,5
1537918913401094,-2,0,2,3,3,7,28,-2
1537918913416054,-1,-1,-1,-2,-3,-7,-4,-2
1537918913416054,5,1,-2,-1,-2,-15,4,16
1537918913416054,-1,-2,-3,-4,-3,16,-20,-7
1537918913416054,0,1,-1,-3,3,9,22,6
1537918913437995,0,0,-1,0,2,-12,11,7
1537918913437995,-4,-1,0,-2,-5,5,-22,-20
1537918913438993,1,2,0,1,2,-12,19,2
1537918913438993,-1,-3,-2,-1,-5,-7,-18,-4
1537918913460934,-5,-2,-1,-1,3,9,9,4
1537918913460934,1,-3,-3,-4,-7,-5,-1,10
1537918913460934,-2,0,0,-3,-6,3,-1,0
1537918913460934,-2,1,0,3,5,-2,-12,-5
1537918913475894,-2,-2,0,0,0,-4,-1,-5
1537918913475894,-3,-1,-2,-3,-2,-1,2,-5
1537918913475894,-5,-1,-1,-2,-8,3,-9,-12
1537918913475894,15,-1,-2,0,4,-5,-22,36
1537918913497835,1,-1,-2,-2,0,6,22,1
1537918913497835,-3,-2,1,0,-1,2,8,-4
1537918913498833,-3,-2,0,0,2,-19,-13,-6
1537918913498833,-7,-1,1,-1,-1,12,-9,-15
1537918913520774,-2,0,-1,-1,-6,1,-7,-1
1537918913520774,-2,1,-1,0,0,0,3,-4
1537918913521771,-1,1,0,1,0,14,11,-4
1537918913521771,-4,-3,-2,-3,-1,-6,7,-4
1537918913535735,2,-1,-2,-2,-1,2,9,4
1537918913535735,-4,0,1,4,3,-9,-29,-9
1537918913536732,2,0,0,0,-1,2,10,6
1537918913536732,1,1,1,-1,-2,-2,-8,-4
1537918913560668,11,-2,-5,-6,-5,-4,1,20
1537918913560668,-12,-3,1,-4,-2,-10,-3,-3
1537918913561665,5,1,-1,1,-2,-6,-13,1
1537918913561665,11,-2,-1,3,3,-5,8,-4
1537918913574630,-2,0,-2,-3,-6,-2,-13,-1
1537918913574630,11,1,0,-3,3,0,2,4
1537918913575627,7,1,2,5,-3,-4,14,30
1537918913575627,-33,-4,0,7,14,4,-11,-15
1537918913588593,12,-4,-1,3,0,8,14,-15
1537918913588593,3,10,-4,-10,-18,8,13,1
1537918913594577,-29,-5,2,10,6,7,-27,-42
1537918913594577,32,-53,-33,-13,5,-33,-31,25
1537918913609537,-19,69,4,1,48,-11,-55,2
1537918913609537,-14,-11,16,12,-49,-39,-31,18
1537918913617515,6,25,17,-3,-8,34,9,-4
1537918913617515,19,-8,20,17,-1,-12,49,29
1537918913633473,-44,-16,-48,-30,60,12,-13,-110
1537918913633473,6,2,-3,-53,-82,2,-2,18
1537918913633473,1,-7,4,43,29,-4,-66,-24
1537918913633473,-25,54,22,79,94,34,10,89
1537918913648433,-26,-38,54,-35,16,4,0,-54
1537918913648433,22,2,-87,-26,60,-10,-11,14
1537918913655414,1,49,24,-101,-114,-27,1,-59
1537918913655414,25,-29,2,46,31,-28,-39,-60
1537918913670374,52,1,-7,40,62,74,54,84
1537918913670374,-10,48,17,22,62,-34,-29,-47
1537918913677356,6,-19,-34,8,-34,-15,75,30
1537918913677356,-7,32,-8,-43,-60,-17,-7,-50
1537918913694310,29,68,48,39,-19,10,-24,13
1537918913694310,2,-51,6,14,5,41,22,-15
1537918913695308,-38,-40,-24,13,67,-36,-66,53
1537918913695308,13,66,25,-7,4,58,80,-38
1537918913709270,-9,-30,4,37,-4,-18,5,-9
1537918913709270,-5,13,-1,14,23,-4,-40,27
1537918913715254,36,-30,1,-65,-95,-33,33,-3
1537918913715254,-54,-34,-32,-48,-50,-20,-49,17
1537918913730214,31,21,-15,-38,14,30,24,12
1537918913730214,-52,-86,-18,22,-39,-61,-31,-3
1537918913737195,18,26,32,20,73,48,-32,50
1537918913737195,-2,11,6,5,-66,10,-13,-34
1537918913753154,-12,-13,-24,-57,26,-59,7,32
1537918913753154,11,-2,7,-37,-100,28,30,0
1537918913754151,-10,-20,-13,29,66,8,-1,-6
1537918913754151,5,-2,24,29,76,15,-11,-27
1537918913769111,10,11,-2,42,15,-6,23,17
1537918913769111,-7,85,26,23,65,4,-19,-7
1537918913775094,-18,-34,-21,-3,-26,-5,-20,-14
1537918913775094,43,2,-16,-2,-14,-10,21,39
1537918913790054,-16,-24,1,3,-30,0,-29,-15
1537918913790054,10,7,9,-7,20,20,42,-12
1537918913797036,5,6,-4,-10,-12,5,27,14
1537918913797036,-29,4,-3,-39,-13,-23,4,2
1537918913812994,7,-18,-11,-9,-63,-8,-20,4
1537918913812994,4,-5,8,-3,14,-11,-16,-5
1537918913813991,-27,-7,7,37,47,25,39,-12
1537918913813991,8,-17,-5,-8,9,-1,-21,4
1537918913828950,19,-4,-8,-24,-53,-23,-20,21
1537918913828950,10,9,1,11,7,13,33,0
1537918913834934,-8,2,-2,-1,11,-8,1,-20
1537918913834934,-6,-5,-5,-4,-3,8,7,3
1537918913849894,-15,-10,2,15,-8,-6,-17,-6
1537918913849894,4,-14,-3,-5,21,4,-1,2
1537918913857873,19,13,0,-1,-11,5,25,3
1537918913857873,-8,-8,-6,-15,-7,-5,-9,0
1537918913872833,-10,-3,2,7,-10,-13,-3,-5
1537918913872833,1,-16,0,1,6,5,-15,-5
1537918913873831,-8,7,-2,2,0,-15,-16,-5
1537918913873831,-2,-2,-2,-2,3,25,5,-3
1537918913888790,-8,-6,-3,-4,-3,2,37,1
1537918913888790,6,5,2,-3,-8,5,-6,4
1537918913894774,-6,-2,-1,-2,2,-17,-6,-8
1537918913894774,-2,-8,1,-2,1,-3,25,-4
1537918913909734,8,-6,0,2,-5,0,-25,8
1537918913909734,-6,-3,3,4,10,12,21,-2
1537918913917713,7,-1,-1,2,8,2,15,3
1537918913917713,-5,-15,-5,-9,-12,-8,-25,-5
1537918913932673,-31,0,2,1,-3,1,2,-9
1537918913932673,23,-26,-1,6,2,0,13,1
1537918913933670,8,9,-4,-5,-4,0,-8,5
1537918913933670,-2,-11,1,-4,-2,-3,5,1
1537918913950625,1,-1,-2,2,-4,-4,-4,4
1537918913950625,-2,2,-2,-3,-1,-4,2,1
1537918913954614,3,-1,-1,0,0,2,0,-4
1537918913954614,0,1,2,2,1,3,2,4
1537918913969574,-3,-2,-1,-2,-5,-7,0,-3
1537918913969574,-11,9,1,1,3,2,-2,-12
1537918913985532,20,1,-2,-4,-5,1,4,8
1537918913985532,-7,3,-1,-2,-3,-6,4,0
1537918913993510,2,-2,-2,-4,-5,-8,-16,-4
1537918913993510,-7,-3,0,1,2,7,14,-5
1537918913993510,-7,3,1,5,6,5,6,-7
1537918913993510,4,0,0,0,2,-1,11,1
1537918914008470,3,-3,-5,-2,-2,11,-4,3
1537918914008470,1,-1,2,2,4,-9,6,5
1537918914014454,5,2,2,9,23,2,-12,18
1537918914014454,-8,2,-5,-6,-17,8,-6,2
1537918914030412,36,-1,-4,-14,-13,-17,-12,21
1537918914030412,1,6,-5,-5,-24,-4,-2,2
1537918914037393,-5,-1,1,-17,-27,-17,-16,3
1537918914037393,18,6,6,42,34,30,-24,-8
1537918914053350,-3,-23,0,-18,35,-16,51,12
1537918914053350,-10,39,-8,-16,-51,-23,6,-2
1537918914053350,43,2,-6,-10,-43,-24,-12,40
1537918914053350,-20,-36,22,-22,26,26,-38,-30
1537918914069308,-26,-30,-16,20,-17,12,11,57
1537918914069308,11,14,2,15,31,-10,-8,2
1537918914075292,3,-42,-18,-23,-46,-1,28,0
1537918914075292,21,65,20,46,70,24,55,-15
1537918914090252,-1,-26,-23,-47,-11,-23,-33,-32
1537918914090252,-2,-7,0,-13,-42,-4,-10,-7
1537918914097233,26,11,16,18,93,-13,-19,70
1537918914097233,-43,-33,-37,-15,-7,4,13,1
1537918914112193,15,44,12,15,-24,11,-27,-5
1537918914112193,65,61,18,-16,-62,0,18,41
1537918914129149,-34,-29,-17,45,29,11,-17,-59
1537918914129149,-6,-53,-12,-107,-42,-4,33,26
1537918914130146,-38,-26,1,25,37,9,-24,-80
1537918914130146,18,11,11,47,-2,-4,14,13
1537918914135132,-34,4,34,57,62,15,-1,1
1537918914135132,-10,15,-19,-13,69,-19,4,23
1537918914150094,-17,-31,-15,-47,-114,-41,-11,-36
1537918914150094,0,-7,9,3,116,85,-2,-22
1537918914157074,-40,19,4,-18,-40,2,-17,-18
1537918914157074,16,6,-10,28,-81,-40,30,-12
1537918914172035,30,25,25,-13,13,6,-49,-4
1537918914172035,-13,-34,-3,73,95,0,-9,8
1537918914181010,6,14,-3,-16,-36,37,-20,-1
1537918914181010,-49,-33,-4,-92,-97,-64,-60,-38
1537918914186993,54,54,-26,-32,-47,-8,62,38
1537918914186993,-48,-53,-20,-34,-46,-13,-24,-63
1537918914194973,9,-14,20,87,95,49,61,34
1537918914194973,25,18,7,73,100,7,-38,17
1537918914209932,-13,-9,-13,-72,-71,-25,-9,1
1537918914209932,-25,-1,-13,-52,-13,-38,2,-16
1537918914216913,0,17,0,-40,-4,-6,3,-43
1537918914216913,1,6,12,60,25,26,22,-6
1537918914232871,4,20,22,74,127,28,-10,-11
1537918914232871,8,-13,-3,-12,-7,11,-3,51
1537918914240850,2,-2,-12,-25,-55,-25,33,-26
1537918914240850,15,9,1,-2,-29,-5,-18,27
1537918914248829,-25,-11,4,15,13,12,20,-23
1537918914248829,-12,-2,-1,-17,-44,-16,-3,-14
1537918914254812,11,3,-10,-14,-14,-14,-10,-22
1537918914254812,5,9,3,-1,14,11,9,12
1537918914269772,-17,-5,5,22,4,13,-6,0
1537918914269772,12,7,16,37,38,4,-1,17
1537918914277751,-7,3,-11,-17,17,-18,-5,-2
1537918914277751,13,-14,-19,-46,-72,-13,-6,-20
1537918914292711,-7,5,2,-11,0,7,11,12
1537918914292711,3,-8,-5,1,-11,-7,-10,8
1537918914300690,-3,0,-1,-13,-11,-4,-6,-14
1537918914300690,-3,9,9,14,8,-4,-10,0
1537918914315651,1,-4,7,31,38,14,9,6
1537918914315651,-3,-1,2,8,30,12,11,-9
1537918914316648,-5,0,-8,-23,-27,-11,-8,-4
1537918914316648,7,1,1,8,-4,-1,-2,7
1537918914329613,-4,1,1,6,10,-2,-1,5
1537918914329613,-7,-4,-3,-4,1,1,2,-9
1537918914337591,2,-1,1,-8,-11,-2,0,1
1537918914337591,1,3,0,7,3,2,7,1
1537918914352551,-2,-3,1,9,4,-2,-3,-4
1537918914352551,-4,-2,-1,-14,-9,-4,0,-4
1537918914368508,4,1,-3,-4,-1,1,2,-2
1537918914368508,1,3,1,3,0,-9,-4,0
1537918914375489,-12,-5,1,5,1,-4,0,-2
1537918914375489,11,0,-5,-8,-3,15,-1,3
1537918914376487,-7,-3,-1,1,1,-4,-13,-2
1537918914376487,14,5,3,4,3,15,46,-2
1537918914389452,-5,-2,-3,1,-2,-7,-4,1
1537918914389452,-5,-2,-1,-2,1,-4,1,-3
1537918914397431,-1,-3,-1,-4,0,-1,-1,-5
1537918914397431,-2,4,-2,-7,-16,-6,-19,0
1537918914412391,2,0,2,4,4,-5,8,3
1537918914412391,-4,-4,-1,-2,3,-2,-4,-2
1537918914420369,0,3,-1,-1,-1,6,13,-4
1537918914420369,-4,-3,1,-2,-1,-7,-8,-5
1537918914435330,1,-1,-1,2,0,3,-1,3
1537918914435330,-2,-4,-3,-2,2,-3,-1,0
1537918914436327,3,3,-1,-3,-2,-3,2,9
1537918914436327,0,1,2,3,-2,-1,-5,5
1537918914458268,-1,-2,-4,-3,-8,0,-5,-4
1537918914458268,-2,0,-3,-8,-7,-12,-1,-4
1537918914458268,0,-1,2,3,8,20,-6,-2
1537918914458268,-1,-1,-1,2,2,-3,-6,-2
1537918914481207,-2,-1,-1,0,4,-3,-5,-3
1537918914481207,-3,-4,-1,-2,1,9,13,9
1537918914482204,1,1,-2,-1,-9,-22,-8,-6
1537918914482204,-3,-4,-3,-2,-4,-7,-18,-1
1537918914504145,2,1,2,4,5,4,17,0
1537918914504145,-2,1,-2,-3,4,4,-3,-6
1537918914504145,1,-1,2,2,0,-2,9,3
1537918914504145,-1,1,-1,-1,-3,-5,1,-5
1537918914518108,0,0,-4,-1,-3,1,-3,1
1537918914518108,-1,0,-1,-4,-4,-2,-5,-4
1537918914519106,1,0,-1,2,1,0,1,1
1537918914519106,-4,-3,-1,0,3,7,-3,-4
1537918914541048,-1,-2,0,1,1,-3,0,1
1537918914541048,-2,-3,-1,0,-3,-3,-2,-2
1537918914542045,0,0,-1,-3,-4,-10,-3,-1
1537918914542045,-2,-2,-2,0,5,10,1,-1
1537918914563986,2,0,1,4,14,-2,-5,3
1537918914563986,0,1,-2,-6,-21,0,-1,-4
1537918914563986,-2,-1,-4,-4,-6,-6,3,-2
1537918914563986,-3,0,0,-1,7,-9,3,1
1537918914577948,-1,-1,0,-5,-19,15,-11,-3
1537918914577948,-3,-4,-1,0,2,-9,-6,-1
1537918914578946,1,0,-1,0,1,5,7,2
1537918914578946,1,1,0,0,3,1,11,-1
1537918914600887,1,-2,-1,0,6,-6,7,1
1537918914600887,2,1,0,4,4,-5,-8,-1
1537918914602881,-1,-2,-2,-4,-7,5,2,-1
1537918914602881,-3,0,-2,0,3,-6,-10,-4
1537918914623825,-1,-2,2,-1,-7,-1,-5,0
1537918914623825,1,-2,0,-1,-1,-5,4,1
1537918914624823,-1,-2,0,-1,5,3,3,-3
1537918914624823,0,-1,-2,-2,-4,-3,-4,0
1537918914637788,1,1,-2,0,1,1,-1,0
1537918914637788,-4,-1,-2,-1,2,7,0,-1
1537918914646764,-2,-1,-1,1,1,1,-1,-3
1537918914646764,0,0,0,-2,-2,2,-3,4
1537918914660727,-4,-2,-1,-1,0,-4,-1,4
1537918914660727,-3,-3,1,4,4,1,8,2
1537918914662722,3,1,-1,-4,-3,-4,-5,2
1537918914662722,-4,-1,0,-2,-2,5,1,-2
1537918914684663,-8,1,2,4,1,-4,6,-16
1537918914684663,18,0,-5,-7,-3,2,-9,15
1537918914685660,-4,-1,1,2,-1,2,2,-5
1537918914685660,-2,-1,1,5,6,6,-3,-4
1537918914697628,8,1,-2,2,-6,-18,-4,21
1537918914697628,-17,-1,5,3,4,1,5,-21
1537918914706604,16,1,-4,11,16,9,-11,19
1537918914706604,-5,0,3,-7,-37,-4,8,-17
1537918914721565,25,1,-5,34,7,3,-10,31
1537918914721565,-2,1,3,-44,42,-20,1,10
1537918914722562,8,-1,-1,67,-34,-7,-19,2
1537918914722562,-2,-1,-6,-21,73,-36,-15,-15
1537918914743507,-27,-8,-17,-104,-94,19,25,-9
1537918914743507,-11,-2,-6,85,-48,-27,-27,-45
1537918914745503,-5,20,42,-5,106,37,8,1
1537918914745503,-18,21,-38,-35,-77,-17,25,-27
1537918914757471,1,-57,-33,-46,-63,-12,-15,-21
1537918914757471,-18,-5,12,-19,48,4,15,54
1537918914766447,8,1,8,79,40,-1,39,17
1537918914766447,-64,-61,35,81,33,23,-25,-60
1537918914780409,-1,-3,4,-77,48,4,-11,-65
1537918914780409,13,4,-94,4,-46,11,19,64
1537918914787389,-10,-33,8,-13,13,-12,-18,-1
1537918914787389,24,5,19,73,83,52,81,-12
1537918914803346,-15,47,44,44,97,-2,-57,-55
1537918914803346,13,6,36,-19,-41,-18,-13,8
1537918914805341,-23,-6,-35,-91,-86,-38,-10,-56
1537918914805341,4,2,-4,-10,-34,-20,-20,21
1537918914817308,-2,-2,3,-17,-28,-10,29,55
1537918914817308,4,27,12,40,30,25,30,-35
1537918914826285,1,42,16,0,16,37,22,-10
1537918914826285,38,50,-3,71,77,2,-47,19
1537918914840248,-23,-50,-11,-42,-65,-1,20,26
1537918914840248,-28,-25,-20,11,-8,-28,-19,-36
1537918914847229,10,-52,-18,-6,-3,-12,-4,2
1537918914847229,-9,26,17,22,28,11,0,21
1537918914864184,12,20,4,87,91,19,10,26
1537918914864184,-1,1,9,-53,18,8,8,-55
1537918914865181,14,3,1,0,-90,-3,-21,-4
1537918914865181,7,-8,-15,-25,30,-8,-2,23
1537918914877148,18,-2,-9,-1,-53,-6,-16,20
1537918914877148,-3,-21,0,-44,-67,-8,-11,-10
1537918914886124,-5,13,-5,-16,7,-11,-12,1
1537918914886124,2,-20,-8,-41,-47,-23,7,19
1537918914900087,0,7,-3,3,-21,1,-4,-14
1537918914900087,4,11,19,34,69,15,14,9
1537918914907068,1,7,-1,19,26,21,16,12
1537918914907068,4,-3,0,-61,-58,-14,-32,0
1537918914924023,0,4,-2,37,32,-12,-6,-12
1537918914924023,9,5,9,-3,1,12,3,18
1537918914925020,-14,-6,-2,10,8,1,14,-26
1537918914925020,3,-14,-6,-23,-31,-3,-4,46
1537918914936988,1,15,6,21,30,-8,-12,-9
1537918914936988,1,-8,3,5,2,7,-1,-2
1537918914945964,-2,-1,-7,-18,-14,2,2,2
1537918914945964,2,-1,-2,-6,6,3,4,-2
1537918914960925,0,4,4,8,2,-1,8,-2
1537918914960925,1,0,3,6,1,2,0,8
1537918914966909,-5,-3,-7,-15,2,-14,-9,3
1537918914966909,0,2,2,-6,-13,16,0,-12
1537918914983864,1,0,2,18,12,4,9,7
1537918914983864,-2,-6,-1,-4,-8,-4,-2,-11
1537918914984861,-5,2,-5,-8,7,-4,-11,6
1537918914984861,3,-5,-2,-5,-17,-16,2,-5
1537918915005805,-4,0,1,5,0,10,6,-10
1537918915005805,1,1,1,4,18,8,-5,1
1537918915007800,0,0,1,-5,4,0,-3,8
1537918915007800,0,0,0,4,4,19,4,-2
1537918915020764,-1,0,-1,1,4,-43,4,-3
1537918915020764,3,1,-2,-7,-19,19,-9,5
1537918915027746,-2,-1,-2,6,3,1,5,0
1537918915027746,0,-5,-5,-13,-9,0,-1,-8
1537918915043703,1,3,-1,-3,10,4,1,4
1537918915043703,-10,-1,3,3,2,-1,-3,-15
1537918915044700,4,-1,-3,-4,0,-7,6,5
1537918915044700,1,0,2,11,-2,0,-3,-1
1537918915066642,0,3,-3,-9,0,6,1,3
1537918915066642,-5,-1,1,3,10,-2,2,-7
1537918915067640,0,-2,-4,-4,-11,1,-5,-7
1537918915067640,10,0,-2,-8,-7,-10,-7,15
1537918915080605,-10,-1,2,29,2,7,6,-14
1537918915080605,10,-1,1,-16,8,3,-6,10
1537918915087586,-10,1,6,46,17,-4,5,-7
1537918915087586,2,-3,-7,-57,-13,-10,-3,2
1537918915103543,-5,-2,-8,-8,-23,6,-1,-1
1537918915103543,-2,0,4,27,12,-9,-1,-26
1537918915105539,-4,-1,-5,-25,46,14,-2,-11
1537918915105539,-1,5,2,45,-85,-45,6,18
1537918915126482,-15,7,2,-42,40,4,-12,-48
1537918915126482,-11,-41,-14,-14,-93,-49,-7,73
1537918915127480,43,88,-5,-57,-20,18,2,20
1537918915127480,-10,-22,36,35,7,19,-6,-14
1537918915139448,18,6,7,112,105,24,18,68
1537918915139448,-31,-40,-9,-82,20,2,6,-67
1537918915148424,-18,-14,-60,-16,-91,-62,-13,37
1537918915148424,27,16,-6,41,101,15,-34,17
1537918915163384,0,32,3,113,50,-4,16,3
1537918915163384,13,-65,16,-48,65,28,-34,-42
1537918915165379,9,-12,-1,56,-95,-8,15,35
1537918915165379,-27,47,-6,-128,-62,4,17,-5
1537918915186322,39,-10,28,59,46,46,45,31
1537918915186322,-13,28,-17,87,106,-20,-22,-19
1537918915187320,25,-10,0,-61,-48,-16,26,55
1537918915187320,-21,-46,-16,28,5,-28,-51,-67
1537918915200284,3,8,-5,-126,-128,-3,-10,56
1537918915200284,2,18,16,84,-3,27,49,-12
1537918915209261,-19,6,31,-2,127,-3,-23,-25
1537918915209261,10,0,-21,-14,-71,-10,28,-1
1537918915224220,-34,-28,-15,-84,-61,8,-22,-28
1537918915224220,34,20,-18,68,53,2,8,63
1537918915225218,-34,-22,16,-17,70,1,-16,-28
1537918915225218,33,44,4,-11,102,8,-30,-62
1537918915246162,-9,-9,-20,-113,-117,-36,-10,-42
1537918915246162,-24,12,-10,-5,-1,-10,26,33
1537918915248156,25,-33,30,35,-30,46,7,-37
1537918915248156,2,2,-9,50,95,9,14,43
1537918915260124,7,3,19,32,57,5,-13,-34
1537918915260124,10,19,-11,-14,-96,-6,9,-11
1537918915269100,10,15,4,35,70,7,-12,26
1537918915269100,-19,-28,9,41,-15,41,8,-9
1537918915284061,3,-1,-8,-25,25,4,-20,4
1537918915284061,25,2,-2,-13,60,-51,5,30
1537918915285058,-23,-16,-31,-102,-128,-26,-17,-40
1537918915285058,-14,-9,1,34,-67,-12,10,6
1537918915306002,9,1,2,33,75,-2,7,-4
1537918915306002,1,14,21,6,17,10,-39,-9
1537918915307998,-7,-2,2,49,22,25,1,-25
1537918915307998,-3,-3,5,-18,44,2,18,20
1537918915319965,-6,-4,-9,6,-22,-4,-2,5
1537918915319965,-3,4,1,-47,-44,5,-3,-9
1537918915328943,5,-4,2,36,21,-9,-7,30
1537918915328943,2,-6,-3,-11,15,7,12,2
1537918915343903,-7,-4,-6,-16,-32,-14,-16,-5
1537918915343903,-4,4,-2,2,-43,2,2,-5
1537918915344900,-9,-4,1,-9,32,7,0,-40
1537918915344900,3,-2,-3,-9,-5,-3,2,13
1537918915365842,1,-4,-1,18,-11,-38,1,-1
1537918915365842,-7,2,6,-2,4,37,-5,-9
1537918915367837,3,0,-2,11,19,-3,0,-3
1537918915367837,0,-4,-12,-52,-35,-14,17,15
1537918915379805,-12,-3,-1,18,-20,-20,-8,-16
1537918915379805,3,2,2,-14,-4,15,16,25
1537918915388781,-6,-1,0,2,13,-4,-22,-13
1537918915388781,2,0,5,34,20,15,9,11
1537918915403740,1,-2,1,3,12,6,10,5
1537918915403740,-2,0,-4,-25,-24,-15,-1,-1
1537918915404738,0,-1,-1,7,4,7,6,0
1537918915404738,-2,0,3,2,1,-5,-2,-2
1537918915426679,0,0,-2,1,6,6,6,2
1537918915426679,0,0,2,-2,-3,0,-15,-15
1537918915427677,-3,-1,0,4,0,-3,17,6
1537918915427677,-3,-3,-2,-7,-10,-6,-11,-13
1537918915439645,1,-3,-3,-1,3,-7,-4,8
1537918915439645,0,1,0,6,-4,10,-5,-4
1537918915448621,-1,-2,-1,-6,3,3,0,1
1537918915448621,0,-3,0,-5,-3,7,0,2
1537918915463582,-1,-2,-1,6,13,23,-2,0
1537918915463582,-3,0,0,-7,-4,-32,8,-5
1537918915465576,0,-1,-2,-4,-18,-12,-9,-1
1537918915465576,-1,-2,-1,1,-4,-16,-7,-2
1537918915486520,-2,-1,-1,4,4,7,-17,-5
1537918915486520,-4,-1,-1,-2,3,11,-39,-12
1537918915487518,0,0,-2,-2,5,2,0,-2
1537918915487518,7,1,1,6,1,16,-3,16
1537918915499486,-4,-2,-1,-2,2,11,21,-6
1537918915499486,2,2,1,4,2,5,57,12
1537918915514447,-2,2,-2,-2,-5,-28,-58,-10
1537918915514447,-3,7,-1,-2,-4,-10,-14,-7
1537918915523422,-12,-14,-1,-1,1,-16,-5,-5
1537918915523422,0,-1,0,-3,-4,18,-57,-5
1537918915525418,5,-3,-1,1,4,-5,90,14
1537918915525418,-4,4,-2,-4,-4,16,5,-2
1537918915546362,-4,-7,10,1,2,-3,9,-6
1537918915546362,-3,-2,-15,-2,-9,-57,15,-2
1537918915547359,-6,0,0,-5,-2,39,-81,-16
1537918915547359,0,-3,1,6,7,12,97,13
1537918915560323,-7,-3,-3,-6,-9,-45,-114,-6
1537918915560323,24,14,4,-1,-2,26,100,9
1537918915576280,5,-3,1,6,8,-28,45,13
1537918915576280,-9,-4,-2,-4,-9,-12,-21,-18
1537918915583261,12,6,-7,-1,0,-17,18,4
1537918915583261,-27,-12,6,1,5,50,-59,4
1537918915585256,-12,1,-2,-3,-1,-11,-5,-11
1537918915585256,19,2,2,2,0,1,-47,-12
1537918915606200,1,0,-3,3,3,20,60,5
1537918915606200,-5,-4,-6,-9,-13,-30,-42,-9
1537918915607197,-8,-6,-1,-1,1,25,25,1
1537918915607197,-5,-6,-3,-4,-5,-14,-49,-9
1537918915620162,2,6,1,3,4,-7,1,-7
1537918915620162,8,0,2,2,11,9,18,14
1537918915629139,-4,-6,0,-7,-17,-16,38,-2
1537918915629139,1,0,-1,-4,-7,8,-28,-5
1537918915644098,-5,-1,-4,-3,6,5,-21,0
1537918915644098,-2,-4,5,4,4,-1,8,-1
1537918915645095,3,4,0,5,12,5,-20,-1
1537918915645095,-5,-3,-4,-7,-9,11,45,11
1537918915666039,5,3,0,3,1,-16,-14,-4
1537918915666039,-4,-2,0,2,10,0,-9,-18
1537918915668034,1,-1,-3,-5,-13,-20,-29,12
1537918915668034,-2,-1,0,1,2,20,47,9
1537918915680002,-2,-1,0,-2,1,26,7,-7
1537918915680002,2,1,0,-2,-3,-18,-13,3
1537918915688978,2,0,-1,1,-1,7,0,-6
1537918915688978,-4,-4,-1,1,3,3,14,4
1537918915702941,2,1,-3,-2,-7,-18,-16,2
1537918915702941,-2,-2,0,-1,-7,-8,17,-3
1537918915709922,0,-1,-2,-1,-1,-20,-40,-3
1537918915709922,-3,-2,-1,1,3,4,58,-2
1537918915725880,4,0,-2,-2,-2,19,16,13
1537918915725880,-5,-3,-3,-1,-5,4,-12,-13
1537918915727874,-2,-3,-3,-4,0,-8,-34,-2
1537918915727874,2,-1,2,3,11,21,49,7
1537918915750813,-4,1,-1,-1,-5,11,1,-7
1537918915750813,1,1,0,0,-3,-4,-47,3
1537918915752808,0,-7,-4,-2,0,-11,28,10
1537918915752808,-7,-1,0,1,2,-14,9,-11
1537918915755799,12,0,0,-3,-3,19,42,13
1537918915755799,3,2,-1,-2,-2,-18,-27,13
1537918915765773,-1,2,0,2,7,18,-7,-6
1537918915765773,-1,-1,0,-2,-6,-22,-38,-14
1537918915777741,-1,-2,1,0,3,19,13,14
1537918915777741,-4,0,-1,-4,-3,-9,2,-18
1537918915786717,-2,1,0,0,2,2,-28,-20
1537918915786717,-4,-9,1,-3,-2,-21,-10,24
1537918915792701,11,13,3,-2,-2,30,-9,-21
1537918915792701,1,-4,-3,-5,-6,-5,23,15
1537918915801677,-4,5,5,3,6,40,88,-40
1537918915801677,0,-4,-2,-1,-5,-25,-47,64
1537918915814642,-2,3,1,0,-1,-50,-34,-5
1537918915814642,-1,-6,0,1,4,53,5,-32
1537918915823618,4,4,1,1,1,13,49,53
1537918915823618,-8,-2,-2,-2,-8,-34,-81,-41
1537918915837581,1,-2,0,0,1,-3,102,43
1537918915837581,-8,0,-3,-1,-5,-13,6,-21
1537918915846557,5,-7,-4,-3,0,2,-31,21
1537918915846557,2,0,0,0,-3,8,-5,-17
1537918915852541,-3,-5,-3,0,5,5,-32,7
1537918915852541,-5,-3,-1,1,5,1,-1,-11
1537918915861517,-2,-3,-1,-7,-17,-9,13,17
1537918915861517,2,4,-7,-9,-6,3,-5,-11
1537918915874482,-3,-5,-2,2,4,19,-67,-27
1537918915874482,1,1,1,3,4,-1,34,25
1537918915883458,-1,-2,-1,1,5,11,43,23
1537918915883458,13,1,0,0,0,-56,-62,17
1537918915897421,-8,-3,-1,0,-4,4,25,9
1537918915897421,4,-1,-2,-2,-7,-6,0,-2
1537918915914376,2,2,-2,-1,-5,0,3,37
1537918915914376,-20,-2,0,1,3,24,32,-32
1537918915915374,12,-1,-1,-2,0,2,-23,-10
1537918915915374,4,2,-1,0,0,-7,4,31
1537918915921357,-5,-2,-1,1,-1,10,-5,-21
1537918915921357,-1,0,2,3,3,-61,-21,-8
1537918915935319,-2,-3,0,-3,-9,57,-3,2
1537918915935319,-4,-1,1,3,2,-20,2,-7
1537918915944296,0,0,1,-3,-5,-10,-16,-22
1537918915944296,5,1,0,0,1,18,-2,12
1537918915957261,-3,-1,-1,-2,-2,-20,-6,-21
1537918915957261,11,0,-2,-2,-4,-7,40,-1
1537918915966237,2,-1,-1,1,6,-29,-43,-11
1537918915966237,0,-2,1,3,4,58,35,-5
1537918915972221,-5,-3,0,-2,4,-8,7,6
1537918915972221,-8,-3,0,0,2,0,-19,-6
1537918915981197,-5,0,2,-2,-3,-4,-20,-26
1537918915981197,2,1,-1,-9,-26,-12,21,2
1537918915995160,-5,-1,0,0,3,0,-11,-11
1537918915995160,2,1,1,-1,3,-10,-7,12
1537918916004136,-10,-4,-5,-5,-6,8,3,-14
1537918916004136,-6,-3,-3,-3,-1,3,-10,-4
1537918916017101,0,3,0,-1,-9,-11,-18,-26
1537918916017101,11,4,-3,-4,-4,-10,-4,17
1537918916026077,7,1,-2,2,5,0,8,22
1537918916026077,2,1,-1,1,4,9,3,-4
1537918916032061,-5,-1,-1,0,1,-37,-3,1
1537918916032061,-4,-1,2,2,5,21,-16,-16
1537918916041037,-2,0,0,1,2,1,3,-16
1537918916041037,2,1,-1,0,8,13,7,11
1537918916055000,-5,-2,-2,0,1,-1,27,5
1537918916055000,3,-1,0,-3,-5,-5,-29,-7
1537918916069960,3,-2,0,-1,2,16,-5,22
1537918916069960,-2,1,1,4,7,2,18,-1
1537918916077940,0,1,1,1,-3,-24,-24,-10
1537918916077940,-5,-2,-2,-3,-11,21,11,3
1537918916084921,2,-1,-1,-2,1,-5,-18,-8
1537918916084921,-2,-1,-1,-2,-1,-6,-8,-3
1537918916092900,-1,-2,0,-4,-9,7,28,7
1537918916092900,-1,1,0,1,1,-10,9,5
1537918916100878,-4,-2,-1,1,-2,-25,-15,-6
1537918916100878,-5,-2,0,-1,3,24,27,-14
1537918916114841,0,0,-1,-2,5,6,-20,1
1537918916114841,1,1,-1,1,2,-6,-21,-25
1537918916123817,0,3,-2,-1,-1,-3,7,5
1537918916123817,0,-1,-2,1,-2,0,14,3
1537918916139775,4,-3,-3,-3,-5,-21,-2,16
1537918916139775,-7,-5,-3,-4,-1,9,11,-11
1537918916144762,0,-1,1,-1,-2,-24,-19,-6
1537918916144762,-1,0,0,0,1,5,-29,-8
1537918916161716,-5,0,-1,1,3,36,65,-7
1537918916161716,1,-2,-1,-2,0,-3,-13,16
1537918916162713,-4,0,0,1,3,-8,41,-10
1537918916162713,2,-1,-2,-2,-4,-3,-9,3
1537918916174681,0,1,1,-2,0,-1,-8,-13
1537918916174681,-2,1,-1,-2,-1,-9,-4,2
1537918916183657,-4,-1,-1,1,-2,4,-8,-11
1537918916183657,8,2,-1,-2,-2,6,-2,29
1537918916197619,0,9,-2,-1,-2,-13,-25,-10
1537918916197619,1,-27,3,0,-1,-4,0,15
1537918916204600,5,3,0,0,0,18,13,-16
1537918916204600,-19,-4,0,3,1,-6,-9,67
1537918916221555,4,3,-2,-3,-4,-2,-13,-2
1537918916221555,8,-6,0,3,4,8,11,5
1537918916222552,-2,1,-1,-4,-4,7,-19,-3
1537918916222552,-14,-4,1,-3,-5,-5,-12,-36
1537918916234520,2,2,-3,-3,-10,-80,17,8
1537918916234520,6,19,1,2,9,82,-47,-8
1537918916243496,-2,-17,-1,-1,-7,-85,70,70
1537918916243496,-2,1,-2,0,1,74,-38,-25
1537918916258456,-6,-3,3,-2,-9,-78,27,6
1537918916258456,-11,-10,-1,2,9,32,-38,32
1537918916264440,16,7,0,2,6,62,-53,-22
1537918916264440,20,3,-3,-2,0,-111,-25,1
1537918916281395,-5,-1,-2,-1,-6,58,-7,17
1537918916281395,-12,-3,-2,-6,-22,-42,-70,-68
1537918916282392,-9,-5,-6,-14,-14,-32,64,4
1537918916282392,15,6,6,8,-1,-22,-7,16
1537918916294360,2,-5,0,3,8,37,-17,-25
1537918916294360,-2,3,-4,-3,-1,-21,50,-5
1537918916303336,3,1,0,4,10,31,-14,4
1537918916303336,1,-1,-1,-1,2,6,4,-47
1537918916318296,-4,-4,-1,2,7,9,12,53
1537918916318296,-11,2,3,1,2,11,32,-1
1537918916325277,-5,-1,-4,-2,-3,-16,-24,-4
1537918916325277,-9,-10,-3,-5,-3,23,49,-2
1537918916340237,5,3,2,1,5,17,-10,-9
1537918916340237,5,7,-3,-4,-7,-41,4,1
1537918916349214,4,-1,0,1,1,0,-13,11
1537918916349214,1,3,0,0,-1,3,-8,-1
1537918916355198,-4,-3,-1,1,4,16,9,-9
1537918916355198,6,0,-3,-4,-9,-2,25,6
1537918916364175,0,-1,0,2,-1,-13,-15,5
1537918916364175,0,-1,0,1,10,8,-6,-8
1537918916378137,0,-3,-2,-3,1,32,4,-7
1537918916378137,-4,1,0,1,3,-12,3,4
1537918916385121,-4,2,0,-5,-14,-13,-20,-17
1537918916385121,-8,-3,-3,-2,-1,7,5,-8
1537918916401079,-4,-4,0,-1,-5,-3,-53,-18
1537918916401079,-2,-2,-1,4,6,-8,35,-7
1537918916403071,-2,-1,1,1,3,19,-15,-3
1537918916403071,0,0,2,1,5,-16,-6,-5
1537918916415039,-3,-2,-1,1,-1,-21,32,2
1537918916415039,-1,2,0,-4,-20,-11,-28,-1
1537918916424014,0,0,0,-1,-4,-19,17,6
1537918916424014,3,-4,-4,-1,2,45,-24,17
1537918916437977,-5,-1,-1,0,5,-2,29,10
1537918916437977,-1,-1,-2,-1,0,-19,-3,-3
1537918916444957,2,-3,-2,-2,4,31,-5,8
1537918916444957,1,-3,-4,-4,-6,3,26,4
1537918916468894,-1,0,0,0,-1,-10,-47,-7
1537918916468894,-5,0,0,1,2,-5,8,-28
1537918916469891,-2,0,2,4,2,2,5,-19
1537918916469891,-2,-2,-2,0,-4,-4,-3,4
1537918916474878,0,-2,-2,-2,-3,-12,30,0
1537918916474878,2,-2,-2,-1,2,4,-11,28
1537918916483854,-12,1,-1,1,5,14,36,-29
1537918916483854,4,2,-1,-1,-10,-6,-32,-1
1537918916497816,1,-1,0,-1,-3,-9,7,-3
1537918916497816,-1,-1,1,0,1,-14,15,10
1537918916504798,-2,-2,-1,0,4,32,-15,-2
1537918916504798,-3,-1,0,0,0,-12,9,20
1537918916521753,5,1,0,-3,-4,23,8,2
1537918916521753,0,1,0,0,0,-32,-21,-4
1537918916522751,1,-1,0,0,0,32,5,10
1537918916522751,-2,0,2,1,0,-32,3,-31
1537918916534718,0,-2,1,-1,3,22,-19,4
1537918916534718,4,0,-1,-1,1,-15,16,11
1537918916543695,3,0,0,0,0,-5,12,-3
1537918916543695,6,-1,1,-2,-8,-6,2,3
1537918916557657,-2,-3,-4,-4,-4,4,12,7
1537918916557657,-3,-3,-1,-1,2,25,-29,-13
1537918916564639,6,1,-2,-4,-4,-22,-10,25
1537918916564639,-1,0,-1,0,3,6,16,-4
1537918916581593,-4,-4,-2,-2,-13,-36,-49,-9
1537918916581593,-1,2,1,4,8,58,53,10
1537918916582592,-4,-2,-1,1,0,-10,-53,-9
1537918916582592,-5,-1,0,-1,-5,-24,3,-4
1537918916595557,4,-1,-2,0,0,-16,-11,-2
1537918916595557,-2,-1,-2,-2,2,15,-25,4
1537918916603534,-7,-1,1,0,-2,-21,13,-17
1537918916603534,2,-1,0,0,1,19,-24,-4
1537918916617497,2,1,0,1,6,4,26,2
1537918916617497,6,0,-3,-3,-7,12,2,9
1537918916626472,2,-2,-1,0,-3,-12,4,1
1537918916626472,-2,-2,-1,1,-2,-30,-11,-4
1537918916648413,-2,-1,-1,-2,-2,17,-19,3
1537918916648413,-1,-1,0,0,6,22,15,-4
1537918916650408,2,-1,-2,-2,-3,-12,-24,-4
1537918916650408,-3,-1,-1,-1,2,11,0,5
1537918916662376,-2,2,0,1,1,-16,-4,-19
1537918916662376,-5,-3,0,0,-4,-35,17,3
1537918916671352,-1,-1,-1,-1,0,2,5,1
1537918916671352,-3,-3,-1,-2,0,18,-6,-12
1537918916686312,-6,2,-1,1,-1,-5,23,1
1537918916686312,12,7,1,2,1,-7,-2,13
1537918916687309,-4,-3,-4,-3,-3,7,6,-45
1537918916687309,8,4,0,-3,-3,1,23,30
1537918916708253,-3,-1,1,1,1,-6,-13,-7
1537918916708253,1,-1,-1,0,-3,8,-14,-11
1537918916710248,4,1,-2,0,-2,-25,1,12
1537918916710248,-2,0,-2,-1,1,19,8,-9
1537918916722216,6,5,1,1,3,10,28,46
1537918916722216,-9,-20,-2,-3,-5,-1,2,8
1537918916731192,-5,-2,-1,1,5,27,14,2
1537918916731192,-1,0,-1,-2,-4,-28,3,7
1537918916746152,-1,1,0,0,-2,12,13,-13
1537918916746152,-2,1,0,-3,-4,-20,-9,-6
1537918916747150,2,0,0,-2,-1,-10,-1,7
1537918916747150,-4,0,0,2,7,13,32,-16
1537918916769091,-1,-5,-3,0,-2,-2,-21,-13
1537918916769091,2,2,-2,-1,-6,-21,-9,-6
1537918916770088,-2,-1,-1,-1,-2,11,-6,-2
1537918916770088,3,-1,-1,0,1,-1,-2,4
1537918916782056,-2,-3,0,-1,0,-17,-13,-12
1537918916782056,-3,2,-1,0,3,32,13,-3
1537918916799011,-3,2,0,1,4,-18,-3,6
1537918916799011,-3,-5,-3,-3,-13,4,-5,-6
1537918916805992,-2,-2,0,-1,-4,-2,-7,-21
1537918916805992,0,2,2,0,-1,-1,-4,0
1537918916807987,5,-1,1,0,2,4,-10,15
1537918916807987,-3,-1,-3,-3,-3,5,-1,-13
1537918916828931,6,-1,-1,1,0,-11,22,68
1537918916828931,-5,-1,-3,-2,-6,-9,-8,-7
1537918916829929,-8,-2,1,-1,0,8,13,-30
1537918916829929,0,-2,0,1,9,-4,-1,30
1537918916841896,-4,-1,-1,-3,-2,0,-10,-12
1537918916841896,0,2,0,2,5,-7,19,-2
1537918916850872,-3,-3,-2,-4,-9,1,-5,-1
1537918916850872,-1,-3,-4,-3,1,12,-7,-4
1537918916865832,-6,0,0,1,6,-19,3,-26
1537918916865832,3,-1,-1,-6,-12,21,7,3
1537918916867827,0,0,-2,-5,-7,-12,-4,-12
1537918916867827,3,0,-1,0,-4,27,19,-1
1537918916888771,3,0,-1,0,7,-9,-14,14
1537918916888771,1,0,2,3,2,-19,-21,-14
1537918916889768,-4,-1,-2,-1,-4,5,-13,-7
1537918916889768,6,-2,0,-4,1,-15,16,5
1537918916910712,-2,-3,-1,-3,2,10,-20,-15
1537918916910712,-3,0,-2,-1,5,9,32,-10
1537918916912707,2,1,1,-1,-3,10,-9,-8
1537918916912707,-9,-3,1,1,-6,-38,-27,-11
1537918916925672,1,0,0,-1,-3,20,22,2
1537918916925672,-5,-2,-2,-1,-5,-9,0,-1
1537918916927667,-6,-2,1,0,7,7,-18,-5
1537918916927667,1,1,0,1,-3,-34,38,-8
1537918916948611,-1,-2,-2,-2,1,57,-22,-7
1537918916948611,-3,-1,-1,-1,2,-1,9,-6
1537918916950606,4,1,-1,1,1,4,34,25
1537918916950606,-8,-1,2,-1,-2,-18,-18,0
1537918916971550,-1,-1,-1,-1,-3,-18,2,-16
1537918916971550,1,-1,-3,-2,0,8,-6,5
1537918916972548,-1,0,-1,0,-1,-6,-6,2
1537918916972548,-1,-3,-1,-1,-2,0,-20,-9
1537918916986510,-3,1,-1,0,-1,-2,17,0
1537918916986510,-1,-2,-1,-3,-6,-3,-15,8
1537918916987507,1,0,0,-2,1,-10,6,0
1537918916987507,-4,-1,-3,2,4,15,-11,0
1537918917008452,0,-3,-3,2,12,3,-1,-1
1537918917008452,1,0,-1,-4,-7,-7,-7,10
1537918917010446,2,-1,-1,-3,-11,-20,-5,1
1537918917010446,2,0,0,0,-4,-3,10,1
1537918917031390,3,-2,-1,-1,-6,-29,-11,8
1537918917031390,-3,0,-2,2,13,38,-2,-10
1537918917032387,2,-2,1,1,7,12,7,14
1537918917032387,0,-1,-2,-2,0,1,-14,0
1537918917045352,-5,-2,-2,1,-2,-10,5,-6
1537918917045352,-1,-3,-1,-3,-5,-17,-5,-2
1537918917052334,1,-1,0,0,-1,0,-6,1
1537918917052334,0,1,1,-1,2,12,2,-7
1537918917068291,-4,0,-2,-5,-5,-11,-13,-2
1537918917068291,6,-2,-1,0,0,-9,2,17
1537918917070286,-3,-4,-2,0,0,10,9,-7
1537918917070286,2,0,-1,0,1,-6,-6,-4
1537918917091230,-1,-1,-1,-1,-3,7,0,-1
1537918917091230,-2,-1,0,0,0,-5,-8,-8
1537918917092227,0,-1,-2,0,2,-1,-16,-4
1537918917092227,0,0,-3,-5,-8,4,-3,7
1537918917105192,-2,-2,4,4,1,-7,32,-8
1537918917105192,0,2,-1,-1,-2,-8,3,-5
1537918917112174,6,1,-1,2,0,-5,2,40
1537918917112174,-5,-4,-2,-2,2,17,7,-7
1537918917129128,-2,-2,-3,-4,-5,5,-12,12
1537918917129128,2,-2,-1,-2,-1,-14,-12,-7
1537918917130126,-6,-1,0,-2,-2,2,-2,-16
1537918917130126,3,-1,-2,-1,-2,-13,-13,10
1537918917151069,4,-1,0,-3,-1,20,-5,3
1537918917151069,-4,-2,-1,-1,1,-7,-13,1
1537918917153064,1,1,-1,-2,-2,9,23,0
1537918917153064,-6,1,-1,5,5,-7,4,-16
1537918917165032,0,-1,-1,-1,-4,-6,-3,0
1537918917165032,-3,-1,1,-2,-6,-2,4,-1
1537918917172013,1,-3,0,-1,-2,-9,-4,-2
1537918917172013,-3,-2,-1,-1,0,14,6,-6
1537918917188968,1,0,-2,-2,-3,2,6,-1
1537918917188968,-6,-1,-1,1,3,-10,-15,0
1537918917189966,3,0,0,-1,-1,-5,-13,0
1537918917189966,-2,1,1,1,1,20,-9,-5
1537918917210910,-4,-1,0,-1,1,-1,-7,-4
1537918917210910,3,-2,-2,-2,0,10,13,0
1537918917212905,1,-3,-3,-1,1,-10,-2,-7
1537918917212905,5,1,0,-2,0,-2,-16,1
1537918917225870,-1,-2,0,0,-2,2,3,4
1537918917225870,0,-1,-1,0,-3,-5,4,-5
1537918917231854,-5,-2,-1,-2,0,-7,4,-8
1537918917231854,0,-2,-2,-3,-4,22,-6,1
1537918917248809,-2,0,-3,0,1,-9,-6,-3
1537918917248809,-1,1,0,1,3,-2,5,-2
1537918917249806,0,0,0,1,4,6,-9,-7
1537918917249806,0,-1,-3,-5,-16,-20,6,5
1537918917278729,-2,-1,1,-1,0,2,-9,-3
1537918917278729,-1,-1,-2,1,7,9,17,-1
1537918917279726,-1,-1,-1,-1,-11,-32,-23,-1
1537918917279726,0,-1,-1,2,5,10,34,5
1537918917285710,4,1,0,-2,-3,13,-10,12
1537918917285710,-1,-1,-1,-1,-4,-19,-7,-11
1537918917292691,-1,0,0,1,7,62,32,-2
1537918917292691,8,0,0,1,4,-13,-2,9
1537918917308649,-3,-1,-1,-3,-3,-13,-12,5
1537918917308649,0,-1,1,-1,3,13,8,8
1537918917309646,-5,-1,-1,-2,0,-10,-15,-5
1537918917309646,-7,-2,-1,-1,-14,-4,28,-4
1537918917331587,-2,-1,-1,2,5,-11,15,4
1537918917331587,5,0,-1,0,-4,2,-16,4
1537918917332585,-2,0,-1,-3,-10,-18,-13,3
1537918917332585,-4,-1,0,1,7,16,5,-5
1537918917344552,-4,-2,-2,-1,-5,-16,4,-5
1537918917344552,-1,0,-2,0,1,2,-14,5
1537918917353529,3,0,-1,-1,5,15,7,1
1537918917353529,0,0,-1,-1,5,14,-6,-3
1537918917368488,-2,0,-2,0,0,-4,7,-2
1537918917368488,-4,0,0,0,2,4,-1,-7
1537918917370483,1,-1,1,0,-6,-3,1,6
1537918917370483,-1,-1,-2,-3,-8,-6,-1,-10
1537918917391427,0,-1,0,-2,-3,-6,-11,-19
1537918917391427,5,1,-1,-1,-5,4,10,24
1537918917392424,-4,0,-1,0,1,-24,-6,-15
1537918917392424,-2,-3,-4,-6,-8,-8,-14,21
1537918917404393,-4,0,0,1,3,30,13,11
1537918917404393,-6,-2,-1,0,12,12,1,-23
1537918917413369,4,0,2,2,0,-16,-19,-4
1537918917413369,-2,3,2,1,-4,-17,5,-17
1537918917428329,-9,-4,0,1,1,7,-2,-19
1537918917428329,17,23,0,-2,-7,-22,1,4
1537918917430324,-9,-14,-1,-2,6,20,5,-14
1537918917430324,-10,7,3,6,11,4,-7,18
1537918917451267,-15,-5,-1,-4,-4,-11,-8,-13
1537918917451267,-28,-11,1,1,0,8,2,-15
1537918917452265,-18,12,-4,-3,-5,-1,12,-15
1537918917452265,30,10,15,5,3,0,0,1
1537918917465230,-2,-11,-20,-6,-2,-6,6,-6
1537918917465230,-5,-6,0,-4,-9,-34,-18,20
1537918917474207,6,-2,2,-3,0,-1,1,-4
1537918917474207,-4,3,-6,-3,0,-7,-28,-6
1537918917489166,13,9,4,-4,-9,-9,7,17
1537918917489166,1,-6,2,4,14,82,14,-24
1537918917490163,9,4,-3,3,4,58,28,30
1537918917490163,1,-6,0,0,-6,-87,-26,6
1537918917511108,8,3,6,7,26,69,-11,-7
1537918917511108,2,-3,-8,-11,-25,-57,-16,-16
1537918917513102,-7,-3,2,2,8,-22,23,-5
1537918917513102,-2,-1,-6,-3,-11,8,-26,-4
1537918917525070,0,-2,-1,-5,-10,-47,6,-3
1537918917525070,-6,-4,-3,-3,-3,-23,-24,-19
1537918917534046,5,1,0,0,6,-4,15,25
1537918917534046,-3,-6,-4,-2,1,9,6,10
1537918917549006,11,5,1,1,-3,-37,-7,4
1537918917549006,1,-1,1,-1,6,15,-2,5
1537918917550003,2,-2,-2,-3,-5,1,-18,-1
1537918917550003,-7,-5,-3,-2,4,25,-36,-3
1537918917570947,-3,1,4,4,3,21,74,0
1537918917570947,3,4,0,2,0,9,1,5
1537918917572942,-1,-4,-4,-1,-8,-4,-26,-8
1537918917572942,2,1,-4,-1,2,3,11,3
1537918917584910,0,6,-2,-4,-3,3,-41,-6
1537918917584910,-5,-19,0,3,-5,-50,-5,8
1537918917593886,2,2,0,1,2,30,13,-11
1537918917593886,-3,-5,3,3,5,-16,18,-8
1537918917615827,-1,1,-3,-1,-1,39,-5,-1
1537918917615827,5,4,-2,-4,-4,3,5,8
1537918917617822,3,-16,-2,-3,-6,-33,-14,2
1537918917617822,-6,7,0,-1,4,42,17,-11
1537918917630787,4,-2,3,0,-4,-33,-41,5
1537918917630787,1,1,-1,0,1,9,34,7
1537918917632782,-10,3,-1,-1,0,-10,3,-9
1537918917632782,-2,-5,-3,-2,-5,4,7,1
1537918917644750,-2,-4,0,0,-3,-22,-11,0
1537918917644750,3,1,-2,1,2,12,10,0
1537918917653726,1,2,-1,-3,-4,-36,-3,5
1537918917653726,-7,-6,-3,0,3,32,11,-10
1537918917668686,1,0,-1,0,3,11,1,-9
1537918917668686,0,1,1,0,-6,-8,-10,-3
1537918917669683,-1,0,-2,0,-3,-11,8,4
1537918917669683,3,-1,-2,-3,-4,-14,-51,1
1537918917691625,3,-1,0,1,2,5,27,10
1537918917691625,2,-1,0,0,4,14,-2,12
1537918917692622,0,2,-1,-1,-3,-29,6,0
1537918917692622,-1,-4,0,0,4,22,-13,-3
1537918917704590,-3,-3,0,-3,-4,10,22,4
1537918917704590,-2,1,-1,0,0,-2,12,2
1537918917713566,-3,0,0,-2,0,4,-23,-12
1537918917713566,5,-1,-2,-2,-2,-11,17,12
1537918917728526,-2,-1,1,-2,-3,10,-23,-3
1537918917728526,1,2,1,1,-1,-24,-8,-1
1537918917730521,3,-1,-2,-2,-2,15,7,3
1537918917730521,-5,0,-1,-1,0,8,17,-14
1537918917751464,-4,-2,-2,-2,-4,-23,-3,-1
1537918917751464,1,0,-1,-3,-2,-7,-14,3
1537918917752462,-1,0,1,1,11,44,-8,2
1537918917752462,0,0,-1,-1,-5,-21,2,-9
1537918917764430,0,0,-3,-4,-8,-9,-2,13
1537918917764430,-3,-1,-1,-1,5,10,-2,-13
1537918917773406,3,1,0,1,-10,-12,1,4
1537918917773406,0,-1,0,1,5,-1,17,-7
1537918917787369,-5,-2,-1,1,1,-7,2,13
1537918917787369,-1,0,-1,-1,-1,-19,0,-3
1537918917796345,0,0,-1,0,10,33,-2,5
1537918917796345,-5,-2,0,-2,-12,15,-4,-4
1537918917811305,2,-1,-2,-2,-3,-17,17,4
1537918917811305,0,2,0,2,1,-24,-24,-4
1537918917812302,0,-1,-3,-2,-3,21,17,2
1537918917812302,-8,-3,0,1,4,-32,-103,-16
1537918917833247,-6,-10,-2,-1,-1,30,61,17
1537918917833247,11,-1,-4,-2,-2,-19,-68,-5
1537918917835241,10,4,-3,3,4,-20,36,-8
1537918917835241,-9,-22,-3,-13,-14,-31,-17,-29
1537918917849203,0,34,23,20,24,62,67,34
1537918917849203,-8,-4,-1,-5,-6,4,-44,10
1537918917851198,-1,0,3,9,-1,-18,-31,-3
1537918917851198,1,-1,-3,-3,9,23,-12,0
1537918917871145,2,-3,-2,3,6,-29,-71,-23
1537918917871145,-7,-3,-2,7,18,40,60,-6
1537918917872142,-4,-3,3,6,41,4,-22,1
1537918917872142,1,5,-3,9,43,-18,42,9
1537918917894084,-2,-10,-20,-50,-88,-79,-28,-20
1537918917894084,-1,1,-2,-18,-38,42,34,9
1537918917895081,-4,-6,-2,-4,-16,33,-9,-5
1537918917895081,-2,3,8,29,66,32,8,10
1537918917907049,2,-10,-17,-16,-71,-45,-9,-13
1537918917907049,-13,-7,14,-45,-57,-33,-3,-2
1537918917915027,10,7,-11,1,-14,-19,-15,3
1537918917915027,7,10,78,11,17,17,36,8
1537918917929988,1,5,-10,26,68,35,-20,-9
1537918917929988,-2,8,4,8,24,11,16,-7
1537918917930985,1,4,94,22,12,-3,1,13
1537918917930985,2,8,-34,-15,-14,-6,13,12
1537918917952926,20,-15,22,15,12,3,-17,-5
1537918917952926,-23,11,-17,5,15,6,-2,-2
1537918917953924,-14,0,-24,-3,-7,-10,7,-5
1537918917953924,-2,9,-4,-1,-36,-2,-3,-13
1537918917966889,-30,-27,-3,-8,4,-1,14,8
1537918917966889,36,4,-27,6,13,-16,-24,10
1537918917975865,-4,-6,-15,-3,-7,-5,-19,-12
1537918917975865,-3,-3,-10,-9,-30,-11,6,4
1537918917990825,-13,19,-1,-2,16,44,-3,-65
1537918917990825,-13,-11,13,12,11,-27,-62,14
1537918917990825,-5,-5,-20,-10,-15,-7,72,27
1537918917990825,7,-8,1,-7,-16,-43,-88,1
1537918918014761,-8,-3,-23,0,15,28,68,-8
1537918918014761,20,9,14,12,2,33,-8,8
1537918918015759,-27,-20,-5,-9,-9,-11,37,-32
1537918918015759,15,-11,-35,-15,-9,0,13,8
1537918918027726,6,10,14,10,6,-9,-71,28
1537918918027726,-8,2,-6,4,-2,0,-5,-53
1537918918035705,12,4,33,-9,-1,5,-28,32
1537918918035705,-13,-7,6,12,6,6,85,-3
1537918918050665,12,29,-10,-4,-5,-15,-57,-21
1537918918050665,-4,-2,11,-5,-1,14,60,-54
1537918918051664,-1,-9,-21,1,6,-13,-10,-13
1537918918051664,-8,3,-1,-2,-6,-1,-26,-20
1537918918072606,11,-10,13,5,12,-5,5,64
1537918918072606,-4,10,-6,-6,-7,4,-27,-60
1537918918073604,11,8,1,-5,0,15,28,1
1537918918073604,-6,-11,-28,-9,-8,6,-10,-7
1537918918087567,-9,-3,-6,7,22,-11,-33,-33
1537918918087567,36,15,27,-7,-36,-31,40,4
1537918918095545,-18,-11,-63,-10,-12,-2,-23,3
1537918918095545,18,-2,48,-9,-5,-8,-1,18
1537918918110505,-13,-9,13,0,5,9,7,-7
1537918918110505,-15,-7,2,11,17,5,-28,-16
1537918918111502,18,9,5,1,-1,2,-9,17
1537918918111502,-14,8,1,8,4,5,19,20
1537918918133444,-6,-25,-18,-8,-15,-30,-8,-18
1537918918133444,6,-7,-5,0,4,3,51,54
1537918918133444,-14,4,5,-1,6,25,-63,-47
1537918918133444,1,2,-7,8,5,7,23,-9
1537918918147407,7,1,13,10,9,19,-12,22
1537918918147407,-16,-10,-16,-11,-5,42,8,22
1537918918155385,-7,-4,-5,-8,-8,-99,-34,-10
1537918918155385,12,1,-8,-1,3,76,23,-1
1537918918170345,-3,2,-5,-14,-16,-5,6,-21
1537918918170345,1,-10,-9,-1,-17,-3,5,30
1537918918171343,-3,-1,1,2,6,-3,-20,-6
1537918918171343,0,0,-5,-1,-2,-43,-25,-1
1537918918193284,1,6,3,6,7,-11,72,4
1537918918193284,-10,-6,-2,12,25,52,1,0
1537918918193284,10,-2,5,3,19,8,-10,19
1537918918193284,-7,-1,-7,-24,-85,-82,-28,-8
1537918918207247,5,1,-11,-5,-11,27,14,14
1537918918207247,-4,-2,0,-2,-1,-27,4,-16
1537918918215225,6,2,-2,3,12,21,-1,25
1537918918215225,1,2,1,9,31,29,6,-3
1537918918230185,0,-2,0,-3,-10,-12,-24,12
1537918918230185,1,-1,0,0,5,-13,-8,9
1537918918231183,-4,-2,4,4,-2,13,44,3
1537918918231183,1,0,-6,-1,3,2,-15,2
1537918918253124,3,2,-2,-7,-9,-7,22,2
1537918918253124,-13,7,-6,4,12,-7,-4,13
1537918918254121,5,8,1,-4,-9,7,9,-13
1537918918254121,-6,-15,-6,-2,-1,-7,6,15
1537918918267086,-9,-1,-8,-2,4,13,3,-17
1537918918267086,1,-11,7,-2,1,-14,-5,10
1537918918275065,-1,9,-1,-1,-5,9,3,-6
1537918918275065,-7,1,-2,0,6,6,3,-7
1537918918290025,11,-2,0,-1,-7,-37,-29,12
1537918918290025,3,0,-3,4,11,16,43,-2
1537918918291022,-3,-5,-1,0,-3,24,-5,-3
1537918918291022,4,2,-5,-4,15,-49,27,-10
1537918918312964,-4,-2,0,-9,-29,53,-8,-4
1537918918312964,-1,-2,-5,-1,-9,-18,-8,1
1537918918313962,4,-2,0,2,5,7,-7,5
1537918918313962,-1,0,-3,1,22,12,11,3
1537918918326926,1,2,3,6,21,7,-6,-3
1537918918326926,0,-5,-3,-2,-15,-35,-22,5
1537918918335903,1,-1,2,3,13,30,26,-5
1537918918335903,1,2,-3,-6,-20,-22,-25,-4
1537918918351860,-1,-2,0,0,12,0,4,0
1537918918351860,2,-1,3,7,15,0,4,3
1537918918352857,-4,-3,-1,-1,-16,-39,-15,-7
1537918918352857,7,5,2,-1,-6,49,30,9
1537918918372804,2,1,0,-7,-24,-35,5,-2
1537918918372804,-4,-4,-5,-5,-1,12,-8,-6
1537918918373801,-1,-1,-2,1,19,-19,-2,-6
1537918918373801,8,-2,-2,-2,-3,-8,-11,16
1537918918387764,0,0,1,1,-3,20,6,-4
1537918918387764,2,0,-2,-2,-1,-9,-17,1
1537918918395742,1,-3,-2,-4,-6,0,26,1
1537918918395742,-14,-1,2,5,10,10,-9,-19
1537918918410703,5,-1,-1,0,6,-8,11,11
1537918918410703,0,-1,-2,-4,-5,-5,-6,2
1537918918410703,10,0,-4,-7,-16,-1,-10,15
1537918918410703,-6,-3,1,3,2,1,-5,-9
1537918918432644,2,0,0,-1,-1,-5,-9,5
1537918918432644,-6,-3,2,6,17,9,12,-5
1537918918433641,-8,3,9,33,89,-1,-2,-9
1537918918433641,0,3,-5,-19,-76,-22,20,9
1537918918448601,-3,-8,-10,-25,3,-37,-16,4
1537918918448601,-4,-1,-1,-4,20,104,9,-11
1537918918462564,-4,-2,-2,-15,-67,-85,-21,-13
1537918918462564,4,2,9,29,74,21,-11,9
1537918918470542,-2,1,-3,-15,-64,44,13,2
1537918918470542,-10,2,7,25,75,-85,-1,-25
1537918918471540,7,-3,-11,-17,-7,79,-5,-20
1537918918471540,-1,-6,-13,-21,-42,-70,-51,32
1537918918492484,-5,0,-4,-20,-54,43,53,-8
1537918918492484,20,5,0,5,20,-45,0,23
1537918918493481,9,0,-1,0,10,-4,-17,11
1537918918493481,-4,0,7,23,20,4,-6,-38
1537918918507444,-5,0,4,11,44,-13,-20,-7
1537918918507444,4,0,-3,-6,-29,16,-12,21
1537918918515423,1,-14,-8,-12,7,-40,1,7
1537918918515423,-13,-5,1,-15,2,63,14,-23
1537918918530382,-3,0,7,39,82,-3,-16,11
1537918918530382,-29,10,1,15,-15,60,33,-41
1537918918531380,19,-23,-12,-12,-8,-45,-15,43
1537918918531380,18,9,-9,-37,-76,9,27,-7
1537918918553321,-12,-1,11,27,39,47,1,-40
1537918918553321,19,-1,-6,-10,-5,-35,17,66
1537918918553321,-20,-2,7,-9,-28,15,23,-49
1537918918553321,-2,16,8,25,45,-28,24,11
1537918918567284,0,-30,7,19,28,-2,-22,-23
1537918918567284,23,26,-26,-15,7,-37,-27,21
1537918918575262,-12,-17,15,5,-16,9,23,-7
1537918918575262,-7,-30,-4,34,76,115,30,13
1537918918590222,-27,-8,-19,-38,-116,-126,-18,-30
1537918918590222,38,1,16,-22,2,39,-40,1
1537918918591220,-14,30,4,-10,-16,75,13,-52
1537918918591220,31,-16,-1,14,-5,-14,-32,4
1537918918613161,-28,8,-5,19,88,17,-36,18
1537918918613161,-39,-36,-13,-22,-78,-45,39,26
1537918918614159,50,18,10,9,33,17,-27,31
1537918918614159,26,8,9,36,8,-1,6,6
1537918918627124,-4,-1,-15,-49,-4,-18,-27,29
1537918918627124,2,0,-3,-27,-27,-4,-25,0
1537918918635102,-14,-6,-6,-6,-38,2,28,-18
1537918918635102,-35,69,3,-1,-18,-4,-29,-9
1537918918650062,47,-5,43,37,16,-4,41,34
1537918918650062,-54,-23,-41,25,23,71,-13,-82
1537918918651060,-15,-1,3,28,44,-46,44,-7
1537918918651060,-4,-39,-39,-67,-24,-25,-1,16
1537918918673001,10,52,28,29,5,-17,-14,8
1537918918673001,10,-11,7,-28,23,6,-8,-33
1537918918673999,-27,-11,-15,-22,-91,-13,-22,-28
1537918918673999,-15,4,-3,-17,-3,-30,-23,-9
1537918918695940,-13,-13,-1,-8,-10,23,43,-5
1537918918695940,33,12,21,29,3,-20,-3,44
1537918918696937,2,-4,-1,48,34,-16,-56,16
1537918918696937,-9,-11,3,-40,62,29,16,0
1537918918710900,14,1,-13,-13,-74,-10,-13,7
1537918918710900,-8,4,3,23,-4,-26,6,-9
1537918918710900,1,12,5,-18,20,-10,16,16
1537918918710900,-16,-11,2,7,-16,29,6,-42
1537918918732842,17,-1,-13,7,-1,-31,-10,7
1537918918732842,2,3,9,-5,8,-14,-17,-15
1537918918733839,-4,-3,-5,-9,-2,33,12,16
1537918918733839,-2,-4,6,18,-4,-10,11,0
1537918918755780,-4,-3,-11,-10,20,24,-21,-16
1537918918755780,-5,-3,3,-6,-31,-18,11,5
1537918918756778,7,3,-2,-4,12,-31,-11,5
1537918918756778,2,1,-2,8,-4,14,-4,5
1537918918770740,0,2,-5,-12,-11,2,2,-5
1537918918770740,0,-3,0,1,6,3,2,5
1537918918770740,-2,2,-3,5,-4,-2,18,7
1537918918770740,7,1,3,-4,1,-5,-14,0
1537918918792682,-4,-6,-6,-4,0,-10,6,-2
1537918918792682,-5,0,-1,0,-5,2,15,-2
1537918918793679,0,0,-3,-4,8,23,-11,6
1537918918793679,3,-3,-1,2,-32,-60,-3,5
1537918918816617,3,-1,-2,-3,16,27,5,-3
1537918918816617,-4,1,0,2,0,8,-2,-2
1537918918816617,2,2,1,-7,-8,5,-15,2
1537918918816617,5,-2,3,4,4,-14,2,2
1537918918830580,-9,0,-3,7,11,9,4,-4
1537918918830580,4,0,1,-5,-4,-10,1,7
1537918918831578,9,-1,0,0,-1,-1,3,12
1537918918831578,-1,-1,0,3,8,-7,1,-5
1537918918852522,-1,-5,-4,-8,-15,-31,-6,-7
1537918918852522,-5,-2,2,4,1,45,8,4
1537918918853519,-2,-3,-5,-6,-2,-5,-20,-10
1537918918853519,2,2,1,1,0,-4,4,2
1537918918876457,-1,0,2,2,6,9,-4,0
1537918918876457,-3,-2,-2,0,-4,-41,-13,-2
1537918918876457,-1,1,-1,1,8,55,14,0
1537918918876457,-1,-1,0,1,-2,-11,-5,9
1537918918890420,-2,0,-2,1,1,6,10,0
1537918918890420,1,0,0,-3,-7,-7,-8,-9
1537918918891418,0,-1,-1,-2,-4,-19,-9,0
1537918918891418,-10,0,2,4,5,8,-1,-9
1537918918913359,4,0,-3,-1,4,-8,4,3
1537918918913359,2,-1,-2,-6,-13,3,11,1
1537918918913359,0,0,-2,-5,-6,-59,-2,10
1537918918913359,-2,-2,1,0,5,73,20,-3
1537918918936297,0,-3,-3,-3,-2,-14,-15,-5
1537918918936297,-5,0,-3,-4,1,13,-5,-5
1537918918937295,-6,-1,1,-2,-7,-2,3,-5
1537918918937295,-1,0,1,3,5,-29,-9,3
1537918918950260,2,-2,-1,-3,-11,7,2,2
1537918918950260,3,1,0,0,-6,-12,2,9
1537918918951257,-1,-1,-1,1,3,28,-9,-4
1537918918951257,2,-1,-1,0,-1,-18,-4,2
1537918918973199,-2,1,1,2,9,18,0,-5
1537918918973199,-3,-3,-1,-2,-9,-14,4,-3
1537918918973199,2,3,0,-2,0,-6,-4,7
1537918918973199,-1,-2,-1,0,0,-14,-6,-1
1537918918996138,-4,-2,-3,-2,-5,8,-2,-3
1537918918996138,-2,-1,0,0,3,-3,11,-3
1537918918997135,-2,0,0,0,1,11,6,-2
1537918918997135,-5,-1,-3,-5,-1,8,2,-1
1537918919010100,3,-1,-3,-4,-7,-24,-4,-1
1537918919010100,1,1,0,-1,6,10,-6,-1
1537918919011098,-3,-4,-3,-2,-6,-7,-4,-2
1537918919011098,-1,-2,-3,-4,-9,-4,3,-3
1537918919033039,-6,-2,-1,1,1,8,0,-3
1537918919033039,1,1,-1,2,7,-3,-8,0
1537918919034036,-2,-1,0,3,13,-14,2,-2
1537918919034036,2,-2,-2,-4,-20,9,-17,0
1537918919055977,1,0,0,-4,-6,-3,2,1
1537918919055977,1,0,0,0,-1,10,2,-3
1537918919056975,-2,-2,-3,-4,-2,0,-5,-4
1537918919056975,1,0,0,2,4,-22,1,0
1537918919069941,0,0,0,0,4,27,5,0
1537918919069941,-3,0,0,-2,-2,-11,-10,-4
1537918919070938,1,-1,-1,0,0,1,6,9
1537918919070938,5,1,0,-1,-1,4,6,2
1537918919092879,-8,-3,-2,-2,-4,-7,-4,-9
1537918919092879,-2,-1,0,1,1,4,1,-2
1537918919093876,1,1,-1,0,0,-4,2,2
1537918919093876,-2,-1,-2,-3,-2,-4,-2,-7
1537918919115818,0,0,0,1,1,-3,-1,2
1537918919115818,6,-1,1,2,1,7,4,7
1537918919116815,0,-3,0,-3,-5,3,-3,-6
1537918919116815,2,0,-2,-1,-1,-5,0,5
1537918919129780,-7,-2,-2,0,0,-2,-7,-7
1537918919129780,-5,-2,-5,-2,-2,-3,-4,-9
1537918919137759,4,2,1,0,-5,3,1,6
1537918919137759,0,1,0,-1,0,-7,3,2
1537918919152719,-1,-3,-1,-1,1,-4,-2,-1
1537918919152719,-2,-2,0,-2,0,5,0,0
1537918919153716,-6,-1,-1,-2,-1,-1,-2,-6
1537918919153716,5,-1,0,-1,0,-4,0,3
1537918919175657,2,-2,-2,-2,2,3,-3,-5
1537918919175657,1,0,2,1,1,-7,2,5
1537918919176655,-1,-2,0,1,-2,6,6,1
1537918919176655,-3,-2,-1,-4,-3,-4,-3,-3
1537918919190617,-4,1,1,0,0,0,1,-2
1537918919190617,-4,1,-1,2,1,6,-2,-3
1537918919191615,0,-1,-2,0,0,-7,-9,-11
1537918919191615,-4,-1,-1,-1,0,-1,4,2
1537918919212559,7,0,-3,-2,-3,-2,-2,3
1537918919212559,-1,0,2,1,0,-5,-15,-5
1537918919213556,-5,-2,0,0,-3,1,7,1
1537918919213556,-2,-3,-3,-1,-1,6,12,-4
1537918919235498,-7,-1,1,3,2,-13,36,2
1537918919235498,9,1,-2,0,2,4,9,9
1537918919242479,3,0,0,2,3,6,39,3
1537918919242479,-4,-3,1,0,-1,-1,-25,-1
1537918919250458,0,-2,-5,-3,-2,9,-7,0
1537918919250458,-6,-1,0,-1,0,0,28,-2
1537918919251455,0,0,-1,-3,-2,-4,-22,-5
1537918919251455,-3,-1,-1,-2,-3,-6,-6,-7
1537918919281375,-14,-2,0,-3,-2,5,-7,-12
1537918919281375,29,3,0,4,4,-7,-12,16
1537918919281375,-1,1,-1,0,1,12,74,6
1537918919281375,-5,-4,-1,2,-1,-4,-4,3
1537918919296335,6,1,1,-2,-1,-5,-19,1
1537918919296335,-11,-5,-4,-4,-5,3,-9,-12
1537918919297332,-10,-2,0,-1,-1,-7,-31,-7
1537918919297332,18,2,0,-3,0,-1,-2,5
1537918919310298,4,2,3,2,2,2,11,4
1537918919310298,-5,-2,0,-2,-2,3,-7,-4
1537918919318276,4,1,-2,-2,-4,-7,-17,0
1537918919318276,-23,0,-1,-6,-5,-2,-7,-7
1537918919332239,11,2,0,3,4,4,24,9
1537918919332239,5,-1,-1,-1,1,-1,0,2
1537918919340218,-17,-4,4,8,8,1,-16,-1
1537918919340218,16,2,3,18,50,19,1,-2
1537918919356175,-41,-6,0,11,3,-8,-8,-1
1537918919356175,24,3,-13,-40,-57,-26,-20,-12
1537918919357173,22,9,19,24,5,6,15,40
1537918919357173,-21,-9,4,19,45,-6,6,-2
1537918919370138,-5,-13,-29,-29,-75,-20,-18,-12
1537918919370138,-10,-2,-12,7,2,-19,4,2
1537918919378117,-1,6,39,-11,4,7,-20,-8
1537918919378117,-16,-31,-21,-22,8,7,-5,-21
1537918919393076,-13,-51,-31,-8,-62,-15,-22,-17
1537918919393076,-21,43,-11,-22,-13,51,10,-3
1537918919394074,43,96,55,-14,-62,-24,-4,0
1537918919394074,44,-7,23,100,-26,6,23,39
1537918919416015,-18,-43,9,29,113,71,12,12
1537918919416015,-1,-54,-99,-31,-67,-79,-26,-23
1537918919417012,9,41,62,-36,-56,28,-14,22
1537918919417012,-23,52,-65,-106,-128,-95,20,-13
1537918919429978,-12,-27,-35,-61,47,-22,-3,-32
1537918919429978,4,-1,23,38,64,34,-2,31
1537918919437956,7,-69,-47,-87,23,22,9,34
1537918919437956,5,-16,38,22,-59,-8,-55,-88
1537918919452916,42,31,44,73,68,24,26,115
1537918919452916,-9,7,41,76,119,40,3,-3
1537918919453914,-6,12,-1,84,70,-8,-15,-53
1537918919453914,-10,-10,-7,-3,45,38,17,10
1537918919475855,-10,1,-11,-9,-20,-20,-2,-19
1537918919475855,2,14,23,-6,-21,-18,10,3
1537918919477850,-11,-21,-33,5,-34,-6,-17,-9
1537918919477850,0,-3,1,-18,38,17,9,12
1537918919489818,13,50,8,-11,-40,-8,1,-10
1537918919489818,-3,-11,15,-15,-74,-42,-2,1
1537918919498794,-25,-33,-34,-10,1,4,-1,-28
1537918919498794,-8,6,-3,4,35,-9,-4,6
1537918919512757,18,8,14,14,-6,1,-6,-10
1537918919512757,-2,-9,-3,-26,21,-1,6,6
1537918919520735,-19,-18,-32,-12,-48,-17,-2,-7
1537918919520735,7,6,3,-18,-8,-25,-1,17
1537918919535695,3,6,2,-19,-22,14,-3,-3
1537918919535695,-8,-1,11,8,7,16,6,-10
1537918919537690,18,10,-8,23,62,9,2,7
1537918919537690,1,0,11,17,0,13,5,18
1537918919549658,17,5,8,15,11,-10,-2,-13
1537918919549658,-7,-2,-4,-22,-2,23,2,-8
1537918919558635,-7,-12,-6,11,6,-11,-6,-4
1537918919558635,2,0,0,-2,-1,3,-4,7
1537918919572597,-5,1,-5,-18,-12,-12,-10,-12
1537918919572597,-1,3,9,8,7,6,1,2
1537918919579578,-4,-6,-6,1,-7,-15,1,7
1537918919579578,0,1,-1,-7,0,2,-2,-3
1537918919596534,-1,8,3,4,-2,1,-4,-4
1537918919596534,3,-2,11,6,-7,0,3,7
1537918919597533,-7,-11,-15,-10,0,-7,-1,-7
1537918919597533,-2,9,-4,-7,-1,13,-1,-2
1537918919618476,4,5,2,-3,-3,-6,-3,-1
1537918919618476,-2,-3,-2,-1,-9,-2,-2,-2
1537918919620471,-9,-5,-4,6,7,-2,-2,-5
1537918919620471,6,0,2,2,9,5,0,5
1537918919633435,3,15,1,-2,-8,-8,-1,2
1537918919633435,-5,-18,-1,-2,-1,1,-3,-9
1537918919639419,-5,-3,-4,3,7,0,-2,-2
1537918919639419,2,-4,-1,-5,-2,-2,-1,2
1537918919656374,-1,1,0,-7,-7,-4,-3,-4
1537918919656374,-3,2,-3,3,6,4,1,-1
1537918919657371,-1,-1,-1,-2,-2,-2,-1,-2
1537918919657371,0,-1,-2,-3,-3,0,-2,1
1537918919678314,2,-3,-1,3,0,-1,1,0
1537918919678314,0,3,-1,-2,0,1,-1,-2
1537918919680309,0,-2,-2,-3,-3,-3,-3,0
1537918919680309,-5,-2,0,-3,2,2,-1,-2
1537918919693274,-2,-3,-2,-3,-6,-4,-1,0
1537918919693274,-2,-1,0,1,0,0,-1,-3
1537918919700255,-1,-1,0,0,0,-2,1,-3
1537918919700255,-1,-3,-4,-3,0,0,-1,1
1537918919716213,-1,-2,1,-2,-2,-1,-1,-1
1537918919716213,-2,0,0,-2,-3,1,-1,0
1537918919717210,-2,-1,-1,2,3,3,-1,-4
1537918919717210,-1,0,0,0,2,2,0,-2
1537918919739152,-2,-3,-3,-3,-1,-3,-2,1
1537918919739152,0,3,-1,1,-3,1,-3,-2
1537918919740149,-1,-2,-2,-3,-3,-3,-2,-2
1537918919740149,-1,-2,0,-1,-3,-1,-1,-2
1537918919753115,1,0,0,0,-1,-1,0,1
1537918919753115,2,-1,-3,-2,0,0,-1,-1
1537918919760096,0,-1,-2,-1,-1,-1,0,-1
1537918919760096,-2,-2,-2,-3,-2,-1,0,-3
1537918919776054,-1,0,-1,2,-1,-1,-1,-2
1537918919776054,-1,0,0,0,1,0,-1,-1
1537918919778049,-1,-3,-3,0,-1,-1,-1,0
1537918919778049,-3,-1,1,0,1,1,0,1
1537918919798993,-2,0,-1,1,1,-1,0,-2
1537918919798993,0,0,-2,-6,-5,-2,2,-2
1537918919800988,4,-1,-3,-5,-6,-3,-3,6
1537918919800988,-1,-2,2,-1,3,10,-1,-1
1537918919812956,1,-1,3,4,3,-4,-3,-1
1537918919812956,2,1,0,2,6,-2,-2,2
1537918919819936,-3,-3,-3,-6,-17,-7,-1,-3
1537918919819936,-1,-1,-2,-2,2,1,1,0
1537918919835895,3,-3,-1,-4,-4,0,-1,-1
1537918919835895,-1,-2,0,0,1,2,-2,-2
1537918919837890,-2,0,2,5,6,2,0,-1
1537918919837890,0,-2,0,-1,4,-4,-2,-1
1537918919858832,-5,-2,-1,-1,1,10,1,-5
1537918919858832,-1,-3,-5,-7,-4,-11,-1,2
1537918919859829,-1,0,0,0,-9,-4,-1,-1
1537918919859829,1,0,0,-1,-3,-2,0,3
1537918919872794,4,-2,2,4,4,-1,1,0
1537918919872794,0,1,0,4,7,7,1,-1
1537918919879776,-2,-2,0,3,12,3,-1,-3
1537918919879776,-3,0,-1,-11,-18,-9,-3,-1
1537918919895733,1,-1,-4,-7,2,-2,0,0
1537918919895733,-2,-1,-1,-4,-16,-1,-2,-1
1537918919897728,-1,0,1,3,6,1,1,-1
1537918919897728,0,1,3,7,5,-1,-1,-1
1537918919918671,-3,0,2,2,1,0,0,1
1537918919918671,-1,0,-1,0,2,2,1,1
1537918919919669,-2,0,0,-2,5,-3,0,-1
1537918919919669,1,-2,-2,-3,-9,-1,-2,-1
1537918919932634,-2,0,-1,-5,-8,-2,-3,-1
1537918919932634,-2,1,5,14,11,6,1,0
1537918919941610,5,3,-2,-1,18,3,-1,-4
1537918919941610,0,-1,-7,-17,-20,-18,0,2
1537918919956570,-3,-3,-3,-9,-21,7,0,-3
1537918919956570,-2,-2,2,0,3,6,4,2
1537918919957568,-3,0,5,18,37,31,-2,-2
1537918919957568,0,0,-2,5,25,-27,-2,-1
1537918919978511,-4,-4,-9,-22,-53,-77,-13,-7
1537918919978511,-3,-3,-2,-4,-11,68,-4,-3
1537918919980507,-1,-2,7,13,49,94,13,0
1537918919980507,7,5,4,22,-7,-80,-5,7
1537918919992475,6,2,-7,-24,-57,86,23,12
1537918919992475,-7,-6,-12,-31,-4,25,-15,-13
1537918920001452,-5,-1,-5,-15,-42,-15,-9,-7
1537918920001452,1,-3,1,-6,-18,39,11,6
1537918920016411,-6,6,17,49,86,-48,-4,-9
1537918920016411,6,5,0,6,-25,7,4,8
1537918920017408,-8,-4,-2,0,26,82,1,1
1537918920017408,9,-1,2,36,73,-41,-21,12
1537918920038352,-13,-24,-19,-51,35,57,-12,-26
1537918920038352,20,30,23,34,-47,47,20,25
1537918920040346,-20,-11,-30,-75,-87,-101,5,-28
1537918920040346,16,-9,-17,-35,-21,-77,-22,26
1537918920052314,19,7,-1,-6,52,50,-1,40
1537918920052314,-5,-1,5,18,44,53,-6,-13
1537918920061290,0,12,29,76,89,83,7,-2
1537918920061290,-6,5,0,20,-48,-25,23,-13
1537918920076250,-10,5,-12,-21,56,36,-20,-23
1537918920076250,4,-9,0,-17,-75,-116,1,2
1537918920077247,16,-6,-14,-26,-120,-5,-2,13
1537918920077247,-25,-5,-1,-5,82,71,0,-15
1537918920098191,3,-9,12,27,-14,21,5,-3
1537918920098191,-2,-15,-22,-23,82,-99,-12,0
1537918920100186,-1,-12,-1,-7,26,75,-10,6
1537918920100186,17,25,19,8,-47,-13,22,1
1537918920112154,-14,11,-2,9,-34,-128,1,18
1537918920112154,-10,-25,13,41,111,-1,8,-44
1537918920121131,3,5,-6,-6,24,-91,11,7
1537918920121131,1,4,-17,-52,-79,120,-12,-15
1537918920136090,-5,-13,8,11,-60,43,3,1
1537918920136090,-10,-13,-13,-4,6,-10,1,0
1537918920137088,11,36,24,50,75,10,0,-1
1537918920137088,-21,0,-2,-5,44,0,5,-13
1537918920159030,-6,1,-28,-100,-94,-51,-8,-12
1537918920159030,0,15,-3,-18,-60,21,-8,5
1537918920160027,4,-12,3,5,10,-50,7,3
1537918920160027,5,13,13,46,43,44,-1,4
1537918920171996,1,-7,11,58,64,0,1,-3
1537918920171996,-3,-7,-3,-15,-17,-14,0,9
1537918920180972,-6,3,-5,-3,-13,-43,-14,-1
1537918920180972,-3,-17,-9,-11,-46,5,2,-4
1537918920196931,-2,-1,4,14,32,28,0,-9
1537918920196931,2,4,-5,-15,-20,-9,-3,-7
1537918920202913,3,-1,-2,-8,-11,-22,-5,3
1537918920202913,-8,-16,-3,-2,-1,-8,-7,-13
1537918920218870,7,2,1,3,-5,-12,9,12
1537918920218870,3,12,0,3,-7,16,8,9
1537918920219867,-6,-11,-3,-9,-14,-2,2,-4
1537918920219867,-4,-7,3,-1,25,4,-21,2
1537918920232833,5,8,1,9,-6,7,32,9
1537918920232833,-2,0,1,3,17,-5,-49,-13
1537918920240813,-7,-12,-6,-10,-9,-12,-2,-1
1537918920240813,-3,-8,-1,-1,7,16,60,10
1537918920255771,9,8,0,3,0,-11,-13,-2
1537918920255771,6,17,-6,-7,0,9,3,9
1537918920257766,10,-26,2,-4,-8,-17,-20,4
1537918920257766,-4,1,-4,0,-3,10,11,-4
1537918920278710,-5,-23,6,13,9,-9,-82,-15
1537918920278710,-6,-1,-9,-5,8,11,68,5
1537918920279708,1,1,-7,-6,-18,-5,-5,-9
1537918920279708,3,7,1,0,7,1,61,24
1537918920292673,43,18,15,8,10,-34,-48,4
1537918920292673,10,14,0,-1,6,41,-72,-13
1537918920301648,-37,2,-9,-8,-15,-15,-18,-37
1537918920301648,-6,-23,1,3,7,8,75,12
1537918920316608,-41,-12,2,3,-2,4,-12,4
1537918920316608,47,-27,-21,-1,-1,-15,4,14
1537918920317606,35,18,1,5,3,17,39,22
1537918920317606,-15,9,-7,-6,5,26,-103,-5
1537918920338550,15,-1,5,4,-1,3,51,-15
1537918920338550,-10,10,7,-1,-4,-31,-71,-22
1537918920340544,-15,-24,-4,-4,-5,-2,25,8
1537918920340544,25,9,4,-7,-8,-49,-7,-38
1537918920352512,0,4,1,5,9,40,-2,44
1537918920352512,-42,-27,-9,0,0,15,0,-34
1537918920361488,35,20,-1,-6,-4,-9,-18,19
1537918920361488,-5,6,1,2,-1,-17,-65,-48
1537918920375451,-30,5,-5,0,-1,17,48,-60
1537918920375451,3,6,10,7,9,2,48,51
1537918920382434,-17,9,5,0,-7,-22,-24,-28
1537918920382434,14,-15,-6,0,6,16,35,18
1537918920398389,-5,-4,-6,3,0,-18,-25,-31
1537918920398389,3,8,4,-3,-8,-5,9,1
1537918920400384,-19,-30,0,-3,2,36,7,-6
1537918920400384,-1,9,6,5,5,2,-24,-23
1537918920412352,1,6,-5,-5,-3,7,-19,33
1537918920412352,-6,-2,5,0,-6,-66,14,-1
1537918920421328,-5,0,0,-4,-2,27,-3,-6
1537918920421328,-6,-8,-5,-3,10,22,6,7
1537918920435290,5,-2,-6,-10,-16,-24,25,16
1537918920435290,-4,1,1,-1,-3,8,-10,-15
1537918920442272,-9,-3,-4,-4,6,11,-17,25
1537918920442272,-5,4,1,0,-3,-12,-61,-27
1537918920458229,0,-9,-1,4,9,28,100,5
1537918920458229,2,4,2,2,1,-26,8,3
1537918920460224,4,-4,-3,-2,-4,-18,-1,-28
1537918920460224,-4,7,6,7,10,35,17,69
1537918920472191,0,-5,-3,-1,-7,-52,-48,22
1537918920472191,-9,-8,-3,-3,-3,50,-23,-17
1537918920481168,3,5,-3,-6,-8,-10,8,6
1537918920481168,0,6,1,1,9,-3,-50,-20
1537918920495130,-6,-10,3,13,10,-38,10,-14
1537918920495130,-2,-7,-5,-15,-7,42,33,17
1537918920502112,2,8,0,-5,-27,-25,-9,3
1537918920502112,-8,-7,-3,-10,-14,-24,-2,2
1537918920519066,12,3,0,3,22,49,4,2
1537918920519066,-6,-7,3,10,11,-2,-10,11
1537918920520064,13,-4,2,4,4,-5,-2,2
1537918920520064,-14,-20,-8,-6,-11,3,-21,-53
1537918920532032,40,59,8,3,-1,-2,1,-9
1537918920532032,-16,-10,-4,-3,-1,-7,-3,-26
1537918920541008,1,-4,2,6,8,3,-3,28
1537918920541008,6,-8,-1,1,-3,-24,14,-3
1537918920554970,-9,-16,-6,-5,-5,20,19,2
1537918920554970,-4,1,0,0,0,2,-26,-4
1537918920561952,1,14,-2,0,1,-4,20,-12
1537918920561952,-2,-1,2,1,-2,7,-9,-1
1537918920578907,-10,-8,-4,-5,-6,1,-19,-2
1537918920578907,6,11,3,3,1,-7,3,14
1537918920579905,-6,-6,0,1,-1,0,21,-4
1537918920579905,-5,-1,-2,0,2,1,2,13
1537918920600848,2,-4,-2,-5,-2,1,-2,6
1537918920600848,1,0,0,0,7,8,2,2
1537918920602843,1,2,-1,1,-5,5,-9,-3
1537918920602843,-1,-2,-3,-5,-13,-26,14,19
1537918920615809,-5,-1,-3,-6,-29,-23,13,2
1537918920615809,0,-2,-2,-3,-2,16,8,-6
1537918920629773,-4,-1,-1,-1,4,-18,-6,-15
1537918920629773,6,6,2,2,7,3,19,20
1537918920638748,-8,-7,0,3,11,30,-4,-5
1537918920638748,8,0,1,-1,0,-11,8,15
1537918920639746,-5,0,-1,1,2,-18,-28,-10
1537918920639746,0,1,-2,-2,-1,-1,-4,1
1537918920662683,-5,-3,1,1,3,-26,-19,-9
1537918920662683,-1,6,-2,-2,-6,11,2,-2
1537918920663681,-3,-12,-1,-2,2,16,9,9
1537918920663681,4,-2,3,1,-1,-6,7,-3
1537918920675648,-12,-11,7,-1,-2,9,-8,-1
1537918920675648,1,-2,-11,-2,-7,-25,-11,-5
1537918920682629,-7,0,-4,-3,-4,17,-5,10
1537918920682629,7,12,20,2,1,-26,-19,-8
1537918920698587,-3,-10,-16,-2,11,60,6,-4
1537918920698587,-5,-3,-2,-1,-8,-33,8,4
1537918920699584,3,-2,-4,-4,-10,-23,-18,22
1537918920699584,-8,-4,-8,-4,-2,41,-15,4
1537918920721525,10,13,9,-1,-4,-1,27,-26
1537918920721525,-15,-6,4,1,1,-12,-13,9
1537918920722523,1,4,0,3,7,-15,27,6
1537918920722523,-3,-2,-2,0,3,7,-32,-13
1537918920734490,-5,-2,-2,1,5,-17,20,22
1537918920734490,3,3,-4,-6,-12,-7,18,-5
1537918920743467,-2,3,3,1,1,27,-28,-7
1537918920743467,-5,-1,-2,-1,1,18,20,-3
1537918920758427,-3,-3,-4,-1,-4,-29,-10,-11
1537918920758427,2,-2,4,2,3,2,-23,-11
1537918920760421,2,13,-3,1,-1,-3,15,0
1537918920760421,-1,-10,-3,-1,-2,-12,29,-8
1537918920781365,-5,-17,-4,1,-3,2,-23,9
1537918920781365,-1,0,1,0,0,2,-11,1
1537918920787350,1,2,-1,-1,3,-3,2,-19
1537918920787350,-2,-2,-5,-2,1,20,0,-5
1537918920794331,0,5,0,-3,-6,-36,-14,9
1537918920794331,8,-2,3,-5,-6,-7,-30,-9
1537918920803308,-8,-3,-4,4,6,17,-15,13
1537918920803308,0,1,-2,-1,-4,-6,36,-10
1537918920818268,7,14,3,-3,-3,18,-9,26
1537918920818268,-2,3,3,3,8,-6,16,-11
1537918920820263,-8,-9,-7,-5,-5,-8,-21,-12
1537918920820263,5,0,0,1,0,8,10,13
1537918920841207,-11,-7,3,1,3,-3,-30,-12
1537918920841207,-4,1,2,1,-2,9,32,2
1537918920842205,7,5,-5,0,1,-36,9,-12
1537918920842205,0,-2,1,-2,2,56,-3,2
1537918920855169,5,0,-3,-2,-7,-8,18,13
1537918920855169,-1,0,-1,-2,-1,-16,14,20
1537918920862151,-5,-5,5,1,3,10,25,-21
1537918920862151,-4,2,-3,1,7,1,-23,24
1537918920879105,0,6,-1,2,2,21,5,-38
1537918920879105,2,-3,-3,-2,-3,0,-3,9
1537918920880104,4,2,2,-2,-7,3,-11,0
1537918920880104,3,-5,-5,-1,-4,-29,-3,9
1537918920909025,-3,-4,0,-2,2,2,-1,-3
1537918920909025,1,1,-3,0,0,-13,2,-4
1537918920910023,-2,-26,-5,-4,-1,34,4,-1
1537918920910023,-7,10,1,-1,-1,-58,-23,-14
1537918920915009,5,4,0,2,0,49,29,22
1537918920915009,-1,1,-2,-1,3,-38,-35,-27
1537918920923984,-1,0,3,5,-2,38,21,7
1537918920923984,2,-2,0,-1,-1,18,44,-9
1537918920945925,4,0,-2,-5,-10,-30,-33,14
1537918920945925,6,-1,-2,0,-8,0,17,37
1537918920947920,-2,4,1,-6,-5,-10,-10,-10
1537918920947920,-9,-6,-3,0,1,-22,-31,-20
1537918920960885,0,1,-4,0,4,-2,-38,-21
1537918920960885,3,-4,0,-1,5,19,10,-4
1537918920962880,2,1,3,0,1,-23,-20,7
1537918920962880,3,4,9,-2,-6,20,38,13
1537918920974848,-6,-5,-14,-2,3,-24,-9,-9
1537918920974848,2,-3,-1,-3,-7,21,-36,-6
1537918920983824,-1,4,0,0,2,-29,1,-6
1537918920983824,6,17,4,1,-5,39,10,31
1537918920998784,-8,-22,-2,0,4,-23,30,-2
1537918920998784,0,-2,-3,0,2,26,50,26
1537918920999781,2,1,-3,-2,-2,-5,-16,-1
1537918920999781,-1,-2,-2,-3,-6,-29,-13,-3
1537918921020725,-4,9,4,1,4,2,-9,-4
1537918921020725,-4,-2,-4,1,7,16,2,-21
1537918921022720,0,0,2,-3,1,4,-6,-2
1537918921022720,2,-18,-7,-3,-8,-8,0,8
1537918921034688,-6,6,3,-1,-3,-2,-20,-14
1537918921034688,4,-5,1,1,0,-46,-13,-5
1537918921043664,4,8,1,2,9,82,15,9
1537918921043664,2,-5,-1,2,-1,-39,-17,-13
1537918921058624,2,-3,-1,-2,-1,15,-2,-2
1537918921058624,-8,0,0,-1,4,21,0,-4
1537918921059622,0,-4,-4,-5,-17,-38,19,-13
1537918921059622,3,2,-1,0,1,-13,-11,1
1537918921081563,-12,-6,0,-3,-7,11,-10,3
1537918921081563,-2,4,2,2,6,1,31,17
1537918921082561,1,0,1,2,5,1,14,2
1537918921082561,1,-4,-4,-3,-6,-14,-6,6
1537918921094529,-2,4,0,-3,-8,-16,0,-8
1537918921094529,-2,-2,-2,-2,-4,14,-9,-24
1537918921103505,-16,-7,-1,-1,0,-9,11,6
1537918921103505,-2,1,-2,-2,1,-1,3,-12
1537918921119462,1,0,2,2,6,-3,0,9
1537918921119462,-1,2,1,0,0,46,-6,-13
1537918921121457,-4,-2,-2,1,2,-30,-6,6
1537918921121457,1,1,-1,0,1,15,-3,-4
1537918921141403,5,2,-1,-2,-10,-16,15,7
1537918921141403,-6,-6,-1,-2,-4,4,-3,-8
1537918921142401,9,4,1,2,5,-19,-27,10
1537918921142401,-6,-4,0,0,-5,-5,8,-4
1537918921154368,-6,2,-1,-1,9,17,-22,-22
1537918921154368,14,3,1,2,-1,-3,5,9
1537918921163345,-2,-5,1,0,-8,-45,-17,3
1537918921163345,-4,-2,-2,-1,2,50,-6,-2
1537918921178305,-3,3,-1,0,-7,3,19,3
1537918921178305,-5,-7,-2,1,1,-31,-35,-2
1537918921180300,10,16,3,0,7,29,16,-9
1537918921180300,5,5,0,-2,-4,-26,0,16
1537918921201244,-4,-1,-1,1,5,-11,-6,-9
1537918921201244,13,4,-1,-4,-1,23,-23,9
1537918921202241,-8,-7,-2,-2,-7,-8,4,4
1537918921202241,-4,-2,0,-1,-2,0,1,-8
1537918921215207,-11,-9,1,2,1,1,5,-2
1537918921215207,10,6,-1,-1,-7,-38,15,5
1537918921223185,-3,-6,-3,-3,-2,29,-6,1
1537918921223185,-1,1,0,2,9,22,40,12
1537918921238145,0,-5,0,-3,-4,-4,-23,5
1537918921238145,-7,-4,-2,0,-1,8,28,-5
1537918921240140,3,1,-3,0,0,-12,-4,4
1537918921240140,-4,0,-2,0,-7,-44,-16,-18
1537918921261084,12,2,0,-2,-1,28,-19,29
1537918921261084,-4,-1,0,-3,-8,10,67,6
1537918921263078,-5,1,0,0,-2,-4,-5,-9
1537918921263078,-10,-3,0,-1,6,21,-14,-19
1537918921275046,10,2,0,0,-1,0,21,-7
1537918921275046,-3,-1,0,-2,-5,-19,-33,8
1537918921284024,-3,-4,-1,0,0,-9,9,7
1537918921284024,-4,-4,-1,0,-3,-32,-9,-9
1537918921298983,12,2,-3,0,6,35,-10,15
1537918921298983,-9,1,1,0,3,8,-8,-9
1537918921299981,4,0,0,-1,-2,-8,4,-4
1537918921299981,-1,6,-4,-2,-4,-11,-13,6
1537918921320923,-8,-14,0,1,-2,-15,15,-9
1537918921320923,-17,-4,0,1,2,5,1,-11
1537918921322918,14,5,0,0,0,2,-8,0
1537918921322918,-4,10,-1,1,0,8,2,1
1537918921343862,4,1,-1,-2,-2,-9,6,2
1537918921343862,-8,-7,-2,-2,-1,-1,-11,-6
1537918921344859,1,-1,1,-1,2,1,10,4
1537918921344859,13,-1,-1,-2,-1,8,-4,8
1537918921358822,-5,3,0,3,-1,-5,6,-9
1537918921358822,5,1,-2,0,-2,-9,1,2
1537918921359819,-8,-2,-3,-1,-1,3,-27,7
1537918921359819,11,2,3,1,0,15,33,20
1537918921380764,-6,-6,-4,-3,-4,-18,1,-18
1537918921380764,16,1,2,3,0,-3,-16,8
1537918921382759,-14,-16,-3,-4,-6,-33,17,10
1537918921382759,-24,-18,-1,-2,1,39,-12,-9
1537918921394727,-5,3,2,3,5,14,-5,-15
1537918921394727,6,1,-2,-1,-2,-26,-15,5
1537918921403702,1,1,0,4,4,24,-11,-14
1537918921403702,8,-5,-3,-3,-13,-107,-5,1
1537918921418662,2,4,-2,-1,8,91,10,-4
1537918921418662,-8,-6,0,-1,1,-80,-15,-4
1537918921419659,1,6,3,2,4,115,-15,-14
1537918921419659,0,0,-3,-4,-2,-18,40,17
1537918921440603,4,1,0,0,-4,-2,-32,7
1537918921440603,3,3,1,2,7,15,45,-3
1537918921442598,-10,-6,-2,-6,-13,-48,-35,-3
1537918921442598,9,7,1,-2,-1,12,-18,1
1537918921454565,-2,-8,-3,-4,-7,-21,32,8
1537918921454565,-5,-2,-1,-2,0,16,-1,-4
1537918921463542,2,6,0,1,2,2,0,-1
1537918921463542,-5,-12,-2,0,0,15,-2,4
1537918921478502,-2,0,0,-2,-3,-29,2,4
1537918921478502,-4,-2,-2,0,0,16,-33,-13
1537918921480497,4,4,-1,0,4,-22,30,0
1537918921480497,-2,1,0,3,10,0,-52,-9
