timestamp,emg1,emg2,emg3,emg4,emg5,emg6,emg7,emg8
1537907627051933,1,5,11,0,-1,0,-2,-1
1537907627051933,-2,1,-8,-1,0,0,1,0
1537907627060909,0,5,-1,0,-1,0,-1,0
1537907627060909,-4,-10,19,1,-1,0,-2,-1
1537907627062904,0,8,-30,-4,1,-1,0,-2
1537907627062904,3,2,9,0,-1,-2,0,0
1537907627063901,0,-3,0,-2,-1,-1,0,-1
1537907627063901,1,0,2,-3,-1,0,0,-1
1537907627064899,-1,2,9,3,0,-1,0,-1
1537907627064899,-2,-3,4,-2,0,-1,-1,-1
1537907627079859,-1,-1,-15,-3,-4,0,0,-2
1537907627079859,0,3,-13,6,3,0,-1,0
1537907627089832,-2,-10,-2,-5,-1,0,0,0
1537907627089832,0,8,-6,-4,0,-1,-1,-1
1537907627102798,-1,-7,15,2,-1,1,-1,-2
1537907627102798,-1,8,-1,-3,-2,-1,-1,-1
1537907627109779,1,0,-22,0,0,1,0,1
1537907627109779,-3,-26,7,2,-1,-1,-3,0
1537907627125737,0,5,-3,-4,0,-1,0,0
1537907627125737,-1,4,1,2,0,0,0,-2
1537907627125737,-2,7,27,4,0,-1,-2,-1
1537907627125737,-1,-3,-7,-1,-3,-1,-1,-1
1537907627172613,1,-2,-2,-7,1,0,-1,-1
1537907627172613,-1,-1,6,9,-4,-3,-1,-1
1537907627173610,-1,-4,1,3,1,0,0,-2
1537907627173610,1,1,-10,-4,-3,-3,-1,0
1537907627174608,1,0,3,8,4,1,-2,0
1537907627174608,-3,-4,-9,-12,-5,-1,0,-1
1537907627177598,-1,-3,-10,-2,2,0,-1,0
1537907627177598,0,-4,28,-4,-6,-3,0,1
1537907627184580,-1,1,-1,0,-1,1,2,-1
1537907627184580,0,5,2,-1,-1,1,-1,0
1537907627192559,-1,2,-3,4,2,1,-2,-1
1537907627192559,-4,-14,-6,-1,0,-1,-1,-2
1537907627199540,1,5,1,0,0,-1,0,0
1537907627199540,0,-2,-1,3,0,-1,0,-1
1537907627223478,-1,1,-10,4,3,0,-2,-1
1537907627223478,0,1,-5,-7,-5,-2,-2,-2
1537907627224474,-3,5,-6,0,1,-1,0,-1
1537907627224474,-3,-14,-12,-7,-1,-1,-2,-2
1537907627236440,-1,-5,33,6,-4,0,-1,-3
1537907627236440,-1,3,-12,2,2,0,-1,-2
1537907627245416,-1,1,-48,1,0,-1,0,-1
1537907627245416,3,8,17,-7,0,-1,2,1
1537907627260376,1,4,10,6,1,1,2,0
1537907627260376,-2,2,29,12,3,2,-1,0
1537907627262371,-2,-14,-33,-3,-8,-6,-2,-1
1537907627262371,-1,18,11,-10,-1,0,-3,0
1537907627283315,-3,-4,-25,-6,-1,-2,-2,-2
1537907627283315,3,13,8,-5,3,-1,1,0
1537907627284313,-2,-9,-15,18,6,2,-1,-3
1537907627284313,-2,-6,27,-46,-14,-3,-1,-1
1537907627305256,1,2,-8,15,0,-2,-2,0
1537907627305256,-1,2,-8,-19,8,5,1,-3
1537907627307251,-2,-4,5,27,-3,2,-1,-2
1537907627307251,-7,-7,59,65,1,-5,-5,-7
1537907627321214,4,1,-84,-67,-8,-2,3,3
1537907627321214,-7,-15,38,60,-16,-15,-10,-5
1537907627322212,2,17,74,-4,17,2,1,3
1537907627322212,7,-13,-80,-28,-23,-1,3,4
1537907627343156,-6,-10,96,14,21,7,1,-3
1537907627343156,1,-4,-89,12,-10,0,-1,0
1537907627345151,-1,-4,127,25,-8,-1,-3,-4
1537907627345151,4,14,-54,8,26,11,4,3
1537907627366094,1,7,-7,-4,-17,-9,-3,-2
1537907627366094,0,-5,27,66,55,13,4,0
1537907627367093,-4,0,42,-8,-3,-13,-1,-1
1537907627367093,2,-15,-85,-50,-27,-6,1,0
1537907627380057,-2,14,38,58,-4,-4,-4,-4
1537907627380057,7,10,27,-97,-45,-13,-1,5
1537907627387038,-1,-7,-69,29,23,9,0,2
1537907627387038,-2,-3,107,-1,7,-3,-1,-1
1537907627402996,2,-7,-28,-25,3,6,5,4
1537907627402996,-4,-9,-111,-28,-5,1,0,-3
1537907627404991,-5,-12,12,29,1,-4,-6,-6
1537907627404991,1,16,45,20,11,1,1,0
1537907627425935,1,-15,-19,-49,14,13,5,3
1537907627425935,-2,3,34,-8,-33,-13,-6,-2
1537907627426932,0,7,-41,-76,-2,3,-1,-3
1537907627426932,-10,-14,59,44,-3,-5,-6,-7
1537907627439897,4,7,-38,19,26,9,5,4
1537907627439897,-5,-23,33,-55,-22,-10,-6,-5
1537907627447876,3,-1,56,75,5,3,2,2
1537907627447876,1,16,42,-16,-6,3,-2,-1
1537907627462836,2,14,43,-17,-3,5,2,1
1537907627462836,1,-4,-4,43,60,16,6,1
1537907627464830,-1,11,38,-42,-48,-14,-6,-2
1537907627464830,-1,-10,13,55,18,7,2,1
1537907627485773,-2,-2,-35,-46,-20,-10,-6,-4
1537907627485773,0,31,26,-2,7,5,-2,-2
1537907627486771,-9,-21,62,15,-24,-13,-4,-6
1537907627486771,7,5,-48,31,50,18,7,8
1537907627499736,-4,-10,24,-19,-17,-9,0,-2
1537907627499736,-5,5,112,7,-24,-9,-3,-7
1537907627508713,2,-19,-128,-31,20,10,7,5
1537907627508713,-5,-7,-37,-46,-16,-14,-4,-3
1537907627523673,2,8,19,25,7,-2,-2,-1
1537907627523673,-12,-27,-27,7,0,0,-4,-6
1537907627530653,7,28,44,0,8,3,3,4
1537907627530653,-2,21,-10,14,-14,-6,-1,-3
1537907627553593,-1,-16,-23,1,5,4,-4,-3
1537907627553593,0,9,80,65,5,-5,1,0
1537907627554591,-5,-10,-40,-44,-37,-7,-3,-4
1537907627554591,-4,2,-104,3,8,0,1,-2
1537907627559577,10,-2,22,50,9,2,4,5
1537907627559577,2,-2,46,-16,-9,-2,-4,1
1537907627568555,-4,16,-56,2,17,4,1,-1
1537907627568555,2,-23,-40,-7,5,2,3,5
1537907627582516,-7,-10,-33,-14,-28,-15,-8,-4
1537907627582516,5,-1,-20,11,16,6,7,5
1537907627590495,-6,-15,63,9,6,4,-1,-3
1537907627590495,0,9,-55,-23,-11,-4,-4,-4
1537907627605455,0,16,56,9,3,-2,-1,0
1537907627605455,0,0,13,1,-1,-3,-1,-2
1537907627607450,-3,-13,-46,-23,1,-1,-1,-4
1537907627607450,-2,10,-2,-28,-12,-7,-3,-3
1537907627619418,0,1,43,45,7,5,1,0
1537907627619418,4,5,-37,-6,-3,0,0,2
1537907627628395,4,3,22,-7,1,1,1,1
1537907627628395,1,-11,46,15,6,4,-1,0
1537907627643353,-4,-4,-64,-33,-15,-7,-3,-2
1537907627643353,-2,12,-15,-15,-1,2,2,0
1537907627644352,1,-20,-39,13,8,1,1,0
1537907627644352,-2,-6,44,1,-4,-2,-2,-3
1537907627673272,-4,2,28,8,-4,-2,-2,-3
1537907627673272,-1,-5,-52,-26,1,2,0,0
1537907627674270,2,4,2,-3,-3,-1,0,1
1537907627674270,-2,-4,24,1,-6,-5,-3,-3
1537907627679256,0,4,14,0,2,0,1,0
1537907627679256,1,-5,-31,-8,2,2,1,2
1537907627688232,0,6,5,-8,-3,-2,-1,1
1537907627688232,-2,-2,20,7,-6,-4,-3,-1
1537907627703192,-2,-4,-4,-4,-2,-3,0,-2
1537907627703192,-1,-2,-5,3,5,2,-1,-2
1537907627704190,0,6,4,2,2,-1,-1,0
1537907627704190,0,-3,9,-7,-4,-3,-2,-1
1537907627726131,-3,-10,-6,-6,-2,0,-1,-3
1537907627726131,0,1,-8,1,-1,-2,0,-1
1537907627727128,-1,-4,3,-1,4,1,1,-2
1537907627727128,-2,-5,3,-3,-1,-1,0,-1
1537907627739096,-3,-4,6,-4,-6,-1,-2,-2
1537907627739096,-1,1,0,2,0,0,-1,1
1537907627748072,-1,9,-14,-4,-6,-1,-2,1
1537907627748072,-2,-2,12,5,3,2,0,-2
1537907627763032,0,1,6,0,3,2,0,-1
1537907627763032,0,-2,26,7,-4,-2,-3,1
1537907627765027,-1,-14,-33,-22,-18,-7,-4,-2
1537907627765027,2,-5,5,3,-4,-3,-2,1
1537907627785972,-2,-4,2,2,-3,-2,-1,-1
1537907627785972,-1,-4,-4,-16,6,4,1,-1
1537907627786970,1,-2,4,12,3,2,2,-2
1537907627786970,0,6,36,13,1,-1,-3,-2
1537907627798939,-1,3,-11,-12,3,-1,1,0
1537907627798939,0,11,-10,3,-3,-1,0,-1
1537907627807914,0,12,-2,-2,5,0,-1,-2
1537907627807914,-3,4,-5,-10,-2,-1,-1,-2
1537907627822875,0,5,1,9,-3,-4,-3,1
1537907627822875,-1,4,-15,-4,-5,-2,-1,0
1537907627824869,0,5,12,-3,2,1,0,-1
1537907627824869,-3,0,-4,-2,2,1,1,0
1537907627845812,-1,1,0,-8,-4,-1,0,0
1537907627845812,-1,-4,15,-6,-14,-6,-4,-2
1537907627846810,0,2,-19,6,5,2,1,1
1537907627846810,4,10,22,3,5,3,1,2
1537907627867754,-2,-4,0,10,22,6,1,0
1537907627867754,0,1,1,-15,-28,-9,-2,-2
1537907627868751,-4,-6,14,6,1,-4,-3,-2
1537907627868751,1,3,-2,-11,0,1,0,0
1537907627882713,-2,-2,6,5,-8,-4,-2,-1
1537907627882713,1,-4,-6,0,14,8,2,1
1537907627883710,1,1,14,-5,-1,-3,-2,0
1537907627883710,-5,-8,-32,-8,-10,-3,-3,-3
1537907627904654,1,-2,-7,3,4,0,-1,-1
1537907627904654,-3,-3,-10,6,5,0,0,1
1537907627905652,0,-2,-1,-3,-4,0,1,-1
1537907627905652,-3,-3,14,0,1,0,-2,-1
1537907627935571,0,3,8,2,-4,-1,-1,-2
1537907627935571,-1,-3,-12,4,3,1,-2,-2
1537907627936569,-1,2,4,1,0,0,0,-1
1537907627936569,0,-1,4,2,2,2,1,0
1537907627942553,-1,-2,-14,-6,-7,-3,-1,-1
1537907627942553,-1,-3,-6,1,2,0,0,-1
1537907627943550,-1,2,5,-1,2,1,0,2
1537907627943550,-1,-3,-10,-9,-6,-3,0,-2
1537907627965491,-1,-5,-1,0,-2,-1,0,-1
1537907627965491,0,0,38,0,4,1,0,-1
1537907627965491,0,-3,-36,20,5,0,-1,-2
1537907627965491,-1,-2,-14,-31,-16,-6,-3,-1
1537907627987432,0,-1,-30,-8,-4,-2,-3,-1
1537907627987432,0,1,20,6,4,1,0,0
1537907627988430,-1,0,16,-6,-8,-2,-2,-1
1537907627988430,0,-4,1,8,1,-1,1,-1
1537907628002392,-1,-1,2,0,2,-1,-2,0
1537907628002392,-4,-3,-14,1,3,1,1,-1
1537907628003390,0,1,3,-7,-5,-5,-2,0
1537907628003390,0,-3,-10,5,4,0,0,-1
1537907628025331,1,-1,13,-2,-3,-1,-1,-1
1537907628025331,0,-4,-17,2,1,-1,-1,0
1537907628025331,-1,2,2,-8,-5,-3,0,1
1537907628025331,-3,-1,2,6,7,3,0,-2
1537907628047273,1,0,1,-2,-5,-2,-2,-1
1537907628047273,0,-1,-12,-1,-1,-1,0,-1
1537907628048271,1,-1,2,-4,2,1,-2,1
1537907628048271,0,2,5,3,-3,-2,-2,2
1537907628062233,-3,-1,-9,0,2,1,0,-2
1537907628062233,1,-2,-5,-1,-1,0,1,-1
1537907628063231,0,1,8,3,4,2,0,-1
1537907628063231,-1,0,-1,-1,-4,-4,-1,0
1537907628085173,1,-1,-1,0,-3,1,2,1
1537907628085173,-1,-2,-1,-7,-1,-3,-1,-2
1537907628086170,-1,-1,21,5,0,-1,-1,-1
1537907628086170,-1,-8,-70,0,3,2,-1,0
1537907628107114,-2,0,17,-5,6,2,0,-1
1537907628107114,-1,2,-15,-4,-10,-4,-1,-2
1537907628108111,0,-2,6,-12,-4,-1,-2,-1
1537907628108111,0,2,7,4,4,2,0,0
1537907628122073,-3,-5,36,-4,2,-1,-1,-1
1537907628122073,-2,3,-7,-25,2,2,-1,-4
1537907628123071,-5,-11,-66,28,-13,-9,-2,-4
1537907628123071,9,26,48,17,6,2,1,3
1537907628152991,-2,-22,27,82,34,9,4,0
1537907628152991,-2,16,-67,-98,-57,-19,-8,-8
1537907628153989,6,1,79,87,31,8,2,4
1537907628153989,1,24,-64,-52,-37,-8,-1,3
1537907628167951,0,6,44,14,-10,-8,-2,-1
1537907628167951,7,8,-59,-23,42,18,7,7
1537907628167951,-10,-10,80,35,-10,-8,-3,-8
1537907628167951,-12,-27,14,-51,-28,-16,-10,-10
1537907628189892,4,-9,-74,12,-6,-5,-2,4
1537907628189892,3,18,-34,-6,-5,1,0,2
1537907628190890,-6,-24,36,-108,8,4,1,-3
1537907628190890,4,-31,17,127,48,22,11,6
1537907628212832,-3,32,-21,15,2,-4,-3,-6
1537907628212832,1,-11,62,32,11,3,0,-1
1537907628213829,10,33,-34,-60,-14,3,1,6
1537907628213829,-2,-17,-4,-12,-12,-4,-3,-4
1537907628227791,-11,-25,-34,-56,27,10,2,-3
1537907628227791,3,-5,99,127,20,4,1,7
1537907628227791,-4,11,98,-29,-29,-11,-4,-6
1537907628227791,4,16,-22,1,15,6,0,2
1537907628249731,-8,-12,68,-79,-36,-6,-4,-7
1537907628249731,5,-6,-89,-12,-3,-5,1,3
1537907628250729,-10,-11,24,-52,2,4,0,-3
1537907628250729,-6,-15,-5,-28,-36,-22,-12,-9
1537907628264691,11,22,13,16,6,4,3,8
1537907628264691,-13,-26,18,16,1,-2,-3,-8
1537907628272670,5,25,-33,21,32,8,2,0
1537907628272670,-1,24,-79,-62,-10,-5,3,1
1537907628287630,-2,-5,44,65,1,2,1,0
1537907628287630,7,6,-94,-78,3,2,-1,3
1537907628288628,3,-30,12,94,2,-6,-3,3
1537907628288628,-5,-1,50,3,19,9,1,-2
1537907628309571,0,17,24,-17,7,-1,-4,-5
1537907628309571,-4,7,3,9,-6,-15,-5,-6
1537907628310569,-5,-29,5,-26,6,7,1,1
1537907628310569,-1,0,-48,11,15,5,1,-1
1537907628324531,5,8,22,16,0,-7,-3,1
1537907628324531,3,29,7,0,-7,3,1,2
1537907628332510,-1,-22,-71,-34,-36,-7,-5,-3
1537907628332510,-7,3,83,-27,-18,-7,-3,-7
1537907628347470,-8,-16,-79,13,10,-1,-2,-2
1537907628347470,-2,-11,85,13,12,7,2,3
1537907628348468,3,14,-4,28,-31,-12,-3,-2
1537907628348468,0,-3,80,20,15,11,1,-1
1537907628370409,-5,-24,-123,-2,-18,-8,-4,-4
1537907628370409,-2,-1,87,8,-3,-1,-1,-1
1537907628370409,0,13,-14,20,12,5,2,2
1537907628370409,-5,-15,-38,22,19,4,0,-1
1537907628385369,3,31,-2,-19,3,2,2,1
1537907628385369,-9,-28,21,15,-5,0,-2,-4
1537907628392351,8,29,23,35,16,10,5,4
1537907628392351,-9,-24,21,-2,-13,-14,-6,-7
1537907628407311,10,4,-36,3,25,16,8,6
1537907628407311,-5,-12,49,-20,-7,-2,0,-2
1537907628408309,-1,22,-78,-81,-44,-16,-6,-5
1537907628408309,-1,-14,38,78,7,0,0,1
1537907628430250,3,6,-79,-39,-19,1,2,1
1537907628430250,1,-2,76,68,22,6,-1,1
1537907628431248,2,4,-1,-49,14,3,0,1
1537907628431248,0,-4,20,-14,-7,-5,-1,0
1537907628453188,1,18,59,51,-18,-5,-3,-3
1537907628453188,-2,-2,-29,-69,-39,-15,-4,-4
1537907628454187,-7,-17,-58,54,34,11,3,-3
1537907628454187,7,22,51,-38,-14,-4,2,3
1537907628467151,-7,-22,73,8,4,-8,-4,-5
1537907628467151,-2,-7,42,-18,-17,-6,-3,-1
1537907628468149,1,1,-33,28,6,-1,0,1
1537907628468149,-6,-2,92,-12,-16,-8,-3,-5
1537907628490089,4,-7,65,-45,-15,-2,3,3
1537907628490089,1,22,23,14,15,4,3,0
1537907628491087,-3,-8,30,-30,-9,-5,-1,-2
1537907628491087,-2,-4,-9,-12,10,3,-3,-3
1537907628504052,-3,-10,-83,-14,-13,0,1,-1
1537907628504052,-1,3,-71,-5,-1,-2,-1,-2
1537907628512030,1,-11,6,20,4,-2,2,2
1537907628512030,4,9,-60,7,8,4,1,2
1537907628526990,-2,-3,11,-18,-5,-3,-3,-1
1537907628526990,-3,-5,-38,5,3,1,-1,-2
1537907628527988,-3,-4,-4,-3,-5,-2,-3,-3
1537907628527988,4,5,-13,0,4,2,1,3
1537907628549929,-3,-2,12,-11,-5,-5,-2,-1
1537907628549929,-1,-8,-13,4,3,0,-2,-2
1537907628550927,0,1,10,12,12,2,-1,-1
1537907628550927,1,0,-28,-5,-3,-1,-1,1
1537907628563891,-2,-5,22,0,-2,-2,0,-1
1537907628563891,-1,-2,-19,6,4,2,1,-1
1537907628572868,1,-2,4,-5,-6,-2,-1,-1
1537907628572868,1,-1,-15,3,0,1,1,3
1537907628587829,-3,-2,16,2,2,0,-1,-4
1537907628587829,1,-5,-2,-9,-9,-5,-1,-1
1537907628587829,-3,-7,-2,-3,-1,-1,-1,-1
1537907628587829,-1,-4,-4,4,3,0,0,-2
1537907628609770,0,3,8,5,3,0,-1,-1
1537907628609770,-4,1,-6,3,5,1,-1,-1
1537907628610769,-1,1,0,-7,-6,-3,-1,0
1537907628610769,0,5,-9,3,2,1,0,0
1537907628624730,0,0,9,-3,-2,-2,-1,-1
1537907628624730,0,-3,-5,2,-2,1,-1,0
1537907628632709,0,-1,4,3,3,1,-1,-2
1537907628632709,-2,1,-1,-1,0,1,0,1
1537907628647669,-1,0,1,-6,-6,-3,-2,-1
1537907628647669,-1,-1,0,5,6,2,1,0
1537907628648667,-3,-1,-4,-5,-9,-6,-4,-2
1537907628648667,-1,0,-8,-6,4,3,2,0
1537907628669609,-1,-13,10,-2,1,0,-1,-1
1537907628669609,-3,2,-27,-9,-25,-10,-4,-3
1537907628670607,0,-2,10,-2,2,1,0,0
1537907628670607,1,0,-20,1,17,4,1,1
1537907628693545,-4,-5,28,-8,-25,-9,-3,-4
1537907628693545,0,10,43,7,15,6,3,0
1537907628693545,1,1,-86,14,9,2,2,1
1537907628693545,5,17,18,-2,-15,-6,-1,1
1537907628707508,-3,2,-39,2,7,3,-2,-1
1537907628707508,0,-15,43,-8,0,-1,0,0
1537907628708505,-5,-2,1,28,7,1,-1,-2
1537907628708505,-1,-17,-3,-16,3,0,-1,1
1537907628730446,7,43,-24,4,-2,-1,-2,0
1537907628730446,-2,0,-15,-6,0,-1,-1,-2
1537907628730446,-2,-10,12,-19,4,3,0,-1
1537907628730446,-4,4,-19,11,-11,-5,-3,-5
1537907628753385,-1,11,-10,-16,-4,-3,1,0
1537907628753385,-2,-4,11,0,1,1,0,0
1537907628754383,1,10,9,5,0,0,0,2
1537907628754383,-2,1,3,1,-4,-2,-1,-3
1537907628768346,-3,-7,0,-2,4,2,-2,-1
1537907628768346,4,16,-46,0,3,1,0,-1
1537907628768346,2,3,43,5,-5,-2,-1,1
1537907628768346,-1,-16,8,-11,-2,-1,0,-1
1537907628790286,0,-8,21,-13,1,-3,0,0
1537907628790286,0,-11,-19,15,1,1,0,3
1537907628790286,-2,-18,6,-6,-5,-2,-1,-3
1537907628790286,2,4,8,7,0,0,-1,-2
1537907628813225,-4,-17,13,-17,4,2,-1,-3
1537907628813225,-2,-14,8,-17,-12,-6,-2,-5
1537907628814222,3,3,-37,-3,-5,-1,0,2
1537907628814222,0,-6,14,15,6,2,-1,0
1537907628827188,-1,-8,13,20,6,2,0,0
1537907628827188,-4,-6,-2,-11,-2,-1,-3,-2
1537907628828185,-1,4,-13,-16,-6,-1,0,-2
1537907628828185,-1,-1,-39,0,1,2,2,-1
1537907628850126,3,11,44,21,5,1,-1,3
1537907628850126,0,0,-30,0,3,1,-2,0
1537907628851124,-1,-1,23,-1,-2,-2,-3,-1
1537907628851124,-3,0,-22,-11,-4,-1,-2,0
1537907628873065,-4,-14,3,7,0,0,-3,-2
1537907628873065,0,10,5,1,0,-2,0,-2
1537907628874062,-3,-6,9,0,1,-1,-1,-3
1537907628874062,1,7,7,4,2,1,-1,0
1537907628887028,2,12,-14,-8,1,1,2,1
1537907628887028,-5,2,-10,12,-5,-5,-1,-2
1537907628888025,-1,1,7,5,3,1,-3,-2
1537907628888025,-5,-10,32,-4,-7,-3,-3,-2
1537907628909966,1,15,-41,-12,-3,0,-1,0
1537907628909966,0,-12,-12,-18,0,1,1,0
1537907628910964,0,2,-30,7,2,0,1,-1
1537907628910964,-1,9,67,6,-11,-7,-3,-4
1537907628940884,3,-12,-20,5,7,0,2,2
1537907628940884,2,10,13,-19,-7,-2,-3,0
1537907628941881,-4,-30,8,15,5,2,-1,-1
1537907628941881,3,35,-43,-1,3,-1,0,0
1537907628947865,-5,-15,41,19,-6,-4,-3,-4
1537907628947865,3,9,-8,-6,0,-1,0,0
1537907628947865,2,-4,-24,-6,-1,-1,2,1
1537907628947865,-2,-5,-15,-14,2,4,-1,0
1537907628969806,-1,2,23,5,-1,-4,-4,-3
1537907628969806,-1,0,3,3,1,0,2,-1
1537907628970804,-2,3,6,-6,-6,-3,-2,-3
1537907628970804,-1,-3,8,3,-2,-2,1,0
1537907628992745,-1,-7,-38,-6,-1,0,-1,1
1537907628992745,-2,-8,-5,6,3,0,-3,-1
1537907628993743,2,16,103,0,2,0,1,1
1537907628993743,0,-10,-50,0,-4,-5,-2,-1
1537907629007705,0,-10,4,-3,-2,0,0,1
1537907629007705,-1,-4,8,6,5,-2,-2,-1
1537907629007705,-3,0,-20,-11,-10,-3,-5,-2
1537907629007705,-2,1,31,6,4,1,0,-1
1537907629030644,-3,0,3,-11,-5,-1,0,-4
1537907629030644,-1,-4,-39,6,1,0,-1,-1
1537907629031642,1,11,9,-14,-3,-1,1,-2
1537907629031642,-1,-2,-12,-4,3,0,-1,-1
1537907629053582,-4,-25,-11,8,-7,-2,-1,0
1537907629053582,4,28,10,11,0,0,0,0
1537907629053582,-1,-2,-23,16,7,1,-2,-2
1537907629053582,0,2,3,-9,-6,-1,-1,0
1537907629067545,-1,3,4,-10,3,-1,1,-1
1537907629067545,-1,-5,31,-1,0,-1,0,-1
1537907629068543,-1,3,-6,4,-4,-4,0,1
1537907629068543,0,-5,-9,-1,1,1,0,1
1537907629090484,0,4,-27,-2,2,1,-2,-2
1537907629090484,-2,-16,15,2,-2,-1,-2,-1
1537907629091481,0,4,-9,-6,0,0,-1,0
1537907629091481,-3,-10,11,4,0,0,-2,-2
1537907629113422,-1,-1,6,-3,-1,0,0,0
1537907629113422,1,0,-14,1,-1,-1,2,2
1537907629113422,0,1,9,-3,2,2,-1,-1
1537907629113422,-1,-8,-39,3,1,0,1,1
1537907629127385,3,11,-4,1,-3,-1,0,-1
1537907629127385,-4,-9,4,0,-4,-1,-2,-1
1537907629128383,-1,-8,10,-6,-2,-1,0,-2
1537907629128383,2,8,-16,-2,1,0,-2,-1
1537907629150324,-4,-8,1,-5,-2,-1,0,-1
1537907629150324,-1,-4,-8,10,1,0,-2,-2
1537907629151321,2,-1,-25,-11,1,2,0,2
1537907629151321,-2,1,-2,7,-2,-3,0,-1
1537907629173263,1,2,-12,-8,2,0,-1,-1
1537907629173263,-3,-9,25,12,-1,-1,-1,-3
1537907629174260,1,14,-24,-3,-3,-4,-1,-1
1537907629174260,2,-3,6,6,2,2,-1,-1
1537907629187226,-3,5,35,-3,-4,-4,-3,-3
1537907629187226,1,-5,5,-2,2,2,-1,-1
1537907629195204,-4,-8,-22,-5,-3,-1,0,-1
1537907629195204,-2,-2,1,0,1,1,1,-2
1537907629211161,1,7,-10,-2,-4,-2,0,-1
1537907629211161,0,4,22,1,2,1,-1,0
1537907629212159,-2,-4,10,1,0,1,1,0
1537907629212159,-1,-7,3,-10,-4,-1,-1,-1
1537907629233103,-2,2,27,17,5,0,0,-2
1537907629233103,0,-2,-49,-14,-6,-2,-1,1
1537907629234101,1,-2,-5,2,-3,0,-1,-2
1537907629234101,-2,-9,11,-14,-2,-1,-1,-2
1537907629247066,0,5,2,21,5,1,-2,-1
1537907629247066,0,2,-3,-3,-2,-1,0,-1
1537907629255046,-2,0,-5,-3,0,-2,-1,-1
1537907629255046,-1,-2,8,0,0,-2,-1,1
1537907629271004,-1,-4,-7,-10,-5,-1,-1,0
1537907629271004,-3,0,-22,-4,-1,0,-1,0
1537907629271004,-2,8,-36,3,-6,-2,-2,-1
1537907629271004,1,8,17,2,2,0,-1,0
1537907629292944,0,0,27,-3,-3,-1,-1,0
1537907629292944,-2,-2,10,4,3,-1,0,-1
1537907629293941,-1,-4,20,-2,2,1,-1,-3
1537907629293941,1,-3,-39,-10,-5,-2,0,0
1537907629306905,-1,8,21,20,1,1,1,1
1537907629306905,-1,-5,-23,-24,-10,-4,0,1
1537907629322863,-3,-14,13,2,4,1,-3,1
1537907629322863,-2,-4,1,3,-3,-1,-1,-2
1537907629330841,-2,1,-8,-1,4,2,-1,0
1537907629330841,-4,-6,20,2,-3,-2,-1,-3
1537907629331839,2,2,-14,-3,2,0,0,-1
1537907629331839,1,6,11,-6,-3,-1,-2,-2
1537907629352783,1,-9,-65,-1,-4,-3,-1,0
1537907629352783,4,9,18,0,0,1,1,0
1537907629353780,-1,10,57,6,-1,-1,0,-1
1537907629353780,-2,-11,-12,0,3,0,1,0
1537907629366745,-2,-4,-17,-10,-5,-4,-2,-1
1537907629366745,-1,4,1,-2,-1,-1,-2,-1
1537907629374724,-5,-10,-14,-7,-4,-3,-1,-2
1537907629374724,0,7,37,9,7,3,-1,-1
1537907629390682,-1,-6,-14,-14,-8,-3,0,0
1537907629390682,-1,-3,-88,4,0,-2,-2,-1
1537907629391680,2,-3,37,9,2,0,-1,1
1537907629391680,-2,0,13,1,-2,-1,0,0
1537907629413621,0,-6,-14,3,6,1,-1,0
1537907629413621,-2,2,45,-15,-11,-4,-5,-2
1537907629413621,0,1,-12,-4,-1,-1,-1,-3
1537907629413621,0,3,-9,-1,-6,-4,-3,1
1537907629426586,0,-3,7,-1,-2,-1,-2,-1
1537907629426586,-1,2,2,6,4,2,0,-2
1537907629435562,-3,3,1,-8,-2,-2,-1,-2
1537907629435562,1,-19,-33,4,-1,-2,0,-1
1537907629450522,3,13,24,-7,1,2,2,1
1537907629450522,-1,-2,-21,4,1,0,0,0
1537907629452517,1,0,-4,5,3,1,1,1
1537907629452517,-2,-4,-12,3,1,-1,0,-1
1537907629473461,0,0,6,-11,-10,-5,-1,0
1537907629473461,0,-1,22,-1,2,2,1,-1
1537907629474460,-1,-2,-10,5,2,-1,-1,-2
1537907629474460,-3,2,6,-7,0,1,1,-2
1537907629486427,-1,-4,-17,-8,1,0,0,-3
1537907629486427,1,11,28,16,1,-2,0,1
1537907629495403,0,-2,-18,-13,-8,-4,-1,-1
1537907629495403,-1,-6,22,5,3,1,-1,-1
1537907629510362,-2,-5,-29,-7,-5,-3,-2,-2
1537907629510362,-1,3,24,-4,-1,-1,-2,-1
1537907629512357,1,4,16,12,0,-1,0,1
1537907629512357,-3,-12,-17,1,-2,0,-1,-1
1537907629533301,0,17,8,-3,0,1,-1,-1
1537907629533301,1,-6,-25,5,2,1,1,2
1537907629534299,0,-5,18,0,-1,-2,-3,1
1537907629534299,-1,6,-6,-2,-2,-2,-1,-2
1537907629547263,-1,-7,11,1,-2,0,-1,-2
1537907629547263,-2,-2,-3,-3,-2,-1,0,0
1537907629556238,-2,-2,2,-6,-2,-1,-2,-2
1537907629556238,2,17,26,4,-2,1,-1,0
1537907629570201,-4,-11,-12,-8,1,-1,-2,-2
1537907629570201,2,0,-19,5,-5,-1,0,0
1537907629572196,-1,-5,-7,-5,-3,-2,-2,0
1537907629572196,-1,4,-6,-3,-3,-5,-3,0
1537907629601118,1,10,14,4,4,1,-1,2
1537907629601118,-3,-16,-9,-8,-6,-2,-2,-2
1537907629602116,1,-2,-27,-3,-2,0,0,-1
1537907629602116,-1,-9,18,11,2,0,0,-1
1537907629607103,0,2,-22,-13,-6,-3,-3,0
1537907629607103,-2,0,20,12,6,0,-1,-2
1537907629616079,-1,3,-15,-15,-3,-1,0,0
1537907629616079,-1,6,11,-3,0,-1,-1,1
1537907629630042,-1,-7,8,16,4,3,1,1
1537907629630042,-4,-4,3,-4,0,0,-2,-2
1537907629637024,0,1,1,5,-2,0,-2,-1
1537907629637024,-3,2,-10,-18,-7,-2,-2,-2
1537907629652981,-2,-6,-26,8,-1,-3,-3,-1
1537907629652981,2,5,48,6,-1,0,1,2
1537907629654978,-2,10,21,10,2,-2,0,-1
1537907629654978,-3,-6,-24,-10,-1,-1,-1,0
1537907629675921,-2,4,24,1,4,0,2,2
1537907629675921,-2,-11,-15,-4,-5,-3,-2,-2
1537907629676917,0,0,-2,5,2,1,1,1
1537907629676917,-2,-11,-2,-7,-8,-2,-2,-1
1537907629690881,2,18,-6,-6,-2,0,-2,0
1537907629690881,-2,5,-8,2,2,-1,-1,0
1537907629691878,-3,-10,30,2,-2,0,0,-1
1537907629691878,1,4,-26,-2,0,0,-1,0
1537907629712821,-1,-12,12,-3,-1,0,0,-2
1537907629712821,-1,7,12,-5,0,-1,-2,-3
1537907629714816,1,0,-61,-8,-2,-3,0,-2
1537907629714816,-1,-10,18,3,-4,-3,-2,2
1537907629735759,-1,0,-4,2,0,1,0,-2
1537907629735759,0,3,12,-1,3,-1,-1,-1
1537907629736757,-2,-7,-15,-1,-3,0,1,0
1537907629736757,2,9,11,2,1,1,0,-1
1537907629750719,-1,2,-3,5,1,-2,-2,-3
1537907629750719,0,-1,10,-1,1,2,-1,0
1537907629751717,2,3,-4,-8,0,1,-1,-1
1537907629751717,-1,8,7,3,-3,-2,-1,-2
1537907629772661,-3,-15,-4,2,-1,0,-2,0
1537907629772661,-3,3,-21,-12,-2,1,0,0
1537907629774656,3,5,22,4,2,1,0,0
1537907629774656,0,-14,-19,14,4,1,1,0
1537907629795600,-1,-3,30,-21,-2,-1,-1,-2
1537907629795600,-1,-3,-45,6,-2,-3,-2,-2
1537907629797594,-3,-4,-3,-7,-1,-1,1,1
1537907629797594,-1,0,9,1,2,0,0,-1
1537907629809563,1,5,15,7,-1,-2,1,1
1537907629809563,0,2,9,0,1,0,0,-1
1537907629816543,-2,4,6,0,-5,-3,-1,0
1537907629816543,-4,-4,-5,-2,-1,-2,-2,-2
1537907629833497,-3,-1,50,0,0,-1,-1,-2
1537907629833497,1,-5,-95,-12,-3,-3,-1,0
1537907629834495,0,3,17,10,2,0,-2,0
1537907629834495,1,5,8,-1,0,0,1,-1
1537907629855439,0,0,-9,-1,-3,-1,0,1
1537907629855439,-3,-8,25,-6,-4,-2,-2,-2
1537907629857434,-2,1,-7,1,3,0,0,-2
1537907629857434,1,2,-10,-9,-4,-1,-2,0
1537907629869402,-1,-2,-12,5,0,1,-1,-2
1537907629869402,-2,-5,30,1,1,-1,0,-3
1537907629878378,0,1,-23,8,-1,0,-1,-1
1537907629878378,-2,-10,13,0,0,0,-1,-2
1537907629893338,-1,-1,-6,2,-2,-1,-2,0
1537907629893338,1,4,4,1,2,3,0,2
1537907629894335,-2,-2,7,4,-4,-3,0,0
1537907629894335,-1,-2,-15,-16,-3,-2,0,-1
1537907629915279,2,8,21,7,-7,-3,-1,0
1537907629915279,0,5,-11,-1,0,0,-1,-1
1537907629917274,-2,-14,37,1,1,1,-1,-3
1537907629917274,-2,1,-16,-5,2,0,1,-1
1537907629930240,0,0,-9,10,2,-1,-1,0
1537907629930240,-3,-5,-4,-5,0,-2,0,-1
1537907629937220,-1,-2,-16,-11,-4,-3,-2,-1
1537907629937220,0,6,8,8,4,-1,-1,0
1537907629952180,0,-8,-37,-3,0,-1,0,0
1537907629952180,0,0,14,3,-3,-3,-1,0
1537907629961156,1,0,-7,-8,-2,-2,-2,-1
1537907629961156,-3,-3,8,-1,-3,0,1,0
1537907629976117,-2,1,-13,-3,2,0,-3,-2
1537907629976117,-2,-7,14,-1,-2,1,0,0
1537907629982100,0,11,-15,-9,-2,-3,-1,-1
1537907629982100,-2,-6,-11,4,1,-1,-2,-2
1537907629990079,-1,-10,3,-4,-4,-2,-1,-1
1537907629990079,0,4,17,3,2,1,0,-1
1537907629997060,-2,-11,-25,4,3,1,-1,-1
1537907629997060,1,9,44,-4,-4,-2,-1,-1
1537907630013018,-1,-9,-14,-1,1,-2,-1,-1
1537907630013018,-2,3,1,-2,-2,-2,0,0
1537907630015012,-1,-5,1,-8,-3,-1,-2,1
1537907630015012,-1,-1,6,13,3,0,-1,-3
1537907630035956,2,-5,-30,-10,-2,-2,0,0
1537907630035956,2,10,11,3,0,-1,1,-1
1537907630036954,-1,-15,-8,1,-2,-2,-1,-2
1537907630036954,-2,8,6,-3,1,-1,-1,1
1537907630049919,-2,-5,12,-9,-3,-1,0,-3
1537907630049919,-1,-2,11,5,-3,-1,-2,-2
1537907630056901,0,7,-25,1,0,0,0,-1
1537907630056901,-1,-15,-6,-2,-1,-1,-1,0
1537907630072858,-2,7,4,6,0,1,0,-3
1537907630072858,-1,-4,-23,-13,-3,-3,-1,-2
1537907630074852,-1,-2,21,-3,-1,-2,0,-1
1537907630074852,2,3,5,6,0,0,-1,0
1537907630095796,-4,9,-7,-4,0,0,-1,-1
1537907630095796,-1,-11,-5,1,0,-1,-1,-3
1537907630096794,-1,-3,-14,-5,0,0,-2,0
1537907630096794,0,3,24,0,-3,-3,-3,-1
1537907630109760,-3,-6,10,2,0,1,-2,-1
1537907630109760,1,5,2,1,3,2,-2,0
1537907630116741,0,1,1,-8,-3,-1,0,1
1537907630116741,-1,4,-9,7,-1,0,0,-2
1537907630132698,2,-3,1,0,-2,-3,0,2
1537907630132698,-1,-3,-4,4,1,1,0,-1
1537907630134693,-2,0,-2,1,-1,0,-1,0
1537907630134693,-1,1,-15,-6,0,-2,0,0
1537907630155639,-2,-7,12,1,-2,-1,-1,-1
1537907630155639,2,11,-18,-1,-4,-2,-1,1
1537907630156634,-2,-12,11,4,4,1,0,-1
1537907630156634,0,5,-2,-5,-3,-2,0,-1
1537907630169599,1,7,-6,-1,0,-1,-1,0
1537907630169599,-2,-15,3,5,-2,0,0,2
1537907630178575,3,6,20,-2,-5,-4,-2,1
1537907630178575,-2,1,-12,-5,-3,-3,0,-2
1537907630193535,0,-1,-10,2,0,0,0,1
1537907630193535,-6,-22,24,-2,-1,0,-1,-3
1537907630194533,1,14,-33,-9,-1,1,0,-1
1537907630194533,0,-3,13,-2,-2,-2,-1,-2
1537907630215477,1,-6,17,0,1,1,-1,0
1537907630215477,0,10,-5,-4,-3,-2,-1,2
1537907630217471,-5,-13,8,6,3,0,1,-2
1537907630217471,0,-1,-15,-6,-2,-2,-1,-1
1537907630238416,1,8,-31,-7,-1,0,0,0
1537907630238416,0,-10,-1,11,5,1,0,0
1537907630239413,0,-5,22,1,1,2,0,-1
1537907630239413,-2,3,-32,1,0,-2,-2,-1
1537907630253375,-1,-6,16,2,-1,-2,-1,-3
1537907630253375,1,-3,-2,-7,-5,-4,-1,0
1537907630254373,0,16,9,0,0,0,0,-1
1537907630254373,1,-9,3,4,-1,0,-1,1
1537907630275317,0,7,-4,2,1,0,-1,-3
1537907630275317,-2,-3,-1,-7,0,-2,-1,-2
1537907630277311,0,3,-1,-2,-2,-3,-2,-1
1537907630277311,0,-2,-14,16,0,-2,-1,0
1537907630289280,-1,-9,18,-10,-3,-2,-1,1
1537907630289280,1,16,-10,6,0,-1,1,-2
1537907630298255,0,0,29,-9,-7,-2,-1,-1
1537907630298255,1,-2,4,11,3,3,0,-1
1537907630313215,-1,-2,-46,-6,3,0,0,-2
1537907630313215,2,16,31,-3,-3,-2,-1,0
1537907630314212,-1,-11,4,8,0,0,0,-1
1537907630314212,0,4,-21,-6,-1,1,-1,0
1537907630335157,-1,-10,25,1,-1,-2,0,0
1537907630335157,-2,1,9,-5,1,2,0,-1
1537907630337151,-1,-5,-40,1,-2,-2,-2,-1
1537907630337151,0,0,3,-13,0,1,-1,-2
1537907630349119,-4,-4,-11,2,-2,-2,-4,0
1537907630349119,-1,1,4,3,2,0,0,1
1537907630358095,2,-3,10,2,2,-1,0,0
1537907630358095,-2,-11,-5,-5,1,1,0,1
1537907630373056,1,15,-12,-1,-1,-1,-2,-1
1537907630373056,-2,-24,-13,4,-1,-2,0,0
1537907630375050,0,12,12,9,4,2,-1,-1
1537907630375050,1,3,1,-7,-1,-4,-1,0
1537907630395994,1,0,14,5,-1,1,0,-1
1537907630395994,2,7,2,-5,-1,-1,0,1
1537907630396991,-3,-8,-29,7,0,-1,-1,-2
1537907630396991,-1,-2,14,-4,-1,1,-1,-2
1537907630408959,-2,-5,5,2,-1,0,-2,-1
1537907630408959,-2,-4,-17,-9,-5,-3,-2,-2
1537907630417935,-1,-4,-3,5,4,0,0,0
1537907630417935,0,17,17,4,0,0,-1,-3
1537907630433893,0,2,26,4,-4,-1,-1,0
1537907630433893,-1,-3,-33,-3,4,2,-1,0
1537907630434890,-3,3,13,-15,-4,-3,-2,-2
1537907630434890,-1,-6,-2,-1,-3,-1,0,0
1537907630455834,-1,-7,-8,-1,1,0,0,-2
1537907630455834,0,-1,-31,-4,-3,-2,0,-2
1537907630456831,-2,4,11,-1,-1,0,-2,-2
1537907630456831,-1,-4,-6,-6,-4,0,-1,0
1537907630468799,-1,5,2,0,1,1,-1,0
1537907630468799,-2,2,8,0,1,-1,-2,-1
1537907630477775,0,-2,-17,-4,-4,-3,-2,-2
1537907630477775,-3,0,22,2,-4,-3,0,-1
1537907630492736,4,2,-6,-7,1,0,0,1
1537907630492736,0,-2,10,3,-1,0,-1,-2
1537907630494730,-2,-4,1,8,1,2,0,1
1537907630494730,-2,-9,-22,-4,1,0,-1,-1
1537907630515675,2,14,5,-2,-2,-1,1,-1
1537907630515675,-1,0,22,-2,-4,-2,-1,-1
1537907630516672,-1,-9,-12,-2,-2,-1,-1,0
1537907630516672,0,4,-7,5,0,1,0,-3
1537907630529637,-1,-2,-2,-5,-1,-2,1,1
1537907630529637,0,-16,-4,-4,1,0,1,-1
1537907630538614,1,5,-5,2,1,0,1,-2
1537907630538614,1,-5,12,-7,-6,-3,0,1
1537907630553573,-3,-7,-1,5,-1,-1,-2,-2
1537907630553573,3,15,1,-11,-4,-1,-2,0
1537907630554570,-1,-1,4,10,-1,-2,-2,-1
1537907630554570,0,1,0,3,5,1,2,1
1537907630575514,0,-1,-38,-5,-3,1,1,1
1537907630575514,-1,9,23,3,1,1,-1,0
1537907630577509,0,-12,-27,-13,-2,-1,-2,1
1537907630577509,-4,0,-7,0,-4,-2,-1,-1
1537907630598453,0,1,21,3,2,-2,-2,-1
1537907630598453,-2,-4,-11,5,3,0,-1,-1
1537907630599450,-2,7,25,-10,-6,-2,-1,-2
1537907630599450,-1,-12,-13,-17,-4,-2,0,0
1537907630613413,-3,-8,-11,7,-4,-2,-3,-1
1537907630613413,0,-8,-11,-3,0,1,0,-1
1537907630614411,-1,4,19,5,2,1,-1,0
1537907630614411,2,3,1,1,-2,-2,-1,1
1537907630635354,0,3,-1,-9,-2,0,0,-1
1537907630635354,-4,-9,4,3,3,0,-1,-3
1537907630637349,2,0,-4,-5,-5,-3,-1,-1
1537907630637349,0,6,15,3,1,1,-1,-2
1537907630658293,1,0,-5,4,0,0,1,-1
1537907630658293,-1,-7,15,1,-2,-2,0,-1
1537907630659291,-1,-3,-5,-3,0,-1,-1,-1
1537907630659291,-2,1,-4,1,-3,-4,-2,-2
1537907630673253,-4,-14,11,0,-1,-2,-2,-1
1537907630673253,3,10,-12,-2,1,0,-1,1
1537907630674250,-1,-8,-22,-14,-3,-3,0,0
1537907630674250,2,10,18,17,1,0,-1,0
1537907630695195,-2,-5,0,-3,2,1,1,-1
1537907630695195,-2,-3,-6,4,-2,-1,0,-1
1537907630697189,-3,6,4,1,3,-1,-1,-2
1537907630697189,-1,-7,-12,-1,-1,-1,-2,-1
1537907630717136,0,2,-3,-7,-1,0,1,1
1537907630717136,1,16,1,0,-4,-1,0,-1
1537907630726111,1,3,12,-4,-3,-1,0,0
1537907630726111,-3,-3,-14,12,5,1,-1,-4
1537907630732095,-1,2,12,-3,-4,-1,-2,-2
1537907630732095,-1,-5,-28,-5,2,0,-1,2
1537907630739077,-1,5,27,9,-2,0,0,0
1537907630739077,-2,-10,-3,-10,-2,0,1,0
1537907630756032,-3,-10,-19,2,2,-1,-1,0
1537907630756032,0,1,6,-2,-2,-2,-1,-1
1537907630757033,-1,-3,-36,-6,-2,-2,-1,-1
1537907630757033,-1,-3,41,0,1,1,-1,-2
1537907630777973,1,5,-22,1,1,1,1,0
1537907630777973,-2,5,-9,-1,-5,-4,-2,-1
1537907630779968,-2,-6,-1,-7,-4,-2,-1,0
1537907630779968,-2,-5,14,5,1,0,-1,-2
1537907630792933,-3,-2,-20,-11,-2,-4,-3,-1
1537907630792933,0,2,14,14,1,0,-1,0
1537907630798917,1,-1,17,0,3,0,1,2
1537907630798917,-1,1,-20,-6,-5,-1,0,-1
1537907630815872,-1,-6,18,-2,-3,-2,-3,-3
1537907630815872,0,14,1,-5,1,0,-1,0
1537907630816869,-2,-4,0,7,-1,0,-1,-1
1537907630816869,0,3,5,5,0,0,-1,-2
1537907630837813,-1,-2,-17,-4,2,0,-1,-1
1537907630837813,0,-10,-5,1,-3,-1,-1,0
1537907630839808,0,-6,4,-3,0,1,-1,-1
1537907630839808,-1,15,14,-2,0,-1,0,0
1537907630852773,1,8,13,2,-6,-4,0,-1
1537907630852773,-2,-22,-12,2,5,1,0,-2
1537907630859754,0,4,-13,-10,-4,-1,0,0
1537907630859754,0,-3,17,12,3,0,-3,0
1537907630876709,0,3,-9,3,1,-1,0,0
1537907630876709,-2,2,9,-5,-1,1,0,0
1537907630877706,-1,-4,0,2,-3,-3,-2,-2
1537907630877706,-2,-11,-32,-12,-3,-1,0,-2
1537907630897653,0,12,18,3,-3,0,0,-1
1537907630897653,-1,2,-2,-2,0,-1,0,-1
1537907630899648,0,-7,4,5,0,-1,0,0
1537907630899648,-3,-4,-24,-4,1,0,-3,1
1537907630912613,1,-2,27,-1,1,-1,-1,0
1537907630912613,-1,6,-21,2,-3,-1,-1,-1
1537907630919594,-2,-12,14,2,-2,0,0,-1
1537907630919594,0,7,-20,-5,2,0,1,0
1537907630935551,-3,-13,2,0,-1,1,0,-2
1537907630935551,0,-1,-32,-7,-7,-4,-3,-3
1537907630937546,1,9,25,6,1,0,-1,-1
1537907630937546,-1,-7,5,-11,-3,-2,-1,0
1537907630958490,-2,3,-5,1,0,0,-1,-1
1537907630958490,-3,-8,-10,-8,-4,-2,0,-3
1537907630959488,0,9,-2,4,0,-2,-2,-2
1537907630959488,0,-4,-2,0,-2,-1,-1,0
1537907630972453,0,1,-4,1,1,-1,0,0
1537907630972453,-2,-4,20,3,1,0,0,-1
1537907630979434,-2,3,-11,-4,0,1,-2,-1
1537907630979434,-1,-5,18,-1,-3,-3,-1,-1
1537907630995391,-1,-12,-31,-6,-3,-1,-1,-1
1537907630995391,0,4,7,7,6,3,0,0
1537907630997386,-1,1,-2,-4,3,0,-1,-3
1537907630997386,0,1,-1,4,-3,-1,-2,-1
1537907631018330,-2,-3,8,-1,-1,-1,0,0
1537907631018330,-2,-3,5,0,1,-1,-1,-3
1537907631019328,0,8,-11,-1,-4,-2,0,0
1537907631019328,-3,-9,-4,-6,0,0,0,0
1537907631032294,-1,1,45,16,-1,-2,-1,-3
1537907631032294,3,3,-64,-13,-2,0,1,1
1537907631039274,-2,-4,9,-9,0,-3,-1,-2
1537907631039274,3,10,-29,10,7,3,0,0
1537907631055232,-3,-15,-13,-9,-6,-3,0,1
1537907631055232,-2,5,15,1,-4,-3,-2,0
1537907631057226,-1,-4,2,-4,-1,-1,0,-2
1537907631057226,-3,-1,7,-1,-1,0,1,-2
1537907631078170,1,10,-15,-3,3,1,-2,0
1537907631078170,-1,-12,10,1,-4,-1,-1,-3
1537907631079168,1,4,1,-5,-4,1,-1,0
1537907631079168,0,-3,17,6,-1,-1,-2,-1
1537907631092133,-1,9,5,3,4,0,0,-2
1537907631092133,-2,-6,14,-8,-6,-5,-1,0
1537907631101110,-1,-3,-8,6,4,1,-2,1
1537907631101110,-1,0,-7,-5,-1,0,0,-2
1537907631116069,-1,0,-37,-4,-5,-3,0,-3
1537907631116069,0,2,19,-6,5,0,0,0
1537907631117068,0,-2,-5,8,0,-1,-1,-1
1537907631117068,0,-2,-18,-7,-3,-3,-2,0
1537907631138010,0,-4,12,-2,-1,1,-2,-1
1537907631138010,1,-2,10,-6,-3,-2,-2,-2
1537907631140005,-2,-2,-26,11,3,0,-1,-2
1537907631140005,-1,-17,-15,-8,-3,-3,-2,0
1537907631151973,1,11,23,15,1,1,-1,-1
1537907631151973,0,0,10,0,-2,0,-2,-1
1537907631160949,0,-14,2,-5,-7,0,-1,-1
1537907631160949,-3,-7,-5,-6,-3,-2,-2,-2
1537907631175909,-2,-1,-7,-5,2,1,-2,-3
1537907631175909,-3,3,-3,6,2,-1,-1,-1
1537907631176906,-3,-10,-2,-4,2,0,-1,0
1537907631176906,0,15,14,5,-2,-2,0,-1
1537907631197850,0,-4,11,-4,-2,-2,-1,3
1537907631197850,-1,2,9,2,1,1,-2,0
1537907631199845,-1,1,-15,-10,-7,-4,-1,-2
1537907631199845,0,6,27,2,1,2,0,0
1537907631211813,-1,0,-16,-1,-2,-1,-1,-1
1537907631211813,0,-8,-2,-1,-3,-1,-2,0
1537907631220790,0,12,-3,-6,3,2,1,-1
1537907631220790,1,1,7,13,3,2,0,-2
1537907631235749,-1,-10,-14,-4,-4,-3,1,-1
1537907631235749,1,2,27,1,-3,-1,0,-1
1537907631236746,0,-4,-18,-1,1,0,-2,-1
1537907631236746,-1,-8,14,-10,-3,-1,-2,-2
1537907631265669,1,19,-16,2,0,-2,-2,-1
1537907631265669,-1,-9,-17,-3,0,1,1,0
1537907631266666,1,8,27,11,-1,-4,-2,1
1537907631266666,-2,-5,-5,0,-3,-2,-1,0
1537907631271654,0,-3,-3,-7,0,-1,0,-1
1537907631271654,1,9,-1,1,0,1,0,0
1537907631280629,0,-10,13,8,2,1,0,-1
1537907631280629,-1,0,-33,-15,-5,-2,-1,-1
1537907631295589,-1,-5,9,-3,-4,-1,0,0
1537907631295589,0,5,0,0,0,0,-1,-2
1537907631296587,-2,0,-4,5,3,3,2,0
1537907631296587,0,-2,-19,3,0,-2,-1,-2
1537907631318528,-1,2,9,-5,-2,-1,-3,-2
1537907631318528,-2,-9,-7,4,-3,-3,-1,-2
1537907631319526,-3,-8,0,-2,0,0,0,-2
1537907631319526,0,0,-14,-7,-2,-2,0,1
1537907631331493,0,6,12,2,-3,1,-2,0
1537907631331493,0,-2,1,-1,1,2,-1,-1
1537907631340470,-2,1,-13,3,-1,-4,-1,0
1537907631340470,0,6,21,6,3,1,-1,-1
1537907631355430,-3,-20,-7,-6,2,1,1,-1
1537907631355430,0,14,-1,2,-3,-4,-2,-1
1537907631357424,-1,11,25,-3,-1,-1,-1,-1
1537907631357424,-2,-8,-31,-5,-1,-1,-2,-1
1537907631378368,-2,-6,-3,5,3,0,0,-3
1537907631378368,-1,-7,-2,-13,-5,-4,0,0
1537907631379365,1,15,-2,-6,-3,0,1,0
1537907631379365,-1,-5,17,13,5,0,-1,-2
1537907631391333,0,0,7,-12,-6,-3,-1,-1
1537907631391333,-1,-4,-22,-2,0,0,1,-1
1537907631400309,-3,-7,4,-1,-1,-2,-2,-3
1537907631400309,0,11,5,-9,-2,0,2,-1
1537907631415269,-1,-4,10,12,3,1,0,1
1537907631415269,0,-8,1,-6,-3,-1,-2,1
1537907631417264,-1,-5,10,7,-1,-1,-2,-1
1537907631417264,1,1,-14,-1,-1,0,0,-1
1537907631438208,-1,4,5,5,0,-2,-2,-1
1537907631438208,-2,-1,-3,3,1,1,0,-1
1537907631439206,1,-3,-5,-11,-2,-2,-2,1
1537907631439206,1,4,20,1,0,1,0,0
1537907631452170,-2,-4,-28,-4,0,-1,-2,-2
1537907631452170,0,6,4,3,-1,0,-2,-1
1537907631461147,0,-6,-13,8,2,-1,-1,0
1537907631461147,0,-4,17,-5,-2,-3,0,-1
1537907631475109,1,16,0,-2,0,1,0,0
1537907631475109,0,-5,11,4,0,1,-2,-1
1537907631477104,0,1,-19,-4,-1,1,-2,1
1537907631477104,-3,-1,16,0,-1,-3,-2,-2
1537907631498048,0,-11,-8,-5,-4,-2,0,1
1537907631498048,-2,6,2,2,1,-3,-1,-1
1537907631500043,1,-2,4,0,4,1,1,-2
1537907631500043,-2,-5,-19,-6,-7,-2,-3,-1
1537907631520987,-1,3,20,6,1,1,1,-1
1537907631520987,-2,-3,6,8,2,0,0,-1
1537907631521986,0,-2,-14,-7,-4,-2,-2,-1
1537907631521986,0,9,-18,-4,-1,0,0,1
1537907631535948,-1,-6,-6,-6,-2,0,-2,-1
1537907631535948,1,2,0,0,0,0,-2,-1
1537907631536945,-2,-4,9,0,-2,0,1,-1
1537907631536945,0,6,7,0,-1,0,-1,-1
1537907631557888,-2,-4,-16,3,0,0,-1,-2
1537907631557888,2,-1,9,-9,-3,-1,-2,1
1537907631559883,-1,0,-17,-7,-3,-3,-1,-2
1537907631559883,-1,11,17,-1,0,0,-1,0
1537907631580826,-1,-26,-14,1,0,-2,0,1
1537907631580826,-5,-14,-9,-5,-1,-2,0,-2
1537907631581824,0,10,18,-3,-1,0,-1,2
1537907631581824,-2,-11,-1,2,-1,0,-1,0
1537907631595787,-1,10,6,3,2,0,-2,-2
1537907631595787,-2,-13,-21,-5,1,-1,1,0
1537907631596784,2,2,-3,-3,-10,-6,-4,-2
1537907631596784,-1,-2,0,2,3,1,0,-2
1537907631617728,1,6,22,-3,-5,-1,-1,0
1537907631617728,-3,-2,-30,-8,1,2,0,-2
1537907631619723,0,5,19,7,5,2,-1,-1
1537907631619723,0,2,-9,1,-2,-4,0,0
1537907631640667,0,-12,-38,-9,-5,-2,-2,0
1537907631640667,2,13,32,1,0,-1,-1,-1
1537907631641664,-3,-14,-9,-6,-3,-2,0,-1
1537907631641664,-2,-3,4,12,2,-1,-1,-1
1537907631655627,0,3,4,2,1,0,0,-1
1537907631655627,0,-5,-7,-3,-4,-1,0,2
1537907631656624,2,8,-11,-4,-2,-2,-3,-1
1537907631656624,0,-8,-9,-5,-1,0,-1,1
1537907631678566,1,6,4,3,3,2,0,0
1537907631678566,0,1,19,5,-2,-1,-1,0
1537907631679563,-1,6,-16,1,0,2,0,-1
1537907631679563,-1,0,-10,-4,0,-2,1,-1
1537907631700507,-3,-12,11,0,-3,-3,0,-1
1537907631700507,-1,9,8,1,-1,1,0,-2
1537907631702502,-2,-11,5,-5,0,0,1,0
1537907631702502,-1,3,45,9,-1,0,-2,-2
1537907631715468,1,1,-47,-9,-3,-1,0,1
1537907631715468,0,-5,0,4,3,-2,1,0
1537907631721451,-3,-5,2,-9,-7,-3,-2,-2
1537907631721451,-1,0,-10,-10,-2,-3,-2,-1
1537907631738406,-1,4,25,3,1,0,-1,0
1537907631738406,0,9,-6,-2,-6,-3,-1,-1
1537907631739404,-5,-28,-5,7,3,1,-1,-2
1537907631739404,2,3,-14,0,0,-1,0,-2
1537907631760347,0,6,7,-3,-2,0,-1,-1
1537907631760347,0,-5,-16,-3,0,0,-3,-1
1537907631762342,1,6,-3,3,0,-1,0,-1
1537907631762342,-2,-4,15,-5,-6,-3,-2,-1
1537907631775307,0,0,-16,4,3,1,-1,0
1537907631775307,-1,-2,16,-1,1,1,-2,-2
1537907631782288,-1,0,-1,3,0,-1,-1,0
1537907631782288,0,-5,-21,-4,-1,-3,-2,0
1537907631798245,-1,-2,8,-4,-4,-3,-1,-1
1537907631798245,-2,0,-1,3,0,-1,-1,-2
1537907631799243,1,9,50,2,1,2,1,0
1537907631799243,0,-7,-84,-9,-4,-2,2,0
1537907631820187,1,18,29,16,5,0,0,-4
1537907631820187,-2,-19,-20,-12,-5,-2,-1,-1
1537907631822182,0,2,5,-2,2,3,0,0
1537907631822182,0,7,12,-5,-4,0,-1,-1
1537907631835147,-2,-8,1,0,2,-1,0,-1
1537907631835147,0,3,-1,-1,-2,-2,-1,0
1537907631842128,1,5,1,2,-2,-1,-2,-1
1537907631842128,-1,1,26,1,2,0,0,0
1537907631858086,-2,-8,-47,-3,0,1,-1,-1
1537907631858086,1,7,24,2,1,-1,0,0
1537907631860080,-2,-7,-21,-1,-1,-1,0,0
1537907631860080,0,2,11,7,1,0,0,-1
1537907631881024,1,0,25,-2,0,1,1,1
1537907631881024,-2,1,-10,0,-1,-2,-1,-1
1537907631882022,1,-2,-39,-8,-4,-3,-1,-2
1537907631882022,-3,-27,16,-2,0,1,-2,-3
1537907631894987,-2,0,4,-1,-5,-2,-2,-1
1537907631894987,-2,4,4,6,1,-1,-1,-1
1537907631901968,-1,5,8,0,3,1,-1,-1
1537907631901968,-2,-10,5,0,-1,0,-1,-1
1537907631917926,2,14,12,-14,-6,-3,-1,-1
1537907631917926,0,-4,-22,-7,1,0,-1,-1
1537907631919920,-1,1,-7,-3,-7,-3,-1,-1
1537907631919920,1,11,39,15,7,2,-1,1
1537907631940865,-2,-13,14,3,0,-1,-1,0
1537907631940865,-2,-1,-23,-1,-4,-1,-2,-2
1537907631941862,-1,-4,14,-6,-2,-1,0,-1
1537907631941862,1,8,-10,-2,-3,-1,0,1
1537907631954827,-2,5,-9,1,-2,1,1,-1
1537907631954827,0,0,14,2,1,1,0,1
1537907631961808,-2,-5,-18,-1,1,1,1,-1
1537907631961808,0,6,-7,-10,-3,-2,-3,-2
1537907631977766,-1,-9,-1,11,1,-1,-2,-1
1537907631977766,0,-1,2,-2,2,0,0,0
1537907631979761,-3,-4,4,-1,-8,-4,-2,-1
1537907631979761,-3,7,6,-1,-2,-2,-3,-1
1537907632000706,-1,0,-18,-11,-4,-4,-1,-1
1537907632000706,0,-4,4,-2,-4,-2,-1,1
1537907632001702,-1,4,21,5,4,2,0,1
1537907632001702,0,-3,-4,0,0,-1,0,0
1537907632014667,0,4,12,-3,-1,1,-3,-1
1537907632014667,-2,1,-2,4,1,-3,-1,-3
1537907632023644,0,-5,-17,-7,0,-2,0,-1
1537907632023644,2,10,-17,-2,-1,0,1,-1
1537907632038603,-1,-19,12,3,2,-1,1,1
1537907632038603,1,2,1,1,0,-2,-1,0
1537907632039601,1,-2,5,2,-1,0,1,0
1537907632039601,1,-7,-32,-8,0,2,0,-1
1537907632060544,-1,4,0,2,-3,-1,0,-2
1537907632060544,-1,8,16,3,0,-1,0,-2
1537907632061542,-3,-8,-9,-6,2,-1,-3,-2
1537907632061542,-1,-13,-3,10,-2,-2,-1,-1
1537907632074507,0,5,10,-4,2,1,-1,-1
1537907632074507,-1,-5,-53,-1,-3,0,0,-1
1537907632083483,0,9,36,8,3,1,-1,0
1537907632083483,-3,-9,-40,-7,-4,-3,-1,-1
1537907632098443,1,6,5,0,1,1,-1,-1
1537907632098443,-1,0,7,-1,-2,1,0,-2
1537907632099440,-2,-12,-4,2,2,-1,-1,-1
1537907632099440,1,8,11,0,1,1,0,0
1537907632120385,-1,-5,-17,-4,-1,-2,0,-2
1537907632120385,-1,6,12,-3,2,1,0,-1
1537907632122380,1,1,2,3,-2,-2,0,-2
1537907632122380,-3,-7,-9,-9,-2,-2,-1,-1
1537907632134347,3,20,9,14,1,-1,-1,0
1537907632134347,-1,-7,13,-3,-1,0,0,-2
1537907632143323,1,7,-15,0,0,0,-2,1
1537907632143323,0,-6,17,4,0,1,0,-1
1537907632158283,-2,-2,-6,-9,0,1,0,-2
1537907632158283,0,-3,-9,4,1,-1,-2,-1
1537907632159281,-2,-2,2,-1,-1,0,-2,-1
1537907632159281,1,6,-1,-4,-2,-2,-1,0
1537907632180225,1,-6,7,-3,-1,-1,1,0
1537907632180225,0,-2,5,-2,-4,-2,-1,0
1537907632182220,-2,-5,-8,-4,-2,-1,1,-1
1537907632182220,1,9,5,1,2,0,0,-2
1537907632194187,-2,-9,-5,-3,1,0,0,-1
1537907632194187,-2,-2,14,-3,-4,-2,-2,0
1537907632203163,0,4,-30,0,1,1,-1,-1
1537907632203163,0,8,0,-2,0,-1,-2,0
1537907632218123,-2,-17,-2,-3,-4,0,-1,1
1537907632218123,1,9,9,2,-1,0,0,-1
1537907632219120,1,5,22,-5,-2,-2,-1,-1
1537907632219120,-2,-6,27,11,2,0,-1,0
1537907632240065,-3,-20,-33,-10,-1,0,-2,1
1537907632240065,2,20,-19,-3,2,-1,0,1
1537907632247046,-2,1,15,2,0,0,0,-2
1537907632247046,0,-3,11,-2,0,0,0,0
1537907632254027,1,9,-12,-6,-6,-3,0,-1
1537907632254027,-1,-13,-1,4,0,-1,0,-1
1537907632263003,1,2,-5,1,2,0,0,-1
1537907632263003,-3,-6,-7,-1,-2,0,-2,-2
1537907632277963,-2,3,10,-1,-2,-1,-2,-1
1537907632277963,1,2,-1,2,-1,1,0,-1
1537907632279958,2,-1,-7,-5,-2,0,-1,0
1537907632279958,0,-5,-12,-3,-2,-2,-1,-1
1537907632300902,1,6,9,-8,-2,-1,-1,0
1537907632300902,-4,-11,5,12,3,0,-1,-1
1537907632301899,-1,2,-5,6,1,1,1,-1
1537907632301899,-1,1,-13,-4,-7,-4,-1,-1
1537907632313867,-2,1,1,4,5,2,0,-1
1537907632313867,0,-6,0,-12,-3,0,-1,1
1537907632322843,-2,0,11,1,-2,-3,-2,0
1537907632322843,0,-2,-32,-5,-1,-1,1,-2
1537907632337803,-2,3,9,7,2,1,1,-1
1537907632337803,-4,-1,-5,-5,-1,-1,1,0
1537907632339798,0,-13,-1,-5,-2,-2,-1,1
1537907632339798,-1,16,4,-5,1,1,-2,-2
1537907632360742,0,-3,0,-1,-2,-1,-1,-2
1537907632360742,1,-3,6,0,-2,-2,-1,0
1537907632361739,0,5,-5,1,2,1,0,-1
1537907632361739,-1,-11,-5,-2,0,-2,1,-1
1537907632374705,-1,-2,-17,-5,-6,-4,-3,-1
1537907632374705,0,4,10,5,-1,-1,-1,1
1537907632383680,-1,1,-16,-4,-2,0,-2,-1
1537907632383680,0,-14,23,4,1,1,-1,-1
1537907632397643,0,2,-7,-8,-6,-3,0,0
1537907632397643,-1,-1,-2,-1,-1,-3,0,-2
1537907632399638,-1,-7,-4,2,-4,-2,-2,0
1537907632399638,-2,7,4,2,1,1,0,0
1537907632420582,1,2,-2,1,-1,0,0,0
1537907632420582,-2,-6,-9,-5,-1,1,-2,-1
1537907632421579,-1,1,5,4,-3,-1,0,-1
1537907632421579,0,6,18,2,-3,-3,-1,0
1537907632443520,-2,-8,-20,0,1,-2,-1,-1
1537907632443520,-2,-6,8,0,0,0,0,0
1537907632444518,-2,0,2,-3,0,-1,-1,0
1537907632444518,-1,-3,-22,-2,-1,0,-1,0
1537907632458481,-2,2,31,7,0,0,-1,0
1537907632458481,-1,1,5,-3,-2,0,-2,-2
1537907632459478,1,0,5,-1,0,-1,-1,-2
1537907632459478,-2,-9,-8,-2,-2,0,0,-1
1537907632480422,1,8,0,-2,2,0,-1,-1
1537907632480422,1,-6,-8,-4,1,0,-1,-1
1537907632482417,0,2,41,17,1,0,0,-2
1537907632482417,-2,-4,-25,-13,-4,-3,-1,-1
1537907632503361,1,3,-8,2,2,3,-1,1
1537907632503361,0,3,2,-4,-3,0,0,-1
1537907632505356,-2,-2,-26,-1,0,-1,-1,1
1537907632505356,-1,-1,13,-2,1,-1,0,-1
1537907632518320,0,1,10,6,1,-3,-2,-2
1537907632518320,0,-9,-15,1,-1,-1,-1,-3
1537907632519318,0,7,-5,-5,1,0,0,-1
1537907632519318,-1,-1,-4,3,-1,0,0,0
1537907632541260,-3,-3,-20,-7,1,-1,-2,0
1537907632541260,-1,4,24,5,-3,-3,-2,-1
1537907632542257,2,-6,-12,-4,-3,0,-2,0
1537907632542257,2,-1,-2,-7,0,-2,-1,-1
1537907632563201,-4,-22,20,15,-1,0,-1,-3
1537907632563201,-2,-1,-20,-2,0,0,0,0
1537907632564198,0,2,2,-5,1,0,0,-1
1537907632564198,0,4,-15,5,1,0,-1,-2
1537907632578161,0,0,1,-12,-8,-3,-1,0
1537907632578161,-4,-9,0,1,2,1,-1,-1
1537907632579158,2,16,-6,3,1,0,1,2
1537907632579158,-1,0,12,5,2,1,-1,-1
1537907632600102,-2,-1,0,-4,-1,0,-1,-3
1537907632600102,-1,3,-15,0,-2,-2,-1,0
1537907632602097,0,-1,-1,-8,-3,1,-1,-1
1537907632602097,-2,-1,20,5,3,1,-1,0
1537907632623041,0,-1,-14,-2,0,-1,-1,-1
1537907632623041,-1,-1,-4,-2,-1,0,1,1
1537907632624038,-1,-1,-1,2,2,0,0,-2
1537907632624038,2,-4,14,2,-3,-2,-1,0
1537907632637004,-1,-3,-5,-9,-4,-1,0,-1
1537907632637004,-3,-4,30,12,2,0,-2,-1
1537907632651964,-3,-1,-25,0,0,-1,-1,-1
1537907632651964,0,-1,-7,-9,-8,-3,-2,1
1537907632660940,0,6,-13,0,4,-1,1,-1
1537907632660940,3,1,1,1,-1,0,-1,0
1537907632661937,-3,-3,9,-3,-1,-1,-3,-2
1537907632661937,-2,-1,4,-2,0,1,-1,0
1537907632682881,1,2,-7,3,-1,-1,-2,-2
1537907632682881,-2,0,2,-6,-2,-1,1,-2
1537907632684875,-2,-16,-6,-2,-4,-3,-1,-1
1537907632684875,1,14,-21,1,0,0,1,-1
1537907632697840,-2,0,15,0,1,-1,-1,-1
1537907632697840,0,6,29,5,4,2,0,-4
1537907632703825,0,3,-51,-16,-9,-5,-2,1
1537907632703825,-2,-8,26,5,1,0,0,-1
1537907632720780,0,-3,-4,3,-1,-1,-1,0
1537907632720780,1,7,-29,-8,1,0,0,-1
1537907632721777,-2,-11,21,-3,-1,1,-1,-1
1537907632721777,-1,3,-5,1,-3,-3,-3,-1
1537907632742721,-1,3,6,2,0,0,0,0
1537907632742721,-2,-3,14,-3,-4,-1,-1,0
1537907632744716,1,-3,-18,-2,1,0,0,-1
1537907632744716,-1,1,21,1,2,0,0,-2
1537907632756684,-1,0,2,-2,-4,0,-2,-2
1537907632756684,-2,-2,-23,-3,-2,-3,-1,1
1537907632764662,1,2,7,3,1,1,-1,-1
1537907632764662,-2,1,-6,-2,-1,0,-1,-1
1537907632779622,-2,-10,-13,-6,0,-1,-1,-2
1537907632779622,2,10,4,-3,0,0,0,-1
1537907632780619,-1,-1,26,2,-3,-4,-1,-2
1537907632780619,-1,-14,-22,-10,-5,-2,-1,-1
1537907632802561,2,7,22,11,3,0,-1,0
1537907632802561,-2,-6,-21,-2,0,-2,-2,1
1537907632803558,-2,-3,35,5,2,1,-2,-2
1537907632803558,-1,-3,-44,-7,-1,-1,-1,-1
1537907632816523,0,0,3,-7,-5,1,0,0
1537907632816523,0,-2,-2,-4,-1,-1,0,0
1537907632824502,-1,2,13,8,0,-1,0,-1
1537907632824502,1,1,-2,-6,-6,-2,-1,-1
1537907632840460,-2,-4,-6,2,2,-1,2,-1
1537907632840460,-1,-10,10,3,0,0,-3,-1
1537907632840460,-1,-3,-25,-5,1,2,1,1
1537907632840460,1,0,7,3,-1,0,0,0
1537907632862401,-1,3,-2,-6,-1,0,-2,-2
1537907632862401,0,4,28,20,-2,-1,0,-2
1537907632863398,1,-6,-12,-6,-1,0,1,0
1537907632863398,-2,-13,11,4,3,0,0,-1
1537907632876363,0,11,-8,-6,-2,-1,-1,1
1537907632876363,-1,-7,-5,-4,3,1,0,-1
1537907632885339,-3,-1,2,-3,-2,-3,-2,0
1537907632885339,-1,0,2,2,2,-2,0,-2
1537907632900300,0,23,10,0,0,-1,1,-2
1537907632900300,-2,-12,-23,-6,-1,0,-1,1
1537907632900300,0,8,-12,4,-1,-1,0,-2
1537907632900300,0,3,35,-10,-2,0,-1,1
1537907632922241,-2,-11,-5,-4,-2,-1,-1,-1
1537907632922241,0,2,-3,-2,-2,-2,-1,-2
1537907632930220,0,-1,-1,-5,-4,-2,-3,0
1537907632930220,-3,-1,5,-3,0,0,-1,-2
1537907632937202,-2,-8,-26,8,-1,-2,-3,-1
1537907632937202,1,11,1,-4,-1,-2,-2,1
1537907632945180,0,1,9,-7,-3,-1,0,1
1537907632945180,-2,-10,-5,3,1,-1,-2,0
1537907632960139,1,-2,22,-1,1,-1,1,-1
1537907632960139,-1,-8,-15,-8,-3,-1,-1,-2
1537907632960139,-1,7,1,8,3,1,-1,-3
1537907632960139,-1,7,-1,-1,-1,-1,-1,-1
1537907632982081,-1,0,-5,0,0,1,0,-1
1537907632982081,-1,-7,0,-3,-4,-1,0,-2
1537907632983078,-2,-13,6,-1,-1,1,1,-1
1537907632983078,0,15,-7,3,0,0,-2,-1
1537907632997041,0,-4,5,4,0,1,-1,0
1537907632997041,2,10,-16,-4,-4,-3,-1,1
1537907633005020,-3,-5,11,-4,1,0,-2,-2
1537907633005020,-1,-8,-28,-3,-2,-1,1,-1
1537907633019980,-1,-3,2,4,2,0,1,0
1537907633019980,1,5,1,-3,-1,0,-2,-1
1537907633020978,0,5,-2,-6,-2,-2,0,1
1537907633020978,0,-8,19,8,-2,-1,-1,0
1537907633042920,-1,-1,-14,-4,0,-1,-1,-1
1537907633042920,-3,-7,5,2,-3,-2,-2,-1
1537907633042920,0,3,-12,-3,-1,-2,1,1
1537907633042920,-1,1,-1,-4,2,0,-2,-3
1537907633056882,-1,1,12,3,-1,-1,-2,-1
1537907633056882,0,-10,-5,0,-1,-1,0,0
1537907633064862,0,-2,-3,0,-1,0,0,-1
1537907633064862,1,5,4,1,0,-1,-1,0
1537907633079821,-2,-4,7,-4,-3,0,1,-1
1537907633079821,-2,3,-8,3,5,0,-1,-1
1537907633080819,-1,-8,2,3,1,-1,-1,-1
1537907633080819,2,-4,-1,-4,-4,-4,1,0
1537907633102760,0,3,-10,-14,-3,-2,-1,-1
1537907633102760,-1,-2,16,16,2,1,1,-1
1537907633102760,2,3,0,2,1,0,-1,-1
1537907633102760,-2,-3,-3,6,1,1,0,-1
1537907633116722,-1,0,1,-11,-4,-1,-1,-1
1537907633116722,-2,2,0,-2,-3,-2,0,-2
1537907633124703,-2,1,-1,0,0,-1,0,0
1537907633124703,0,3,22,2,-6,-3,-1,-2
1537907633139660,0,-3,-42,-6,1,1,-1,-2
1537907633139660,-1,0,23,0,1,0,-1,-2
1537907633140658,-1,-8,-3,-3,-3,-1,0,0
1537907633140658,1,3,3,2,4,2,-1,-1
1537907633162598,-3,-5,31,7,-2,-3,-1,0
1537907633162598,-1,-2,-35,-9,-3,-3,1,-1
1537907633163596,3,6,2,5,0,3,0,-1
1537907633163596,1,0,3,-2,-4,-3,-1,1
1537907633176561,1,-1,6,3,1,-3,-3,-1
1537907633176561,0,2,-5,-2,-1,0,-1,0
1537907633184540,1,7,5,1,-2,-1,-2,-1
1537907633184540,-2,-13,-15,-5,1,-1,1,0
1537907633199500,-1,-4,-1,1,0,0,-1,1
1537907633199500,-2,1,-1,-16,-3,0,-1,1
1537907633207478,-1,4,5,3,1,0,-1,0
1537907633207478,-1,-1,-5,2,3,0,-1,0
1537907633222439,1,3,5,5,-2,-4,-1,-1
1537907633222439,-1,-5,-1,-12,3,3,0,-1
1537907633223437,-1,-5,-13,-4,-9,-5,-2,-1
1537907633223437,-2,3,8,1,2,-1,0,-1
1537907633236402,-1,0,3,2,0,0,-1,-1
1537907633236402,2,3,13,4,2,1,-2,-1
1537907633245378,-2,-5,-25,-6,1,0,-2,0
1537907633245378,-1,8,4,2,1,0,-2,0
1537907633260337,-1,-2,-7,-1,-1,-1,0,-1
1537907633260337,-2,-10,13,4,0,1,-2,0
1537907633260337,-2,8,1,-1,-1,-1,-2,-2
1537907633260337,2,-1,-9,-1,-5,0,-2,0
1537907633282278,0,0,6,-3,1,-1,0,-1
1537907633282278,-2,-2,-9,2,-2,-1,-2,0
1537907633283276,-2,4,5,2,1,0,0,-1
1537907633283276,-1,-7,-8,-6,1,-1,-1,-2
1537907633296241,-1,-7,-8,-2,-4,-3,-1,0
1537907633296241,2,10,7,1,-3,-1,1,1
1537907633305217,-3,-4,3,0,3,-1,0,1
1537907633305217,0,7,1,1,1,1,1,0
1537907633321175,0,-4,6,-4,-1,0,-1,-2
1537907633321175,-3,0,18,-1,-1,-3,-1,-3
1537907633322172,4,-9,-70,1,2,2,1,5
1537907633322172,1,10,80,2,3,1,1,1
1537907633342119,-7,23,-13,11,18,1,-3,-5
1537907633342119,-8,-27,-20,-70,-34,-11,-5,-4
1537907633343116,8,9,-10,25,9,3,7,7
1537907633343116,3,-8,-52,12,18,7,2,5
1537907633366054,-1,-1,-54,33,42,9,1,0
1537907633366054,-7,-21,104,59,-50,-19,-8,-5
1537907633366054,8,-5,-73,-108,-5,2,-2,2
1537907633366054,5,9,0,1,-16,-1,2,3
1537907633380018,0,12,30,56,-6,-6,3,2
1537907633380018,3,30,-26,96,58,15,8,3
1537907633381015,-14,-30,76,-33,-32,-12,-9,-10
1537907633381015,-4,-2,-29,57,1,1,-4,-4
1537907633401958,4,-4,102,-88,-31,0,3,4
1537907633401958,-1,-5,-121,33,40,13,4,-2
1537907633402956,0,29,79,52,49,16,5,-1
1537907633402956,-11,-8,-4,-46,-61,-32,-12,-11
1537907633425894,11,14,36,45,33,16,9,11
1537907633425894,-4,3,44,-105,-37,-12,-4,-2
1537907633425894,-3,0,-69,27,28,8,0,-1
1537907633425894,2,3,7,-14,-11,-1,-1,1
1537907633439857,-6,-16,13,-7,-31,-13,-6,-6
1537907633439857,13,23,10,47,29,10,4,10
1537907633440855,-5,-18,30,22,-16,-11,-5,-6
1537907633440855,-4,-5,113,-31,8,0,-2,-5
1537907633462796,-8,-33,-105,-13,1,-5,-3,-4
1537907633462796,2,-4,-21,-37,2,3,0,1
1537907633462796,1,20,-38,-16,-9,-4,-2,-2
1537907633462796,1,-18,-98,44,15,5,3,1
1537907633492716,-3,-12,-14,-37,-11,-6,-6,-4
1537907633492716,-3,22,68,-2,6,0,-4,-5
1537907633493713,-10,-56,-90,-54,-35,-8,-2,-2
1537907633493713,6,39,62,36,19,6,5,3
1537907633499697,7,13,47,22,32,15,4,6
1537907633499697,-5,-17,-18,-12,-22,-10,-5,-2
1537907633500695,1,4,30,-10,-3,0,0,1
1537907633500695,-2,-6,-13,18,24,5,0,-1
1537907633522636,-5,-16,-62,-8,-19,-9,-5,-5
1537907633522636,1,-7,-86,5,9,3,2,0
1537907633523634,2,-6,-22,1,21,11,4,3
1537907633523634,4,22,47,-21,-4,-2,-2,1
1537907633546572,1,13,16,40,2,-3,-3,0
1537907633546572,-1,4,-46,0,0,-5,-3,-3
1537907633547570,-4,1,-29,2,-9,0,0,-2
1537907633547570,-9,-31,22,-38,-6,0,-2,-6
1537907633559539,7,34,-21,-7,-7,1,1,4
1537907633559539,-2,-6,33,-25,-9,-3,-3,0
1537907633560536,0,3,88,57,5,-4,-5,-1
1537907633560536,-1,0,67,-1,0,-2,-2,-1
1537907633582476,-5,-14,-81,29,-9,-4,-1,-4
1537907633582476,7,18,53,10,10,7,4,7
1537907633583474,-1,0,46,11,-4,-4,-2,-2
1537907633583474,0,-3,-46,0,1,0,-1,0
1537907633605416,-7,-10,107,22,-5,-4,-3,-7
1537907633605416,0,3,-25,-24,-4,-1,-1,-1
1537907633606412,-7,-9,105,10,-14,-9,-5,-6
1537907633606412,2,-6,-97,-47,0,1,1,2
1537907633619377,1,-8,33,-14,1,2,2,3
1537907633619377,-1,-1,62,6,-3,-4,-2,-2
1537907633620375,0,11,30,-12,0,-2,-1,3
1537907633620375,-5,-9,-20,-5,-6,-3,-1,-3
1537907633642316,1,0,-11,-21,-9,-3,-2,-1
1537907633642316,-1,-11,-25,-5,0,1,1,-1
1537907633643314,-3,10,35,7,-7,-5,-3,-4
1537907633643314,-1,-6,-32,7,2,3,1,0
1537907633665255,1,4,-28,-10,-5,-1,0,1
1537907633665255,-5,-7,37,11,-4,-4,-3,-3
1537907633666252,2,5,-32,0,1,1,1,0
1537907633666252,0,6,-2,4,-1,0,-1,2
1537907633680215,-2,-4,16,-16,-1,1,-3,-1
1537907633680215,-3,-6,-12,-4,-4,-3,-1,-3
1537907633680215,2,3,-18,-1,-1,0,1,3
1537907633680215,0,0,-10,2,2,-2,0,-1
1537907633702156,-3,-4,16,-13,-8,-5,-2,-2
1537907633702156,0,-3,-12,3,-3,-1,1,2
1537907633703153,2,-2,-15,4,0,0,-2,0
1537907633703153,-2,0,22,6,0,-1,-1,-4
1537907633725094,-2,1,-6,-3,1,-2,-1,-1
1537907633725094,0,-2,-2,2,1,-1,-1,1
1537907633726092,2,3,1,-5,-2,-2,0,-3
1537907633726092,-1,-21,-6,-6,-7,-1,-1,0
1537907633740055,2,28,1,-2,2,1,-2,-1
1537907633740055,-3,-22,-7,1,1,1,0,-2
1537907633741052,0,-1,4,1,0,-1,-1,-1
1537907633741052,-1,4,-4,-3,0,0,-1,-1
1537907633761996,-2,-12,6,7,0,1,2,-1
1537907633761996,0,10,-16,-1,-4,0,-2,-1
1537907633762994,-1,1,-7,0,-1,0,1,-1
1537907633762994,-1,-10,1,3,0,-2,-1,-1
1537907633785933,-1,-8,7,-2,0,0,-2,-1
1537907633785933,-1,-1,-35,-33,6,2,-1,0
1537907633785933,-6,-3,71,32,-20,-8,-4,-4
1537907633785933,1,14,-50,-12,0,1,0,3
1537907633799895,-1,-22,14,9,-1,-1,1,1
1537907633799895,2,8,14,3,-3,-1,-2,-1
1537907633800892,-2,-5,-17,-10,6,2,0,0
1537907633800892,2,13,29,10,-7,-4,0,-3
1537907633822834,-2,-1,-53,-9,9,2,-1,-2
1537907633822834,-3,-12,-42,-1,-13,-6,-1,0
1537907633822834,0,0,3,2,-2,-1,-2,2
1537907633822834,1,8,5,-8,-1,0,-1,1
1537907633845773,-1,4,12,-7,-2,-1,0,0
1537907633845773,0,-4,-15,-22,2,1,1,-3
1537907633845773,-4,1,7,-3,-6,-4,-2,-2
1537907633845773,3,10,43,22,6,2,1,3
1537907633859735,2,18,-13,-10,-6,-1,0,0
1537907633859735,-2,-5,27,10,3,0,-1,0
1537907633860733,1,5,1,-5,1,2,-1,0
1537907633860733,-2,1,-53,-10,-1,-1,-1,-4
1537907633882674,-1,0,65,6,0,-1,-2,0
1537907633882674,-2,0,-5,7,-3,-3,1,-2
1537907633882674,5,0,-24,-8,4,3,1,2
1537907633882674,-2,-5,5,-2,-2,-1,-2,-1
1537907633912595,-2,-7,-21,-9,-3,-1,0,-1
1537907633912595,-2,-1,59,16,-2,-1,-3,-1
1537907633913592,2,-7,-69,-15,2,4,1,2
1537907633913592,-2,-1,22,3,1,-3,0,-1
1537907633919577,-1,-23,4,-2,-3,-4,0,-1
1537907633919577,-2,9,55,9,-1,-2,-1,-1
1537907633920575,0,-9,-36,-1,4,1,1,1
1537907633920575,0,-3,-15,-12,-6,-2,-1,-1
1537907633942514,-1,-5,-20,0,-3,-1,0,-1
1537907633942514,-2,-7,19,5,4,1,-1,-1
1537907633943511,-3,-1,-18,-3,-2,-3,-2,-4
1537907633943511,1,1,10,2,1,0,1,1
1537907633965452,-3,4,0,-3,-2,-1,-2,-1
1537907633965452,1,1,-7,2,0,1,0,1
1537907633966449,-2,3,12,1,1,1,0,-3
1537907633966449,-4,-5,-6,-1,1,1,-2,-1
1537907633979415,0,4,3,0,-1,0,1,5
1537907633979415,-3,-1,-43,2,-2,-1,-4,-9
1537907633987393,-3,4,28,-8,1,-2,-1,2
1537907633987393,0,-1,24,7,-1,-1,-2,-2
1537907634002353,2,0,-36,2,2,1,-2,0
1537907634002353,3,-6,-23,4,1,2,3,3
1537907634003351,-2,0,35,0,-2,-4,-1,-2
1537907634003351,-3,-6,-17,-15,-6,-2,-2,-5
1537907634025292,4,7,-13,18,3,0,1,4
1537907634025292,2,6,12,-2,1,-1,0,2
1537907634026290,0,-1,14,5,2,0,-1,0
1537907634026290,-1,-4,17,4,1,0,0,0
1537907634039255,-2,0,-4,-7,-2,-2,-1,-3
1537907634039255,0,-3,-20,-5,-2,0,0,-1
1537907634047233,0,6,15,5,1,1,0,-4
1537907634047233,2,-4,-20,0,-1,-3,-1,10
1537907634062194,-6,-5,0,-5,-1,-2,-5,-14
1537907634062194,0,2,14,3,1,1,-1,7
1537907634063192,-3,-5,-19,-10,-7,-3,-1,-3
1537907634063192,0,3,3,2,4,2,1,-7
1537907634085133,3,8,18,1,-3,-2,1,24
1537907634085133,-4,-1,31,0,-3,0,0,-6
1537907634086132,1,-2,31,9,1,-1,0,1
1537907634086132,-1,-12,-105,-11,-1,-2,1,1
1537907634099096,-1,-1,10,-2,4,-1,0,-6
1537907634099096,-1,7,11,0,-1,-1,0,-4
1537907634107075,1,0,4,2,-1,0,1,5
1537907634107075,-3,2,17,0,-3,-1,-3,-5
1537907634122036,-1,-11,16,-8,-4,-2,-1,-7
1537907634122036,2,12,-23,3,3,1,1,4
1537907634123033,0,6,-9,0,1,-1,0,-3
1537907634123033,1,-11,23,6,3,1,0,-2
1537907634145971,-4,-2,-7,-5,-3,-3,-2,-6
1537907634145971,2,-7,-5,-4,-3,-1,-3,1
1537907634145971,-1,1,-5,1,0,-1,0,-1
1537907634145971,0,6,14,0,0,-2,1,2
1537907634158936,-2,-1,24,2,1,1,-1,3
1537907634158936,0,-9,-20,-3,-3,-3,-2,-1
1537907634167912,-1,-2,-23,-7,0,2,0,-3
1537907634167912,-3,-5,-22,0,-1,-1,-1,-1
1537907634182873,5,19,42,6,-1,0,0,0
1537907634182873,-2,5,16,1,-3,-4,-1,-2
1537907634182873,0,-2,-41,-1,0,0,-1,0
1537907634182873,-3,-3,36,-3,-3,-1,0,-1
1537907634204813,-2,-15,-46,-5,1,3,2,-1
1537907634204813,1,-4,19,2,0,0,-1,0
1537907634212791,-3,1,-3,0,2,0,1,0
1537907634212791,0,3,36,6,-4,-5,-1,-1
1537907634218775,-2,-7,-43,-15,-5,-2,-3,-3
1537907634218775,-3,3,11,-2,3,1,1,-1
1537907634227751,-3,-7,-30,-5,-3,-2,-2,-2
1537907634227751,1,3,7,2,-1,-2,-1,0
1537907634242711,-1,7,15,4,1,-1,-1,-3
1537907634242711,-3,-8,-12,-10,-6,-3,-1,-1
1537907634249692,1,0,-17,-3,0,-1,-2,0
1537907634249692,0,1,6,5,1,2,1,0
1537907634265650,-3,-6,-14,0,-3,-2,-1,-1
1537907634265650,-3,11,1,2,-1,0,-1,-5
1537907634266647,-2,-18,36,1,-4,-3,-2,0
1537907634266647,3,17,-35,-9,-2,0,0,0
1537907634287591,-3,10,-13,-3,2,0,-1,-3
1537907634287591,-2,-15,12,3,2,1,1,1
1537907634289586,-1,4,44,2,-5,-2,-2,3
1537907634289586,-5,-9,-3,5,1,-1,-4,-5
1537907634301554,1,4,-60,-19,-3,-1,-1,-5
1537907634301554,5,5,-1,0,-1,0,3,28
1537907634310530,-4,8,4,1,-1,-2,-4,-25
1537907634310530,5,1,59,7,-1,0,-1,16
1537907634324492,-4,-9,15,2,-2,-1,-1,8
1537907634324492,1,-1,-80,-8,1,-1,1,6
1537907634333468,1,-4,2,2,3,1,2,-16
1537907634333468,-5,2,50,1,-3,-3,-5,-15
1537907634348428,1,-3,54,7,0,0,4,17
1537907634348428,-4,-9,-65,-7,-2,-1,-2,-5
1537907634349426,2,0,4,1,1,1,1,16
1537907634349426,0,7,0,0,-1,-2,2,-1
1537907634362391,0,-18,-6,5,1,-2,1,-5
1537907634362391,0,11,30,-5,-2,-1,-1,-8
1537907634369372,-3,4,-20,-3,-3,-4,-3,6
1537907634369372,1,-6,-7,-5,0,0,-2,1
1537907634385330,-2,-9,18,7,0,-1,-4,-10
1537907634385330,-2,-2,13,4,0,-1,0,-4
1537907634387324,-2,2,-16,-6,-2,-1,-2,-35
1537907634387324,-1,-9,-16,-1,1,1,-1,35
1537907634408269,3,18,53,4,-2,0,0,5
1537907634408269,-3,-3,-48,-6,-2,-2,-3,-10
1537907634409266,2,7,1,-2,2,2,1,5
1537907634409266,-3,-8,-13,0,1,0,1,-9
1537907634422231,-1,-10,-40,-7,-2,-2,-3,-3
1537907634422231,1,7,40,6,-2,-3,-1,-2
1537907634429212,-1,-5,17,3,-1,-1,0,7
1537907634429212,-1,0,-24,-4,-2,-2,-1,-6
1537907634445170,-4,2,8,0,0,0,-2,-6
1537907634445170,3,2,7,1,0,1,0,-7
1537907634447165,1,-3,-15,-3,-2,-2,-3,10
1537907634447165,-2,-3,-13,-4,0,-1,1,-6
1537907634468110,0,9,8,2,-1,-1,0,-8
1537907634468110,-3,-17,7,-2,1,1,-1,-2
1537907634469107,2,11,-3,2,2,0,3,10
1537907634469107,-5,-29,-23,-4,0,-2,-5,-9
1537907634482072,2,15,1,0,-2,-2,-3,-3
1537907634482072,-2,-1,10,0,-2,0,0,0
1537907634489053,-2,-9,12,2,-1,0,-1,2
1537907634489053,-2,2,1,-5,-3,0,1,-7
1537907634506007,2,-4,-32,-3,1,0,2,1
1537907634506007,-2,-2,13,-2,-1,-2,-2,-2
1537907634507005,-1,-8,-10,-2,0,-1,-3,1
1537907634507005,0,15,18,4,1,0,1,-2
1537907634528945,-2,-7,-2,0,-1,-2,-2,-2
1537907634528945,2,5,41,6,0,-1,0,0
1537907634530941,-2,-11,-49,-7,-1,1,-1,1
1537907634530941,-4,0,-5,-1,-1,0,-3,-21
1537907634541911,1,1,-5,0,-2,1,11,39
1537907634541911,1,-3,15,2,1,-1,-2,-2
1537907634548892,-1,8,39,7,-2,-2,-1,-1
1537907634548892,1,0,-88,-16,-1,1,2,3
1537907634565847,-2,-9,9,0,0,0,-8,-22
1537907634565847,0,-5,4,-2,-4,-3,1,2
1537907634566845,-3,4,38,5,-1,-1,-1,-2
1537907634566845,-1,6,-13,-4,-3,-2,0,1
1537907634595768,-1,-6,-40,-4,3,0,-1,-3
1537907634595768,2,7,25,4,2,1,0,3
1537907634596765,1,-5,-18,-3,0,-1,-1,-2
1537907634596765,-7,-5,22,3,-1,-1,-3,-34
1537907634602750,2,21,-8,-3,-3,-3,-3,0
1537907634602750,-4,-11,-21,-1,-2,-3,-1,-1
1537907634608733,1,9,5,-3,0,-2,-1,2
1537907634608733,-2,-1,-2,1,1,-1,1,2
1537907634625687,0,-6,14,-1,-1,0,1,-5
1537907634625687,-2,-1,-14,-2,-1,0,-1,-5
1537907634626686,-3,-2,-4,-1,-2,-1,0,-4
1537907634626686,2,-3,9,-1,-1,-2,0,11
1537907634647629,-3,0,17,0,0,-3,-4,-6
1537907634647629,-4,1,-20,2,-1,-2,-2,2
1537907634649624,1,-3,-3,-5,-2,0,1,-3
1537907634649624,1,-3,-20,-4,0,-1,0,12
1537907634662589,0,-1,6,1,-1,1,-1,11
1537907634662589,-5,2,0,1,0,-1,-4,-16
1537907634669570,0,2,29,5,-1,-1,0,0
1537907634669570,5,2,-31,-1,-1,-1,1,5
1537907634685529,-2,-8,5,-2,-1,-1,-2,-9
1537907634685529,1,-8,-9,-2,-1,1,-1,4
1537907634686526,1,3,5,0,0,0,0,-1
1537907634686526,-1,5,23,4,-2,1,-2,4
1537907634708467,-3,-2,-7,0,-2,-1,0,-4
1537907634708467,0,2,-6,1,-1,0,0,-1
1537907634709464,-2,1,5,-4,-2,-2,1,-32
1537907634709464,-2,-2,-8,0,-1,0,-1,21
1537907634722430,-4,-2,-9,0,0,-2,-5,-24
1537907634722430,0,0,-10,-6,0,0,0,2
1537907634729410,1,1,5,1,-4,-1,-1,-9
1537907634729410,-1,-3,30,3,-1,-2,1,2
1537907634745368,1,-6,-18,-2,0,0,-1,5
1537907634745368,2,7,21,3,0,0,0,0
1537907634747363,-1,-5,-23,-6,0,0,-1,12
1537907634747363,1,0,17,4,-1,-1,-1,-4
1537907634768307,-1,4,5,-1,-2,0,0,4
1537907634768307,-5,-4,3,-3,-2,-2,-2,-10
1537907634769304,7,0,-23,0,1,-1,-9,-10
1537907634769304,-2,4,11,-1,-3,-2,-2,-1
1537907634782269,-1,-8,-6,2,1,-1,-1,-7
1537907634782269,0,-3,-20,-9,-1,-1,2,7
1537907634796232,-2,0,-8,0,0,-3,0,6
1537907634796232,-4,0,9,-2,-1,-2,-2,-11
1537907634805209,0,3,7,3,-1,-1,2,7
1537907634805209,-2,-3,17,0,0,-1,-4,-9
1537907634807203,-1,-1,-20,-2,-2,3,1,10
1537907634807203,0,-6,-19,-2,-1,1,1,-4
1537907634828147,-3,0,12,0,1,-1,0,5
1537907634828147,1,-3,-6,0,0,1,-1,2
1537907634829144,-2,-2,5,-1,-2,-1,0,3
1537907634829144,0,3,19,2,1,0,2,0
1537907634842109,-1,-4,-22,-5,-3,0,0,-3
1537907634842109,1,1,21,1,0,0,-1,3
1537907634850087,-2,-3,-42,-2,2,0,1,7
1537907634850087,-1,-3,4,-2,-3,0,-2,-4
1537907634865047,-1,0,9,-1,-2,-1,-1,0
1537907634865047,-1,1,-1,0,-3,-2,-1,-1
1537907634873026,-3,-7,5,-2,-3,-1,0,4
1537907634873026,2,5,-18,-2,1,0,1,-1
1537907634887986,-1,-2,11,2,1,-1,-1,-2
1537907634887986,-1,-1,-14,-1,1,-1,1,3
1537907634889981,-2,-1,17,-1,-2,0,-1,0
1537907634889981,-2,-1,-3,-1,-1,0,-1,-1
1537907634901949,2,0,-3,-1,0,0,-1,-1
1537907634901949,-1,-2,14,0,-3,-2,-1,-2
1537907634910925,0,3,-21,0,-2,-1,0,3
1537907634910925,-1,-3,9,0,0,-1,0,0
1537907634925885,0,12,0,-1,1,1,-1,-1
1537907634925885,-1,-15,-5,1,0,2,1,-2
1537907634926884,-1,0,11,-2,-4,-2,-1,1
1537907634926884,-1,-3,2,1,0,0,0,-1
1537907634947829,0,1,-2,-2,-4,-3,-2,-2
1537907634947829,-2,3,-11,1,4,1,-1,-2
1537907634949824,0,1,61,2,-3,-2,-4,0
1537907634949824,-2,-2,-55,-4,-1,0,-2,-2
1537907634961789,5,3,7,-6,3,0,2,2
1537907634961789,-1,9,9,0,-1,-1,-1,0
1537907634970765,-2,-17,-5,0,1,-1,1,-1
1537907634970765,-1,3,39,4,-1,-2,-2,-1
1537907634985725,-1,2,-7,2,-2,0,0,-3
1537907634985725,0,2,-35,-4,-2,-1,0,-1
1537907634986722,0,0,4,0,3,0,1,1
1537907634986722,-2,-4,-21,-5,-1,-2,-3,0
1537907635007666,-2,4,31,-1,-1,-1,0,-1
1537907635007666,-1,-9,-16,-3,-1,-1,0,0
1537907635009661,0,3,4,0,0,0,0,-1
1537907635009661,0,-4,-7,-1,-1,-1,0,0
1537907635021629,-1,-2,20,2,-1,-1,0,1
1537907635021629,-1,-1,8,1,-3,-2,-1,-2
1537907635030605,1,4,-8,-1,3,1,1,1
1537907635030605,3,0,-7,-2,0,1,0,-1
1537907635045565,-1,-6,5,1,-2,-1,-1,-1
1537907635045565,-1,0,13,0,-1,0,-1,2
1537907635046562,-3,-5,-7,1,-2,-3,-2,-2
1537907635046562,-2,0,21,-5,-2,-2,0,-2
1537907635068504,2,1,-18,3,3,0,-2,0
1537907635068504,0,0,-10,-1,0,0,-1,-3
1537907635069501,0,1,-11,-1,-1,-2,-2,0
1537907635069501,0,2,40,3,-1,0,0,0
1537907635081469,-5,-8,-11,-5,-3,-3,-2,-1
1537907635081469,1,-4,-12,-2,0,-1,-1,-1
1537907635090445,-2,-2,-51,-3,0,1,2,2
1537907635090445,-1,0,29,1,0,-2,-4,-4
1537907635105406,-1,-7,-19,-1,-1,-1,0,0
1537907635105406,-1,1,-3,-1,-1,-1,-1,-1
1537907635107402,-1,-1,-3,-4,-1,0,0,-4
1537907635107402,-2,-4,-7,-2,0,0,0,0
1537907635128345,-1,-1,20,-2,-2,0,-1,-1
1537907635128345,2,1,-15,1,-1,0,-1,-2
1537907635129343,-1,0,20,1,-1,-1,-3,-1
1537907635129343,0,-2,-38,-2,0,1,-1,3
1537907635141310,-2,0,18,-2,-1,-2,-1,-3
1537907635141310,-1,1,10,0,-1,0,-1,0
1537907635150286,1,-6,1,-3,-1,-1,-1,-2
1537907635150286,-4,-4,-25,2,-1,0,1,-3
1537907635165247,4,3,-12,-4,-1,1,1,3
1537907635165247,-1,-1,1,-3,-1,-1,0,0
1537907635167242,1,5,13,3,2,1,-2,2
1537907635167242,1,-2,-5,0,1,0,1,-2
1537907635188185,-1,1,26,5,1,0,-3,-4
1537907635188185,-3,-2,1,-5,-4,0,0,-1
1537907635189183,-3,1,-12,2,-1,-1,-2,0
1537907635189183,1,-1,-2,-4,-4,0,-2,2
1537907635202147,-2,-3,-18,2,0,0,1,-1
1537907635202147,3,2,2,-2,1,-2,-1,2
1537907635210127,-1,0,8,0,-2,-1,0,-1
1537907635210127,-1,-1,16,3,-1,-1,-1,1
1537907635225086,-2,-5,-37,-3,-1,0,1,1
1537907635225086,-2,-3,11,-3,-1,0,-3,-2
1537907635227082,0,-1,-5,-4,-1,-2,1,-1
1537907635227082,-1,0,6,0,2,-1,0,-2
1537907635248024,-1,-1,11,1,-1,-1,-1,-2
1537907635248024,1,-3,12,3,0,-1,-1,1
1537907635249021,-3,-6,-31,-7,-2,-1,0,0
1537907635249021,1,2,-8,1,0,0,-1,1
1537907635270962,-5,-3,23,-3,-3,-1,-2,-2
1537907635270962,0,-3,-41,-1,1,0,1,0
1537907635271961,2,7,40,4,1,0,1,1
1537907635271961,-1,-3,0,-1,-1,-2,-1,-4
1537907635285923,1,0,-3,-1,-2,-1,-2,0
1537907635285923,-1,-1,-35,-2,-2,-2,-2,-1
1537907635286920,0,-2,10,2,0,-2,-1,1
1537907635286920,-2,-4,-1,-4,-1,0,0,-1
1537907635307864,1,-1,6,2,-2,-2,-3,2
1537907635307864,-1,3,41,1,-1,-1,0,-1
1537907635309859,0,-2,-63,-6,1,2,0,-2
1537907635309859,-3,0,8,1,1,-1,-1,-2
1537907635330803,4,1,5,2,-2,-2,0,2
1537907635330803,-2,4,-12,-3,-2,-2,1,-1
1537907635331801,-3,-9,23,0,-1,-2,-2,-1
1537907635331801,-3,-4,-13,-5,-1,-3,-2,0
1537907635345763,-2,5,21,4,2,1,1,-2
1537907635345763,0,5,23,3,-1,0,1,3
1537907635346760,0,-2,-13,0,1,-1,0,-1
1537907635346760,0,0,12,-1,-3,-1,1,4
1537907635367704,-1,-5,-20,-4,0,-1,-4,-7
1537907635367704,-1,-4,-21,-3,-1,-1,-2,-2
1537907635369698,-2,1,53,1,-1,-1,0,-2
1537907635369698,2,2,-22,0,0,0,-2,0
1537907635390642,-3,-1,-13,-3,-1,-3,1,1
1537907635390642,-2,-4,16,1,-1,0,-1,0
1537907635391640,-1,-1,-10,-1,-4,0,0,0
1537907635391640,-1,1,-13,3,1,-1,-1,-1
1537907635404605,-1,3,70,6,-1,-1,-3,-1
1537907635404605,-2,-7,-84,-7,0,1,1,0
1537907635411586,2,4,6,0,2,-1,0,1
1537907635411586,1,0,12,0,-3,-1,0,-1
1537907635427544,-2,-5,-34,-5,0,0,-2,0
1537907635427544,-2,-1,37,3,-3,-2,0,-2
1537907635429538,-2,-4,0,-3,-2,-1,1,0
1537907635429538,-2,0,-20,-4,-1,0,-1,-3
1537907635450482,-1,-1,-5,0,0,1,1,1
1537907635450482,-2,-1,18,1,-1,-1,-1,0
1537907635451480,-1,0,-12,-2,-1,1,-2,-1
1537907635451480,1,0,8,-2,1,-1,1,1
1537907635464445,-3,-5,-18,-2,-2,-1,-2,-1
1537907635464445,-1,0,30,0,0,0,-1,-1
1537907635471427,-1,-3,-38,-1,0,-1,-1,0
1537907635471427,1,4,26,1,-1,2,-1,1
1537907635488382,0,-2,-30,-3,-1,-1,1,-2
1537907635488382,-2,0,24,1,0,1,-1,-2
1537907635489379,1,5,28,4,0,-1,-2,-1
1537907635489379,-2,-5,-5,-4,-2,-2,-3,-2
1537907635510322,0,-2,-5,0,-1,0,0,2
1537907635510322,0,0,-18,-2,-1,-1,-1,0
1537907635512317,-3,-4,1,-2,0,0,0,-1
1537907635512317,-2,0,3,3,-2,-1,1,-1
1537907635525282,-3,-1,20,2,-1,0,-3,0
1537907635525282,0,-2,-22,-2,-2,1,1,-2
1537907635531267,-1,1,-7,-2,-1,-2,1,-2
1537907635531267,0,1,9,0,0,0,0,2
1537907635548221,-2,-1,-1,-2,-1,-2,0,-3
1537907635548221,1,0,3,3,0,0,-1,0
1537907635549218,0,-1,-18,-5,-1,0,0,1
1537907635549218,-2,-4,8,0,-1,-1,-2,-2
1537907635578141,0,-1,-29,-5,-1,0,-1,-1
1537907635578141,-1,-3,2,-2,-1,-1,-1,-2
1537907635579139,-1,-1,5,-2,-3,0,-2,-1
1537907635579139,-2,-5,-5,-1,-1,-2,-2,-1
1537907635585123,-2,2,38,6,0,0,-1,1
1537907635585123,1,2,-18,-5,1,-2,1,0
1537907635592104,-2,0,0,0,-1,-2,-1,-1
1537907635592104,-2,-5,-8,0,-1,-1,-1,-3
1537907635608062,1,-3,-3,-7,-1,-1,-1,1
1537907635608062,0,4,-12,3,1,0,-1,-2
1537907635609060,-1,-5,22,-5,-3,0,0,-1
1537907635609060,1,3,-27,-2,0,0,0,-1
1537907635631001,1,-2,8,-1,-2,1,-1,-2
1537907635631001,-1,-3,-16,-3,-1,0,0,1
1537907635631999,1,-1,3,-1,1,-1,1,-1
1537907635631999,-2,-1,15,0,-1,-1,0,-1
1537907635652942,-1,1,-6,2,-2,1,1,1
1537907635652942,-2,-1,19,-2,-3,-3,-1,-3
1537907635654937,-2,2,-7,6,2,-2,-2,-4
1537907635654937,0,-2,-13,-3,-1,0,-1,0
1537907635667901,-1,-3,-35,-4,1,-2,0,1
1537907635667901,0,7,31,6,2,-1,0,0
1537907635669896,3,-3,35,4,-3,-2,-1,2
1537907635669896,-2,1,-29,-4,0,-1,0,-2
1537907635690840,-1,-1,15,1,0,-2,-1,-3
1537907635690840,-3,-7,-30,-5,-3,-1,-1,-2
1537907635691838,-3,-2,-17,-4,0,0,-2,-2
1537907635691838,1,3,39,1,-1,1,-2,0
1537907635704802,-2,-5,-37,-3,-1,-1,-1,-3
1537907635704802,0,0,30,1,0,-1,-1,-1
1537907635711784,0,1,-7,-1,0,-1,-1,3
1537907635711784,0,0,1,-1,-3,-2,0,-1
1537907635727741,-3,-1,14,0,-1,-1,-1,-3
1537907635727741,1,3,-21,-1,-1,-1,0,2
1537907635729736,-1,-2,-37,-4,-1,0,0,-1
1537907635729736,-2,-3,26,-2,-1,-1,-2,-2
1537907635750680,2,5,1,4,1,0,0,2
1537907635750680,-3,-6,11,-1,-2,-1,-2,-1
1537907635751677,-2,-4,-8,-1,-3,0,-2,-2
1537907635751677,0,-1,-8,-3,-2,0,-1,-1
1537907635763645,-1,1,-6,-1,0,-1,-1,0
1537907635763645,1,-2,13,-1,-1,0,-1,0
1537907635772621,-2,1,-11,-4,-2,-1,-1,-2
1537907635772621,-2,-6,-3,1,1,0,-1,1
1537907635787581,1,3,-13,-2,0,-1,0,-1
1537907635787581,-1,0,-9,0,-2,1,-4,-2
1537907635789576,-1,2,12,0,-2,-2,1,-1
1537907635789576,-2,-2,12,-4,-2,-3,-1,-1
1537907635810520,0,2,-22,1,-1,-2,0,2
1537907635810520,-2,-3,0,-3,1,-2,-1,-4
1537907635811518,-1,-3,-16,-2,-1,-1,0,-2
1537907635811518,-2,-1,-2,2,-1,-1,-2,-3
1537907635824484,-3,-3,4,-3,-1,-1,-1,-5
1537907635824484,3,3,14,1,-1,1,0,6
1537907635833459,0,-1,6,-1,0,1,-1,0
1537907635833459,-1,-3,-30,0,-1,-2,2,0
1537907635848419,0,-3,11,-2,-2,-2,-1,-2
1537907635848419,-3,-1,18,0,-3,-2,0,-3
1537907635849417,0,-3,9,-2,0,-2,0,-2
1537907635849417,2,4,-19,2,0,0,-1,4
1537907635870360,-3,-2,16,1,-2,0,-2,-4
1537907635870360,-1,-5,-21,-6,-1,-2,-1,0
1537907635872356,1,4,-6,3,1,0,-2,1
1537907635872356,0,-1,-4,-2,-2,-1,-1,-1
1537907635884323,1,-1,17,2,1,-1,-1,1
1537907635884323,1,-4,-8,1,-1,-2,-2,0
1537907635893300,-1,1,-6,1,-2,0,-2,-1
1537907635893300,-1,0,7,-1,3,0,1,-1
1537907635908259,0,-3,-6,0,-1,-1,-2,1
1537907635908259,0,-1,7,-2,-1,-2,0,0
1537907635909257,-1,-2,4,-1,-2,-2,-1,-1
1537907635909257,0,2,13,1,-3,-2,-2,-3
1537907635930201,-1,-2,-14,-3,0,-1,-1,0
1537907635930201,-1,-2,5,3,0,-1,-1,-2
1537907635932197,-3,-4,10,0,1,0,1,-1
1537907635932197,1,1,-24,-2,1,-1,0,1
1537907635944164,0,-1,5,-1,0,-1,2,1
1537907635944164,-1,1,-4,-1,0,-2,-1,-2
1537907635953140,0,-3,-5,-1,-1,-1,0,0
1537907635953140,0,-5,34,3,-3,0,-1,-1
1537907635968100,1,4,-20,-4,-2,0,0,-2
1537907635968100,0,0,-7,1,0,-1,0,-1
1537907635969098,1,-1,2,-1,-3,-3,-2,-1
1537907635969098,-2,-2,12,0,0,0,-1,-1
1537907635990041,-1,-3,-7,-2,-2,0,0,-2
1537907635990041,-1,1,-3,1,1,1,1,4
1537907635992035,-1,0,9,-2,-3,-2,-2,0
1537907635992035,0,-2,-5,-3,-1,0,-1,-2
1537907636004003,4,-1,-4,1,-3,-2,0,2
1537907636004003,-3,0,-1,-2,0,0,-2,-2
1537907636012979,-1,-1,14,-1,-3,-2,-1,-2
1537907636012979,-3,-2,-18,-1,1,-1,1,-1
1537907636027939,-3,-2,-1,-1,1,1,0,-1
1537907636027939,2,7,38,2,-2,-3,-2,1
1537907636029934,2,4,-18,1,1,0,0,1
1537907636029934,-1,0,-9,-1,1,2,-2,0
1537907636050877,-1,-2,10,-1,-1,-2,-1,-1
1537907636050877,-2,-9,-28,-4,-2,0,0,-2
1537907636051875,-2,-2,11,-1,-2,-1,-2,-2
1537907636051875,-1,6,32,3,-1,-1,-2,-3
1537907636063843,-1,4,-64,-5,-1,0,0,2
1537907636063843,-2,-13,31,3,1,3,-1,-3
1537907636072819,-2,1,16,4,3,1,-1,-1
1537907636072819,-3,-3,-22,-8,-10,-3,-1,0
1537907636087779,-5,-18,40,-6,0,-3,-2,-3
1537907636087779,-3,-8,-48,34,10,2,-1,-1
1537907636089774,2,18,-14,-15,-2,-1,0,-1
1537907636089774,-2,-14,17,-15,-9,-6,-3,-1
1537907636110718,4,13,7,-5,-1,1,-1,2
1537907636110718,-5,-13,-5,-9,-3,0,-2,-3
1537907636111716,-2,13,-1,9,21,9,3,-3
1537907636111716,3,23,13,47,21,3,2,2
1537907636124681,-9,-34,10,-29,-28,-11,-6,-4
1537907636124681,1,-2,-81,-26,-15,-2,1,1
1537907636132662,4,1,48,-56,-35,-8,-3,-1
1537907636132662,3,15,-14,37,21,9,4,2
1537907636147620,-11,13,56,-20,8,1,-2,-5
1537907636147620,10,-6,-72,-6,-34,-8,0,3
1537907636154602,4,1,-14,-5,8,8,4,5
1537907636154602,-3,-18,-30,-68,-14,-3,-3,-2
1537907636170558,3,1,58,102,35,12,3,1
1537907636170558,-3,4,-17,-40,5,2,3,0
1537907636171555,-9,-10,-13,93,7,-7,-5,-7
1537907636171555,-1,-9,34,-49,-8,1,2,3
1537907636192499,-5,-19,-65,-50,-36,-18,-13,-8
1537907636192499,13,50,121,24,43,17,4,7
1537907636194494,-1,-7,11,115,11,-2,-1,2
1537907636194494,0,-1,-61,-9,13,1,-2,-1
1537907636207459,-7,-4,59,-58,-36,-13,-8,-9
1537907636207459,-4,-26,-68,-96,-32,-14,-4,-2
1537907636214440,2,-1,-40,-59,-7,-7,-1,1
1537907636214440,7,13,73,84,23,12,6,4
1537907636230398,6,3,-94,-31,-15,-5,6,5
1537907636230398,-5,9,78,55,19,1,-7,-5
1537907636232393,-8,-8,-2,49,13,5,-2,-4
1537907636232393,-4,-4,-81,-116,-66,-26,-13,-7
1537907636252339,10,19,-40,33,59,31,6,7
1537907636252339,-5,-20,-24,68,-20,-14,-4,-5
1537907636259320,-2,-2,-90,26,7,6,3,2
1537907636259320,-5,20,124,127,54,14,1,-5
1537907636267299,-2,-24,-109,-78,-61,-25,-7,-4
1537907636267299,-3,14,79,-64,-17,-4,-2,-4
1537907636274280,3,-12,-102,-42,47,21,8,6
1537907636274280,-2,17,-90,-38,-51,-22,-7,-4
1537907636290237,6,9,89,59,45,19,7,8
1537907636290237,-11,12,89,58,13,6,-4,-7
1537907636292232,-5,-25,25,-64,-57,-23,-4,-3
1537907636292232,4,-25,-73,-41,20,10,7,5
1537907636313176,-3,-4,47,-22,-49,-21,-4,-2
1537907636313176,4,23,74,2,-9,2,1,0
1537907636314174,-3,-22,39,46,37,9,-2,0
1537907636314174,-4,8,114,1,-19,-7,-5,-5
1537907636328136,3,-12,-73,2,43,17,4,2
1537907636328136,-1,-11,15,22,-7,-10,0,-1
1537907636336115,-9,-19,-94,-70,-34,-14,-4,-6
1537907636336115,10,21,81,-27,12,3,0,5
1537907636350078,-2,6,109,112,36,0,1,1
1537907636350078,3,-7,-5,-14,19,6,1,3
1537907636352073,2,0,-63,-69,3,1,-1,0
1537907636352073,0,0,-32,-19,2,-1,-2,-1
1537907636373017,-6,-8,-9,60,18,9,3,0
1537907636373017,-3,-20,20,-22,3,1,0,0
1537907636374014,1,4,-13,4,-12,-1,-2,-3
1537907636374014,-4,-19,103,2,1,5,0,-2
1537907636386979,2,34,-123,-28,-14,-3,-6,-5
1537907636386979,-3,-20,-54,-34,-20,-10,-2,1
1537907636395956,-1,10,57,11,2,0,-3,0
1537907636395956,-2,4,-53,6,-6,-2,-3,-2
1537907636410915,-6,0,77,-12,-15,-8,-4,-5
1537907636410915,-9,-8,-40,-26,-4,-5,-4,-9
1537907636411912,11,20,44,9,8,7,5,8
1537907636411912,-1,-13,-27,31,-11,-7,0,-1
1537907636432856,-1,8,-9,-23,-5,1,0,0
1537907636432856,3,0,-80,8,18,9,3,2
1537907636434851,-5,-4,102,7,-7,-8,-4,-6
1537907636434851,-4,-9,33,35,3,-4,-1,-3
1537907636446819,7,9,-24,-19,-4,0,0,2
1537907636446819,-1,-7,-10,22,4,1,0,-1
1537907636455795,1,12,11,-1,-5,-1,-2,-1
1537907636455795,-2,-6,-22,3,6,4,0,-1
1537907636470755,0,-6,16,-6,-1,-3,-1,0
1537907636470755,-1,-1,-32,-20,1,-2,-2,-2
1537907636471753,3,6,33,9,-4,-2,0,1
1537907636471753,0,-7,-21,-12,0,2,-1,0
1537907636492696,0,-7,6,-4,1,0,1,0
1537907636492696,3,8,-19,6,2,1,0,1
1537907636494691,-1,-2,9,-6,-1,-1,-1,-1
1537907636494691,-2,-5,-28,1,-2,1,1,1
1537907636506659,-2,-3,-11,-1,2,0,-3,0
1537907636506659,2,7,10,10,0,2,0,0
1537907636515635,-3,-2,13,-1,-2,-1,-1,-1
1537907636515635,-1,-17,-20,-9,1,-1,-1,-2
1537907636530595,-4,-8,0,-2,1,0,-1,-11
1537907636530595,6,3,7,3,3,0,2,17
1537907636536579,0,-2,3,-6,-5,-2,-1,1
1537907636536579,0,-1,-24,-6,-4,-3,-2,1
1537907636552536,-2,-6,7,0,5,0,-1,-4
1537907636552536,-5,-5,1,8,6,1,0,-5
1537907636554531,-4,-3,-1,-4,-2,-2,-2,-3
1537907636554531,2,0,-12,-2,-2,1,1,1
1537907636566499,-1,-4,1,0,0,1,0,0
1537907636566499,1,3,-1,0,-1,1,-1,-3
1537907636575475,0,7,3,-6,-3,-2,0,-1
1537907636575475,-2,3,18,-6,-2,0,0,-2
1537907636591433,-2,1,-50,-3,-1,-2,-1,1
1537907636591433,4,6,-4,7,1,1,2,0
1537907636596419,-1,-12,1,1,1,-1,-2,-2
1537907636596419,-1,-13,-3,-3,-1,-1,0,-1
1537907636613375,-1,-6,15,-8,2,0,2,2
1537907636613375,-2,-18,-13,3,4,-3,-1,-4
1537907636614372,1,5,21,6,-11,-5,0,-1
1537907636614372,-2,-10,-30,1,-5,-3,-2,1
1537907636626340,1,16,7,-3,-1,1,-1,2
1537907636626340,-3,12,4,4,4,3,0,-3
1537907636635316,0,17,0,-12,0,0,-1,0
1537907636635316,0,11,-11,-6,0,-1,-2,-1
1537907636650277,3,7,22,14,-1,-2,-1,1
1537907636650277,0,8,1,-5,1,0,0,-1
1537907636652271,-3,-3,-11,1,1,3,-1,-2
1537907636652271,-3,7,33,6,-5,-2,-1,-2
1537907636673215,2,3,-60,-11,-2,0,0,2
1537907636673215,-1,-2,-2,-9,-7,-3,-2,-2
1537907636674212,1,-2,-6,-5,-1,0,-1,0
1537907636674212,0,1,6,-4,1,1,-1,0
1537907636686179,-3,-1,29,2,7,3,0,-2
1537907636686179,-1,0,42,17,9,2,2,0
1537907636695155,-4,-13,-103,-23,-38,-14,-6,-4
1537907636695155,0,6,61,19,7,3,0,2
1537907636710116,2,-1,-23,-35,-21,-7,-4,0
1537907636710116,2,-1,-4,-5,4,1,-2,1
1537907636712111,0,-3,32,5,11,2,0,1
1537907636712111,-2,-6,-31,9,3,-1,0,-1
1537907636733054,-1,-4,7,8,1,1,-1,-2
1537907636733054,0,0,4,-4,-9,-4,-3,-2
1537907636734051,-1,1,1,3,4,2,-1,-2
1537907636734051,0,-3,-19,-9,-1,0,-2,-2
1537907636747017,-1,-1,21,11,6,2,0,0
1537907636747017,-1,-3,-18,-7,-4,-2,-2,-3
1537907636755993,-1,-1,18,5,4,0,0,0
1537907636755993,0,0,-19,-7,1,0,-1,-2
1537907636770953,-2,-3,12,4,-3,-1,0,0
1537907636770953,-1,-1,-8,0,-6,-1,-1,-2
1537907636771951,0,-1,2,-1,5,0,0,-1
1537907636771951,1,-1,2,0,-2,-2,0,0
1537907636792896,-1,-2,1,3,0,-1,-1,-1
1537907636792896,-3,-1,-3,-3,-6,-3,0,0
1537907636794891,1,-1,8,1,3,-1,1,-1
1537907636794891,0,-4,7,-6,0,-1,-1,0
1537907636806858,2,3,-18,1,-1,-2,0,1
1537907636806858,-2,-4,-18,-1,0,1,0,-1
1537907636815835,0,2,80,17,4,1,0,-1
1537907636815835,-4,-9,-105,-15,7,0,0,-1
1537907636830794,1,0,44,-1,-14,-5,-2,-1
1537907636830794,2,4,-2,7,0,-3,-3,0
1537907636831793,-2,-4,1,-1,2,1,0,0
1537907636831793,-3,-2,9,-5,-3,-1,-2,-2
1537907636852734,-2,-4,-10,16,7,1,0,-2
1537907636852734,-6,-11,50,-5,-10,-5,-4,-4
1537907636854730,-3,-6,-86,45,15,3,-1,-4
1537907636854730,1,4,-2,-53,-28,-8,-3,0
1537907636866698,0,-19,-32,-5,32,12,5,2
1537907636866698,-7,9,20,-65,-56,-26,-12,-13
1537907636875674,1,-13,-14,45,-3,3,1,4
1537907636875674,8,-4,-97,-64,10,9,9,8
1537907636890633,-4,6,125,57,23,0,-5,-2
1537907636890633,-8,-11,39,-38,-57,-16,-3,-2
1537907636891631,5,29,-67,-13,14,7,3,2
1537907636891631,13,37,127,102,36,13,8,14
1537907636912575,-8,-24,-29,35,-7,-6,-3,-7
1537907636912575,-2,28,105,11,-6,3,1,-3
1537907636914569,-11,-72,5,-64,-22,-12,-2,-3
1537907636914569,0,6,-42,-76,11,12,1,-2
1537907636926537,5,19,-62,61,-6,-4,-1,4
1537907636926537,1,-1,-63,65,54,12,3,3
1537907636935514,-5,-9,75,20,-17,-8,-7,-7
1537907636935514,5,-14,-94,-17,17,11,5,3
1537907636949476,-2,1,78,-43,18,9,5,0
1537907636949476,12,15,-84,29,13,12,5,7
1537907636956457,-2,8,94,42,36,9,0,-1
1537907636956457,-8,1,-55,-54,-48,-7,-3,-11
1537907636973412,7,10,-73,-1,-23,-8,-1,4
1537907636973412,0,-31,54,38,26,5,3,4
1537907636974410,14,58,-79,37,31,3,4,6
1537907636974410,-7,-18,16,41,-21,-19,-10,-5
1537907636986378,-4,-19,-61,-44,8,4,1,-2
1537907636986378,-1,1,31,1,-3,-1,-3,-3
1537907636995354,-8,-25,103,0,2,3,-4,-10
1537907636995354,-7,-11,-22,41,1,-8,-5,-6
1537907637010313,10,36,53,-6,-17,1,1,4
1537907637010313,-4,-11,-18,36,24,1,-3,-2
1537907637016297,2,10,10,-67,-33,-10,-3,0
1537907637016297,1,0,-11,22,16,5,2,1
1537907637033251,-6,-13,30,-25,-17,-8,-6,-4
1537907637033251,0,5,-5,-53,-7,-1,1,-2
1537907637034249,-2,10,-18,54,14,6,0,-2
1537907637034249,-6,-22,70,-24,-26,-13,-5,-5
1537907637046217,7,7,0,37,15,7,3,5
1537907637046217,3,1,42,-9,2,1,1,2
1537907637055194,4,-2,-56,-28,-2,3,2,3
1537907637055194,0,-13,96,35,0,-4,-3,0
1537907637070152,-7,-15,-8,-11,0,0,-4,-6
1537907637070152,-1,-7,2,-15,-7,-2,-2,-1
1537907637078132,-3,-10,-67,-35,-12,-7,-1,-2
1537907637078132,-11,-2,101,21,0,-6,-6,-10
1537907637093091,11,21,-5,-13,4,4,6,8
1537907637093091,2,18,-26,25,12,3,2,4
1537907637095087,-1,-5,14,-35,-13,-3,-1,-1
1537907637095087,2,14,-7,17,-1,-1,-3,0
1537907637115033,-7,-10,-33,-10,-9,-5,-3,-5
1537907637115033,2,-2,-33,-5,4,2,-1,1
1537907637117028,0,-3,23,0,-2,-2,-2,0
1537907637117028,-3,-5,-31,-1,5,1,0,0
1537907637129993,-2,-5,21,-12,-13,-8,-2,-4
1537907637129993,-2,2,-22,-8,-5,-1,0,1
1537907637136975,-2,1,-12,-13,-12,-5,-1,-1
1537907637136975,-2,-6,-24,11,1,-4,-2,-2
1537907637152933,0,-4,-54,-59,6,2,1,1
1537907637152933,-1,-11,-30,2,-11,-7,-3,-2
1537907637154927,1,13,13,0,-3,-1,-1,1
1537907637154927,0,0,3,3,-2,-3,1,1
1537907637175871,-5,-8,40,-11,-5,-4,-3,-3
1537907637175871,1,1,-71,7,1,3,2,1
1537907637176868,2,3,46,11,1,0,0,1
1537907637176868,0,3,10,-8,-2,1,-2,1
1537907637189834,-3,-4,-1,-7,-8,-5,-3,-3
1537907637189834,0,-4,-3,-14,-1,-2,0,-1
1537907637196815,-2,-5,0,1,-3,0,-1,-3
1537907637196815,2,7,16,0,5,1,2,-1
1537907637212772,1,-5,-28,2,-7,-3,0,-2
1537907637212772,-2,0,9,2,4,-1,1,-2
1537907637214768,2,0,3,-5,1,0,-1,3
1537907637214768,1,11,1,-8,-3,-1,-2,1
1537907637235711,-4,-12,0,15,4,1,-1,-2
1537907637235711,-2,-1,11,-12,-5,-1,0,-1
1537907637236709,-2,-3,-14,-7,-3,-3,-1,-1
1537907637236709,1,4,1,7,0,0,-1,1
1537907637248676,-2,0,2,0,-9,-4,-3,-2
1537907637248676,-4,-3,24,-12,3,0,-1,-2
1537907637257652,-1,-4,-57,2,0,-1,-2,-1
1537907637257652,-1,-2,-1,5,0,0,-1,-1
1537907637272612,0,5,11,1,-1,-1,-1,-2
1537907637272612,0,-4,1,-8,0,-1,-1,0
1537907637274607,-5,-4,6,-2,1,-1,-1,-2
1537907637274607,-3,-1,-11,-4,-4,-3,-1,-2
1537907637295550,0,2,13,-5,-5,-1,-2,-2
1537907637295550,4,1,0,8,1,1,1,2
1537907637296548,0,0,0,-5,0,1,1,0
1537907637296548,-3,-7,-11,-2,13,6,2,-1
1537907637309513,-7,-3,7,-3,-19,-11,-5,-7
1537907637309513,-4,-5,-2,8,3,0,-1,-4
1537907637324473,0,-4,0,-3,-4,-2,-2,-1
1537907637324473,12,15,1,-8,-1,1,3,5
1537907637333449,3,1,-2,1,2,-1,0,1
1537907637333449,-1,-5,-11,-2,4,2,0,0
1537907637334446,-1,1,3,-1,0,0,0,-1
1537907637334446,-7,-9,-2,-4,-3,-2,-3,-6
1537907637355391,-1,2,2,1,1,0,1,-3
1537907637355391,1,-7,-12,0,0,2,3,-13
1537907637357385,10,9,16,5,-1,-2,0,29
1537907637357385,3,0,-1,1,-1,0,2,11
1537907637369353,-6,0,5,4,1,0,-4,-1
1537907637369353,5,-4,-8,-12,-6,-2,5,26
1537907637378329,2,8,0,-1,0,-1,-15,-52
1537907637378329,-10,-4,-2,0,-5,-4,-1,-23
1537907637393289,-4,-9,-5,-1,3,2,-5,1
1537907637393289,0,10,-2,-7,-5,-3,4,18
1537907637394287,-9,-6,-1,-1,-3,-5,-12,-13
1537907637394287,12,11,-2,3,0,-3,0,-2
1537907637415231,7,2,4,4,7,6,6,49
1537907637415231,-5,4,3,5,-2,-3,-2,-6
1537907637417226,-3,5,1,1,2,-1,-1,-54
1537907637417226,-3,-9,-2,-2,-4,-3,-6,17
1537907637429193,6,7,-4,-1,1,1,8,-6
1537907637429193,5,6,2,1,4,9,16,11
1537907637438170,-19,-15,-4,-5,-5,-4,3,-1
1537907637438170,-14,-8,1,5,4,4,15,-37
1537907637453129,-3,-7,-9,-7,-8,-15,-23,-2
1537907637453129,5,1,-4,-3,3,10,4,-41
1537907637454127,-3,4,6,0,4,32,18,-33
1537907637454127,1,3,9,3,-2,-34,-14,29
1537907637475070,-29,-13,-6,-5,-8,-15,-10,-76
1537907637475070,-5,-8,-5,-5,-15,-34,-69,64
1537907637477065,-7,0,-4,-2,-1,4,-16,-47
1537907637477065,20,10,-3,0,9,31,50,91
1537907637489033,23,4,7,1,2,20,34,-41
1537907637489033,-3,-4,-3,-1,3,-2,10,3
1537907637498009,-19,1,0,-2,-7,-45,-51,-48
1537907637498009,23,13,7,3,6,40,-10,-9
1537907637512969,15,-6,-2,-1,-5,-15,12,81
1537907637512969,13,-3,-5,-2,-7,-12,21,-5
1537907637513966,-16,-12,-11,-5,-4,-18,-28,57
1537907637513966,-8,-6,-4,-3,-3,44,-19,-79
1537907637534910,33,7,3,5,10,-4,10,33
1537907637534910,-22,-3,-1,-3,-3,-10,-22,-116
1537907637542889,-19,-5,-10,-8,-10,-36,-5,53
1537907637542889,0,12,8,3,2,55,41,62
1537907637548873,-47,-12,-6,-3,-15,-75,-38,-56
1537907637548873,10,9,-4,-3,4,32,-26,-95
1537907637557849,53,14,13,12,13,31,106,104
1537907637557849,-34,-19,-12,-9,-3,16,-40,25
1537907637572809,16,9,7,1,-5,1,68,97
1537907637572809,-29,-13,-6,-6,-8,-33,-90,-73
1537907637574804,-16,-3,-8,-9,-14,-4,35,-4
1537907637574804,31,7,1,1,4,17,29,31
1537907637595748,-6,10,15,14,14,10,22,117
1537907637595748,15,-4,-3,-1,0,33,-14,-19
1537907637596745,34,1,1,2,-1,5,29,59
1537907637596745,-29,-12,-7,-6,-13,-78,-92,13
1537907637608713,-6,8,-7,-7,-2,16,-44,-117
1537907637608713,6,16,6,5,4,26,88,88
1537907637618687,5,-1,4,1,7,21,-12,-73
1537907637618687,-7,4,8,10,16,23,27,-43
1537907637632650,-32,-18,-12,-10,-10,9,16,75
1537907637632650,3,-5,-2,-2,-4,-65,3,-71
1537907637639631,19,7,5,4,5,67,41,93
1537907637639631,-9,-4,-3,-4,-6,-44,-15,-33
1537907637654591,35,5,1,2,4,15,-22,27
1537907637654591,-4,-5,5,1,12,104,38,67
1537907637662571,-3,4,1,0,-20,-102,-41,12
1537907637662571,-15,-14,-7,-5,-3,-18,-12,-48
1537907637677535,5,7,4,-1,-4,-5,4,-42
1537907637677535,6,3,2,3,1,-19,16,50
1537907637678530,5,-1,-4,1,10,16,-18,-62
1537907637678530,10,5,8,6,0,-6,-4,-12
1537907637692490,-3,-4,-5,-4,-2,0,-16,-59
1537907637692490,-24,-11,-3,-2,3,7,-3,-3
1537907637693487,-8,-8,-9,-7,-6,3,-20,-8
1537907637693487,-3,4,0,2,-10,-62,42,-26
1537907637714430,22,-1,-2,-1,6,22,3,33
1537907637714430,-7,-6,-3,-3,-6,-20,-14,-35
1537907637715428,-13,-6,-1,0,1,13,0,59
1537907637715428,14,-1,-3,-4,1,11,6,-1
1537907637737369,4,5,1,1,-6,21,0,-39
1537907637737369,17,3,3,3,-2,-39,-35,70
1537907637738366,-9,-2,2,-2,2,16,0,-68
1537907637738366,-18,-12,-6,-4,-4,4,11,14
1537907637752329,-12,7,9,4,1,-13,-23,-77
1537907637752329,1,-5,-2,-4,-3,4,22,25
1537907637753326,-5,0,-1,0,5,7,2,-13
1537907637753326,7,2,-2,0,-4,-1,-6,-2
1537907637774270,0,-7,-5,-1,3,11,-5,63
1537907637774270,1,-1,-1,-2,-2,-6,3,14
1537907637775268,8,2,3,1,4,-7,-18,-11
1537907637775268,-6,-4,0,-4,-3,-4,-13,-15
1537907637799204,-10,-4,-5,-2,0,-3,-1,-30
1537907637799204,-3,6,1,1,-1,7,0,-12
1537907637800202,1,-6,-3,-1,-2,0,6,23
1537907637800202,10,3,-5,-1,-2,-4,0,5
1537907637812170,-12,-1,-3,-3,1,3,-3,-34
1537907637812170,-2,0,1,0,0,-2,7,30
1537907637820149,-2,-2,2,-1,0,-1,-6,-6
1537907637820149,0,-3,-1,-2,-3,-2,-3,-4
1537907637835109,-2,-2,-3,-2,3,-2,-4,1
1537907637835109,0,2,0,1,-2,1,7,3
1537907637835109,-1,2,1,-1,-1,-2,-3,-5
1537907637835109,3,1,-1,-2,0,2,-5,-3
1537907637857051,-1,0,1,1,1,1,4,3
1537907637857051,-3,-2,1,2,0,-1,1,-4
1537907637858048,-3,-1,0,2,2,2,-3,-8
1537907637858048,5,0,-1,-2,-4,-5,1,15
1537907637872011,-3,-2,-1,3,2,1,-1,-6
1537907637872011,0,1,1,3,3,2,1,-5
1537907637873008,1,-2,-3,2,1,-2,-3,5
1537907637873008,1,0,-1,4,-2,-2,0,4
1537907637894948,-3,-4,-5,-16,-9,-6,-3,-8
1537907637894948,-2,2,2,-4,-1,0,-1,-3
1537907637895946,0,-1,0,-2,-2,0,1,4
1537907637895946,0,-1,4,5,5,0,-2,1
1537907637925865,-3,-2,5,19,7,4,1,-6
1537907637925865,1,0,-4,0,-2,-4,2,8
1537907637925865,-1,0,-1,78,14,3,-2,-1
1537907637925865,-2,0,4,-90,-24,-9,-3,-4
1537907637931849,-2,2,2,-7,-9,-6,-2,-1
1537907637931849,-2,-3,-13,-30,-19,-4,-3,-4
1537907637932847,0,-2,0,-20,-5,-6,-2,-1
1537907637932847,0,-4,-2,37,12,6,1,1
1537907637954788,0,-1,1,9,5,1,2,2
1537907637954788,1,2,5,9,9,1,2,-1
1537907637955785,0,0,0,12,3,3,0,-2
1537907637955785,-1,-3,-13,-2,0,0,-1,3
1537907637977726,-1,1,5,-1,-2,-2,-2,-2
1537907637977726,-2,-1,-1,42,4,0,0,0
1537907637977726,-3,1,6,-20,-8,-4,-4,-1
1537907637977726,1,-1,1,9,6,2,1,0
1537907637992688,0,-2,-15,-25,-14,-7,-3,-1
1537907637992688,-2,-1,-3,47,14,4,2,-2
1537907637992688,0,1,8,-54,-24,-10,-3,2
1537907637992688,-1,-1,-6,-11,-3,-1,0,-1
1537907638014630,-2,-2,2,9,10,0,-2,-3
1537907638014630,0,-5,-27,35,5,2,0,0
1537907638015627,-2,1,16,-27,-8,-5,-5,-4
1537907638015627,-2,0,1,-25,-4,-2,-2,-1
1537907638037567,0,-1,3,23,-10,-4,-2,-1
1537907638037567,-1,-1,-10,-48,0,-1,-1,0
1537907638037567,0,-3,-4,5,-4,-1,0,0
1537907638037567,-2,-2,-10,13,4,0,-3,1
1537907638052527,0,0,7,30,18,5,2,0
1537907638052527,1,3,19,4,-4,-3,-2,2
1537907638052527,0,-3,-18,-1,7,2,1,-2
1537907638052527,-1,0,27,18,3,0,2,-2
1537907638074468,1,1,-17,37,10,1,1,0
1537907638074468,-1,0,4,5,-14,-6,-2,0
1537907638075466,-2,-2,-14,-64,-8,-4,-2,-3
1537907638075466,-1,-1,-6,-22,-7,-2,-3,-2
1537907638097407,-2,-3,-4,1,5,3,-1,-2
1537907638097407,1,0,0,-44,-9,-3,0,0
1537907638098405,1,-3,-2,24,5,2,0,0
1537907638098405,1,3,3,29,4,1,2,0
1537907638112367,0,0,6,-12,-7,0,-1,-1
1537907638112367,-1,1,0,-42,-6,0,-1,1
1537907638113365,0,-1,-8,8,6,1,1,0
1537907638113365,-1,-2,3,7,-5,-3,-1,-1
1537907638134308,-3,-4,4,-1,-7,-2,-2,-1
1537907638134308,-2,-3,1,14,6,2,1,-1
1537907638135306,-1,1,1,7,-1,-1,-1,-1
1537907638135306,0,-1,-7,-2,5,3,2,-1
1537907638157248,-1,0,-2,-10,-4,-2,-2,-1
1537907638157248,1,1,8,4,-1,0,-3,-2
1537907638158247,-1,-1,-1,7,6,3,0,0
1537907638158247,0,0,0,7,-3,-1,1,-2
1537907638172209,0,-1,-2,-19,-3,0,1,0
1537907638172209,-1,1,1,-1,7,1,0,0
1537907638173206,1,3,-4,12,-4,-2,-1,-1
1537907638173206,-4,-6,8,-8,0,1,-1,-2
1537907638194149,-1,0,-15,-31,-17,-7,-3,-2
1537907638194149,0,-1,1,-10,-1,-2,-2,-2
1537907638202129,0,-1,4,28,8,4,2,0
1537907638202129,0,1,-1,6,0,-1,-2,0
1537907638217088,0,-3,2,6,10,4,1,0
1537907638217088,-1,9,0,1,5,2,0,-1
1537907638218087,-1,-1,-6,-30,-20,-5,-2,-1
1537907638218087,1,-6,-2,4,0,-3,-1,0
1537907638233046,0,1,7,-20,-2,0,1,0
1537907638233046,-1,-5,-4,13,2,0,-1,1
1537907638240027,-1,1,5,14,4,1,0,-2
1537907638240027,-1,2,-6,-7,-7,-3,-3,-1
1537907638254986,0,0,-2,-9,-2,0,-2,-1
1537907638254986,-2,-1,4,-8,-7,-1,0,0
1537907638255984,-3,-3,0,0,5,1,0,-1
1537907638255984,0,0,-4,20,1,1,0,-2
1537907638277924,-1,-1,0,15,-4,-3,-2,-2
1537907638277924,0,-2,-4,-59,-11,-5,-2,-3
1537907638278922,0,-3,-4,2,0,-1,-2,0
1537907638278922,-2,-1,0,3,-5,-3,-1,-1
1537907638291887,0,2,-3,3,-2,-2,-1,-1
1537907638291887,-3,-4,1,18,4,1,1,-2
1537907638292884,0,-2,1,6,6,3,0,-1
1537907638292884,1,2,-2,-11,-4,-4,-3,1
1537907638314825,-2,-2,-2,-6,-1,0,0,0
1537907638314825,-1,-1,0,8,-2,-2,-3,-1
1537907638315823,0,1,-1,-6,-2,-1,-2,-2
1537907638315823,-1,0,-2,9,5,2,0,0
1537907638337764,-2,-1,2,-9,-2,0,0,-1
1537907638337764,1,-2,-4,10,-1,-2,-2,0
1537907638338762,-2,1,-2,9,6,1,0,0
1537907638338762,0,0,3,-2,-9,-3,0,-1
1537907638352724,-2,-1,-1,2,4,-1,-1,0
1537907638352724,-3,-2,0,-5,1,2,1,-1
1537907638352724,-1,0,-1,-8,-8,-4,-1,-1
1537907638352724,1,-1,-5,-1,5,0,-1,0
1537907638375664,-1,-1,0,-2,-2,-2,-1,-1
1537907638375664,1,-1,1,8,-1,-1,1,0
1537907638375664,-1,-2,1,3,3,0,-1,-1
1537907638375664,-1,-1,-2,1,4,0,0,0
1537907638397605,-1,0,-1,0,1,-1,-1,-2
1537907638397605,0,-2,0,11,0,-1,-2,-2
1537907638398604,-3,-1,2,-3,-3,-2,-1,-1
1537907638398604,-2,0,-5,-20,-5,-1,-1,-2
1537907638412566,0,-1,-1,2,6,2,0,0
1537907638412566,-1,-4,-3,-14,-11,-6,-2,-1
1537907638412566,0,-2,1,-19,1,3,0,0
1537907638412566,0,1,7,32,5,1,-1,0
1537907638434508,-2,-1,-5,-13,-10,-4,-2,-1
1537907638434508,1,0,2,6,5,2,1,1
1537907638435505,0,-1,1,22,2,0,0,1
1537907638435505,-1,-2,-8,-34,-4,-1,-1,0
1537907638458443,-1,-2,3,14,7,1,0,-1
1537907638458443,-1,4,-6,-22,-12,-6,-1,-1
1537907638458443,1,4,0,10,3,0,-1,1
1537907638458443,-1,9,-3,-33,-5,0,-1,-1
1537907638480385,-1,-11,2,13,0,-2,-1,-1
1537907638480385,-1,0,-3,7,14,4,1,0
1537907638481382,-1,-4,2,18,-9,-3,-3,-2
1537907638481382,1,3,1,20,-4,-2,-1,-1
1537907638494347,-1,-1,-3,-23,-4,-2,-3,-2
1537907638494347,1,-3,-3,-2,-6,-2,-4,-1
1537907638495344,-1,-2,-10,-20,8,2,0,-1
1537907638495344,-1,-5,14,39,13,4,2,1
1537907638518282,1,3,-8,6,2,0,4,0
1537907638518282,-4,-4,0,-17,-18,-7,-5,-4
1537907638518282,0,2,9,6,2,-3,-2,-2
1537907638518282,-2,-4,-16,-14,-7,-3,-2,0
1537907638532244,1,0,3,0,6,1,1,0
1537907638532244,0,-2,-1,14,12,3,2,1
1537907638533242,1,-1,-6,-36,-8,-3,-1,-1
1537907638533242,-3,-3,23,46,0,-3,0,-3
1537907638555183,0,3,-3,-3,-1,0,1,-1
1537907638555183,0,5,-3,0,-7,-4,-2,-1
1537907638555183,-3,-7,-1,-5,1,1,-1,0
1537907638555183,0,-2,-6,-12,3,-1,0,1
1537907638578121,-1,1,0,9,1,2,-1,0
1537907638578121,3,3,7,32,25,8,3,1
1537907638579119,0,17,0,-20,-25,-9,-3,-4
1537907638579119,-3,-11,-8,11,-2,-3,-3,-4
1537907638592084,-3,-4,-15,-44,-11,-3,-1,0
1537907638592084,-2,-7,27,32,34,13,2,3
1537907638593082,-2,-7,10,72,11,0,-1,0
1537907638593082,6,33,-24,-42,-23,-9,-5,-2
1537907638615023,-1,-17,-35,-11,-19,-4,-2,0
1537907638615023,-1,-3,-20,-16,-6,-1,1,2
1537907638615023,-1,-9,27,35,60,17,7,4
1537907638615023,-2,2,38,0,-5,0,0,-2
1537907638637962,-9,-2,-17,-48,-66,-30,-15,-11
1537907638637962,1,-4,-38,-38,14,6,3,1
1537907638638960,-2,-13,-54,27,2,-1,-1,-2
1537907638638960,6,21,80,77,17,2,0,2
1537907638651925,4,-4,-30,44,62,25,8,4
1537907638651925,-10,-2,55,-64,-67,-23,-9,-9
1537907638659905,8,8,-2,-128,-72,-14,-2,7
1537907638659905,-3,-6,56,-51,9,3,-1,-2
1537907638674865,10,10,82,96,65,28,11,8
1537907638674865,-5,-7,-10,-12,-52,-12,-4,-4
1537907638675863,3,0,23,106,60,18,4,4
1537907638675863,-8,-19,-52,-84,-56,-24,-9,-8
1537907638697805,-12,5,127,71,-3,-11,-11,-13
1537907638697805,8,12,-109,8,65,16,6,4
1537907638698802,-8,-11,-13,-104,-95,-24,-11,-9
1537907638698802,3,7,37,53,42,14,4,6
1537907638711765,-1,7,-23,-80,-59,-13,-3,0
1537907638711765,-2,1,15,43,15,2,0,-2
1537907638719743,-3,-13,-59,61,13,-4,-1,-3
1537907638719743,2,-1,-15,17,8,1,2,2
1537907638734703,1,-3,-44,67,58,19,5,4
1537907638734703,1,0,15,52,-8,-9,-4,0
1537907638735701,-1,-6,-20,-51,-16,-4,-1,-2
1537907638735701,4,-6,-19,64,53,17,8,4
1537907638758639,0,2,14,-55,-29,-8,1,-1
1537907638758639,2,1,-42,97,13,-1,-1,1
1537907638758639,2,8,47,-7,55,16,4,0
1537907638758639,-6,-15,-46,-50,-72,-22,-9,-5
1537907638771604,3,0,-19,-30,56,18,5,5
1537907638771604,-6,-5,71,47,25,5,-1,-4
1537907638779583,-5,-4,-5,-12,-42,-21,-9,-7
1537907638779583,-1,1,3,14,38,14,4,1
1537907638794543,0,-3,-28,-30,-32,-13,-4,-1
1537907638794543,3,0,23,-10,30,14,6,4
1537907638795542,-3,-2,13,10,13,0,1,2
1537907638795542,-3,-2,-33,-36,-27,-10,-4,-5
1537907638818480,-3,-7,21,25,-18,-8,-4,-3
1537907638818480,-2,-11,39,-60,-27,-7,-2,-3
1537907638818480,3,10,-28,-4,-1,1,-1,1
1537907638818480,1,-4,-17,-22,1,3,0,1
1537907638849399,-2,0,-6,-82,-39,-12,-4,-2
1537907638849399,1,5,12,-26,-10,-3,-2,-2
1537907638850397,0,4,7,-9,-12,-2,1,0
1537907638850397,-3,-8,1,21,25,8,3,1
1537907638854385,1,0,-10,20,-7,-5,-2,1
1537907638854385,0,-3,-19,-25,-21,-8,-5,0
1537907638855383,0,2,22,10,13,7,0,-1
1537907638855383,-1,-5,-11,-1,-5,-3,0,0
1537907638878321,0,2,-5,3,0,-1,-1,-1
1537907638878321,-2,1,-15,-35,-20,-6,-3,-4
1537907638878321,0,0,7,14,10,4,1,0
1537907638878321,-2,-2,2,2,2,-2,-2,0
1537907638891285,0,1,-14,-5,-2,1,0,-1
1537907638891285,0,-1,2,-3,6,3,1,-1
1537907638900261,-1,2,4,-4,-2,-2,0,0
1537907638900261,-1,-1,-6,-4,-9,-4,-3,-1
1537907638914223,-2,-1,-2,9,11,2,-2,0
1537907638914223,0,0,-3,-5,0,0,-2,1
1537907638915220,-1,0,5,-9,-4,-2,0,0
1537907638915220,-1,0,-8,-8,-3,0,0,1
1537907638938159,0,-1,-5,13,1,-5,-2,-3
1537907638938159,-1,1,2,-5,-1,-2,0,-1
1537907638938159,0,0,-1,-3,0,1,-1,-1
1537907638938159,-1,-1,3,-11,38,12,4,2
1537907638951125,-4,-5,-13,-6,-42,-14,-6,-5
1537907638951125,-1,-2,-6,-2,-9,-2,-2,-1
1537907638960100,-1,0,2,3,2,1,0,-1
1537907638960100,-1,-1,-3,4,4,1,0,-3
1537907638975061,-1,-1,1,3,19,7,3,1
1537907638975061,0,0,-1,2,2,-2,-2,1
1537907638975061,-1,-1,-4,-8,-9,-4,-1,0
1537907638975061,1,0,-1,-2,-12,-3,-1,-1
1537907638998000,-1,1,0,-1,6,0,0,0
1537907638998000,-1,0,0,-2,-5,-1,-1,0
1537907638998999,-1,2,4,4,8,1,-2,-1
1537907638998999,-1,0,-3,3,-10,-4,-2,-1
1537907639020939,-1,2,1,-6,8,2,0,0
1537907639020939,-2,0,-2,-8,2,0,-1,0
1537907639020939,-1,0,3,3,3,1,0,-2
1537907639020939,3,2,-6,-22,3,1,1,2
1537907639034902,-1,-2,-5,-1,-15,-4,-2,-1
1537907639034902,-1,1,0,2,0,-2,-1,0
1537907639035900,0,0,-1,-9,-4,-2,0,1
1537907639035900,0,-2,3,28,12,2,0,-3
1537907639058837,2,0,0,-17,5,0,1,0
1537907639058837,1,-1,-5,-12,-12,-6,-3,1
1537907639059835,-1,-2,-1,4,-4,-2,-2,-1
1537907639059835,-2,-4,1,0,-5,-1,0,-1
1537907639080778,-1,0,1,12,11,2,-1,0
1537907639080778,-2,-2,-1,-3,-3,0,0,-2
1537907639080778,-3,-1,-2,5,3,2,1,-3
1537907639080778,-3,-1,-1,-7,-11,-6,0,-2
1537907639094741,-1,1,-1,1,2,3,1,0
1537907639094741,-1,1,3,-3,3,1,1,-1
1537907639095739,-1,1,-5,-2,3,0,0,1
1537907639095739,-1,-1,2,7,-4,-2,-2,-1
1537907639117680,-1,-1,5,6,3,1,0,-1
1537907639117680,2,0,-3,1,-1,-2,1,1
1537907639118678,1,0,-4,-11,-3,0,-1,0
1537907639118678,-1,0,7,-1,-7,-3,-3,0
1537907639140618,0,-2,-8,5,2,-2,-1,0
1537907639140618,0,-2,-3,-4,4,2,-1,-2
1537907639140618,-1,2,25,12,1,-2,0,-3
1537907639140618,-1,-5,-23,-10,0,1,-1,-2
1537907639154580,1,3,-22,-6,-3,0,0,0
1537907639154580,-1,-6,28,10,6,0,0,-3
1537907639155578,4,33,-7,16,9,2,0,1
1537907639155578,-5,-18,19,-26,-20,-8,-5,-3
1537907639177519,-9,-26,12,62,41,8,1,-3
1537907639177519,6,30,4,20,9,4,1,3
1537907639178517,-7,-67,-81,26,-13,-16,-7,-8
1537907639178517,-1,46,40,-97,-43,-16,-6,-4
1537907639200458,6,5,-80,73,71,22,7,6
1537907639200458,-1,-5,93,-89,-88,-28,-10,-1
1537907639201455,-1,-21,4,26,61,15,2,4
1537907639201455,-3,-20,-15,6,-43,-12,-5,-3
1537907639214421,-2,6,9,-65,-21,-6,1,-2
1537907639214421,-5,-14,-22,33,46,16,5,-3
1537907639215418,-4,25,46,-19,-75,-26,-11,-7
1537907639215418,5,9,-58,-25,33,15,5,5
1537907639238357,-4,15,36,92,-56,-19,-8,-6
1537907639238357,-1,18,9,-75,-21,2,0,-1
1537907639239356,4,5,-34,37,5,4,4,4
1537907639239356,-5,8,7,79,21,-2,-3,-5
1537907639260300,1,-9,-28,-23,-4,-3,0,1
1537907639260300,-3,-18,-43,29,0,-1,0,1
1537907639262296,0,-3,23,-13,15,10,3,0
1537907639262296,4,-15,34,24,15,1,2,3
1537907639274264,1,-8,7,-16,5,1,0,0
1537907639274264,-2,-13,-20,-13,-9,-7,-3,-3
1537907639283238,1,-4,10,6,6,4,2,0
1537907639283238,-1,-36,-24,-6,2,2,-1,-2
1537907639298199,0,-15,9,-29,-16,-6,-1,-1
1537907639298199,0,-9,11,42,19,2,1,-1
1537907639299196,-1,13,-1,4,14,5,-1,1
1537907639299196,-1,15,-7,-25,-12,-2,0,1
1537907639320139,-1,16,10,-3,7,3,-1,-2
1537907639320139,-1,9,-5,31,19,6,1,0
1537907639322133,-1,9,19,-21,-18,-7,-1,-2
1537907639322133,-1,0,-38,43,10,4,1,1
1537907639334101,0,-1,-4,-62,-20,-6,-2,-1
1537907639334101,-1,-6,-17,14,15,4,0,0
1537907639343077,-1,-5,14,-26,-6,0,-1,0
1537907639343077,0,-1,13,16,9,2,0,0
1537907639358037,1,-1,12,9,7,2,2,-1
1537907639358037,0,4,-14,-18,-8,-7,0,-2
1537907639359034,0,6,-6,-1,-1,0,0,0
1537907639359034,-1,4,11,-7,-6,-2,1,-2
1537907639380975,-1,4,1,-14,-4,0,-1,0
1537907639380975,-1,0,-5,11,5,0,0,-1
1537907639381973,-1,1,-1,-15,-7,-1,-2,-1
1537907639381973,0,2,-2,3,3,2,-1,0
1537907639393941,-2,0,13,2,6,1,1,0
1537907639393941,2,5,-8,-21,-20,-7,-2,-1
1537907639402917,-1,0,-6,0,5,1,-1,-1
1537907639402917,-2,1,3,-8,-5,-3,0,-1
1537907639417877,0,1,4,0,-2,-2,-2,-1
1537907639417877,0,-2,-3,-2,2,2,0,0
1537907639419872,0,-2,-8,-6,-5,-2,1,2
1537907639419872,-1,-2,5,8,8,2,0,0
1537907639440817,0,0,7,0,-5,-2,-3,-1
1537907639440817,0,-2,-8,7,4,-1,0,0
1537907639441815,1,-4,4,-4,3,2,-1,-1
1537907639441815,0,0,2,-3,-14,-4,-2,-2
1537907639453783,-2,-3,-2,-6,2,0,0,0
1537907639453783,-1,-2,-4,1,2,0,0,-1
1537907639462762,-2,-2,-3,-1,-3,1,1,-2
1537907639462762,1,0,3,-7,3,-1,1,1
1537907639477718,-1,-1,-1,-4,-6,0,-1,-1
1537907639477718,-2,-3,1,3,-4,-1,-2,-2
1537907639479715,-1,0,-2,-5,5,1,0,-1
1537907639479715,-1,2,0,0,0,1,-1,0
1537907639500659,-1,0,3,-4,0,-1,-1,0
1537907639500659,0,-1,-5,-2,4,-1,0,-1
1537907639501655,-1,-1,1,2,10,2,0,-1
1537907639501655,-3,-4,-9,-17,-24,-7,-4,-3
1537907639522598,0,-1,1,1,-5,-4,-3,-3
1537907639522598,-2,0,-1,3,0,3,-1,0
1537907639524592,0,1,-1,-1,4,-1,0,0
1537907639524592,1,1,2,9,6,2,0,0
1537907639537557,0,-2,-3,-13,-7,-1,-1,-1
1537907639537557,-1,-2,-1,1,1,0,-2,0
1537907639539553,0,-3,-2,-1,-3,0,-1,-2
1537907639539553,0,-1,5,10,3,1,1,1
1537907639560495,-1,-1,-3,-1,-3,-1,0,-1
1537907639560495,-2,-2,-1,10,0,-3,0,-2
1537907639561493,0,-1,-6,-13,-13,-6,-2,0
1537907639561493,1,-1,11,16,10,3,1,-2
1537907639574458,-4,-1,4,-5,12,4,1,-1
1537907639574458,1,-11,0,19,8,2,0,0
1537907639589418,-6,14,44,5,2,-3,-4,-5
1537907639589418,-2,-6,-39,-44,-25,-7,-3,-3
1537907639597397,-2,-14,-74,58,29,4,0,-1
1537907639597397,-1,17,63,-74,-48,-10,-4,-2
1537907639599392,3,-13,-54,30,58,16,7,5
1537907639599392,-2,-6,-77,-33,-86,-28,-8,-3
1537907639620335,-2,6,105,55,51,6,2,-3
1537907639620335,-2,15,72,-71,-52,-15,-6,-2
1537907639622330,6,-25,-92,-28,17,9,5,8
1537907639622330,-7,7,94,36,12,1,-6,-4
1537907639634298,6,7,28,-114,-12,3,6,5
1537907639634298,-12,-23,-51,-2,-32,-17,-10,-10
1537907639643274,0,33,86,72,-4,-2,-6,-4
1537907639643274,4,1,-66,54,6,3,6,4
1537907639658234,-4,-11,14,-17,1,0,-4,0
1537907639658234,7,4,26,13,73,24,11,7
1537907639659232,-1,3,0,2,0,0,2,0
1537907639659232,-5,3,58,-13,4,-3,-4,-5
1537907639680177,0,2,-34,-51,-40,-13,-4,-3
1537907639680177,-4,-5,-24,36,0,-2,-3,-5
1537907639682172,1,-2,-51,-8,29,13,4,0
1537907639682172,2,1,65,7,11,2,1,2
1537907639703115,2,6,-30,-23,-19,-7,-1,0
1537907639703115,-2,-13,15,25,10,2,-1,0
1537907639704113,-2,-17,-46,-59,-36,-12,-3,-4
1537907639704113,1,-19,-48,-4,39,14,4,1
1537907639717078,-2,-19,-19,-22,-61,-19,-8,-4
1537907639717078,4,-11,15,52,46,14,5,3
1537907639724060,-5,-22,31,-4,-30,-10,-4,-3
1537907639724060,-1,-13,-7,-20,-7,1,-2,-2
1537907639740016,-1,-3,-3,44,25,8,2,2
1537907639740016,-1,10,12,8,-7,-3,-1,-4
1537907639742011,-1,17,6,-4,-1,-2,-1,0
1537907639742011,-1,16,-19,17,-3,-2,-1,-2
1537907639753978,0,20,9,14,3,2,-2,1
1537907639753978,-1,15,-22,-44,-24,-5,0,0
1537907639762955,-1,8,14,-8,-12,-6,-3,-2
1537907639762955,1,9,25,-30,10,3,3,2
1537907639776917,-1,1,-17,25,7,1,0,-1
1537907639776917,1,-1,-46,14,1,-2,-1,1
1537907639783898,-1,-4,17,0,-7,-3,-4,-1
1537907639783898,0,1,26,-6,5,2,0,-2
1537907639800853,-1,0,9,16,4,1,-1,-1
1537907639800853,2,-3,-23,-5,-2,-2,0,1
1537907639801851,1,-1,22,-9,-11,-5,-1,-1
1537907639801851,-1,-4,-6,15,16,3,1,-1
1537907639813819,1,-3,1,-3,1,1,0,0
1537907639813819,-2,-1,-9,16,12,3,0,0
1537907639822795,-2,0,9,-3,-13,-7,-3,-2
1537907639822795,-2,-1,-3,1,4,-1,-1,-1
1537907639836757,-1,-2,-1,8,3,2,0,0
1537907639836757,-1,0,2,-6,-1,-1,0,1
1537907639843739,-1,0,5,7,-4,-2,-1,-1
1537907639843739,-1,-1,-8,-6,3,1,-1,0
1537907639859697,0,1,6,-4,-5,-2,0,-1
1537907639859697,0,0,-7,7,3,0,-1,-1
1537907639867675,-2,-1,6,-9,7,2,2,1
1537907639867675,-1,1,1,19,-7,-5,-1,-3
1537907639873660,-2,1,3,7,-3,-3,-1,-2
1537907639873660,2,0,-4,9,9,4,1,1
1537907639882635,-2,-2,-2,-27,-13,-4,-1,-2
1537907639882635,1,-1,3,-18,-3,-2,-3,0
1537907639897595,1,0,3,8,6,0,0,-2
1537907639897595,-1,-3,-1,-14,-7,1,1,0
1537907639903579,-1,-4,-4,-1,2,-3,-3,0
1537907639903579,-1,-3,-3,3,2,2,0,0
1537907639920535,-1,0,-2,-2,-5,-2,-2,-1
1537907639920535,0,-2,-6,2,6,1,0,1
1537907639921533,-3,-2,8,9,-1,0,0,-2
1537907639921533,-1,-1,-3,-10,-4,-3,1,0
1537907639943472,-1,-3,1,3,-1,-1,0,-1
1537907639943472,-2,1,-1,-1,2,-1,0,-1
1537907639944470,0,3,1,9,-1,0,0,-1
1537907639944470,-1,3,-3,2,0,2,-3,-2
1537907639957435,0,5,1,-2,9,4,0,1
1537907639957435,-1,1,-6,7,-6,-5,-3,-1
1537907639964416,-2,0,1,0,-5,-1,-1,-2
1537907639964416,0,-2,-4,-13,5,1,-1,0
1537907639980373,-1,-6,-1,8,-3,0,-1,-1
1537907639980373,0,-5,2,21,6,2,-1,0
1537907639982368,-1,-6,-5,-13,-13,-5,-1,-2
1537907639982368,-1,-4,4,1,4,1,1,0
1537907640003313,-2,-2,-3,-18,1,2,1,-1
1537907640003313,0,-2,-3,7,0,1,0,-1
1537907640004310,0,-3,6,8,8,4,1,-1
1537907640004310,1,0,-6,-7,8,3,0,1
1537907640017275,0,2,47,18,-13,-5,-3,-2
1537907640017275,-5,-10,6,-83,-30,-11,-5,-5
1537907640024256,-2,-9,-42,34,2,2,1,-2
1537907640024256,0,-9,40,29,-16,-8,-3,-1
1537907640040213,6,66,76,-34,30,14,4,3
1537907640040213,-5,-53,-99,21,-38,-16,-7,-4
1537907640042208,9,26,102,52,-7,-3,-1,8
1537907640042208,0,-11,58,60,68,18,4,2
1537907640063152,1,10,40,68,22,2,1,0
1537907640063152,-10,10,-31,-81,-38,-19,-11,-9
1537907640064149,-3,-20,4,0,34,12,5,0
1537907640064149,-7,-12,-41,42,12,-1,-4,-4
1537907640076117,-6,-8,64,-1,-45,-15,-7,-5
1537907640076117,3,13,9,0,70,21,6,0
1537907640085093,-7,-11,-16,-8,-56,-21,-8,-5
1537907640085093,4,19,3,-37,4,8,5,4
1537907640100053,-2,-5,-17,-101,-35,-11,-4,-3
1537907640100053,10,3,3,19,20,10,8,11
1537907640102048,-6,-1,68,-1,0,-3,-4,-6
1537907640102048,7,13,55,15,4,2,3,3
1537907640122992,-5,-24,-46,12,-16,-12,-4,-3
1537907640122992,3,9,38,-22,-12,-3,0,1
1537907640123990,2,2,-35,-20,26,9,1,2
1537907640123990,-2,-3,-22,-30,-39,-14,-6,-6
1537907640144934,1,-23,-13,20,27,9,2,1
1537907640144934,2,-12,-52,23,17,6,3,-1
1537907640146929,1,-14,12,-2,-17,-6,-3,0
1537907640146929,0,-16,-31,-18,8,0,-1,0
1537907640160891,-1,-16,-31,4,6,2,0,-2
1537907640160891,-4,-1,32,0,-13,-2,0,-2
1537907640161890,-1,2,-18,-21,-4,-2,0,-2
1537907640161890,0,16,2,30,7,0,1,1
1537907640182832,0,5,-47,-1,8,1,0,1
1537907640182832,-3,18,25,25,5,2,0,-1
1537907640184827,1,14,-31,45,18,4,1,0
1537907640184827,-3,4,0,3,-2,-1,-1,-2
1537907640196795,-1,-1,-11,5,-2,-1,0,-1
1537907640196795,0,7,13,21,7,1,1,0
1537907640205772,0,2,2,12,-1,-3,0,0
1537907640205772,-2,-2,-8,-21,-15,-4,-4,-2
1537907640220731,2,-1,-20,6,13,3,0,1
1537907640220731,-3,0,0,0,-14,-4,-2,-2
1537907640221728,1,3,-3,-21,4,3,1,0
1537907640221728,-2,-4,-13,-22,-17,-5,-3,-2
1537907640244668,-1,-4,-6,8,-2,-1,-2,0
1537907640244668,-1,4,18,13,10,4,0,1
1537907640245666,0,-1,-9,-10,-4,-2,-1,-1
1537907640245666,-1,-3,-9,-18,-15,-6,-2,-1
1537907640256637,0,-3,-7,-3,5,2,0,0
1537907640256637,-2,0,18,9,3,0,0,-2
1537907640265612,-3,-1,-3,-13,-3,0,-2,-1
1537907640265612,-1,-1,-8,-12,-4,-2,-2,0
1537907640280571,-1,-1,-1,-3,-3,-2,0,0
1537907640280571,-1,-1,3,4,0,0,-1,0
1537907640281570,-2,-1,-7,6,5,1,-2,-1
1537907640281570,-1,-2,-1,-2,3,1,-1,-2
1537907640302513,-2,-4,-3,-3,-7,-4,0,-1
1537907640302513,1,1,0,-1,-1,-4,-1,-1
1537907640304508,-1,0,-2,0,11,0,0,1
1537907640304508,-2,-1,-1,-6,-9,-2,-2,-2
1537907640316475,-2,-1,0,4,7,3,0,0
1537907640316475,2,4,5,1,-2,-1,-1,2
1537907640325451,0,-1,-5,4,-5,-2,-2,-1
1537907640325451,1,-3,-1,-15,-3,-1,1,-1
1537907640340411,-1,-2,-3,3,-1,1,0,-1
1537907640340411,0,-2,4,1,8,2,0,1
1537907640341409,-1,-2,-5,-6,-6,-2,-1,-3
1537907640341409,-1,-2,-2,-1,-5,-2,-2,1
1537907640363349,-1,-3,-4,-3,-6,-2,-2,-1
1537907640363349,-3,-2,6,7,3,1,0,-1
1537907640364347,2,-2,-3,-13,-11,-5,-1,0
1537907640364347,-1,2,-1,-3,3,2,2,-3
1537907640376315,0,0,-1,-3,-9,-2,-3,-1
1537907640376315,-1,-1,-3,3,0,0,-2,-2
1537907640385291,0,2,0,-8,-3,1,0,0
1537907640385291,1,2,2,0,11,3,0,1
1537907640401249,0,-1,-5,-2,-6,-5,0,0
1537907640401249,0,1,3,19,-9,-2,-2,-2
1537907640403246,-2,-1,-1,-5,3,-4,-1,-2
1537907640403246,0,-2,-2,2,0,0,1,0
1537907640423191,0,-2,2,-15,-4,1,1,-1
1537907640423191,1,-4,-1,-6,6,1,-1,1
1537907640425186,-2,-3,4,5,3,3,1,-2
1537907640425186,-1,-2,-2,13,-1,-3,-1,-2
1537907640436155,0,-1,-3,-4,7,0,-1,0
1537907640436155,0,-1,-1,2,0,-1,-2,-2
1537907640445131,-2,-2,-2,-6,1,1,-2,0
1537907640445131,-2,0,0,-9,-5,-2,-2,-2
1537907640460091,-4,0,0,4,1,1,-1,-1
1537907640460091,-1,-1,-1,-6,-4,-2,0,0
1537907640462086,0,2,-3,-4,-6,-1,-1,0
1537907640462086,-1,0,-3,-3,-4,0,-2,1
1537907640483031,1,1,-2,5,4,1,0,-1
1537907640483031,-1,-1,-1,-9,-3,-1,0,-1
1537907640484029,-1,-2,-3,1,0,0,-1,0
1537907640484029,-3,-2,-1,7,0,-1,0,-1
1537907640496993,1,-2,-2,-16,-1,1,-2,-1
1537907640496993,-1,-4,2,16,1,-3,0,-1
1537907640505969,1,-3,-5,-13,-4,-2,0,1
1537907640505969,-2,-3,-4,-12,-14,-3,-3,0
1537907640519932,-2,-3,0,5,-1,-3,-2,-2
1537907640519932,0,-2,-1,0,2,0,-3,-2
1537907640526913,2,-2,-2,-8,-5,-2,0,-1
1537907640526913,0,-2,0,4,4,-1,1,-1
1537907640542871,-1,-2,0,-2,0,-1,-1,0
1537907640542871,0,1,-1,-3,0,0,-1,0
1537907640544866,0,1,-2,2,-1,-1,-3,1
1537907640544866,-2,1,0,-1,2,1,-1,-1
1537907640556833,0,1,-3,0,-4,-2,-1,-1
1537907640556833,-1,0,0,-4,-1,-2,-1,-2
1537907640565809,-2,1,1,-1,0,1,-1,0
1537907640565809,0,0,1,2,1,-1,-1,0
1537907640579771,0,0,-1,-1,-4,-2,0,0
1537907640579771,0,-3,-2,-2,0,-1,0,0
1537907640586752,-1,-2,-1,7,-3,-3,-1,-2
1537907640586752,0,-2,-4,-13,-5,-3,-1,-1
1537907640602709,-2,-2,2,4,2,2,1,-1
1537907640602709,-2,-1,-3,-4,-1,-2,-1,-1
1537907640604704,-2,-1,0,-4,-3,0,1,-1
1537907640604704,-2,0,-1,7,3,1,-1,-2
1537907640616672,0,-1,-3,0,0,0,1,0
1537907640616672,2,0,-3,-5,-4,-2,-1,0
1537907640625648,-2,0,-1,-1,2,0,0,-1
1537907640625648,1,0,-1,0,-2,0,-2,-1
1537907640639611,0,0,-2,-3,-1,-2,-2,1
1537907640639611,0,0,-1,-1,0,1,-1,0
1537907640646592,1,-1,0,-2,0,-1,-1,-1
1537907640646592,0,-1,0,-1,0,1,0,1
1537907640663547,0,1,4,3,4,2,1,0
1537907640663547,0,0,-4,7,26,4,1,3
1537907640664544,-4,-5,1,-7,-32,-11,-5,-5
1537907640664544,2,8,-2,1,10,3,2,3
1537907640676512,-1,-4,2,-11,8,4,1,0
1537907640676512,-2,4,-3,57,14,2,-1,-1
1537907640685488,-1,-8,47,58,5,-3,-2,-2
1537907640685488,-10,-17,17,29,14,-5,-5,-6
1537907640699451,3,40,-95,-14,-30,-9,-2,1
1537907640699451,-6,-55,16,-42,19,-1,-3,-3
1537907640708427,-2,-1,-88,-59,-12,-1,-2,-3
1537907640708427,2,13,91,-32,-55,-17,-5,2
1537907640722390,-3,-11,-37,22,-15,-6,-2,-5
1537907640722390,3,24,-4,48,1,6,3,3
1537907640724385,0,4,13,-29,18,11,1,0
1537907640724385,1,-4,-1,-69,19,10,4,3
1537907640745329,-3,-1,-15,-32,8,-1,0,-1
1537907640745329,1,14,18,-34,-28,-11,-1,-1
1537907640746327,-1,6,5,48,4,0,0,1
1537907640746327,3,15,-22,24,14,3,1,0
1537907640759292,-3,-9,39,27,3,-4,-4,-1
1537907640759292,-4,-3,5,34,-28,-6,-5,-5
1537907640766273,5,0,22,2,43,13,6,4
1537907640766273,-7,-18,-40,-47,-57,-18,-7,-7
1537907640783228,0,-18,-5,-29,-8,-5,-2,-1
1537907640783228,3,-30,6,-25,5,1,-1,0
1537907640784226,1,-38,-7,-19,0,-4,0,-1
1537907640784226,0,-28,-10,44,5,1,0,-1
1537907640805168,-1,-20,38,16,18,6,2,-1
1537907640805168,-2,5,-1,-13,-3,1,-1,-1
1537907640807164,-3,-2,3,13,-7,-6,-1,-1
1537907640807164,-2,3,-20,42,21,5,0,-2
1537907640819132,-1,21,22,-44,-13,0,1,0
1537907640819132,-1,33,-10,3,-4,-1,-1,1
1537907640828108,-1,28,-1,-19,-11,-3,0,-1
1537907640828108,0,19,-13,10,7,1,0,0
1537907640843068,-2,12,9,22,5,1,0,-3
1537907640843068,0,9,-8,-3,-5,0,0,1
1537907640849051,1,5,3,-10,6,3,1,3
1537907640849051,1,4,2,17,21,4,-1,0
1537907640864011,-1,-4,24,9,-12,-4,-3,-1
1537907640864011,0,-3,-50,-17,9,0,-1,-3
1537907640872988,-2,3,55,-4,-12,-3,-2,-2
1537907640872988,0,0,-31,12,4,0,1,0
1537907640878973,2,-7,9,16,7,2,0,2
1537907640878973,1,-3,4,-1,6,2,-1,0
1537907640887949,0,-1,-11,-12,-2,-1,-1,-1
1537907640887949,-1,-4,-4,-16,-13,-1,-2,-4
1537907640902908,-1,-2,7,-2,2,0,0,1
1537907640902908,-3,-1,6,-10,-12,-3,0,-2
1537907640903906,0,8,-48,11,3,0,-1,-1
1537907640903906,-1,-18,53,-4,-3,-5,0,0
1537907640925846,-2,-7,-17,3,4,1,0,0
1537907640925846,0,2,23,4,0,-1,1,-1
1537907640926845,-1,-6,-10,-2,-2,-3,-2,1
1537907640926845,-2,3,-7,-1,-4,-2,-2,-2
1537907640938812,1,-1,-5,16,-2,-3,-1,2
1537907640938812,-3,-5,-3,-12,-12,-6,-2,-1
1537907640955766,-2,2,0,3,-5,-4,-2,-2
1537907640955766,1,2,-20,-5,1,2,0,0
1537907640962747,-1,-1,24,-2,9,2,-2,-3
1537907640962747,-2,-3,-39,-7,-9,-5,-2,-2
1537907640964742,0,6,28,9,-3,-1,-2,0
1537907640964742,0,-7,-10,-5,4,2,0,0
1537907640985686,-1,-4,-24,6,-5,-1,-1,-3
1537907640985686,-1,5,6,-12,4,1,-1,-1
1537907640986683,-4,-24,-27,1,-6,-1,0,-2
1537907640986683,5,17,12,-1,0,-1,1,2
1537907640998651,0,0,29,10,4,1,-1,-1
1537907640998651,0,1,41,6,-3,0,0,0
1537907641007627,-3,-12,-48,-6,-4,0,-1,-1
1537907641007627,-2,3,17,3,1,0,-1,-2
1537907641022588,0,2,-13,-7,-2,-1,-1,-1
1537907641022588,0,2,9,4,3,1,1,0
1537907641024582,-1,1,44,12,-1,-1,-2,-4
1537907641024582,-3,-6,-25,-14,-3,-2,-2,0
1537907641045525,0,1,-17,-2,-1,1,0,0
1537907641045525,-2,-9,4,2,1,-3,-1,-1
1537907641046523,0,6,21,-2,3,1,1,0
1537907641046523,-2,1,-12,1,-4,-3,1,-1
1537907641059488,3,-2,1,-4,-2,-1,0,-1
1537907641059488,-2,0,-16,0,-1,-2,-3,-2
1537907641067467,0,-1,-1,0,-1,0,-1,1
1537907641067467,0,8,11,-7,-1,0,0,-1
1537907641082427,-3,0,44,14,-1,0,0,-1
1537907641082427,-2,-12,-6,-4,0,-2,-1,-3
1537907641084422,-2,5,-3,-8,-5,-2,-1,-2
1537907641084422,-1,-10,-23,3,-1,-2,-1,-1
1537907641105366,2,4,-23,0,-1,-2,-1,0
1537907641105366,1,1,-4,1,-1,0,1,1
1537907641106363,0,-1,77,1,-2,-1,1,0
1537907641106363,-1,-3,-57,-7,0,0,-2,-1
1537907641119328,-4,-3,-33,-13,-4,-2,-1,-1
1537907641119328,0,4,14,-1,0,0,1,0
1537907641128305,1,0,11,11,4,2,0,0
1537907641128305,2,4,25,5,-2,-1,0,1
1537907641143265,-2,-4,10,-5,3,-1,-1,-1
1537907641143265,-1,4,-14,6,1,2,0,-1
1537907641144263,-3,-7,-16,-13,-7,-4,-3,-1
1537907641144263,-2,-4,13,-6,0,1,2,-2
1537907641165206,1,0,-5,9,-1,0,-2,1
1537907641165206,1,-10,-41,-8,-4,0,-1,-1
1537907641167201,2,14,37,7,2,0,0,-1
1537907641167201,1,-2,41,9,2,1,0,3
1537907641179169,-2,-9,-75,-14,-3,-2,-2,-9
1537907641179169,-1,7,52,4,0,0,-2,0
1537907641188145,-2,-11,-76,-6,-4,-3,-1,-1
1537907641188145,-2,-1,6,-3,4,-1,-1,0
1537907641203105,-1,1,81,4,-1,-1,-1,2
1537907641203105,1,6,-8,3,-1,-1,-1,-1
1537907641204102,0,-6,-29,-3,1,1,1,1
1537907641204102,-1,-2,-12,7,-1,-1,-1,-2
1537907641225046,-4,-13,5,-2,-2,-1,-1,-5
1537907641225046,-5,1,-9,-1,-3,-2,-2,-2
1537907641227041,4,11,-12,-6,-3,0,-1,4
1537907641227041,-3,-7,20,1,-3,0,-2,-4
1537907641239009,0,-1,-71,-9,0,0,1,0
1537907641239009,2,-12,11,5,2,1,1,1
1537907641254966,-3,13,2,1,2,0,-1,-2
1537907641254966,-4,-7,-3,-2,-2,-1,-1,1
1537907641262944,-2,-5,22,1,-3,-3,-3,-5
1537907641262944,-3,-9,-9,-9,-3,0,-1,-1
1537907641263942,-1,0,-4,-2,1,0,0,0
1537907641263942,0,13,21,13,3,1,1,0
1537907641284886,0,-3,-12,-10,0,-2,-1,5
1537907641284886,-2,-1,9,9,-2,-2,-1,-7
1537907641286881,0,-7,4,2,1,-2,-2,1
1537907641286881,-3,2,-17,-3,-4,-1,-1,0
1537907641298848,1,5,-3,0,2,1,-1,2
1537907641298848,0,8,7,-4,-1,-1,-2,-20
1537907641307824,2,-18,1,1,1,-1,0,21
1537907641307824,1,-8,-28,-4,-2,-2,-1,3
1537907641322785,-7,5,13,0,1,-2,-2,2
1537907641322785,3,-2,7,2,0,2,1,-11
1537907641324779,-2,-1,-78,-7,-2,-3,-5,-14
1537907641324779,2,-20,22,0,1,2,-1,4
1537907641345723,0,28,22,3,0,-2,-1,-4
1537907641345723,1,-2,-25,-5,-3,-1,1,10
1537907641346721,-3,-12,26,2,2,0,0,-1
1537907641346721,1,25,-16,-7,-1,0,1,-3
1537907641358689,2,-3,27,3,1,1,0,4
1537907641358689,-3,2,-4,-1,0,-2,-3,3
1537907641367664,0,-6,14,3,-2,-3,-1,2
1537907641367664,-4,-3,-18,-6,-3,-4,-3,-10
1537907641382625,0,-6,12,4,0,-2,1,-6
1537907641382625,0,13,7,-8,0,-1,-2,4
1537907641384620,-5,-11,-6,-1,-1,1,-2,-4
1537907641384620,4,2,-7,-1,0,-1,0,5
1537907641405564,-2,-4,-6,-2,-1,1,-1,-4
1537907641405564,2,-3,-11,-1,0,-2,0,6
1537907641406561,-2,21,8,1,0,1,-1,12
1537907641406561,-4,-8,-7,1,-1,-2,-5,-17
1537907641418528,2,2,0,-1,-1,2,0,4
1537907641418528,-2,0,21,-1,-2,-3,-1,7
1537907641427505,-2,2,-3,-3,0,0,1,-11
1537907641427505,0,-17,-12,-1,-2,-2,-3,2
1537907641442465,-1,-6,3,1,0,0,1,3
1537907641442465,-1,-2,-2,1,2,0,-1,-5
1537907641444460,1,2,49,6,-3,-2,-1,-1
1537907641444460,-3,2,-56,-6,-1,-1,0,-1
1537907641465403,2,-3,12,-2,-1,-2,-1,-3
1537907641465403,-2,-7,14,-3,-1,0,1,2
1537907641466401,3,0,-18,1,0,0,1,-5
1537907641466401,-4,-5,-1,-1,0,0,0,1
1537907641479366,-1,2,5,-1,-2,-1,0,-2
1537907641479366,-4,-4,5,-1,-1,-2,-2,-1
1537907641488342,4,34,3,0,-2,-2,-1,-3
1537907641488342,-1,-33,18,0,0,-1,-3,1
1537907641503302,0,1,-20,-1,-1,-1,-2,-2
1537907641503302,0,-4,6,-1,-3,0,1,-4
1537907641504299,-2,-9,-23,-3,-1,-2,0,-5
1537907641504299,2,7,7,-1,-1,1,3,6
1537907641525243,-3,-2,-1,6,0,0,1,-2
1537907641525243,-1,-2,1,-4,2,0,-1,-9
1537907641527238,-5,0,-23,-8,-6,-3,0,2
1537907641527238,2,10,24,-1,0,0,1,5
1537907641539207,-1,0,-7,0,2,1,1,1
1537907641539207,-1,-9,-38,0,-4,-2,0,6
1537907641548182,1,1,49,7,-2,-1,-1,-9
1537907641548182,1,9,15,-4,1,0,-2,-4
1537907641563143,-5,-13,-22,-5,-7,-3,-2,1
1537907641563143,-1,11,5,-1,2,-1,0,-3
1537907641564139,2,14,-8,6,2,1,-1,-1
1537907641564139,0,4,32,5,-1,0,-2,1
1537907641585084,1,0,15,8,4,0,-2,0
1537907641585084,0,5,-28,-15,-4,-2,0,2
1537907641587078,-2,-23,-16,-6,-2,0,-2,0
1537907641587078,-1,8,4,-1,-3,-2,-1,2
1537907641599046,-3,4,-6,1,0,-1,-1,-6
1537907641599046,0,-10,-3,4,-3,0,-1,3
1537907641608022,-1,-3,0,0,1,-1,2,6
1537907641608022,0,7,25,3,0,0,-2,-8
1537907641622983,-2,-1,11,-9,-1,0,0,-2
1537907641622983,2,-9,-48,8,-1,-1,0,5
1537907641623980,-3,-8,-16,-19,-4,-1,-2,-3
1537907641623980,-1,3,-25,4,2,-3,0,3
1537907641644924,-2,2,2,-10,-7,-4,-2,-1
1537907641644924,1,0,50,8,2,1,0,1
1537907641646918,-2,-6,-16,-2,1,0,-1,-3
1537907641646918,-1,2,49,8,0,-1,0,-3
1537907641658886,1,-2,-36,1,0,-3,-1,0
1537907641658886,-3,-3,-23,-6,-2,-2,-2,-2
1537907641667862,3,6,36,6,0,0,-2,-2
1537907641667862,-1,-9,-31,-11,-4,0,2,4
1537907641682822,-2,-1,15,4,1,1,-3,-29
1537907641682822,2,7,-1,-4,-2,-1,-3,13
1537907641683819,-2,-6,3,3,1,0,0,2
1537907641683819,-1,1,-9,-1,-3,-1,-4,-7
1537907641705761,0,1,17,-1,0,-1,1,2
1537907641705761,-3,-8,-10,-3,-1,-2,0,-9
1537907641706758,1,-3,4,1,-1,-1,1,2
1537907641706758,0,0,-14,-3,-4,-2,1,1
1537907641718726,0,-5,-11,0,1,1,0,8
1537907641718726,-4,10,30,-1,-6,0,-1,-7
1537907641727702,-2,-17,-92,-5,-2,-3,-1,2
1537907641727702,-1,-1,17,-8,-1,-1,1,-1
1537907641742662,0,1,3,-2,-1,-1,0,4
1537907641742662,1,2,41,0,2,-1,-1,2
1537907641744657,-2,6,15,5,1,0,-3,-6
1537907641744657,-1,-7,-29,0,-3,-1,-1,-1
1537907641765601,0,-4,-23,-6,-1,0,-1,3
1537907641765601,-1,-4,-5,0,0,0,-3,-2
1537907641766598,-1,-2,0,-1,-4,-2,0,-4
1537907641766598,-2,0,7,-1,-2,-1,-1,-2
1537907641778566,2,0,-5,0,2,0,0,5
1537907641778566,-3,1,-12,-3,-1,-2,0,-3
1537907641787542,-3,-7,-2,-3,-1,-2,0,-2
1537907641787542,1,9,11,0,2,-1,-2,1
1537907641810481,1,12,14,4,-1,-3,0,-2
1537907641810481,-1,-8,-35,-4,0,1,0,3
1537907641811479,-1,4,34,0,-2,-2,-3,-7
1537907641811479,0,-4,3,4,1,0,0,0
1537907641825441,-3,-11,-17,-5,-3,-2,-2,-1
1537907641825441,-2,2,-3,1,-1,-1,-1,-2
1537907641826439,-2,5,0,-2,-2,0,0,5
1537907641826439,0,-8,34,1,1,-1,-2,-2
1537907641847383,1,2,0,3,-2,1,0,1
1537907641847383,0,-6,-47,-10,-3,0,0,-1
1537907641849378,-3,2,20,0,1,-2,0,-3
1537907641849378,-4,-8,-20,1,0,0,0,-1
1537907641863341,2,5,-6,-4,1,0,-1,3
1537907641863341,0,3,7,7,1,-1,0,-3
1537907641864338,0,-4,-1,0,0,0,-4,0
1537907641864338,0,7,-16,2,-3,-3,-1,-1
1537907641885281,-2,-2,27,-4,-1,-1,0,1
1537907641885281,-1,-5,-15,2,0,-3,-1,-3
1537907641887276,-1,1,11,4,-2,0,1,0
1537907641887276,0,1,-6,-4,-2,-1,0,0
1537907641908219,0,-6,-22,0,0,2,1,4
1537907641908219,-4,1,11,0,0,-1,-3,-11
1537907641910214,-1,-3,5,0,1,-1,-2,0
1537907641910214,1,8,15,6,0,0,1,4
1537907641923180,-3,-10,3,-1,0,-1,-2,-5
1537907641923180,-2,6,10,1,-1,1,2,4
1537907641924178,2,-2,-7,0,-1,-1,0,1
1537907641924178,-3,-6,-19,-4,-1,-1,-3,-5
1537907641945121,2,7,17,1,0,-1,0,0
1537907641945121,-2,-4,-7,-2,-2,-1,-1,2
1537907641947116,-3,-5,-21,-4,-1,0,-3,-11
1537907641947116,0,3,16,-1,0,1,1,1
1537907641968060,-1,-1,-1,6,2,1,-1,-1
1537907641968060,1,-3,-11,-4,-2,-2,-1,-1
1537907641969057,2,6,9,1,1,-1,2,4
1537907641969057,-1,-7,-19,-10,-3,-1,1,-3
1537907641982022,-2,-2,19,0,-1,0,-2,-2
1537907641982022,0,-9,7,2,-3,-2,-1,1
1537907641995986,0,-3,-5,-2,-1,0,0,0
1537907641995986,0,-1,-6,1,0,0,-2,-2
1537907642004961,0,1,-9,-2,-2,-1,1,1
1537907642004961,2,3,9,0,1,1,2,7
1537907642006956,-3,0,-5,-1,-2,-2,-4,-8
1537907642006956,-3,-2,1,-1,-2,-2,-2,-2
1537907642027900,-1,0,4,-1,-1,-2,-2,1
1537907642027900,-2,-5,-35,-10,0,-1,-1,-3
1537907642028897,5,11,-8,9,3,1,3,4
1537907642028897,-2,3,22,3,-1,-1,0,-1
