timestamp,emg1,emg2,emg3,emg4,emg5,emg6,emg7,emg8
1537920266144612,0,-2,-4,-2,-4,-31,-25,0
1537920266144612,-5,-3,-1,-1,8,95,18,-2
1537920266145610,-1,0,0,0,1,-11,49,-1
1537920266145610,-4,0,1,1,-1,1,-6,-2
1537920266146607,3,1,0,-1,-1,-15,9,3
1537920266146607,0,-2,-2,-3,-5,-29,-29,-5
1537920266149599,-2,-2,-2,-2,0,-17,-22,-3
1537920266149599,-1,-1,-2,-1,-1,31,9,-1
1537920266157577,-3,-1,0,-1,-1,-1,-2,-13
1537920266157577,1,0,-1,2,-1,-23,-3,7
1537920266166554,0,-2,0,1,7,21,-27,1
1537920266166554,-2,-3,-2,-3,-4,-32,0,-1
1537920266172537,-1,1,-1,0,3,27,-9,0
1537920266172537,-3,0,-1,-1,-1,-8,-12,-4
1537920266186500,1,0,0,-4,-9,-8,18,4
1537920266186500,0,-1,0,0,4,-33,-15,3
1537920266197471,0,-2,-2,-1,-8,48,6,4
1537920266197471,-1,1,-1,1,7,-17,10,-10
1537920266211433,2,-1,-1,0,-4,-3,27,4
1537920266211433,-3,-1,-1,-1,2,13,8,-5
1537920266218415,-2,1,-1,0,3,-8,-2,-2
1537920266218415,0,1,-1,-1,-6,-22,3,0
1537920266231380,3,0,1,0,-2,-13,-35,-2
1537920266231380,-3,-2,-2,0,-2,2,-6,0
1537920266273268,-1,-2,-3,-3,-5,-18,-18,-6
1537920266273268,0,1,-1,0,0,-10,-8,4
1537920266273268,-1,-1,-1,-2,-8,-22,-33,-5
1537920266273268,-1,-2,-1,1,3,-4,18,1
1537920266277258,1,0,0,-2,-6,-28,-25,2
1537920266277258,3,2,0,3,8,32,2,0
1537920266279252,-2,-2,-4,-3,-6,-7,7,-3
1537920266279252,-1,0,-1,0,-4,3,-12,-7
1537920266284239,0,0,0,0,0,-7,1,-1
1537920266284239,-6,-1,0,0,-1,-5,5,-2
1537920266293215,-1,-1,0,1,6,8,-2,2
1537920266293215,4,1,0,-1,-1,-21,-4,4
1537920266299199,-4,-2,-1,-1,1,28,12,-6
1537920266299199,4,-2,0,1,3,22,-19,2
1537920266315157,2,2,0,0,-3,-18,12,2
1537920266315157,0,-2,-2,0,1,-2,9,-2
1537920266321140,-4,-1,-2,-3,-4,-9,-8,-6
1537920266321140,-2,-3,-2,-2,-3,-12,-18,-9
1537920266344079,-2,-3,0,0,6,18,12,9
1537920266344079,1,2,-1,-1,-5,-7,-10,5
1537920266345076,-4,-1,-1,2,4,10,-10,-8
1537920266345076,-2,2,-1,-3,-2,-6,52,5
1537920266359039,2,-2,-1,-3,-1,-15,-28,-5
1537920266359039,-1,-1,0,2,5,2,-14,3
1537920266360036,4,0,-2,0,3,15,10,4
1537920266360036,-4,-1,-1,-2,-9,-9,-22,-8
1537920266381977,-5,-1,0,0,8,15,27,-5
1537920266381977,1,0,-1,-2,-1,-1,6,2
1537920266382975,-2,-1,-1,1,-4,-5,-3,-5
1537920266382975,1,-2,-1,-1,0,-24,-6,2
1537920266404916,0,1,-1,-3,-6,-1,14,0
1537920266404916,-2,-2,-1,-3,-11,2,-15,-3
1537920266404916,2,1,0,1,4,4,34,6
1537920266404916,-1,-2,-1,-3,-7,-1,-1,-4
1537920266419876,-4,-1,-1,0,-3,-14,-31,0
1537920266419876,0,0,0,-1,1,-19,23,3
1537920266419876,4,2,1,3,14,51,-29,3
1537920266419876,0,0,-1,-2,-10,-20,2,1
1537920266441817,0,0,-1,0,2,8,10,-1
1537920266441817,-2,-3,-1,-3,-5,-30,-20,-8
1537920266442815,-1,0,-3,-4,-5,-21,13,6
1537920266442815,-4,-1,-1,1,9,24,4,-4
1537920266472735,-2,-3,-2,-3,-11,-6,-7,-1
1537920266472735,-4,-1,-1,-2,-1,3,-16,-5
1537920266473732,2,-1,-1,1,1,11,37,4
1537920266473732,-6,1,-2,-2,0,0,-15,-7
1537920266479716,4,0,1,0,3,-18,-2,2
1537920266479716,-1,-1,-1,2,6,4,-39,-1
1537920266479716,-1,0,0,1,-1,19,78,1
1537920266479716,4,0,0,0,-3,-19,0,8
1537920266501658,-4,1,0,0,2,12,0,-7
1537920266501658,3,-2,-1,-3,-10,-7,-29,-2
1537920266502655,-4,0,0,-3,-3,-8,15,-4
1537920266502655,1,-2,-2,1,-1,15,3,5
1537920266524596,1,0,-2,1,3,-5,6,-2
1537920266524596,-3,-1,-1,1,3,44,-3,-8
1537920266525594,-1,-1,-2,-7,-14,-87,-13,-2
1537920266525594,-3,-1,-1,-2,4,45,-2,-5
1537920266546538,2,0,-1,2,4,3,2,4
1537920266546538,-1,0,0,-1,-3,1,18,2
1537920266547535,-2,-1,0,0,0,-14,-40,-4
1537920266547535,0,-1,0,-1,-2,-11,25,-4
1537920266561497,1,1,-1,-2,1,3,-8,0
1537920266561497,-4,0,0,1,1,-2,-10,0
1537920266562495,0,-1,-1,-2,-2,2,20,4
1537920266562495,0,-2,0,0,-2,-8,-12,1
1537920266584436,-3,-2,0,0,5,14,-23,-4
1537920266584436,2,-1,0,-3,-15,-9,24,8
1537920266585434,-3,-3,-1,-2,1,11,-22,-4
1537920266585434,2,1,-1,1,0,-19,-15,-2
1537920266598399,3,-2,-2,-3,-9,-17,-6,5
1537920266598399,-5,0,-1,1,9,1,22,-6
1537920266606377,1,0,1,3,3,25,-30,2
1537920266606377,-1,-1,-1,-1,4,-10,-4,-3
1537920266622335,-3,-1,0,-1,-7,-6,9,-6
1537920266622335,1,-3,-3,-4,3,28,9,-2
1537920266622335,0,0,-1,1,-3,-37,16,4
1537920266622335,0,-1,0,-1,0,14,12,2
1537920266644277,-1,0,0,1,-1,8,-9,-2
1537920266644277,-1,-2,-2,0,1,-9,-8,-3
1537920266645274,-2,-1,-1,-1,1,20,0,-1
1537920266645274,-2,-3,0,0,4,-12,-13,-1
1537920266667217,-2,-2,-1,-2,-5,-9,0,-2
1537920266667217,2,1,2,3,3,3,11,3
1537920266674198,0,0,0,-1,6,-10,-63,-2
1537920266674198,0,1,-2,-3,-14,2,77,7
1537920266682176,0,-1,-1,-4,-6,0,3,4
1537920266682176,0,-1,-1,1,1,-10,0,-2
1537920266683175,-4,-1,-1,-2,-2,8,-10,-3
1537920266683175,-1,0,1,5,24,14,-31,-2
1537920266704119,-2,-2,-3,-7,-10,4,-6,-2
1537920266704119,1,0,-2,0,-6,-29,27,2
1537920266705116,-2,-2,-3,-4,-7,35,-23,-3
1537920266705116,-1,-1,-3,-1,-8,-16,2,-3
1537920266719078,-1,-2,1,3,7,6,13,1
1537920266719078,-2,0,0,2,1,-13,-28,-1
1537920266726059,1,-2,-2,-1,-10,-16,-7,-2
1537920266726059,-3,-1,-2,0,4,5,1,-6
1537920266742018,-1,0,0,3,5,4,18,4
1537920266742018,-1,-2,-2,-2,5,8,-8,-1
1537920266743016,0,-1,1,-3,-6,28,15,0
1537920266743016,2,-1,-2,-5,-10,-40,-25,0
1537920266764954,-2,0,2,1,6,8,7,-3
1537920266764954,-1,0,1,-2,-7,-5,-7,-1
1537920266764954,0,-2,0,3,12,18,40,0
1537920266764954,-1,-1,1,-2,-7,-6,-21,-2
1537920266778917,0,-1,-1,1,-3,-5,-2,-1
1537920266778917,-1,-3,-2,-3,2,6,9,1
1537920266785898,2,-1,-2,0,-1,-27,-20,-1
1537920266785898,3,0,-1,-4,-7,7,2,0
1537920266801855,1,2,0,2,10,4,5,1
1537920266801855,-3,-1,0,1,0,11,-4,-2
1537920266802853,-2,-2,-2,-6,-12,-28,-15,-2
1537920266802853,-2,0,-1,0,1,1,11,1
1537920266824794,1,0,0,0,0,-3,9,0
1537920266824794,0,1,-1,-2,3,-2,-17,-2
1537920266824794,0,0,1,3,4,-13,6,-1
1537920266824794,0,-1,-2,-3,-8,19,16,2
1537920266838757,-2,-2,-2,-2,0,-26,-19,-3
1537920266838757,-3,-1,-2,-3,-13,-1,8,-2
1537920266846735,1,2,1,2,6,15,4,1
1537920266846735,-1,-2,1,0,3,-2,-21,-3
1537920266861696,0,-2,1,2,0,7,9,0
1537920266861696,-1,-2,0,-1,1,-11,10,0
1537920266862693,-1,0,-1,-1,-2,-1,-2,-2
1537920266862693,0,-1,-1,-1,1,0,-11,-3
1537920266884635,-3,2,-1,-3,-4,-7,-9,-3
1537920266884635,-1,-3,-1,-3,-3,4,-35,-3
1537920266885633,1,-3,-1,1,0,-4,67,1
1537920266885633,3,-2,2,1,1,15,-2,11
1537920266906576,-1,-3,-2,-2,-4,-6,-4,-1
1537920266906576,1,1,-1,-3,-2,11,7,-2
1537920266907575,-5,-1,-2,-1,1,1,-30,-6
1537920266907575,-2,-2,-2,0,-1,-21,-15,-9
1537920266922537,5,-1,-2,-3,-5,12,3,1
1537920266922537,-5,-3,0,0,3,10,15,7
1537920266922537,1,0,0,3,0,-25,-7,5
1537920266922537,-4,1,-1,1,-1,-2,7,-2
1537920266944477,-4,-1,1,-1,-4,4,-18,-8
1537920266944477,1,-1,-2,-3,-1,4,8,-5
1537920266945474,-5,-3,0,0,1,-2,-5,-1
1537920266945474,5,-1,1,-1,-5,7,-12,14
1537920266967416,1,-1,0,0,-1,-6,18,0
1537920266967416,-1,2,1,2,2,2,4,-1
1537920266967416,0,0,1,-1,-1,-1,-6,0
1537920266967416,-5,2,0,0,-3,-14,-7,-4
1537920266982373,-1,0,1,-1,-3,-5,-7,-3
1537920266982373,-1,-1,-1,1,3,30,13,0
1537920266982373,1,0,-1,-4,-4,-9,-17,-1
1537920266982373,-2,-1,-1,0,6,6,3,-6
1537920267004314,0,-1,-3,-4,-14,-3,-1,5
1537920267004314,-2,-1,0,-1,3,-16,6,1
1537920267005311,0,0,0,0,-1,26,-5,4
1537920267005311,0,-1,-4,-3,-4,-13,-1,-2
1537920267027253,-1,0,0,2,3,-17,-3,-1
1537920267027253,0,-2,1,1,3,21,-7,-3
1537920267027253,0,-2,-2,-2,-5,-11,-10,-3
1537920267027253,-1,0,1,-2,-1,0,13,0
1537920267042213,-3,-2,-1,-1,-1,29,20,3
1537920267042213,1,0,-2,-1,-2,-23,-7,3
1537920267042213,0,1,-1,0,2,-8,-2,-2
1537920267042213,-2,-2,-1,-3,-2,-17,-8,-1
1537920267064155,-4,-1,0,3,21,49,-12,-9
1537920267064155,1,-2,1,-4,-23,-19,-6,0
1537920267065152,-5,-2,-2,-4,-5,-16,-4,-3
1537920267065152,0,1,1,-1,2,10,13,-1
1537920267087093,-2,-2,0,0,5,6,8,1
1537920267087093,-1,-2,-2,1,7,-11,-1,-1
1537920267088091,0,1,-2,-1,0,3,-4,-2
1537920267088091,-3,-3,-1,-1,-4,1,1,-4
1537920267102054,-1,1,0,0,7,-8,-12,-2
1537920267102054,-7,-2,-1,0,-1,15,4,-7
1537920267103051,1,-3,-4,-7,-7,-16,-11,-2
1537920267103051,0,-1,1,0,3,7,11,-2
1537920267125990,1,0,0,-1,1,-8,26,5
1537920267125990,2,2,1,1,-1,-8,-17,1
1537920267126988,-1,0,0,1,1,16,-5,-1
1537920267126988,1,1,0,2,5,8,7,2
1537920267146934,0,-2,-3,-1,-2,-17,-2,-1
1537920267146934,2,-2,-1,-1,-14,-39,-5,-1
1537920267147932,0,-1,1,1,9,48,5,-4
1537920267147932,-2,-3,-2,-2,-3,6,-14,-3
1537920267163890,2,-1,2,0,-3,-29,-12,2
1537920267163890,-1,-2,-1,1,9,16,-12,-1
1537920267163890,1,0,-1,-3,-2,-15,-10,3
1537920267163890,-2,-1,-1,-1,-2,2,-22,-2
1537920267184833,-1,-1,-1,-1,-2,0,14,-2
1537920267184833,-1,0,1,0,3,0,26,0
1537920267185830,-2,-2,0,0,4,16,-10,-2
1537920267185830,-1,0,-3,-1,-3,-11,-21,-2
1537920267206773,-1,-2,-1,-6,-20,-9,16,3
1537920267206773,0,0,-2,-2,-2,-9,-15,-3
1537920267207771,0,0,0,1,1,-7,8,3
1537920267207771,0,0,0,0,5,13,29,4
1537920267221733,-1,-2,-1,-1,0,0,-20,-3
1537920267221733,0,0,-1,-3,-1,12,3,-1
1537920267222731,0,-1,1,2,5,-19,-1,0
1537920267222731,-1,-2,-2,-2,-1,4,13,4
1537920267243674,-3,-1,-3,-1,5,-2,-31,-7
1537920267243674,1,0,-2,0,-3,-2,21,4
1537920267251653,2,0,-4,-4,-10,-2,20,3
1537920267251653,4,1,2,2,2,-27,-37,4
1537920267266613,1,0,-1,-1,-7,32,-1,1
1537920267266613,-2,0,0,-1,6,-7,-6,-1
1537920267267611,-5,-2,-2,2,9,0,8,-5
1537920267267611,0,-2,-2,-5,-15,-13,-19,-6
1537920267290550,-2,0,0,1,1,-4,22,0
1537920267290550,1,-1,1,0,1,-16,-4,0
1537920267290550,-2,-2,1,-1,-3,8,5,-1
1537920267290550,-2,0,0,1,6,35,-14,-5
1537920267303514,1,-1,-1,-1,-6,-15,19,0
1537920267303514,-1,-2,-2,-1,-3,14,20,2
1537920267319472,0,2,0,0,-2,-14,-2,-1
1537920267319472,0,-2,-2,0,3,-6,5,-4
1537920267327451,0,0,-2,1,6,-4,-21,-2
1537920267327451,-1,0,1,0,4,18,-9,1
1537920267327451,-3,0,-2,-4,-15,-7,-24,-6
1537920267327451,1,-1,0,-2,3,-4,40,7
1537920267357370,-3,-2,1,-1,-8,-11,-38,-3
1537920267357370,2,1,1,3,15,-13,18,2
1537920267358368,0,0,0,3,3,1,-15,-6
1537920267358368,-3,-2,-3,-1,-5,20,25,-6
1537920267363354,-1,-1,-1,0,3,10,-4,-2
1537920267363354,-1,-1,-2,-3,-7,-7,13,-2
1537920267379312,1,0,0,5,10,-3,2,3
1537920267379312,-1,1,-2,0,-3,-7,-4,-2
1537920267402251,-3,-3,-4,-10,-27,-21,-11,-1
1537920267402251,-2,-1,-1,1,1,21,-18,-5
1537920267403248,-3,-2,-2,0,-2,-2,16,1
1537920267403248,-2,-1,-1,0,5,-6,-10,0
1537920267410230,0,0,-2,2,16,12,-3,2
1537920267410230,-2,0,-2,-3,-25,-10,-2,-1
1537920267411227,0,0,-1,-1,-1,-1,24,0
1537920267411227,0,2,-1,2,9,7,9,0
1537920267440149,0,0,-2,-1,-8,-19,-8,1
1537920267440149,-3,-2,-3,-2,2,6,-18,-3
1537920267441147,0,-1,0,-1,3,2,-10,0
1537920267441147,-1,-2,0,-2,-9,-7,14,1
1537920267447130,0,-1,-2,1,1,-9,-27,-4
1537920267447130,-1,-2,-1,-3,2,-8,9,2
1537920267448128,1,-2,-2,-2,-4,34,4,2
1537920267448128,-1,-2,-2,-4,-6,-16,-30,-2
1537920267478048,1,0,1,1,7,25,81,3
1537920267478048,-2,0,0,1,2,-22,-17,-6
1537920267478048,-2,-2,-1,-3,-1,-10,-8,-1
1537920267478048,-2,-2,-3,-1,2,14,-7,-2
1537920267493008,0,-1,0,0,4,9,-2,0
1537920267493008,0,1,-1,0,-13,-17,-6,-3
1537920267493008,-1,1,-2,-4,-4,13,8,0
1537920267493008,-1,-1,-1,-1,-8,-36,-23,-3
1537920267506970,-4,-2,0,-1,3,4,-4,-4
1537920267506970,0,-2,-1,-2,6,26,9,1
1537920267507968,0,1,1,2,3,-16,-11,0
1537920267507968,-1,0,0,3,6,-1,-5,-2
1537920267529909,1,-1,0,-2,-12,-19,-16,1
1537920267529909,1,-3,-1,-4,-1,14,48,1
1537920267530906,-2,-2,-1,1,2,12,-15,-3
1537920267530906,0,0,-1,-2,-2,2,6,0
1537920267552848,-2,0,1,3,4,12,-4,-1
1537920267552848,-1,-1,-1,0,0,-6,-14,-1
1537920267553845,-1,-2,-2,-3,-6,-25,-11,0
1537920267553845,-1,0,-1,-1,1,2,-2,-1
1537920267566810,-2,-3,-3,0,0,-21,-5,-4
1537920267566810,0,1,0,-2,-4,15,18,2
1537920267567808,0,-1,1,1,1,-3,8,-1
1537920267567808,0,0,0,0,-3,0,-9,-2
1537920267589749,2,-1,-1,-3,0,4,-7,4
1537920267589749,-1,0,-1,0,3,-2,-18,-2
1537920267590746,1,-1,-1,-1,-8,-8,1,0
1537920267590746,-2,-1,0,-1,0,0,17,1
1537920267612688,-1,-1,0,0,-4,12,14,-1
1537920267612688,0,0,-3,1,0,-10,-10,0
1537920267613685,1,0,-1,1,2,12,-3,-1
1537920267613685,1,-1,-2,-1,-4,-15,-8,-2
1537920267635626,-1,0,0,-1,0,1,21,3
1537920267635626,-2,-1,0,1,5,15,-7,0
1537920267635626,-4,-1,-2,-1,-7,-22,-32,-4
1537920267635626,-1,-2,-1,-1,2,-4,19,1
1537920267650586,-1,0,-1,0,2,-4,10,2
1537920267650586,0,-1,-1,-3,-8,-8,-12,-2
1537920267650586,0,0,0,0,-1,16,17,1
1537920267650586,-1,-1,-2,-1,2,11,-14,-1
1537920267672528,-1,1,0,-3,-3,-5,-15,-4
1537920267672528,-1,-1,-2,1,4,5,-3,-2
1537920267673525,-2,0,1,0,5,-16,1,-2
1537920267673525,-1,-2,-1,-4,-13,5,-19,-2
1537920267686490,-2,-1,-4,-1,-2,-9,24,0
1537920267686490,2,4,1,0,4,20,-25,1
1537920267687488,1,0,-1,2,1,-18,16,5
1537920267687488,0,0,0,-1,0,6,22,1
1537920267710426,-1,-1,-2,-2,2,12,-16,-3
1537920267710426,-2,-3,0,-3,-6,-21,-8,-3
1537920267711424,3,0,-3,-2,-1,6,-8,-1
1537920267711424,0,0,1,1,2,1,12,-1
1537920267732368,-1,-1,-2,0,-2,-17,-12,-1
1537920267732368,-4,-1,-2,-1,-2,-11,3,-3
1537920267738352,-3,-2,-2,-1,-2,19,6,-2
1537920267738352,-1,-2,-2,0,3,-12,-14,-2
1537920267746330,0,0,-1,1,1,2,-5,-1
1537920267746330,0,-1,-1,-1,3,0,-5,0
1537920267755306,-2,0,-2,-5,-5,3,22,-2
1537920267755306,-1,0,-1,-3,-9,-15,15,1
1537920267770266,-1,-1,2,0,2,37,-6,-2
1537920267770266,-3,-3,-1,-1,-1,-3,-5,-5
1537920267771264,-1,-2,-1,-2,-3,-20,9,2
1537920267771264,-1,-1,0,2,4,6,8,0
1537920267792208,-1,-2,2,-2,2,-1,-7,-1
1537920267792208,0,-2,-3,-3,-13,-17,-2,0
1537920267794203,-3,-1,-2,-3,0,5,1,-2
1537920267794203,-1,0,-2,0,4,33,6,-2
1537920267806171,0,0,-2,0,0,-15,-4,-1
1537920267806171,0,0,-1,-1,3,8,3,1
1537920267815147,-3,-2,-2,1,0,-8,-17,-5
1537920267815147,-1,-1,-1,-1,-4,-10,-10,0
1537920267830106,-2,-1,-2,-2,-1,12,29,1
1537920267830106,5,-2,1,0,4,2,-5,5
1537920267832101,-2,-2,0,-1,4,0,-2,-3
1537920267832101,-1,-1,0,0,-9,-18,-25,-2
1537920267852048,-3,0,-1,0,-1,-9,1,-2
1537920267852048,-2,0,-1,-1,-1,14,6,-1
1537920267860026,1,-2,1,1,2,0,17,8
1537920267860026,1,-1,-1,0,4,-4,6,2
1537920267866011,0,-2,-2,0,2,-9,-17,-2
1537920267866011,-1,-2,0,2,0,-15,-6,-4
1537920267874986,-2,1,0,0,-2,13,-8,-4
1537920267874986,-2,-1,-1,-3,3,1,12,0
1537920267889946,-1,0,-1,-1,-6,3,-10,-1
1537920267889946,0,-2,-1,1,8,3,18,2
1537920267891941,0,-1,0,0,-5,-19,-5,-4
1537920267891941,-1,-1,2,1,-3,-11,-6,-1
1537920267912885,-1,-1,0,0,0,14,-23,-1
1537920267912885,-3,0,-1,0,0,-2,4,-2
1537920267913883,-1,-2,-2,-3,-5,5,4,-1
1537920267913883,-1,-1,-3,-4,-5,-15,-16,-1
1537920267925851,0,0,1,1,-1,-8,0,1
1537920267925851,-3,-1,-3,-3,-4,6,8,0
1537920267934827,0,1,1,2,2,3,-2,0
1537920267934827,-2,-1,0,1,2,7,-6,-3
1537920267949788,-1,-2,-1,-2,-2,-10,-7,-2
1537920267949788,0,0,-1,0,0,-5,0,-2
1537920267951782,1,-2,-1,0,0,-5,-5,-1
1537920267951782,-1,-2,-3,-3,-3,17,15,-1
1537920267972726,4,-1,1,-2,-9,0,-3,0
1537920267972726,-1,0,1,0,2,-6,-13,-2
1537920267973724,3,0,0,-2,0,16,14,6
1537920267973724,-1,-2,-1,0,-5,-20,-13,-1
1537920267986689,-3,-2,-1,-1,0,6,17,-1
1537920267986689,-1,0,-1,-3,-3,-21,-28,-3
1537920267995667,-2,-1,1,0,-1,-13,-23,-6
1537920267995667,0,-1,-2,-1,0,22,33,1
1537920268009629,-2,-1,-1,0,2,0,12,-1
1537920268009629,-1,-1,0,0,8,25,-12,-1
1537920268017608,-2,-1,0,1,-6,-22,31,-1
1537920268017608,1,1,0,0,-1,15,-1,0
1537920268032566,-1,-1,-2,-1,-8,-17,-9,-2
1537920268032566,0,-3,-1,0,-2,-4,9,-2
1537920268034560,-3,-1,0,1,5,6,-3,1
1537920268034560,-1,-1,-1,0,2,-6,-9,-4
1537920268046528,-1,0,0,-2,-1,-3,2,0
1537920268046528,-3,-2,-1,0,0,-2,-1,0
1537920268055504,-1,-1,-2,-3,2,11,-11,-3
1537920268055504,0,-1,-1,-1,-2,-7,12,1
1537920268070464,-5,-3,0,-1,0,1,-5,-4
1537920268070464,2,-1,-1,1,0,3,8,-1
1537920268071461,-2,-1,-1,-3,-3,3,-15,-2
1537920268071461,-1,0,-1,1,4,10,20,0
1537920268092405,-2,0,-1,1,5,-4,-4,-3
1537920268092405,0,-2,-3,-3,-6,-14,-10,-3
1537920268094400,2,-2,-2,-1,-4,-6,-9,0
1537920268094400,-2,-2,0,-1,-4,5,16,0
1537920268106368,1,-1,1,0,-7,-9,-8,-1
1537920268106368,-2,0,1,-2,-2,8,13,1
1537920268115344,-2,-1,-2,-2,2,-20,-13,-1
1537920268115344,0,1,1,1,6,28,-13,1
1537920268130304,1,-1,-1,-1,0,-6,4,0
1537920268130304,0,0,-2,0,-7,5,9,0
1537920268136288,1,-1,-2,-1,-3,3,3,1
1537920268136288,0,-2,-1,-1,-2,-21,-17,-2
1537920268152246,-1,-1,-1,0,-2,-14,-11,-1
1537920268152246,-1,-2,-1,0,1,8,17,0
1537920268154240,0,-2,-2,0,1,4,6,0
1537920268154240,-1,-1,-1,-1,-2,-1,-9,1
1537920268166209,-1,-1,0,-2,1,4,-5,1
1537920268166209,-1,-1,0,-1,-1,-4,13,-5
1537920268175184,-1,-2,-1,-2,-1,-4,-3,-1
1537920268175184,-2,0,-1,-2,-6,9,3,-1
1537920268191142,0,0,-2,-1,-1,-17,-14,-1
1537920268191142,-1,0,-2,0,4,10,-9,-1
1537920268192139,-1,-2,1,0,-3,5,-1,1
1537920268192139,-1,-1,-2,-1,0,-7,16,-1
1537920268213083,-1,-1,-2,-2,-1,-9,4,0
1537920268213083,-1,0,-2,-1,-2,3,11,1
1537920268214080,-1,1,0,-1,-1,3,-10,-1
1537920268214080,0,-2,-1,0,1,-13,-11,0
1537920268226049,1,-1,0,0,1,14,21,1
1537920268226049,0,-1,0,2,7,-6,-11,-1
1537920268235024,-2,-1,0,0,-1,19,12,0
1537920268235024,-2,1,-1,-1,-3,-16,-21,-3
1537920268249984,0,0,-3,0,2,15,20,0
1537920268249984,-1,-1,0,-2,-1,-14,0,1
1537920268251979,0,0,-1,0,6,1,-5,-4
1537920268251979,-1,-1,1,0,-4,-11,-6,-1
1537920268272923,-2,0,-1,-2,-4,-22,-8,-1
1537920268272923,-1,-1,-2,-2,-1,37,0,-1
1537920268273920,0,-2,-2,-2,-5,-6,-5,-2
1537920268273920,0,-2,-1,-1,3,0,8,0
1537920268285888,0,-2,-2,1,2,-5,-12,0
1537920268285888,0,0,-1,2,-2,-4,11,0
1537920268294864,-1,-2,0,0,-5,-9,-1,0
1537920268294864,2,-2,0,0,-5,24,-9,-4
1537920268309824,-1,-2,-2,-2,-4,3,-1,-1
1537920268309824,0,-1,-1,-3,0,-8,-7,-2
1537920268311819,-1,1,0,-2,-5,-4,-4,-2
1537920268311819,-2,0,1,-2,-3,-20,-1,1
1537920268332763,-1,-2,0,-1,2,30,-1,-2
1537920268332763,1,0,-1,-1,-4,-6,-1,0
1537920268333760,0,0,0,1,-1,-11,-16,0
1537920268333760,0,2,0,0,5,6,24,1
1537920268346725,-1,0,0,0,0,-2,-2,-2
1537920268346725,-2,-2,-3,-3,-7,-6,-8,-1
1537920268355701,-2,-2,-1,-2,8,-9,-3,0
1537920268355701,-1,-2,-1,-4,-19,-9,-8,-1
1537920268369664,1,1,0,0,7,13,-4,-1
1537920268369664,-1,0,1,1,3,-6,2,-1
1537920268371659,-1,-1,0,0,-2,5,8,-1
1537920268371659,-1,-1,-2,0,7,-4,6,3
1537920268392603,0,-1,0,-2,-10,-12,3,-2
1537920268392603,-1,-3,0,2,-3,-20,-13,2
1537920268394598,0,0,-1,0,5,31,0,-1
1537920268394598,-1,-1,0,1,5,-12,-3,-2
1537920268415542,-1,-2,-2,-2,-6,2,-4,-1
1537920268415542,0,0,0,-1,2,-2,-9,-4
1537920268416539,-1,-1,-1,-3,-5,-9,7,-3
1537920268416539,0,0,-1,0,3,5,6,0
1537920268430502,-1,-1,0,0,0,-7,-2,1
1537920268430502,0,-1,0,1,1,-8,-8,0
1537920268431499,0,-1,-2,-1,0,44,14,0
1537920268431499,0,0,-1,0,0,-3,-31,-6
1537920268452443,1,-3,0,-1,2,-8,24,2
1537920268452443,4,0,-1,-3,-4,-1,7,9
1537920268454438,0,0,-1,1,-2,-7,2,2
1537920268454438,-1,-2,-2,-1,2,-15,-22,-2
1537920268475382,0,0,-1,-1,0,16,-3,0
1537920268475382,-1,0,2,1,2,12,5,-3
1537920268476379,-3,-2,-2,-1,-3,-12,-6,-3
1537920268476379,-1,1,0,1,1,5,3,0
1537920268488347,-2,-1,-1,1,-2,-13,-11,-5
1537920268488347,-3,0,-1,-2,-4,4,6,-2
1537920268497323,-1,0,-2,-1,-2,-5,-1,-1
1537920268497323,-1,-2,-2,-2,1,-1,7,-1
1537920268512283,-2,-1,0,0,0,0,-12,4
1537920268512283,-1,-1,-2,-1,-6,-20,-9,1
1537920268514279,0,-1,-1,0,0,14,-2,0
1537920268514279,-2,-1,-2,-3,-2,4,0,0
1537920268535222,1,-1,-1,1,4,4,5,-3
1537920268535222,0,-1,-1,-2,-1,-3,5,1
1537920268536220,-1,2,1,0,2,-8,-2,-1
1537920268536220,-1,0,-1,0,0,9,-5,-1
1537920268549186,-5,-1,-2,-2,-7,-8,-2,-4
1537920268549186,-2,-2,-2,0,1,17,8,0
1537920268558161,0,-1,-2,-2,-2,-11,3,4
1537920268558161,-1,-2,-1,-1,-1,3,3,-3
1537920268574118,2,1,1,1,2,-4,3,3
1537920268574118,-1,-1,-1,0,1,-6,-6,-4
1537920268576113,0,-1,0,0,-2,-8,0,-2
1537920268576113,-2,-2,0,1,-1,-12,-2,-1
1537920268595062,-2,-1,0,0,1,9,-5,0
1537920268595062,0,-1,-1,0,-3,2,7,-1
1537920268597056,-4,-1,-1,0,0,0,-3,-7
1537920268597056,-2,-1,0,-2,0,-7,-3,0
1537920268609024,-2,-1,-2,1,-1,-14,-5,-1
1537920268609024,-5,-2,-1,-1,1,16,2,-8
1537920268618001,1,-2,0,1,1,-1,4,3
1537920268618001,1,-1,-2,-3,-7,-6,-5,0
1537920268632961,1,-1,0,-1,-3,-9,-3,-1
1537920268632961,-3,-1,-1,1,0,-2,-4,-4
1537920268633958,0,-1,-2,-3,-8,-6,0,1
1537920268633958,-1,0,0,1,5,3,3,-1
1537920268654901,0,-1,0,-3,-4,-1,0,-1
1537920268654901,1,0,-2,0,6,-6,1,0
1537920268656896,0,-1,-2,-1,-4,28,-10,-2
1537920268656896,2,-1,-1,-1,-2,1,10,8
1537920268668864,0,-2,-3,1,1,-4,0,-1
1537920268668864,-1,0,-2,1,-6,-16,1,1
1537920268677840,0,0,-1,-2,-5,-4,0,-1
1537920268677840,-3,-2,-3,-3,-1,6,-6,-8
1537920268692800,-2,-1,0,0,1,7,8,-2
1537920268692800,1,0,-3,-3,1,1,5,2
1537920268693798,-5,-2,-1,1,1,-12,2,-10
1537920268693798,3,0,1,0,0,2,4,8
1537920268714742,-1,1,1,0,1,7,10,1
1537920268714742,0,-4,-2,-1,-3,-30,-22,0
1537920268716737,0,-1,0,-2,3,33,24,8
1537920268716737,-2,1,1,0,0,22,-2,-5
1537920268728705,-6,-4,-1,-1,2,4,-10,-5
1537920268728705,5,-2,-1,-1,-3,-4,5,10
1537920268737681,-6,-1,1,0,-3,-25,-12,-11
1537920268737681,2,0,0,0,-2,0,10,4
1537920268752644,2,0,-1,-2,-3,9,-9,-1
1537920268752644,-4,2,-1,0,-1,2,3,-8
1537920268754637,0,4,0,-2,0,-51,-20,3
1537920268754637,0,0,-1,-1,-3,8,-11,2
1537920268775581,0,-1,-1,-1,1,19,-7,-8
1537920268775581,3,-1,-1,-1,0,10,20,17
1537920268776579,6,-5,-2,1,0,8,-9,-5
1537920268776579,-15,9,1,1,-2,-21,6,3
1537920268788547,2,-6,-2,-3,-3,-8,-6,12
1537920268788547,-5,-3,0,0,-2,12,0,-6
1537920268797521,-3,1,-1,-2,0,-6,-3,-5
1537920268797521,-4,-10,-7,-2,-5,-41,-20,-11
1537920268812482,-3,4,-2,-3,-5,9,3,3
1537920268812482,1,1,-1,2,5,20,-5,-5
1537920268814478,-6,-7,1,-1,-4,-9,-3,-2
1537920268814478,13,10,2,1,4,-7,3,14
1537920268835420,-4,-4,-1,0,-3,5,0,-6
1537920268835420,1,-2,1,-1,-1,-13,-7,-4
1537920268836417,0,0,-4,-3,-2,-1,4,3
1537920268836417,-5,-3,0,-2,-2,15,5,-14
1537920268848384,5,0,0,0,1,-12,1,15
1537920268848384,11,7,0,-3,0,20,-2,17
1537920268857360,-26,-33,-1,3,4,7,23,-19
1537920268857360,6,43,-3,-2,1,-10,-26,0
1537920268872320,-17,-28,4,3,0,-8,6,-20
1537920268872320,11,11,-4,-4,-3,-7,-23,-9
1537920268874315,-4,-6,-9,0,-2,-44,-8,3
1537920268874315,17,1,27,1,-2,47,38,10
1537920268895259,-22,-6,-15,0,2,-16,3,-17
1537920268895259,-12,-2,0,-1,-3,14,10,-7
1537920268896256,12,16,3,0,0,14,4,12
1537920268896256,-10,-16,-5,1,-2,-21,-8,-21
1537920268909222,2,15,3,-2,-4,10,1,-9
1537920268909222,-1,-10,3,4,5,8,2,7
1537920268918198,6,17,1,1,-2,5,2,-10
1537920268918198,-2,-9,-7,-3,2,15,6,-7
1537920268933158,-2,-2,2,-1,0,-2,-4,11
1537920268933158,1,-2,-10,-5,-6,-33,-14,-14
1537920268934155,0,3,7,1,-1,25,-4,-1
1537920268934155,-9,-9,-8,-1,0,-20,-4,-9
1537920268955099,11,6,1,-2,-1,-5,2,15
1537920268955099,-12,-1,2,2,2,4,0,-5
1537920268957094,-9,5,-1,0,4,-6,6,-24
1537920268957094,15,-11,-1,-1,-3,-10,-8,36
1537920268969062,11,9,-1,-2,2,39,-1,0
1537920268969062,-7,-2,2,-2,-10,-27,0,2
1537920268978038,-2,-6,0,-2,1,4,-15,4
1537920268978038,-11,-5,-6,-1,4,-7,2,-14
1537920268992000,1,-2,-2,-4,-16,1,-17,1
1537920268992000,0,-1,-1,0,3,9,8,7
1537920268999979,2,-1,-1,-3,-1,-17,-6,4
1537920268999979,0,-2,1,2,5,33,7,-4
1537920269014939,4,4,0,0,4,-12,3,2
1537920269014939,-4,-6,6,-2,-3,-6,2,-8
1537920269016934,9,7,-12,0,-2,-8,-5,12
1537920269016934,-3,-2,3,-1,0,20,3,2
1537920269028902,-3,-2,-6,0,4,-12,1,-9
1537920269028902,-4,-16,-3,2,4,8,-3,2
1537920269037878,4,10,5,-5,-5,10,5,1
1537920269037878,5,5,-5,2,0,-27,-7,6
1537920269052838,-4,1,0,0,-8,-4,-1,-2
1537920269052838,3,0,-5,-2,-4,-6,-2,-2
1537920269053835,2,-4,-3,4,12,19,-11,3
1537920269053835,-6,-6,-3,-5,-25,-48,-3,0
1537920269074779,-3,0,-2,-4,1,29,3,-5
1537920269074779,-2,1,-1,0,-2,-17,3,-4
1537920269076774,1,-4,3,-1,4,18,11,5
1537920269076774,-6,3,-1,1,-2,-1,-7,-8
1537920269088742,4,-2,1,-5,0,-30,-9,-4
1537920269088742,2,5,6,0,0,-15,-6,8
1537920269097718,-1,-6,-13,-2,10,54,-3,-1
1537920269097718,-4,-10,-7,-7,-9,-47,-16,-6
1537920269111681,3,0,-4,1,-11,35,35,8
1537920269111681,-3,3,9,3,9,0,19,-6
1537920269126640,-6,0,7,0,-25,-31,2,1
1537920269126640,3,-9,-4,-9,-8,-11,5,5
1537920269134619,-1,6,4,2,11,16,-43,-8
1537920269134619,-1,1,-3,3,1,-9,17,3
1537920269136614,-1,-3,-11,-1,1,-6,-40,-7
1537920269136614,-4,-3,21,0,5,14,70,-2
1537920269148582,2,-1,-2,-3,-1,0,12,16
1537920269148582,-1,10,-11,4,13,18,-17,-13
1537920269157558,3,-7,8,0,-5,-24,-2,-6
1537920269157558,-3,-15,-35,-9,-7,13,-13,5
1537920269171521,0,-8,10,3,10,-2,-9,-2
1537920269171521,-6,3,3,-2,-7,-4,-12,-11
1537920269178502,11,2,4,-3,4,12,2,21
1537920269178502,-4,8,8,2,0,18,-19,-10
1537920269195456,-1,1,-1,7,7,-39,26,5
1537920269195456,2,1,-3,-3,-15,24,-49,4
1537920269196454,-1,6,5,-5,-7,-24,16,-5
1537920269196454,1,-2,-2,2,0,23,-4,-4
1537920269208422,-1,-4,-11,-4,-9,-32,-29,6
1537920269208422,2,-3,2,0,4,13,38,10
1537920269217398,-3,-1,-2,-1,0,-8,21,0
1537920269217398,3,5,2,2,5,3,-38,2
1537920269232358,-5,0,2,0,0,-21,-40,-18
1537920269232358,-1,-2,-1,1,-1,8,14,-1
1537920269246321,7,4,24,2,3,14,30,18
1537920269246321,-1,-7,-34,-6,1,-20,-3,5
1537920269255297,-2,2,7,-2,-6,16,6,-4
1537920269255297,-3,-6,-10,-6,-2,-6,-16,-5
1537920269256294,-4,0,-4,1,-2,-22,-26,-11
1537920269256294,3,-2,5,-1,0,18,-7,12
1537920269268262,3,1,8,2,1,5,13,10
1537920269268262,-4,-5,-2,0,4,-8,17,-3
1537920269277238,-4,-2,-5,-3,-13,9,69,2
1537920269277238,-3,6,11,6,7,5,-12,-18
1537920269292198,-3,0,-4,-3,-5,-22,-5,-5
1537920269292198,-1,-7,-6,-5,2,9,-33,6
1537920269299179,-2,-3,-6,2,0,-3,-52,-9
1537920269299179,0,3,5,3,5,-5,25,-4
1537920269315137,5,0,-3,-4,-10,13,11,11
1537920269315137,1,-6,1,1,0,-17,-22,2
1537920269316134,-1,-2,-5,0,2,-8,-19,-14
1537920269316134,-5,0,7,4,9,3,45,-8
1537920269338075,-2,1,5,2,5,4,14,0
1537920269338075,1,1,-5,-1,-3,-14,17,2
1537920269339073,0,-2,-3,2,-2,3,21,7
1537920269339073,-11,-4,4,-4,-6,11,-22,-14
1537920269352038,3,7,3,1,-2,9,13,-2
1537920269352038,-2,-6,0,-7,-15,-16,-6,-14
1537920269359019,-3,-8,-5,-1,8,25,-17,4
1537920269359019,1,0,0,4,-1,-22,-23,1
1537920269374977,-3,-4,-4,-2,3,29,41,-2
1537920269374977,2,3,4,2,-4,-23,-16,-2
1537920269376972,0,1,-1,-2,-3,-22,14,4
1537920269376972,2,0,3,3,-3,-10,-19,4
1537920269396918,2,-3,-9,-2,8,32,17,-1
1537920269396918,-1,4,4,0,-5,-6,-6,4
1537920269404897,-3,-1,-3,-1,2,1,-12,-4
1537920269404897,1,-1,-4,-2,-5,-12,-7,7
1537920269411879,-2,-4,-1,-1,7,42,8,-1
1537920269411879,0,2,1,0,6,14,8,-2
1537920269418861,-1,-5,-5,-1,-4,-12,-34,-6
1537920269418861,1,0,1,3,0,-3,30,6
1537920269434819,-2,0,-4,-6,-14,-29,-19,-6
1537920269434819,-1,-10,-11,-5,-7,3,13,2
1537920269436813,0,0,1,-5,-3,9,-9,2
1537920269436813,-2,-2,-1,1,5,0,-2,-11
1537920269457757,-1,-3,-3,1,4,-19,28,3
1537920269457757,-1,2,-1,-1,-2,5,-7,-5
1537920269458754,0,-2,-3,-5,-12,-53,-1,0
1537920269458754,4,-2,1,-2,2,50,1,4
1537920269471719,-4,-1,0,3,2,-9,-46,-6
1537920269471719,3,4,2,0,10,-5,25,11
1537920269478700,-1,-4,-16,-5,0,-8,-13,0
1537920269478700,6,7,15,0,0,-2,-19,13
1537920269494657,-2,-9,-25,-1,-7,-21,-6,0
1537920269494657,-7,0,2,1,0,-3,-26,-8
1537920269496651,-2,-1,3,3,1,10,0,-1
1537920269496651,-1,-1,0,-5,-4,-11,28,0
1537920269517595,0,-1,3,0,5,-11,-12,0
1537920269517595,0,1,1,-3,-13,53,13,-7
1537920269518593,3,2,3,1,0,-14,-31,11
1537920269518593,-4,-2,-5,1,-3,-13,2,-4
1537920269531558,-6,-2,-2,-2,-9,-9,-24,-12
1537920269531558,0,-1,0,0,4,9,32,1
1537920269538540,3,1,0,-1,4,25,52,22
1537920269538540,-2,-2,-5,-2,5,11,7,-4
1537920269555494,3,1,3,-1,-1,-28,-22,5
1537920269555494,-4,-2,-5,-3,0,-5,-9,-8
1537920269556492,-8,-1,0,4,3,35,35,-16
1537920269556492,9,1,-5,0,3,-8,-7,12
1537920269577436,2,1,9,1,-3,18,5,0
1537920269577436,-2,1,-1,1,1,-28,-27,-5
1537920269579430,-5,-2,2,0,-1,5,-1,-9
1537920269579430,-6,-4,-8,-9,-10,-4,1,-7
1537920269592395,-2,2,2,1,2,-6,-12,-8
1537920269592395,3,-1,5,2,3,7,13,8
1537920269598380,-3,0,-1,-1,-11,4,26,-13
1537920269598380,9,1,-1,0,2,-21,-19,27
1537920269615334,-1,1,0,-3,-5,7,6,0
1537920269615334,1,1,5,2,6,32,-14,3
1537920269616332,1,0,-2,1,7,-11,-16,-3
1537920269616332,-5,-1,3,-1,-5,3,9,-15
1537920269637276,-1,-3,-3,1,8,-6,0,-1
1537920269637276,1,0,-3,-2,-5,-16,-15,1
1537920269639271,-11,0,2,3,-2,-15,-13,-20
1537920269639271,4,1,-1,1,5,61,-7,-1
1537920269652236,-3,-2,2,-2,-3,-14,27,1
1537920269652236,-2,-3,-7,-3,1,-32,-19,2
1537920269659217,2,-1,1,-3,-8,33,-33,-1
1537920269659217,-7,4,-3,-1,0,-7,21,-9
1537920269675174,7,0,-1,0,-1,6,-5,14
1537920269675174,-1,-12,1,-1,-4,-7,-11,6
1537920269676172,2,-4,-1,-1,6,-33,7,10
1537920269676172,-1,-1,1,-1,-4,10,-17,0
1537920269698113,0,7,13,-1,-6,-3,-13,0
1537920269698113,-3,-1,-14,0,-4,-8,-7,-18
1537920269699111,1,0,-1,-2,2,-9,37,5
1537920269699111,-7,-2,-7,-4,0,9,-20,-12
1537920269712076,-3,1,-1,0,-1,-33,4,-3
1537920269712076,-2,-3,-2,-3,-4,-10,0,7
1537920269719058,-4,3,5,4,3,-5,-7,-2
1537920269719058,-2,-1,2,4,2,40,10,-9
1537920269735016,-9,-4,-4,-2,-5,1,2,-20
1537920269735016,4,6,5,3,3,-18,8,7
1537920269737011,0,-2,-4,-2,2,1,-4,0
1537920269737011,-2,-6,-1,0,0,-21,-23,2
1537920269757954,-2,-2,0,5,12,28,-10,-6
1537920269757954,-3,2,-3,-3,-5,3,18,-12
1537920269758953,1,-1,-2,-7,-11,-17,-16,2
1537920269758953,-5,-1,-8,-4,-5,-4,3,-8
1537920269771918,-2,-4,-6,-2,-1,7,-29,0
1537920269771918,0,3,10,3,7,17,20,-2
1537920269778898,4,-2,3,5,-1,-8,-11,1
1537920269778898,-1,1,-5,-4,-2,-29,8,3
1537920269795853,-1,-1,-5,1,-1,6,14,1
1537920269795853,5,-5,-5,-5,-3,-4,-16,21
1537920269796851,2,1,-3,-1,-2,-13,-25,0
1537920269796851,-3,-3,3,3,-2,5,5,-9
1537920269817796,5,1,0,-4,-6,-30,18,8
1537920269817796,-2,1,1,1,4,60,14,-8
1537920269818792,-2,-1,-3,-1,1,21,11,0
1537920269818792,2,0,0,-2,-2,6,-21,1
1537920269831757,-2,0,-3,-4,-1,-1,10,-3
1537920269831757,-3,-3,-2,-2,-5,-44,-13,-3
1537920269839735,4,-4,2,-4,-5,9,-1,4
1537920269839735,-4,-2,-6,0,3,-2,18,0
1537920269855697,-2,-3,-7,-6,-11,-45,-28,5
1537920269855697,0,2,0,3,4,51,40,1
1537920269856692,-2,3,1,0,6,36,-2,-8
1537920269856692,7,-4,0,-2,-2,-19,-10,8
1537920269877633,-2,-2,-1,1,1,-1,1,0
1537920269877633,-3,-1,7,0,-5,-32,-27,0
1537920269878631,-4,-5,-10,-3,-2,15,17,-2
1537920269878631,7,2,1,3,1,3,4,19
1537920269891596,4,3,-1,-1,-1,26,52,-4
1537920269891596,3,-1,-1,0,-2,-5,-6,0
1537920269900572,-3,-1,0,-3,-3,-20,0,-10
1537920269900572,-2,1,1,0,-3,3,-1,-5
1537920269915532,-2,-3,-3,-2,0,-1,-27,-5
1537920269915532,-2,-1,0,-1,-1,-12,19,-3
1537920269916530,2,1,-1,-1,2,28,41,3
1537920269916530,-2,-2,3,2,4,-19,-23,-9
1537920269937473,0,1,7,-1,-4,14,-8,0
1537920269937473,-3,-1,-10,-3,-3,-28,-28,-10
1537920269939469,-1,-1,1,-1,-1,-21,-3,8
1537920269939469,-4,2,3,1,1,-3,20,-9
1537920269951437,-1,0,8,2,2,26,6,4
1537920269951437,1,-3,-14,-4,-5,-13,-2,1
1537920269960414,-4,-2,-1,-4,-4,5,-15,-9
1537920269960414,-2,-4,1,0,-1,4,-8,11
1537920269975373,-4,-1,2,3,7,10,1,-8
1537920269975373,-3,0,2,-3,-7,11,18,-5
1537920269976371,1,2,-3,2,3,11,5,10
1537920269976371,0,1,-1,-1,-5,-54,-6,-6
1537920269997314,0,-3,-5,-2,-3,-7,-21,5
1537920269997314,-3,-1,0,1,6,50,16,-5
1537920269999309,3,-1,-2,-3,-3,-55,-31,4
1537920269999309,-3,-1,-10,-2,-2,48,-4,-5
1537920270011277,-3,0,5,2,4,21,45,-5
1537920270011277,3,0,3,0,-2,-25,-2,11
1537920270020254,-3,-2,-3,-2,-4,-6,-6,-7
1537920270020254,0,-1,-5,-4,-1,20,13,1
1537920270035214,0,-2,-8,-5,-7,-9,-8,1
1537920270035214,-1,0,4,1,2,6,18,-3
1537920270037212,0,-1,1,-1,-7,-39,-18,-4
1537920270037212,-5,-4,0,-2,-3,18,-4,-6
1537920270058151,1,1,1,1,8,12,5,-1
1537920270058151,7,0,3,2,-2,-40,-21,15
1537920270059149,-1,0,0,2,1,21,7,1
1537920270059149,-6,-1,3,-2,-6,-35,0,-10
1537920270071116,1,-1,-3,0,-1,-13,-3,-1
1537920270071116,4,-1,-3,-3,-3,18,-20,3
1537920270080092,1,-2,-1,-2,-4,2,16,4
1537920270080092,2,0,2,1,0,-13,-6,8
1537920270095052,-6,-2,-2,-1,-1,-51,-1,-6
1537920270095052,0,0,-2,0,9,72,-25,-3
1537920270097047,-1,0,-3,-4,-2,8,24,-3
1537920270097047,-1,-1,0,-4,-4,-13,-17,0
1537920270117991,1,-1,-3,-2,-5,-3,20,0
1537920270117991,2,-1,-2,-1,-7,-49,3,10
1537920270118988,3,-1,1,3,10,40,-24,4
1537920270118988,-2,-2,-1,-2,-10,-55,16,-8
1537920270130956,-3,-2,-7,0,8,93,4,-6
1537920270130956,-5,0,1,-3,0,-18,-3,-5
1537920270139932,-2,-2,-7,0,3,12,9,0
1537920270139932,2,1,1,0,1,-15,-6,2
1537920270154892,0,0,-1,1,-4,-11,6,2
1537920270154892,-3,-2,-5,-1,0,2,27,2
1537920270156888,-2,-1,0,-2,-3,-65,-28,-3
1537920270156888,-1,1,0,4,8,92,-9,-4
1537920270177832,-1,-2,-4,-5,-5,-32,14,3
1537920270177832,0,-1,1,0,0,24,20,2
1537920270178829,-2,-3,1,-3,-3,-41,-1,1
1537920270178829,1,1,-1,-1,2,0,-7,-1
1537920270190797,3,-1,2,0,-2,0,-33,12
1537920270190797,-4,-2,1,1,-1,-5,15,-7
1537920270199774,5,0,-1,2,3,27,3,4
1537920270199774,-6,-1,0,1,-3,-19,8,-11
1537920270214733,-1,-1,0,0,1,20,-28,-4
1537920270214733,-3,0,0,-2,-1,-28,1,-6
1537920270216730,-2,0,1,3,5,28,4,-6
1537920270216730,-2,0,-3,-4,0,1,1,0
1537920270237672,-3,0,-2,-3,-6,-36,-11,-9
1537920270237672,-3,-2,0,-2,-5,2,-9,-5
1537920270238670,-3,-1,1,0,-1,13,3,-4
1537920270238670,1,-1,-3,-1,-3,-18,-8,2
1537920270260610,-2,-2,-2,0,1,-36,53,0
1537920270260610,-7,-1,-6,-3,1,42,-19,-15
1537920270261609,2,1,10,0,5,29,18,7
1537920270261609,-1,-1,1,-1,-3,-35,-4,3
1537920270275569,10,-1,-3,-3,-1,33,-13,6
1537920270275569,-6,-2,-1,-1,0,-22,-7,-7
1537920270276567,8,0,-3,-4,-12,-31,-15,9
1537920270276567,1,-2,2,2,7,41,-2,6
1537920270297511,-2,1,1,0,5,-17,-12,3
1537920270297511,2,0,1,0,0,6,2,0
1537920270299506,-5,0,-6,-1,-5,-15,4,-1
1537920270299506,2,-3,2,2,-2,-17,2,-1
1537920270320450,-5,-3,-3,-4,-1,12,-1,-2
1537920270320450,-3,-2,-1,-1,-3,-31,-3,2
1537920270321447,-9,-2,-1,0,-1,-21,10,-13
1537920270321447,2,2,1,4,7,48,6,-5
1537920270335409,0,0,-1,-2,-3,-29,-18,-2
1537920270335409,-3,-1,0,-1,0,-1,17,-6
1537920270336407,-2,-1,-2,-1,-1,1,-10,-5
1537920270336407,-5,-3,-4,-5,-9,-10,5,-4
1537920270357351,-1,0,-4,3,4,15,-32,-7
1537920270357351,3,2,3,1,1,5,4,8
1537920270359345,0,-1,-1,1,2,14,-2,1
1537920270359345,0,0,-5,-4,2,-39,-4,3
1537920270380289,-4,-2,3,-3,-17,-13,-15,-7
1537920270380289,-2,-2,-2,-3,-1,33,2,-4
1537920270381287,0,-2,-2,1,3,7,-3,-2
1537920270381287,0,2,3,2,4,3,2,-9
1537920270394252,-3,-2,-7,-2,-3,-45,-11,-4
1537920270394252,9,-2,-1,-3,-4,0,-3,20
1537920270401233,0,-1,-3,-1,3,41,10,0
1537920270401233,-2,0,-2,1,-6,-18,0,1
1537920270417191,3,-1,-2,0,0,5,21,0
1537920270417191,-1,-1,-2,-2,-3,-7,-17,-3
1537920270419186,1,-1,-5,-1,4,-19,11,0
1537920270419186,-3,-1,5,-3,-10,14,-2,-1
1537920270440129,-4,0,0,-1,-3,-26,1,-7
1537920270440129,-1,-2,1,5,10,57,1,2
1537920270441127,5,1,-2,-2,-8,-28,-15,-1
1537920270441127,0,-1,3,0,-1,3,11,5
1537920270454092,0,0,-4,-1,1,-18,-5,1
1537920270454092,-4,-2,0,1,3,19,-4,-9
1537920270461074,-4,-2,-4,-2,0,4,-12,3
1537920270461074,1,-2,-2,2,0,1,-5,4
1537920270478028,-2,-1,3,0,-2,3,21,2
1537920270478028,4,-1,-3,-1,-3,-28,-18,5
1537920270479025,-9,0,1,2,6,43,17,-15
1537920270479025,6,-2,-3,-2,-2,-13,2,10
1537920270499969,-1,-2,3,-1,-4,3,-3,-2
1537920270499969,-5,0,-2,1,8,6,-8,-11
1537920270501964,-4,-1,0,-1,-6,-11,-10,-4
1537920270501964,-1,-3,-7,-4,-3,-32,-14,1
1537920270522908,1,-1,-1,2,7,56,50,8
1537920270522908,0,-2,0,-3,-9,-40,-9,-3
1537920270523905,2,1,3,1,5,16,-17,-5
1537920270523905,0,0,-4,-3,-1,-15,-3,2
1537920270537868,-2,-1,-2,-2,-1,-26,-19,-5
1537920270537868,2,0,-1,0,-3,10,16,10
1537920270538866,-5,-3,-3,-1,-1,16,-1,-7
1537920270538866,0,0,2,2,3,11,14,-2
1537920270559809,-3,1,0,0,1,14,-4,-9
1537920270559809,0,1,0,-1,2,-2,8,-6
1537920270561804,-2,-1,1,-3,-4,-44,-16,-3
1537920270561804,-1,0,0,1,5,30,21,0
1537920270574769,-4,-3,1,-1,0,20,2,-4
1537920270574769,-5,1,-1,0,0,-20,-14,-7
1537920270580753,5,0,1,1,0,-18,4,8
1537920270580753,0,-2,0,-4,-8,27,-11,1
1537920270597708,8,0,-1,-1,0,-17,-18,21
1537920270597708,0,-2,-1,-3,-4,-15,4,-2
1537920270598706,-5,-1,-1,-3,-6,-4,6,0
1537920270598706,-3,-1,2,0,3,13,0,-4
1537920270619649,4,0,-1,1,1,-30,-30,8
1537920270619649,1,0,-2,-1,0,38,17,2
1537920270621644,12,-1,-1,-1,0,7,-2,27
1537920270621644,-3,-3,-4,-2,-3,-23,-2,-6
1537920270634609,-4,0,0,-2,-5,-25,-1,-8
1537920270634609,1,-1,-1,-2,4,61,-1,5
1537920270641591,-6,-2,-1,-1,-6,-18,5,-8
1537920270641591,0,-1,-1,0,2,8,13,0
1537920270657548,1,1,-8,-1,7,32,-5,3
1537920270657548,-6,0,4,1,-3,-62,-5,-16
1537920270659543,-3,-1,-2,-1,-5,10,6,-5
1537920270659543,-2,-1,-1,2,3,18,-14,-3
1537920270680487,-4,-1,0,-1,-5,-14,9,-1
1537920270680487,-1,-2,-5,-3,-3,2,8,2
1537920270681484,-2,0,-1,-1,4,10,-5,0
1537920270681484,3,0,-5,-3,-9,-59,-14,-1
1537920270694450,0,-1,2,2,8,30,-6,-1
1537920270694450,-2,-2,-2,0,0,-8,1,-1
1537920270708412,0,-1,0,-3,-4,-7,-10,-4
1537920270708412,-4,-3,-2,-1,-1,9,23,-3
1537920270717388,0,0,0,-2,-5,-44,-17,-2
1537920270717388,2,0,0,1,5,77,0,-2
1537920270719383,-4,-1,-1,0,-1,-12,7,-4
1537920270719383,-4,-1,-1,-2,-3,-17,-8,-1
1537920270740327,-4,-1,3,0,0,75,22,-9
1537920270740327,3,-1,-2,-4,-6,-68,-9,5
1537920270741324,0,0,1,2,7,17,-9,-5
1537920270741324,-4,-2,-7,0,0,23,2,-8
1537920270753292,-2,-1,2,-3,-1,-18,7,-1
1537920270753292,-7,-2,-1,2,-3,-15,-8,-10
1537920270762268,1,-1,2,0,0,14,-10,3
1537920270762268,-1,-3,-5,-1,2,8,7,-4
1537920270777228,0,-2,-5,-1,-8,-4,-6,0
1537920270777228,-3,-1,-2,-6,-5,-26,-5,-5
1537920270779223,0,-1,0,-4,-5,4,9,1
1537920270779223,0,1,4,4,8,4,-18,-6
1537920270799170,-3,0,-2,-1,-2,-22,5,-7
1537920270799170,2,-1,9,2,5,57,3,3
1537920270808146,2,0,-2,-2,-5,-27,-1,8
1537920270808146,-1,-1,0,-2,-2,-2,3,2
1537920270814130,-3,-1,0,0,1,4,-6,-3
1537920270814130,-1,-2,-4,-2,-7,-38,-14,0
1537920270823106,-4,-2,-2,1,5,47,8,-3
1537920270823106,0,-2,0,-1,-2,-5,4,2
1537920270838066,-3,-2,0,1,2,12,4,-8
1537920270838066,2,0,-3,1,-2,-11,-11,2
1537920270839065,0,-1,0,0,0,-19,4,5
1537920270839065,1,0,-1,-2,1,9,2,5
1537920270860010,2,-1,-2,-1,2,-19,-5,7
1537920270860010,-1,0,-1,-5,-7,-27,-2,-2
1537920270862004,-4,-2,0,0,-2,13,2,-13
1537920270862004,5,0,-1,-2,-2,-3,19,10
1537920270873970,-2,-2,7,4,2,17,2,-7
1537920270873970,0,3,-7,1,9,20,12,-5
1537920270882946,-1,1,1,1,0,-25,-22,-3
1537920270882946,-3,-2,-1,-3,-7,-51,5,-4
1537920270897906,0,1,-1,-1,1,35,3,5
1537920270897906,-8,-1,1,2,0,28,4,-11
1537920270898903,1,-2,-2,-2,1,-17,-2,-1
1537920270898903,-1,0,0,1,1,3,-5,-2
1537920270919847,0,-3,-2,-1,-6,-30,3,-2
1537920270919847,-4,-3,0,0,-1,3,-13,-9
1537920270921842,5,0,-1,1,1,2,16,16
1537920270921842,2,0,2,-1,-1,18,21,1
1537920270933810,-5,0,-1,-1,2,13,9,-7
1537920270933810,2,-1,0,-3,-7,-31,-15,6
1537920270942786,-1,-4,-3,-2,0,8,-1,-1
1537920270942786,-2,-1,-4,-3,-1,12,-22,-2
1537920270957746,2,0,9,0,-2,11,28,3
1537920270957746,-1,-1,-1,-1,-1,-52,11,5
1537920270958743,0,-2,0,0,-2,31,-7,-4
1537920270958743,-1,0,0,3,6,23,-7,-2
1537920270979688,0,-1,-6,-4,-9,-30,-19,-1
1537920270979688,-1,-1,-2,-3,-6,-39,-11,1
1537920270981683,1,0,1,-1,4,72,36,0
1537920270981683,-2,-1,-1,-2,-8,-35,-15,-1
1537920270993652,-5,-2,-1,2,3,15,3,-18
1537920270993652,3,0,-1,-2,0,4,10,3
1537920271002627,-2,-1,-4,1,-2,-24,1,-2
1537920271002627,3,-1,-1,-2,-1,1,-8,10
1537920271016590,0,0,-3,-2,-4,-46,-15,0
1537920271016590,-4,-2,-1,1,3,67,37,-6
1537920271017587,-3,-1,-1,1,2,-20,-18,-4
1537920271017587,-6,-2,1,0,-3,5,-11,-10
1537920271039529,1,0,-3,-2,-8,-46,-2,8
1537920271039529,0,-1,1,4,10,72,7,5
1537920271040526,2,-1,0,-1,2,-16,-4,2
1537920271040526,0,1,1,1,-3,2,-6,-1
1537920271061469,-2,-1,-3,-2,-2,-21,-18,-1
1537920271061469,1,-2,-2,-2,0,-17,-3,1
1537920271062467,-2,-1,-2,-4,-2,9,-2,-3
1537920271062467,-1,1,-1,-1,-5,-6,-4,-1
1537920271076429,-2,0,-2,0,-2,28,2,3
1537920271076429,8,2,3,1,3,5,-18,16
1537920271077426,1,-1,-1,-2,-4,-16,-15,11
1537920271077426,1,-1,-2,-2,-1,-10,6,1
1537920271099367,4,-1,0,0,4,23,-1,9
1537920271099367,1,-2,-2,-2,-4,-26,-9,-2
1537920271100365,-3,-1,-2,-2,-8,-36,-1,-12
1537920271100365,-1,-2,0,1,1,25,2,-3
1537920271122306,4,-1,-1,-1,2,-33,-4,6
1537920271122306,-4,-1,1,1,3,16,8,-9
1537920271122306,4,1,0,1,-1,-9,-3,5
1537920271122306,-1,-3,1,-1,-2,1,-2,-3
1537920271137266,-3,-1,-1,1,5,3,2,-3
1537920271137266,-3,-2,-1,-4,-9,-35,-5,-2
1537920271137266,-3,-1,-1,0,-1,-2,8,-2
1537920271137266,9,-3,-4,-2,-2,3,-21,32
1537920271159207,1,-1,-1,-1,0,13,14,4
1537920271159207,-4,-1,-1,-3,-7,-32,-7,-3
1537920271160205,3,0,-1,-2,-1,7,16,4
1537920271160205,3,0,-2,-3,4,84,11,-5
1537920271182147,5,0,-2,1,4,5,-3,12
1537920271182147,2,0,-1,-2,-7,-16,-1,6
1537920271183144,-4,-2,1,2,-1,-19,-6,-7
1537920271183144,-6,0,2,-1,-3,-32,-7,-9
1537920271197108,-3,-2,-2,-2,-5,12,-6,-7
1537920271197108,-1,0,-1,2,2,8,27,-4
1537920271198105,-1,-1,0,-2,4,16,-10,0
1537920271198105,-5,0,-1,-2,-4,-8,4,-5
1537920271219049,-3,-1,0,-3,-1,8,-9,-6
1537920271219049,-2,0,-1,-1,-1,-22,-11,-1
1537920271220046,-2,-1,-1,1,0,-7,2,-1
1537920271220046,-1,-3,-1,-2,-2,-11,6,2
1537920271241989,-2,3,1,1,3,26,4,-6
1537920271241989,0,-1,-3,-3,-4,-8,-15,-4
1537920271242986,0,0,-1,-1,0,-16,11,6
1537920271242986,2,1,-1,0,5,44,-7,-7
1537920271256947,0,-2,-1,-4,-8,-19,-3,-1
1537920271256947,-2,-1,-2,1,1,19,3,1
1537920271257944,1,-1,-2,0,-3,0,-7,1
1537920271257944,-2,0,0,3,2,-45,2,-3
1537920271278887,-2,-2,-2,-2,-4,26,5,-4
1537920271278887,2,0,-2,-3,-1,9,-9,3
1537920271279885,-3,-1,0,-1,0,-6,2,-5
1537920271279885,-3,0,-5,1,2,-8,9,-3
1537920271301826,-1,-2,9,0,-4,-37,-6,-2
1537920271301826,-3,-1,0,1,7,38,-2,-5
1537920271302823,-1,0,-2,-1,-5,-5,-9,-3
1537920271302823,-1,-2,-2,-1,-1,-5,-8,-3
1537920271316786,1,0,-4,0,2,-9,31,-1
1537920271316786,2,-2,-2,0,-1,-10,-2,6
1537920271317783,2,-1,0,-2,2,13,-6,9
1537920271317783,-2,-1,-4,0,1,-11,1,-4
1537920271339725,-1,0,-3,0,1,15,-11,-2
1537920271339725,0,0,1,-4,-6,-38,-1,0
1537920271339725,-1,-1,-2,0,2,52,0,-9
1537920271339725,3,0,2,0,-2,-3,3,6
1537920271362663,1,1,1,0,1,-5,-13,1
1537920271362663,-1,-2,-10,0,4,42,1,-2
1537920271363661,1,-1,4,0,1,-25,3,-1
1537920271363661,-1,0,0,-3,-7,-5,1,-3
1537920271376626,-4,-1,-8,-3,-4,4,-16,-9
1537920271376626,1,1,1,0,-3,-6,15,1
1537920271377624,-2,-2,-3,-1,-3,-19,-10,-2
1537920271377624,-3,-2,2,3,7,36,11,-5
1537920271399565,-3,-2,-3,1,1,-1,0,-1
1537920271399565,-4,-1,0,-3,0,-19,-10,-7
1537920271400562,-3,0,-3,-1,-1,5,-8,-4
1537920271400562,1,-2,2,-3,-3,-11,28,3
1537920271422504,-4,-4,1,-2,-4,3,-5,-3
1537920271422504,0,-2,0,0,3,-5,2,1
1537920271423501,-1,-3,-2,-1,-4,6,-28,0
1537920271423501,-2,1,0,1,2,-3,14,-6
1537920271437463,0,-1,1,-3,1,6,2,0
1537920271437463,0,0,0,-1,-6,-37,-7,3
1537920271438461,-3,-2,-3,-2,3,31,1,-6
1537920271438461,-3,1,-7,-1,1,-2,-30,-8
1537920271459406,-1,-1,-4,-3,0,6,12,1
1537920271459406,-2,0,1,2,1,-2,-12,-2
1537920271460405,0,0,-2,1,-3,-9,11,-1
1537920271460405,-1,-2,4,-1,-1,-7,-2,1
1537920271482345,1,1,3,2,1,-23,-15,-1
1537920271482345,2,-1,-7,-3,4,51,23,0
1537920271482345,-1,-2,-3,-5,-5,-18,5,0
1537920271482345,-3,-1,1,2,2,14,4,-2
1537920271497304,1,-1,-5,-1,0,-11,-4,2
1537920271497304,-3,-1,4,0,0,-16,-8,-6
1537920271497304,-1,1,-3,-1,-1,7,6,-3
1537920271497304,0,0,6,1,-1,9,-8,1
1537920271519245,-1,-4,-9,-5,5,24,25,-2
1537920271519245,-3,-1,6,-1,-9,-8,-4,-4
1537920271520242,1,-3,-9,-1,3,-11,4,5
1537920271520242,0,-1,-3,-2,-2,-28,-11,1
1537920271542184,-1,0,0,1,3,11,-8,-1
1537920271542184,-1,-2,0,0,2,5,9,-2
1537920271542184,-1,1,3,2,-5,-4,10,-2
1537920271542184,-1,0,2,0,-3,-8,-8,-4
1537920271557144,0,-1,-3,-1,-3,-14,-10,2
1537920271557144,0,-1,-1,0,3,29,-4,1
1537920271557144,-2,-1,5,-1,-1,-12,-19,-2
1537920271557144,-1,-1,-3,-1,-3,6,37,2
1537920271579085,-1,-1,3,-1,0,-11,-14,-2
1537920271579085,-1,-2,-5,-3,-3,-7,-3,-1
1537920271580083,-1,1,2,0,-3,-3,-3,-3
1537920271580083,0,1,0,-2,5,19,-11,0
1537920271602025,1,-1,-1,1,-3,1,6,1
1537920271602025,0,-2,-3,0,-2,-7,-1,0
1537920271603022,-1,-1,0,0,-2,-13,-10,0
1537920271603022,0,-1,-4,-2,0,-10,25,0
1537920271616984,0,2,3,-1,-4,-3,0,1
1537920271616984,-2,-1,-1,0,4,1,-22,-2
1537920271617982,-3,-2,-8,-5,-6,10,46,-2
1537920271617982,-1,-2,-6,-2,-3,-3,-16,0
1537920271638925,1,0,0,1,3,8,3,-1
1537920271638925,1,1,0,1,-2,-2,3,-3
1537920271639923,0,2,15,4,4,-6,-13,0
1537920271639923,0,-1,-3,-2,-5,-14,-14,0
1537920271661864,-3,-6,-5,-4,-4,3,12,-2
1537920271661864,-1,0,-1,-1,-2,-8,-10,-2
1537920271662861,-3,-4,-4,0,1,-2,-17,-1
1537920271662861,0,-1,3,3,1,-9,26,0
1537920271676824,-2,0,3,-1,0,29,-9,-4
1537920271676824,-1,0,0,0,0,-16,12,2
1537920271677822,0,0,-4,-4,0,6,-13,1
1537920271677822,-1,-2,1,1,4,1,-1,-2
1537920271699763,2,0,-1,1,1,15,10,1
1537920271699763,-1,0,-4,-4,-1,0,-1,-4
1537920271699763,0,-2,5,1,-2,2,6,-2
1537920271699763,1,-1,-6,0,-2,-19,-26,2
1537920271721704,-2,1,-5,-4,-4,-12,-18,-3
1537920271721704,0,1,5,-2,-2,5,18,1
1537920271722701,0,-4,-3,3,5,-12,21,-2
1537920271722701,-2,-1,1,-1,0,35,6,-1
1537920271744643,-1,0,2,2,-1,-11,-7,-6
1537920271744643,2,-1,-4,-3,-3,-4,-18,4
1537920271745641,0,0,-3,-1,0,-3,-12,-4
1537920271745641,-4,-1,1,2,-2,-8,10,-5
1537920271759603,0,1,0,-3,0,17,-5,5
1537920271759603,-2,-1,-3,0,-4,6,2,-4
1537920271759603,-1,1,-1,-3,-4,-36,-12,0
1537920271759603,-1,2,-2,1,0,42,-25,-6
1537920271781544,0,-4,13,1,3,-10,18,4
1537920271781544,1,0,-4,4,3,-1,8,1
1537920271782541,0,-1,-17,-8,-1,5,11,0
1537920271782541,3,5,5,-8,-3,-21,-10,5
1537920271796503,-1,-7,-11,0,-1,-17,-19,0
1537920271796503,-2,-3,0,-5,-3,6,-46,-5
1537920271804482,0,0,5,1,-5,-4,45,4
1537920271804482,-1,-2,-10,-2,2,19,5,0
1537920271819442,0,1,3,-1,-1,-52,-11,-5
1537920271819442,0,2,11,6,7,73,11,1
1537920271820439,-1,1,-22,-2,-1,-13,-34,-5
1537920271820439,-4,0,15,-3,2,-21,-1,-14
1537920271841383,0,-2,-5,-3,-12,-11,4,-3
1537920271841383,-2,-2,-7,-4,-3,-28,-9,-2
1537920271842381,0,-5,3,-1,-3,-1,9,9
1537920271842381,-6,-3,2,2,2,7,14,-6
1537920271856343,7,1,-1,0,0,1,13,13
1537920271856343,-2,-1,3,0,3,5,14,-2
1537920271864322,2,4,7,3,-2,28,-1,1
1537920271864322,-2,-4,-8,0,-4,-36,-21,-2
1537920271879283,-3,0,0,-1,3,-1,-25,-4
1537920271879283,-3,-2,-3,-4,-11,3,13,-7
1537920271880280,4,0,4,2,10,26,12,7
1537920271880280,1,-2,-2,-3,-15,-20,-11,3
1537920271902221,-2,-1,-3,2,0,-11,-8,-5
1537920271902221,1,2,-3,0,6,-6,18,3
1537920271902221,-8,-5,2,-4,-6,-34,-23,-18
1537920271902221,4,-3,-4,-1,3,42,-7,11
1537920271916183,-1,4,1,1,2,4,9,-1
1537920271916183,-1,-3,0,-1,-2,-23,-15,-2
1537920271924162,-5,-3,2,1,-2,10,19,-8
1537920271924162,6,5,-4,0,-2,-21,-13,13
1537920271939122,-3,-4,-10,-3,-7,6,9,-3
1537920271939122,-1,-6,-3,-3,-6,5,-4,-1
1537920271940120,-2,0,1,0,3,25,-2,-2
1537920271940120,-5,0,-2,1,5,-6,3,-12
1537920271962061,-4,0,9,-1,-4,10,-5,-5
1537920271962061,6,-1,-7,0,6,-12,36,13
1537920271963058,2,-1,-4,-3,-5,-10,-32,8
1537920271963058,-3,-4,-1,-1,2,11,-3,-5
1537920271976023,-4,1,2,0,0,32,22,-4
1537920271976023,-3,3,0,0,-3,-29,-43,-5
1537920271984002,1,0,5,-1,1,4,35,1
1537920271984002,-1,-4,-3,-5,-11,-18,-2,-3
1537920271998962,2,0,-1,1,5,8,-7,5
1537920271998962,-4,-1,4,-1,-1,-9,-5,-4
1537920271999960,1,-1,-3,2,4,19,-16,-1
1537920271999960,-1,-1,-2,-4,-9,-21,-11,0
1537920272022898,1,-2,-2,-2,-9,-17,-5,0
1537920272022898,2,1,-2,-3,-1,38,52,11
1537920272022898,-1,-1,4,0,1,-22,-11,-5
1537920272022898,-1,0,-4,0,6,20,12,0
1537920272035864,-3,-1,2,0,4,4,-15,-4
1537920272035864,1,-3,-3,0,-3,-33,-31,9
1537920272044839,-2,1,10,1,4,18,-9,-5
1537920272044839,0,-3,-10,1,-5,-9,10,-2
1537920272059800,-1,0,1,-1,0,36,22,3
1537920272059800,-2,0,0,-3,-4,-26,-13,-5
1537920272059800,1,-4,-3,0,5,40,26,4
1537920272059800,-1,0,2,-1,0,-8,-15,-2
1537920272082738,-3,0,0,0,-1,-16,-3,-7
1537920272082738,-6,1,1,0,-1,1,1,-13
1537920272083736,9,2,0,1,4,2,-23,24
1537920272083736,-3,-1,0,0,-2,-21,20,-1
1537920272104680,-1,-2,-5,-3,-2,1,-8,-4
1537920272104680,-2,-2,-2,-6,-4,23,8,-6
1537920272105677,-6,-3,-7,-3,-6,0,-2,-9
1537920272105677,0,0,9,-1,2,10,-5,2
1537920272120637,3,1,-7,0,0,-21,-17,4
1537920272120637,-2,0,4,3,3,-3,8,-6
1537920272121634,-1,0,-3,-3,-6,-9,-37,-7
1537920272121634,-1,1,-1,-1,1,4,27,1
1537920272142578,-3,-3,-1,-1,1,1,-6,-6
1537920272142578,3,-1,0,2,5,3,12,1
1537920272143576,-2,1,-4,-1,-3,-11,3,-3
1537920272143576,-1,-2,0,-3,-5,-10,-27,-5
1537920272165517,-1,-2,1,-1,-3,3,29,2
1537920272165517,-4,-2,-2,1,4,7,-13,-4
1537920272165517,1,2,2,0,-3,-22,-2,0
1537920272165517,0,0,0,-1,-5,-3,-12,-2
1537920272179480,1,0,-3,-2,-3,11,14,-1
1537920272179480,-2,-4,-7,-7,-13,-14,-7,-1
1537920272180477,-1,0,0,1,2,-13,3,-3
1537920272180477,2,-1,3,6,11,18,12,4
1537920272202418,2,2,1,-1,1,-16,10,2
1537920272202418,2,0,2,1,-1,36,7,1
1537920272203416,-3,-3,-3,-3,0,-12,-3,-5
1537920272203416,0,0,-3,0,1,11,-2,1
1537920272225357,0,-1,-3,1,3,-1,-9,4
1537920272225357,1,0,5,0,-4,-5,-2,2
1537920272225357,-2,-2,-1,-2,-4,-16,9,0
1537920272225357,1,-1,-1,-2,-3,13,-4,2
1537920272239320,0,-1,0,0,1,9,-4,1
1537920272239320,-2,0,-3,0,4,-9,-5,-1
1537920272240317,-2,-2,-3,-3,-6,-19,4,-4
1537920272240317,-1,-1,-2,-4,-7,5,-16,-2
1537920272262259,1,-1,0,-1,-2,6,7,2
1537920272262259,0,1,-1,2,1,3,8,3
1537920272263256,3,1,-6,0,3,-1,1,4
1537920272263256,-1,-2,2,-1,-1,-21,-3,-1
1537920272285199,-1,-4,1,0,-1,19,3,-3
1537920272285199,0,-3,0,0,-1,-2,-6,-4
1537920272286197,-3,-1,-3,-2,1,10,-5,-5
1537920272286197,-1,-1,-4,-4,-6,-21,0,-3
1537920272299168,-1,-2,1,-3,-5,-28,-9,1
1537920272299168,-2,-2,-2,2,7,45,0,-3
1537920272300160,-2,1,2,0,0,5,-4,-5
1537920272300160,-2,-2,-2,0,0,7,7,0
1537920272323096,-2,-1,1,-2,-2,-12,-10,-2
1537920272323096,-1,-2,-2,-3,-5,-33,-8,-2
1537920272323096,-1,-1,0,0,-2,14,1,-3
1537920272323096,1,-1,2,3,4,3,-13,1
1537920272345037,1,-1,-1,0,0,-2,8,2
1537920272345037,-1,0,3,1,-1,-30,-5,0
1537920272346035,-1,-1,0,-1,0,25,11,2
1537920272346035,-2,0,3,-1,-5,-10,-2,-2
1537920272359000,0,-2,-7,-3,-4,9,-4,-4
1537920272359000,-1,1,-3,-1,-1,-3,3,-3
1537920272359997,0,-2,2,1,-2,-14,-2,2
1537920272359997,3,-2,0,1,2,-9,-3,7
1537920272382936,0,2,3,2,4,43,7,1
1537920272382936,-1,0,2,1,4,-7,5,1
1537920272382936,-2,0,-2,0,-1,-4,-2,-3
1537920272382936,-1,-1,-4,-3,-2,-20,-11,-3
1537920272404877,0,-1,0,-2,0,8,25,-2
1537920272404877,1,0,-2,0,-2,-8,-6,0
1537920272405874,-1,1,6,0,2,16,-6,1
1537920272405874,-3,-2,-2,-1,1,-6,9,-3
1537920272419837,0,-2,2,2,8,-10,-8,0
1537920272419837,1,-1,-4,-4,-14,-9,-1,-1
1537920272419837,1,-4,-2,-1,-2,-5,-6,-1
1537920272419837,-1,0,-4,2,2,19,16,-1
1537920272442776,0,-2,-2,-4,-6,-22,-18,-2
1537920272442776,-2,-1,-1,-1,0,-9,3,-5
1537920272442776,0,-1,-1,1,-1,16,12,3
1537920272442776,1,0,-2,2,3,11,10,0
1537920272472697,-3,-2,0,-1,-1,-7,-1,-2
1537920272472697,-3,0,-1,-3,-1,-36,-23,-4
1537920272473695,-2,-1,-3,-3,-4,7,-1,-2
1537920272473695,-2,-1,0,-1,3,10,8,-1
1537920272479679,-1,0,1,1,0,-2,6,1
1537920272479679,0,-2,0,-3,-5,0,7,-2
1537920272479679,0,-1,-4,-5,-5,-4,3,0
1537920272479679,0,-1,1,1,7,18,-1,0
1537920272501621,-1,-1,-2,-1,2,-22,-19,-2
1537920272501621,-2,0,-2,-2,-7,7,1,-1
1537920272516582,-1,-1,-2,-1,2,10,8,1
1537920272516582,-1,-1,-1,-2,-6,0,-4,-2
1537920272525555,-1,-1,-2,0,0,8,-3,-1
1537920272525555,0,-4,-2,2,6,2,4,-1
1537920272525555,1,-1,1,1,-2,-28,-1,-3
1537920272525555,-1,1,0,1,-2,3,-4,-1
1537920272539518,-1,-1,-2,1,1,-1,-5,-1
1537920272539518,-1,0,0,-1,2,8,-2,1
1537920272540515,-1,-1,0,-1,-3,-5,-1,-2
1537920272540515,-4,-1,0,-2,-1,6,-4,-4
1537920272562456,-1,1,0,-2,-3,-1,-5,-1
1537920272562456,-1,-2,-2,-2,-3,-13,7,0
1537920272564451,1,-1,-2,-1,2,25,-2,2
1537920272564451,-1,0,0,-1,1,-3,6,0
1537920272592376,1,-1,-1,0,0,-28,0,2
1537920272592376,0,0,-1,-1,-1,31,-5,2
1537920272594371,-2,-1,-2,-4,-5,-25,-12,-3
1537920272594371,2,-1,0,-2,-3,-6,5,1
1537920272598360,-1,-2,1,1,0,16,-3,-1
1537920272598360,0,1,0,1,3,-14,-6,-2
1537920272607337,-1,-1,1,1,0,3,1,-1
1537920272607337,2,0,-1,0,-1,1,-2,2
1537920272621299,-2,-2,-1,0,-4,6,8,-1
1537920272621299,-1,-1,0,-2,-1,-3,-3,1
1537920272630275,-2,-1,-2,0,1,5,-1,-2
1537920272630275,-2,-2,-1,-3,-6,-8,-6,-2
1537920272645235,-3,0,-1,1,-3,-13,-1,-2
1537920272645235,1,-3,0,1,3,38,17,0
1537920272646232,-2,-2,-1,0,0,-20,0,2
1537920272646232,-1,-2,1,1,7,12,-1,-1
1537920272659198,0,-1,-2,-6,-7,-8,-10,-1
1537920272659198,-2,-1,0,-1,-5,-31,-11,-1
1537920272675156,2,-1,-2,0,3,32,6,0
1537920272675156,-2,0,-1,0,-2,-24,-3,-2
1537920272682138,-1,1,0,1,1,15,-4,0
1537920272682138,-1,0,-2,-2,-3,30,4,-1
1537920272684133,-1,-1,-1,-2,-4,-17,-9,-2
1537920272684133,0,0,-1,-1,0,-25,-2,1
1537920272713055,1,-1,-1,-2,1,11,0,-1
1537920272713055,-2,-3,-2,1,1,-11,-2,-2
1537920272714053,1,1,0,-1,-5,1,3,1
1537920272714053,1,-1,-4,0,-2,8,1,-1
1537920272719040,-2,-2,-2,0,1,-6,-4,-6
1537920272719040,0,1,1,1,5,1,5,1
1537920272733999,-3,-1,-2,0,2,-8,22,-5
1537920272733999,-1,-1,-1,-1,3,4,-5,-1
1537920272742974,-2,-2,-3,-3,-5,5,6,-5
1537920272742974,0,-2,-1,-1,-3,-1,-12,-1
1537920272743972,-2,0,1,-1,-3,-10,-7,-2
1537920272743972,0,-1,-1,0,3,-36,1,-2
1537920272764915,0,0,0,-1,-10,54,-3,1
1537920272764915,-3,0,-3,-3,0,-11,5,0
1537920272766910,0,1,-2,-2,-1,-13,-7,1
1537920272766910,-1,0,-1,1,-1,-7,-20,-2
1537920272778877,0,-1,0,0,4,-8,15,2
1537920272778877,-2,-1,2,-1,-2,-11,-4,1
1537920272794835,-1,-2,-1,0,4,6,-1,-1
1537920272794835,-1,1,0,-2,1,-2,37,3
1537920272802814,0,0,0,2,3,11,-6,1
1537920272802814,-1,-1,-4,-2,0,22,-1,-1
1537920272803811,0,-1,-1,-2,-3,-18,-12,0
1537920272803811,-2,-2,-2,-5,-6,-6,-9,-4
1537920272832734,-2,-2,-1,-3,-2,-18,0,0
1537920272832734,1,0,0,3,3,-3,-6,0
1537920272833733,-1,1,-1,1,1,-21,-33,-8
1537920272833733,1,0,-2,0,-1,44,42,6
1537920272838719,0,0,1,0,0,-35,7,1
1537920272838719,-1,2,-1,-1,-3,19,21,1
1537920272847695,0,0,-1,-2,-3,-25,-9,-2
1537920272847695,0,-6,-2,1,-3,3,-5,0
1537920272869636,-1,0,-1,-2,2,16,4,0
1537920272869636,0,-1,-2,0,-2,-7,-40,-5
1537920272871632,1,-1,1,2,3,17,70,7
1537920272871632,-1,1,1,2,3,0,-16,-3
1537920272885593,0,5,-3,1,-2,-21,-8,1
1537920272885593,0,-3,-6,-8,-7,-5,25,2
1537920272886591,0,-8,-1,0,2,37,-13,-1
1537920272886591,0,0,1,0,-5,-30,-7,-1
1537920272907535,-3,-6,2,2,5,53,-4,-5
1537920272907535,-1,3,-1,2,5,-5,15,-3
1537920272909530,-1,1,-3,-4,-3,-23,-3,0
1537920272909530,-1,0,0,-2,-5,15,-30,-5
1537920272922496,-1,-1,-6,-1,3,-7,27,3
1537920272922496,1,0,9,2,2,-7,3,5
1537920272924490,-1,-2,-5,0,2,19,0,-1
1537920272924490,-3,6,8,1,-1,-12,-11,-3
1537920272952416,-3,-6,-11,-7,-5,-23,-30,-10
1537920272952416,-2,-5,-7,-2,-1,3,0,-8
1537920272954412,3,-2,-5,-1,-3,-7,-15,6
1537920272954412,-3,2,7,1,0,8,-14,-2
1537920272958399,1,1,9,-1,0,-5,13,1
1537920272958399,0,-6,-15,-2,-6,-16,-4,3
1537920272967374,-2,2,8,2,-1,19,-3,-6
1537920272967374,1,2,0,-2,-1,-1,-14,7
1537920272990312,-3,-2,-5,0,0,-6,1,3
1537920272990312,0,5,16,7,2,-8,-14,-10
1537920272991310,6,0,-5,0,2,-3,9,2
1537920272991310,-3,14,46,2,5,29,36,9
1537920273005273,-2,-20,-86,-14,-11,-15,-16,-9
1537920273005273,7,-1,5,-1,2,3,44,16
1537920273006270,-30,-42,-4,2,1,-3,-9,-4
1537920273006270,-2,4,4,-1,-3,-11,0,-10
1537920273035193,6,8,15,5,6,-20,-58,-2
1537920273035193,0,3,-6,0,1,12,33,0
1537920273036190,8,12,4,-7,-5,1,4,-1
1537920273036190,3,-6,-19,-6,0,14,45,7
1537920273042174,-4,8,22,5,-6,-3,-28,-8
1537920273042174,-2,-6,-9,0,0,-1,-22,4
1537920273044169,-4,6,12,4,3,-30,11,1
1537920273044169,-3,-5,-15,-4,-13,-1,-35,-7
1537920273064116,8,-6,-9,-4,0,1,33,11
1537920273064116,1,14,29,-2,-6,-10,-17,-4
1537920273073092,3,-10,-42,1,3,8,-6,0
1537920273073092,-10,-16,-6,-5,0,14,3,-9
1537920273087055,-8,1,24,4,3,1,29,1
1537920273087055,1,10,1,-3,-3,9,-21,-14
1537920273089050,4,-3,-2,-2,-4,-29,25,10
1537920273089050,10,12,-10,-1,3,-1,1,3
1537920273103012,-4,-24,3,2,2,22,-18,-5
1537920273103012,-7,-10,2,0,0,-18,-17,4
1537920273108995,0,6,8,0,-2,13,9,-5
1537920273108995,-2,-7,-10,-1,2,-5,-8,-2
1537920273124954,5,20,16,-1,-1,37,-8,-1
1537920273124954,-12,-42,-19,-6,-7,-23,12,11
1537920273126949,13,15,4,-1,0,21,-10,-2
1537920273126949,-3,0,0,5,2,-37,10,-7
1537920273154873,8,26,8,-1,3,-8,-34,-3
1537920273154873,-17,-26,-19,2,4,17,24,-4
1537920273156869,-6,-9,-9,-5,-4,10,32,0
1537920273156869,18,3,13,-2,-2,0,-9,2
1537920273161856,-14,-8,-21,-7,-3,-30,-26,-11
1537920273161856,12,25,0,0,2,17,-24,-8
1537920273168837,2,6,18,5,0,-7,14,8
1537920273168837,-23,-26,-16,-1,1,12,29,1
1537920273184794,-1,4,15,5,4,25,27,-4
1537920273184794,-5,-1,1,-4,-4,-24,2,-9
1537920273186789,10,36,1,-4,-6,-9,-54,9
1537920273186789,12,-27,-3,2,2,11,44,8
1537920273207731,-3,-4,6,3,2,1,34,2
1537920273207731,3,3,-7,-2,-3,-27,-20,1
1537920273208729,-10,-5,10,-2,-3,-7,-39,-27
1537920273208729,11,-12,-19,-3,-4,-6,-48,24
1537920273229673,0,-2,2,1,2,-3,-21,-9
1537920273229673,17,16,2,2,2,18,20,13
1537920273231667,-12,-11,0,-3,-4,-9,5,-10
1537920273231667,-2,9,0,1,5,-1,-44,-6
1537920273244632,-4,-5,7,-6,-8,-10,46,1
1537920273244632,0,2,-14,-11,-9,-19,-6,0
1537920273246627,1,-8,5,4,7,35,-1,7
1537920273246627,-12,5,-6,-3,-4,-4,-6,-21
1537920273274553,11,-3,-3,2,0,-11,-6,17
1537920273274553,-5,10,9,-2,2,6,5,-23
1537920273276547,4,8,12,6,-1,-3,40,-4
1537920273276547,-7,11,-11,-8,-1,-1,-10,-3
1537920273282531,2,-5,-13,-2,-3,-29,-18,1
1537920273282531,10,1,-4,4,6,29,69,11
1537920273290510,-16,-7,-5,-4,0,8,-34,-4
1537920273290510,-7,16,19,6,2,9,24,6
1537920273305470,-1,-4,-14,-4,-5,9,-3,-1
1537920273305470,-6,-5,2,0,-1,-27,-40,-14
1537920273306467,4,-2,-4,0,-1,20,-40,-4
1537920273306467,-3,8,3,2,-3,-22,35,-8
1537920273327411,-2,3,4,-4,-6,16,-38,-1
1537920273327411,-9,-17,13,6,9,12,16,10
1537920273329406,12,8,-9,-9,-5,0,26,5
1537920273329406,5,-8,-2,-3,-8,-11,-43,-15
1537920273342371,11,11,4,-1,-4,-33,-28,-3
1537920273342371,-19,-10,-4,0,0,10,5,-15
1537920273348355,-6,-5,3,5,5,7,8,7
1537920273348355,3,-1,-6,-2,0,26,8,1
1537920273365310,-3,-6,7,2,4,-8,12,-11
1537920273365310,-4,10,4,2,2,-8,-54,-18
1537920273366307,10,-8,-5,-5,-4,2,-4,5
1537920273366307,2,1,-2,-3,-3,-11,9,2
1537920273387251,-7,1,3,-3,-5,-2,35,3
1537920273387251,-7,-5,-4,-3,-1,9,-37,9
1537920273389246,2,1,1,1,-7,-3,31,-12
1537920273389246,0,0,-4,3,6,6,-11,-4
1537920273402211,-5,-7,10,-1,-2,-8,-5,-8
1537920273402211,12,4,-13,0,3,28,59,14
1537920273408195,-10,-13,-3,-1,1,2,3,-17
1537920273408195,-12,-16,-5,0,1,-17,-36,4
1537920273425150,-3,-4,-5,-3,0,-10,5,6
1537920273425150,10,21,16,6,1,-5,-29,8
1537920273426147,-8,-7,-8,1,2,-10,-10,-19
1537920273426147,11,6,14,0,-3,-5,7,18
1537920273447091,-23,-7,10,-1,5,90,69,1
1537920273447091,26,6,-20,-4,-5,-31,-25,4
1537920273449086,-10,-6,-9,-6,-5,-20,-10,-1
1537920273449086,12,5,2,-2,-5,-46,-2,-10
1537920273462051,14,-17,0,6,5,6,-32,4
1537920273462051,-15,2,5,-6,-6,16,-20,0
1537920273469032,8,4,4,2,6,-6,20,7
1537920273469032,5,7,-7,1,0,-26,-13,8
1537920273484990,-12,-4,-2,-3,-8,-25,25,-3
1537920273484990,-3,-4,20,4,6,23,46,6
1537920273485987,-2,-2,1,-5,-2,-7,-11,1
1537920273485987,-7,-11,-12,-7,-8,5,-5,2
1537920273507929,1,7,-2,0,3,3,-35,-8
1537920273507929,-1,0,-3,-4,-8,-50,-34,-20
1537920273508926,2,5,-1,-2,3,40,94,36
1537920273508926,-6,-6,2,3,5,15,-8,10
1537920273521891,6,0,-6,1,-1,-15,-35,-7
1537920273521891,-5,-3,-9,-4,-7,-22,-23,-13
1537920273528873,18,5,10,3,3,35,-23,-11
1537920273528873,-11,1,-7,-1,0,27,21,-3
1537920273545827,7,8,-8,-2,3,-6,3,10
1537920273545827,-7,-12,5,-1,1,6,18,4
1537920273546825,0,8,1,-1,-1,-31,-28,-2
1537920273546825,3,0,-3,-5,-10,12,1,1
1537920273567768,-3,-3,-3,-2,-5,-12,-12,-2
1537920273567768,0,6,9,4,2,19,-13,2
1537920273569763,-5,-8,-17,-11,-8,-67,-34,6
1537920273569763,1,-1,3,4,10,41,62,7
1537920273580734,1,3,4,2,0,2,-25,-3
1537920273580734,3,-2,-10,1,0,22,-3,4
1537920273589710,-7,0,-1,1,-4,-1,-30,-9
1537920273589710,-3,-2,4,-1,-2,-28,-8,-13
1537920273604670,3,-2,-3,-1,-1,13,10,8
1537920273604670,0,-3,2,-5,-4,-17,-3,4
1537920273606665,-12,1,1,-2,-9,14,21,-14
1537920273606665,-7,-3,0,0,5,5,-17,-16
1537920273627609,0,6,1,2,4,3,50,-1
1537920273627609,0,-6,-1,2,8,-5,-23,-1
1537920273628606,2,-9,7,0,2,3,-31,11
1537920273628606,3,24,4,-2,2,28,47,-3
1537920273641571,-9,-23,-8,-6,-7,2,-24,-2
1537920273641571,-10,-23,-4,-4,-5,-35,18,-6
1537920273650547,-2,2,-3,-1,0,13,-14,-2
1537920273650547,-1,0,5,2,0,-18,-51,-4
1537920273665507,-5,6,3,-1,-1,-16,23,3
1537920273665507,7,1,-10,-3,-7,-12,1,4
1537920273666505,-7,-5,-2,1,1,24,2,-9
1537920273666505,6,0,-3,0,-1,-29,9,13
1537920273687449,-5,0,-3,-4,-4,5,-42,-10
1537920273687449,4,3,2,1,0,-18,33,10
1537920273689443,3,7,0,3,8,33,1,-3
1537920273689443,-6,-6,-1,-5,-10,-23,-25,-16
1537920273701412,4,-3,-2,-3,-9,-16,14,5
1537920273701412,4,3,4,0,-3,-4,50,7
1537920273710388,0,1,1,1,1,-4,-12,-2
1537920273710388,-5,-4,1,1,4,21,16,-9
1537920273725348,1,1,-1,0,-3,-21,5,4
1537920273725348,-2,5,-1,-3,-2,34,-11,-2
1537920273726346,-4,-7,-3,-1,-2,-12,7,0
1537920273726346,-2,-8,-6,-2,-1,5,-29,-3
1537920273747289,5,5,-2,-2,-4,-39,-72,-6
1537920273747289,-1,2,3,3,10,60,95,8
1537920273749284,3,3,2,1,4,-10,-18,10
1537920273749284,-5,-5,0,-4,-6,4,-14,-16
1537920273761252,0,7,-5,-3,-2,15,26,8
1537920273761252,-3,4,1,2,5,34,-42,0
1537920273770230,-5,22,6,-1,-5,-32,-2,-7
1537920273770230,16,3,2,3,-7,-6,-4,11
1537920273784192,-10,-7,-11,1,9,34,80,3
1537920273784192,-9,-7,-8,0,-8,-36,-38,-8
1537920273791173,4,-8,-7,-2,0,17,-15,-2
1537920273791173,-1,4,14,5,7,15,6,2
1537920273807129,9,10,5,0,-3,-16,-30,-6
1537920273807129,3,-6,-7,-4,-4,-13,-23,2
1537920273809124,-1,-2,-6,-2,-6,-23,20,1
1537920273809124,0,-9,0,-1,-3,15,-10,2
1537920273830067,0,-4,1,-2,2,13,10,-6
1537920273830067,-1,2,1,-6,-7,-36,-37,6
1537920273831065,-2,-5,-1,-2,-2,-3,0,3
1537920273831065,-4,1,-1,2,10,47,14,-2
1537920273845027,-5,-2,-1,1,3,-15,3,-12
1537920273845027,4,0,-5,-3,-1,-13,-49,2
1537920273846025,0,0,4,3,-1,-4,62,8
1537920273846025,0,-4,-9,-7,-5,-5,3,5
1537920273867966,1,1,-2,-1,-1,-5,24,7
1537920273867966,-5,-1,10,2,3,41,-12,-19
1537920273868964,4,-3,0,1,2,-10,-16,1
1537920273868964,-2,-8,-5,-2,-2,-10,-1,4
1537920273880932,0,0,10,4,3,2,-12,-3
1537920273880932,-1,4,5,-3,-5,-61,9,-4
1537920273889908,0,2,-14,-1,4,51,-24,-10
1537920273889908,-1,0,-1,-2,-1,4,36,7
1537920273904868,-3,-16,2,3,1,-25,19,-3
1537920273904868,4,2,0,1,-1,19,25,7
1537920273906863,3,7,10,2,-3,-5,-3,1
1537920273906863,-5,-16,-9,-7,-1,-28,-40,-10
1537920273927807,-5,-3,-4,-6,-8,5,-19,-3
1537920273927807,7,5,-6,-1,0,2,8,-1
1537920273928804,5,3,4,2,2,15,-13,1
1537920273928804,-6,-2,-3,-1,0,11,-4,14
1537920273940772,3,3,-1,-3,0,7,13,9
1537920273940772,-6,-6,-6,-2,-4,-4,-25,-9
1537920273949748,-1,2,2,-1,0,-5,15,-2
1537920273949748,1,5,2,3,2,-32,4,-3
1537920273964708,-2,-2,-1,-2,-5,21,-4,1
1537920273964708,1,1,-4,-3,-1,6,4,6
1537920273966703,-1,-6,-1,-3,-3,-30,-1,-3
1537920273966703,-5,-3,0,0,5,56,-29,-15
1537920273987646,0,4,-5,1,2,10,31,3
1537920273987646,3,-2,0,0,-1,1,18,2
1537920273988644,-2,-7,-2,-5,-6,-41,-69,-6
1537920273988644,-1,3,3,-4,-6,-44,91,9
1537920274009588,4,5,1,3,-2,53,-32,-2
1537920274009588,-5,-4,0,1,-1,-21,-21,-15
1537920274011583,-2,-7,-8,1,0,-11,14,-6
1537920274011583,9,30,12,-3,-7,23,-13,18
1537920274024548,-2,3,-10,-1,4,21,1,-5
1537920274024548,1,9,25,4,3,5,5,-5
1537920274026542,-23,-15,-27,-6,-9,-6,0,-2
1537920274026542,9,-14,-5,-4,3,-12,-9,-11
1537920274047486,10,-5,-38,-11,-3,-10,27,9
1537920274047486,-8,3,12,0,1,13,-7,4
1537920274049481,8,-1,26,2,0,8,-6,-3
1537920274049481,-9,1,8,7,-1,-22,-17,-16
1537920274070425,-4,-5,5,1,1,-1,-10,4
1537920274070425,0,-8,-10,-1,-1,-31,9,-13
1537920274071423,2,-3,-2,-4,-6,-11,8,9
1537920274071423,-5,-6,-7,2,6,14,-20,-5
1537920274084388,2,10,18,2,-2,-9,-23,-5
1537920274084388,0,-1,-6,-2,-2,-18,3,4
1537920274091370,1,7,-4,-2,5,69,27,-1
1537920274091370,-5,-2,-11,-1,-7,-41,-19,-4
1537920274107327,-2,-4,3,0,0,-21,-22,-5
1537920274107327,3,-3,2,0,-1,24,-11,9
1537920274109321,-5,-3,-13,-4,-3,-34,-12,-1
1537920274109321,1,-1,-3,0,-1,6,4,-6
1537920274130265,-2,-6,-4,0,1,-4,1,0
1537920274130265,-9,0,2,0,0,6,9,-4
1537920274131263,3,0,10,2,3,-7,4,1
1537920274131263,0,-1,-13,-4,-4,-39,-25,-7
1537920274144228,-3,-10,0,-1,6,93,-10,2
1537920274144228,-6,0,-7,-5,-3,-52,45,-6
1537920274151210,4,4,3,0,1,2,-11,5
1537920274151210,1,-3,-15,-1,1,0,-18,1
1537920274167168,-3,1,7,-3,-5,-58,6,-7
1537920274167168,-1,-1,-8,-1,-10,9,-53,-4
1537920274169164,0,0,-6,1,7,41,17,-1
1537920274169164,-3,-6,16,3,4,37,10,-3
1537920274190107,0,2,2,-1,-4,-91,-30,-5
1537920274190107,1,-1,-7,1,8,124,3,0
1537920274191106,-3,-4,10,1,-5,-45,13,-6
1537920274191106,0,4,-5,-3,-1,-1,28,6
1537920274204069,-2,-2,0,1,0,-1,7,-10
1537920274204069,-2,-2,1,2,0,-33,-2,4
1537920274211050,-11,-6,1,-3,-5,2,-6,-5
1537920274211050,1,-2,-6,-7,-2,12,13,-8
1537920274227007,-1,-3,-2,2,0,3,-1,5
1537920274227007,-2,-4,-8,-5,-5,-28,-13,-1
1537920274229001,0,4,-1,-2,0,38,-3,4
1537920274229001,-5,-3,5,4,-2,-23,2,-3
1537920274249946,-1,1,4,2,7,32,10,6
1537920274249946,-3,0,3,1,-3,-5,-29,-3
1537920274250942,3,0,8,3,1,4,-3,0
1537920274250942,-1,2,4,-1,-8,-42,-40,-9
1537920274263908,1,4,-12,0,2,7,62,7
1537920274263908,6,-4,-5,-5,3,0,4,2
1537920274270889,-10,-4,-1,-7,-9,-43,-12,-9
1537920274270889,-1,-4,-1,-2,-1,22,2,-3
1537920274287845,-3,0,8,5,0,1,-22,8
1537920274287845,-1,2,-11,-3,-2,-2,2,-6
1537920274288843,7,1,-1,4,6,2,27,18
1537920274288843,-1,-5,0,-2,2,24,5,12
1537920274309786,2,5,-2,0,-2,-30,-18,1
1537920274309786,6,1,13,3,4,13,32,15
1537920274311782,1,-2,-4,3,-2,-29,-20,-3
1537920274311782,-1,-3,-7,-3,0,29,-5,0
1537920274324747,-2,-2,0,-4,-9,27,1,-7
1537920274324747,-4,-2,-3,-1,0,-6,3,-8
1537920274330731,0,3,-1,0,-2,-30,-24,-2
1537920274330731,-1,-4,-9,-2,-4,24,-1,1
1537920274347685,-1,0,4,-4,1,-4,31,1
1537920274347685,0,-1,-2,0,4,2,-10,0
1537920274348683,0,-1,5,-4,-5,4,16,-3
1537920274348683,5,2,-2,0,-6,-24,38,9
1537920274369625,0,-1,8,3,-7,-49,-50,-9
1537920274369625,-8,-5,-3,-3,8,61,5,-3
1537920274371621,2,2,0,2,8,12,20,-2
1537920274371621,-1,1,4,-1,-1,0,-10,-2
1537920274383588,-4,-2,-2,-3,-9,-35,-9,-4
1537920274383588,1,-5,1,0,-8,-37,-41,-5
1537920274398548,-5,-3,-5,-1,0,13,10,-22
1537920274398548,7,-1,2,-3,-1,-7,2,34
1537920274407524,-1,2,-1,2,1,-9,-14,-1
1537920274407524,-2,-2,-2,-3,-6,-11,4,-5
1537920274408522,-1,-2,-9,-1,1,46,-2,-2
1537920274408522,-3,1,0,2,0,-33,0,-9
1537920274430463,-1,-1,-1,-1,7,5,-1,-5
1537920274430463,1,0,-2,1,-3,-40,-27,1
1537920274431460,1,3,23,0,-1,4,3,6
1537920274431460,-3,-1,-2,-5,-5,-18,-2,-4
1537920274444425,-2,0,12,3,0,28,17,5
1537920274444425,-1,-5,-12,-5,5,5,44,-1
1537920274451407,2,-1,-12,0,-4,6,-30,4
1537920274451407,-5,-2,0,1,-2,-53,-24,-10
1537920274467365,0,-1,2,-2,3,94,27,2
1537920274467365,-1,1,1,3,-1,-12,-7,0
1537920274469359,-3,-1,1,-1,-4,-18,-15,-8
1537920274469359,-1,2,-3,0,1,5,11,6
1537920274490304,-1,-7,-7,-4,-3,-21,-6,-3
1537920274490304,-1,0,-1,0,2,7,17,3
1537920274491301,-3,-2,-8,-5,-2,0,-3,1
1537920274491301,-1,0,7,4,3,3,-11,-6
1537920274503270,2,0,-3,-3,-3,-9,7,10
1537920274503270,-3,-4,-4,-6,-6,22,2,-11
1537920274520226,1,2,-4,1,9,38,-28,-10
1537920274520226,4,1,1,3,4,9,49,7
1537920274535185,1,0,-9,-1,-2,0,-2,-1
1537920274535185,0,0,2,-1,0,-19,-4,2
1537920274536182,-2,-1,-6,-1,-2,-25,-30,-6
1537920274536182,-1,-4,0,-4,-3,10,11,-2
1537920274550144,-1,0,-8,0,4,14,8,0
1537920274550144,-1,1,3,2,-2,14,-24,-4
1537920274551141,0,1,9,4,-1,-46,27,6
1537920274551141,0,-1,-19,-3,15,60,-33,-3
1537920274564106,-2,-2,5,-8,-14,-42,-15,-2
1537920274564106,-2,-5,0,-3,-2,9,12,1
1537920274573082,3,1,-5,-2,-4,-5,22,12
1537920274573082,-3,-8,2,5,-1,-17,-3,-4
1537920274587044,0,2,-4,-4,-2,-12,-28,-2
1537920274587044,1,2,3,1,4,29,8,1
1537920274589039,1,-4,-2,-1,-3,17,5,1
1537920274589039,-2,6,5,2,-3,-10,-5,-2
1537920274609983,-1,-1,3,-1,-1,-6,-11,-1
1537920274609983,-1,-2,-7,-3,-7,-26,24,2
1537920274611978,-5,-2,-3,-1,5,57,22,-6
1537920274611978,1,-2,6,-2,-3,0,-1,6
1537920274623945,-2,0,-2,3,1,-17,-11,-4
1537920274623945,0,1,-1,-1,-1,-4,14,5
1537920274632922,1,0,-10,-4,-1,7,-7,-2
1537920274632922,-1,0,-6,0,-3,-15,-7,-6
1537920274647881,0,-1,1,1,5,15,28,2
1537920274647881,-1,0,1,-2,-9,-18,-11,1
1537920274648879,-4,-1,1,2,3,-21,-18,-6
1537920274648879,-3,1,0,-4,-8,9,3,-4
1537920274677801,3,-1,-4,1,9,6,29,8
1537920274677801,1,0,15,5,3,16,5,3
1537920274678798,-1,-4,-12,-6,-7,-25,-4,2
1537920274678798,-3,1,3,-1,-5,-27,-22,-7
1537920274683785,1,-1,-6,0,3,47,19,3
1537920274683785,-3,-1,9,0,1,-3,-6,-7
1537920274692761,0,1,5,0,0,-1,10,5
1537920274692761,1,-1,1,-2,1,-17,-23,-1
1537920274707721,-2,0,-3,-5,-9,-28,-10,-4
1537920274707721,2,2,-4,3,7,41,26,4
1537920274708719,0,1,5,-1,2,-28,-17,5
1537920274708719,1,-2,0,-2,0,28,36,3
1537920274729663,-3,-4,0,-2,-7,-25,-9,-6
1537920274729663,2,0,3,0,-5,7,1,2
1537920274731657,1,1,-7,-2,-2,-23,-6,-2
1537920274731657,-2,-2,-5,0,5,25,-13,-3
1537920274743625,-2,-2,1,-4,-9,-1,-17,0
1537920274743625,-3,-1,-2,1,-2,-24,9,-2
1537920274752601,5,0,-1,2,0,6,21,7
1537920274752601,1,1,5,3,3,8,-23,1
1537920274767562,-1,-2,-10,0,2,-30,-24,-3
1537920274767562,-5,-2,-6,-6,-7,-23,-12,-4
1537920274768559,-1,-1,3,1,3,18,22,2
1537920274768559,-2,1,-1,-2,-3,-29,-30,-2
1537920274789503,-2,-2,-6,0,3,25,34,0
1537920274789503,2,-2,-5,-1,2,-6,8,3
1537920274791497,-3,-3,5,-1,1,7,-7,-1
1537920274791497,-1,-1,-4,-2,-1,1,14,2
1537920274820420,-2,1,8,-1,-7,-38,-4,-3
1537920274820420,-1,0,-11,-3,3,14,-32,-1
1537920274821417,3,-4,-1,-1,-1,-14,4,0
1537920274821417,-3,0,3,-3,-10,21,5,-3
1537920274827401,-1,0,4,-2,0,-13,-22,-2
1537920274827401,-3,0,-3,0,1,-7,14,-2
1537920274829396,-3,-4,3,-2,-1,20,-32,-4
1537920274829396,2,1,-8,0,0,-10,74,6
1537920274850340,-1,0,0,-1,-1,21,-8,-3
1537920274850340,-2,1,5,5,7,20,-19,-6
1537920274851337,-1,-3,-10,-2,-5,-40,-16,0
1537920274851337,-2,-2,12,-2,-1,-3,-13,-5
1537920274863305,-2,-2,-11,-2,0,16,6,-2
1537920274863305,0,-4,-2,1,0,-15,-17,2
1537920274872281,-3,3,-1,-2,-4,1,14,-4
1537920274872281,0,-4,-3,2,0,0,-16,-2
1537920274887241,-1,-3,1,0,-2,-15,2,1
1537920274887241,-1,0,4,-1,2,7,-19,-3
1537920274889236,0,-2,-11,-1,-4,5,22,2
1537920274889236,1,2,5,2,0,-4,2,2
1537920274910180,0,0,0,0,3,27,9,-1
1537920274910180,3,-3,-8,-8,-2,-27,-21,2
1537920274911178,-1,2,0,-1,-7,0,4,1
1537920274911178,-2,0,4,1,3,16,32,1
1537920274932121,-2,-1,-8,-1,2,-22,-12,-5
1537920274932121,0,-2,3,0,-1,7,0,-1
1537920274934116,-3,-1,-1,-2,-2,-8,35,-3
1537920274934116,2,2,-4,0,0,-11,-53,4
1537920274947081,3,2,13,6,7,29,43,9
1537920274947081,-2,-1,-2,-1,-7,-16,0,-4
1537920274954062,-2,-1,0,-4,1,17,-20,-4
1537920274954062,-2,-3,-1,3,1,29,-3,-1
1537920274970020,-3,-1,2,-1,-4,-13,-22,-5
1537920274970020,0,1,0,0,0,-19,-5,0
1537920274971018,1,-1,-1,0,0,-5,12,2
1537920274971018,-2,-2,-6,-5,0,3,-6,-7
1537920274991961,0,2,1,-3,-5,2,-5,3
1537920274991961,-1,0,-4,1,1,-3,1,-4
1537920274993957,-1,-3,7,6,3,3,19,2
1537920274993957,2,1,3,-3,-6,-55,-3,-2
1537920275007919,0,0,-6,-3,2,48,-2,-1
1537920275007919,-1,-3,-2,-1,-1,-6,-8,2
1537920275008917,-2,2,6,0,-2,-29,-18,-2
1537920275008917,-2,-3,-2,0,0,29,8,0
1537920275029860,0,0,-6,0,-2,-34,-19,1
1537920275029860,1,3,14,-1,-4,12,15,3
1537920275031855,1,-2,-10,-3,-4,1,-3,0
1537920275031855,-3,-2,-3,-4,-2,-14,8,-3
1537920275052799,-3,-1,1,2,6,24,-9,-4
1537920275052799,-4,-1,-8,-2,-5,0,-17,-4
1537920275053796,-2,0,4,-1,2,-19,26,1
1537920275053796,-1,-1,-3,-6,-3,26,-6,-1
1537920275066762,-2,-1,-2,-2,-2,6,23,-1
1537920275066762,2,3,-7,-3,2,5,-3,3
1537920275073743,-2,-4,5,-3,-3,-6,-23,-4
1537920275073743,-2,-1,-2,0,-1,-7,-8,-1
1537920275088703,-3,-2,3,3,0,-3,47,-6
1537920275088703,0,-2,-2,2,-2,-10,-1,-1
1537920275097679,-5,0,0,1,-2,29,-2,-4
1537920275097679,-1,0,0,1,5,-30,-10,-4
1537920275112639,-2,-1,4,-3,-12,-15,-13,-1
1537920275112639,-1,0,-4,3,5,33,11,-1
1537920275113636,0,-1,-1,-1,-3,-21,-7,-2
1537920275113636,1,1,-1,3,2,-9,-7,1
1537920275126601,0,0,-7,-4,5,-6,-9,4
1537920275126601,-3,-4,3,-2,0,-7,10,-7
1537920275133583,1,-1,-3,-4,-4,5,-24,0
1537920275133583,-3,-1,-4,-1,0,13,13,0
1537920275149541,-1,-1,0,-1,-4,-12,-12,-1
1537920275149541,0,0,1,-3,-6,-35,-3,3
1537920275151535,-1,0,-10,-3,2,27,33,-1
1537920275151535,1,-1,2,2,6,30,-6,-1
1537920275172479,-1,-3,-2,1,-1,-10,-32,-4
1537920275172479,-2,1,7,1,2,10,56,-1
1537920275173477,1,-1,6,3,-1,-36,-27,-2
1537920275173477,1,0,-6,-2,-4,2,23,4
1537920275186443,-1,-2,-6,-3,-2,-1,-2,-2
1537920275186443,-3,-2,-4,-2,0,3,-22,-11
1537920275193425,5,-1,4,2,4,13,-1,11
1537920275193425,-3,-1,5,0,2,-3,2,-2
1537920275210380,0,1,2,1,2,-9,10,-2
1537920275210380,-1,-3,-6,-4,-3,14,4,3
1537920275211378,3,1,-5,-3,1,8,-1,3
1537920275211378,-2,-2,2,3,1,-18,8,-2
1537920275240298,1,1,0,1,3,47,-11,0
1537920275240298,0,0,-9,-2,1,-2,-1,1
1537920275242293,-4,1,1,-5,-3,-14,-16,-8
1537920275242293,1,0,-2,-3,-7,-38,8,5
1537920275246282,-2,0,3,0,-3,28,-13,-4
1537920275246282,0,-2,-1,1,5,24,35,3
1537920275255258,0,1,-1,2,2,4,-33,-6
1537920275255258,-3,-2,-2,-5,-5,-1,5,-4
1537920275270218,-3,-1,3,-3,-11,-61,-11,-2
1537920275270218,0,-1,0,1,6,56,23,3
1537920275271215,-1,0,-6,0,0,-4,9,0
1537920275271215,0,-2,-2,1,-2,-17,-13,-2
1537920275292159,0,-1,0,-2,1,3,-12,0
1537920275292159,-1,-1,6,1,-4,24,-2,0
1537920275294154,-2,-1,-6,-1,5,-22,21,-1
1537920275294154,-2,-1,-4,-4,-5,18,14,-1
1537920275307119,0,2,3,2,0,1,13,5
1537920275307119,-1,-6,2,1,-6,-40,-28,-2
1537920275314100,-2,-2,-1,0,2,46,35,2
1537920275314100,-4,-1,-7,0,1,-15,-38,-12
1537920275330058,0,-1,8,0,8,-2,43,2
1537920275330058,-3,0,1,-2,-7,27,-20,-5
1537920275331056,1,0,5,5,1,-5,-7,2
1537920275331056,0,0,-6,-5,-2,-3,1,7
1537920275352998,0,-1,-4,-5,-3,-4,-6,-3
1537920275352998,1,1,-1,0,5,-45,-12,-1
1537920275353997,-2,-3,-2,-2,-11,30,-15,-5
1537920275353997,0,-1,1,0,-2,11,-4,-5
1537920275366961,1,0,5,3,5,-17,-13,0
1537920275366961,0,-1,-6,-3,-3,-21,-19,1
1537920275373943,-1,0,4,-2,-6,-32,-12,-1
1537920275373943,1,0,-2,2,0,15,33,4
1537920275389899,1,-3,-2,2,2,14,16,-1
1537920275389899,-1,0,2,1,3,26,-8,0
1537920275391893,-1,-2,-3,-4,-3,-29,2,-3
1537920275391893,0,-1,-3,-2,0,26,-12,-1
1537920275412837,-4,-1,-2,-1,-4,-19,-10,-2
1537920275412837,1,1,5,-1,-6,2,16,2
1537920275413834,-2,0,3,7,3,-26,-22,-4
1537920275413834,0,0,-2,-3,2,39,21,3
1537920275425802,-1,-1,-7,-4,-4,-11,-8,-1
1537920275425802,-1,-2,-7,-4,1,-7,-18,-6
1537920275434778,0,-1,-2,-5,-10,0,12,-1
1537920275434778,0,0,10,3,3,4,-32,-1
1537920275449738,-2,0,-2,1,1,2,19,1
1537920275449738,0,0,-4,0,2,-4,15,-1
1537920275451733,1,1,2,2,2,14,6,2
1537920275451733,0,-4,-1,0,-3,-22,-23,0
1537920275472676,-3,-3,-1,-1,-2,3,4,-4
1537920275472676,-2,0,-2,-3,-6,-30,-14,0
1537920275473674,-1,0,-1,-1,5,49,-8,1
1537920275473674,0,2,1,3,2,-6,14,-4
1537920275486639,-2,0,11,9,-1,16,-9,-3
1537920275486639,1,-1,-12,-4,-4,-29,11,2
1537920275494619,0,0,3,1,1,1,2,1
1537920275494619,0,-2,-6,-3,-2,5,17,3
1537920275509578,-3,-4,-4,1,2,8,-13,-7
1537920275509578,0,1,2,3,1,-12,0,-2
1537920275511574,-2,-1,-4,-6,-5,-9,-1,-2
1537920275511574,-2,0,-1,-1,-1,3,4,-2
1537920275532518,1,0,-3,-3,3,-5,-3,2
1537920275532518,-1,-2,0,-4,-11,-12,1,2
1537920275534514,0,-2,-7,0,-1,5,24,4
1537920275534514,0,1,10,3,6,16,-14,-1
1537920275546481,0,-1,-7,-4,-11,-29,12,2
1537920275546481,0,-2,0,4,10,41,-23,-2
1537920275555458,-3,-1,-3,-1,-3,-25,-14,-5
1537920275555458,-2,0,5,-1,-1,-6,10,-4
1537920275570418,0,2,-1,-1,2,34,4,1
1537920275570418,-1,-2,-9,-5,-7,-12,14,-2
1537920275571416,-1,-3,-2,0,-3,19,-14,0
1537920275571416,0,-1,0,-1,-3,-23,-5,-2
1537920275592357,-1,-1,0,-3,-3,-10,-13,0
1537920275592357,-1,0,3,-1,2,-13,5,-2
1537920275594352,0,-2,-2,-2,1,24,-6,-5
1537920275594352,-2,-1,-2,-3,-8,-36,-1,-3
1537920275606320,1,-1,2,3,8,8,-3,1
1537920275606320,-1,-1,-1,-5,-1,52,15,1
1537920275615296,-1,-2,-1,2,-1,-20,-13,-1
1537920275615296,-1,0,-6,0,-2,15,-8,-1
1537920275630255,-1,-1,-2,-2,-6,-43,-2,0
1537920275630255,1,-2,4,4,2,0,-7,3
1537920275631253,-1,0,2,-6,3,-1,7,-2
1537920275631253,0,-2,-2,-1,-5,-10,-4,2
1537920275652197,1,-1,-2,-1,3,23,-10,-3
1537920275652197,0,2,3,2,-1,-25,-11,0
1537920275654192,0,-2,-4,0,1,32,17,1
1537920275654192,-1,0,-1,1,-1,-5,7,2
1537920275666160,-3,-3,-3,-2,-5,-24,-9,-8
1537920275666160,1,0,2,0,-1,12,52,2
1537920275675136,-1,1,-1,-2,-3,-10,-18,-4
1537920275675136,0,-1,-1,0,0,-4,4,3
1537920275690095,1,0,2,0,-2,-5,-9,0
1537920275690095,-3,-3,0,2,2,15,-21,-2
1537920275691093,0,0,-2,1,3,-12,1,1
1537920275691093,-1,-2,-2,-3,-4,-10,-1,-5
1537920275712038,1,0,-10,-5,-2,-10,6,-1
1537920275712038,-2,0,2,-2,1,11,-8,-4
1537920275714035,-1,-1,-1,4,3,37,9,0
1537920275714035,-1,1,-1,-2,2,-40,-17,2
1537920275726001,-2,-3,-3,0,-3,8,4,0
1537920275726001,-3,0,-2,-3,-3,-28,-7,-1
1537920275734977,-2,-3,-1,-4,-6,-17,1,-2
1537920275734977,-1,-1,1,-1,0,23,1,-3
1537920275749937,-2,0,2,-2,0,4,4,1
1537920275749937,-1,-1,-3,-2,-3,-3,-2,1
1537920275751931,-2,0,10,0,-2,-32,-36,-3
1537920275751931,1,-1,-11,-4,-3,-13,-1,6
1537920275772876,-1,-2,0,1,12,93,3,-4
1537920275772876,2,-4,0,3,-1,-15,35,5
1537920275773874,0,0,3,2,-1,-21,-25,5
1537920275773874,0,-1,-6,-2,3,-18,17,5
1537920275785841,-1,0,14,-4,-14,-54,-26,-2
1537920275785841,-3,-1,3,3,8,96,-7,-5
1537920275802797,-1,-1,-10,-3,-5,-23,9,-3
1537920275802797,-2,-1,-1,0,0,9,-14,-4
1537920275809778,0,-2,-4,-1,0,-10,30,3
1537920275809778,-1,-1,0,-1,-6,-31,-18,1
1537920275811773,0,-1,8,-3,2,-11,4,0
1537920275811773,-3,0,0,1,1,30,-2,-6
1537920275832714,1,-1,-13,-3,-3,-8,-2,1
1537920275832714,-1,-4,0,0,-2,-11,-10,-4
1537920275833712,2,1,-4,-1,1,2,5,3
1537920275833712,-3,-4,2,-1,-1,41,3,-2
1537920275854656,1,-2,5,3,2,-14,10,0
1537920275854656,0,2,-2,1,1,-22,-10,-2
1537920275856651,-1,-2,-6,-1,1,19,2,-5
1537920275856651,-2,-1,3,-2,-5,-8,-5,-5
1537920275869616,-1,0,-6,-3,-2,-13,-9,-3
1537920275869616,0,2,6,-5,-5,-17,-14,0
1537920275871611,-1,-2,4,-2,-1,8,36,1
1537920275871611,0,-1,-2,-1,2,-2,5,2
1537920275891557,-3,-1,-2,2,-1,2,-4,-3
1537920275891557,0,2,-1,-2,-3,-31,-14,0
1537920275892555,0,-3,-6,2,5,11,-8,-1
1537920275892555,1,1,3,0,0,19,20,3
1537920275914496,-1,-1,-1,-3,-3,-4,-2,-2
1537920275914496,1,0,7,3,0,-8,-8,1
1537920275915493,-1,-1,-11,-4,-4,-29,20,0
1537920275915493,0,-6,-3,-3,-2,17,-10,-3
1537920275929456,-1,-1,0,0,-1,-21,-13,3
1537920275929456,-1,-2,-1,0,1,12,-2,-3
1537920275930453,-2,1,4,4,2,21,40,5
1537920275930453,1,1,4,0,-2,-33,-4,2
1537920275951398,0,0,1,3,12,40,-2,0
1537920275951398,1,1,-3,-5,-8,4,-8,0
1537920275952396,-1,-1,-7,-3,-2,11,-19,-3
1537920275952396,0,1,0,1,-1,-27,-9,-2
1537920275974338,0,-4,2,0,-2,5,20,1
1537920275974338,-2,-7,-4,1,0,-21,-5,-3
1537920275975335,-1,1,7,3,4,18,-8,-3
1537920275975335,-1,-1,-12,-7,-5,-2,-1,-2
1537920275989297,0,1,-1,0,0,9,18,1
1537920275989297,0,0,-4,0,1,4,3,-1
1537920275990295,-3,-2,-3,-1,-5,-12,-13,-1
1537920275990295,-1,-3,10,5,4,-2,-11,3
1537920276012235,-1,-1,-8,-1,0,-1,1,1
1537920276012235,-2,-2,-7,-5,-5,-13,5,1
1537920276012235,1,2,3,0,4,3,5,0
1537920276012235,-2,-1,5,-2,-3,-9,-10,-6
1537920276034176,0,-1,0,-3,-3,3,2,2
1537920276034176,-1,-1,1,-2,-2,3,0,0
1537920276035174,-2,2,-1,2,1,-7,-5,-1
1537920276035174,-1,-1,2,4,1,-7,-9,-4
1537920276049136,-1,-2,-2,-2,-3,-15,-12,-1
1537920276049136,1,-1,-4,-4,-3,6,32,4
1537920276050133,0,-1,-9,-2,3,-3,-10,-1
1537920276050133,0,0,1,1,0,0,10,1
1537920276071077,-2,-1,-2,-2,-3,6,-15,-1
1537920276071077,-3,-1,-2,-1,-1,-8,-12,-5
1537920276080053,-1,-1,4,-1,-7,4,30,-1
1537920276080053,-3,0,-3,-1,1,-16,7,-4
1537920276094016,-2,-2,-8,-1,-2,-1,-6,2
1537920276094016,-2,-3,5,-2,-4,-3,-7,-2
1537920276095013,-1,-3,-4,-8,-11,-30,-10,0
1537920276095013,-2,-1,1,4,4,45,-4,-3
1537920276108976,-1,1,-1,1,2,15,-1,0
1537920276108976,-1,1,8,1,3,-11,3,-3
1537920276117951,1,0,-3,1,-2,3,-12,-2
1537920276117951,0,0,-4,-5,-6,-24,1,1
1537920276131914,1,-1,5,3,4,18,7,-3
1537920276131914,0,0,-5,0,1,-2,-14,-3
1537920276132912,-1,-1,8,-1,1,11,-2,-2
1537920276132912,-2,-1,-9,-1,-6,-8,4,2
1537920276153855,-2,-2,-5,-6,0,-12,9,-5
1537920276153855,-4,0,-9,0,-9,-11,-10,-2
1537920276154853,-1,-2,-4,-6,-9,2,-1,1
1537920276154853,2,2,1,4,12,50,9,0
1537920276168815,0,1,6,2,-2,-14,4,2
1537920276168815,-1,0,-5,2,1,-7,-4,0
1537920276169813,1,0,-4,2,1,-9,3,0
1537920276169813,1,1,0,-2,-5,-12,-5,5
1537920276191754,0,-1,0,-2,1,-7,-10,-2
1537920276191754,-1,-1,1,-3,3,17,0,1
1537920276192752,-1,-2,0,2,-1,0,-3,-3
1537920276192752,0,-3,0,-1,-2,-33,2,0
1537920276214693,-1,0,5,-1,-4,16,-6,-3
1537920276214693,0,0,-1,-1,0,18,7,1
1537920276214693,0,-2,3,2,2,-24,6,2
1537920276214693,-1,0,0,1,5,23,7,-3
1537920276229653,-1,-2,-2,-3,-10,-50,-13,0
1537920276229653,-3,-2,-3,-6,-4,42,-13,-2
1537920276229653,0,-1,7,0,-1,24,16,-2
1537920276229653,2,3,-1,2,2,-22,-1,0
1537920276251594,-3,1,0,2,0,-2,-3,-3
1537920276251594,1,-6,-4,-3,-2,-16,8,-1
1537920276252592,0,2,14,5,8,52,-7,2
1537920276252592,0,-6,-11,-10,-6,-1,-2,0
1537920276274533,0,1,7,-1,-1,-3,1,-1
1537920276274533,-1,0,-9,-1,-1,-23,-20,0
1537920276274533,-2,-2,-2,2,-2,-16,-1,-1
1537920276274533,-2,-2,0,-1,2,9,3,-4
1537920276289493,-1,-1,-2,-6,-15,-10,-7,1
1537920276289493,-1,-1,3,1,3,20,4,-3
1537920276289493,0,1,-4,-1,-5,-10,-14,3
1537920276289493,-1,0,3,2,-1,-1,12,0
1537920276311434,1,-1,-4,-1,5,-17,-11,0
1537920276311434,-2,1,2,2,2,16,5,-4
1537920276312432,-1,-2,-6,-1,-1,-7,11,3
1537920276312432,-1,-8,-3,-3,-6,-4,-10,-1
1537920276334373,-3,-2,-1,-2,-2,-17,-7,-5
1537920276334373,1,-1,-2,-1,0,12,13,5
1537920276335370,-2,0,-3,-2,-2,-25,-16,-4
1537920276335370,0,0,3,0,-1,4,-4,-2
1537920276348336,0,-1,4,3,5,27,14,0
1537920276348336,-1,1,-10,1,0,-23,-10,0
1537920276356314,-3,-3,3,-2,0,-2,-10,-1
1537920276356314,-3,0,1,0,-3,4,-4,-3
1537920276371274,-1,-1,-4,-4,-7,16,1,-2
1537920276371274,1,0,0,2,2,-1,15,2
1537920276372272,0,2,0,-2,-4,-19,0,-3
1537920276372272,-2,-1,-7,-3,-7,-11,-21,-4
1537920276394213,0,1,3,0,8,5,-6,1
1537920276394213,-2,-2,0,-1,1,25,0,-1
1537920276395210,-2,-2,-4,-1,-3,-12,-11,-3
1537920276395210,0,2,5,2,2,17,9,3
1537920276409173,-2,-1,-1,1,3,-11,15,2
1537920276409173,0,1,2,-1,-10,-24,-13,-1
1537920276410170,0,-1,-5,-4,6,27,17,0
1537920276410170,-4,0,-5,-6,-10,0,-4,-2
1537920276432112,-1,-4,-4,-1,1,16,-2,-1
1537920276432112,-2,0,10,2,-5,-32,-2,-1
1537920276439093,-1,0,-16,0,13,43,-4,-4
1537920276439093,1,2,8,0,0,-9,15,0
1537920276454053,0,1,0,2,2,-6,-1,-1
1537920276454053,-1,-1,-1,-3,-1,4,1,-3
1537920276455050,-3,-2,-1,-3,-10,-29,-3,-9
1537920276455050,1,-1,-2,4,3,-10,-14,5
1537920276469013,0,-5,-4,-4,-1,-4,1,-4
1537920276469013,1,0,7,-1,-2,-31,1,0
1537920276476992,-1,0,0,1,3,63,2,-2
1537920276476992,1,2,0,4,11,-1,-12,-4
1537920276491951,-2,2,0,-4,-10,-7,14,3
1537920276491951,-1,-1,-5,-1,-2,-8,7,-1
1537920276491951,-1,-2,-4,-3,-5,-32,-5,1
1537920276491951,-1,-1,-1,-1,-3,0,-20,-2
1537920276513893,1,1,-2,3,7,12,9,1
1537920276513893,0,3,0,-1,2,-2,-6,1
1537920276514890,-2,-4,-3,-6,-8,-24,-13,-4
1537920276514890,1,-3,0,1,1,-7,7,1
1537920276528853,0,-2,-2,0,8,58,23,-1
1537920276528853,1,1,-2,3,5,6,-15,0
1537920276536831,2,1,13,1,-1,-13,4,4
1537920276536831,-4,-3,-9,-3,-3,-24,-7,-6
1537920276551792,1,-2,3,0,-4,-13,-3,2
1537920276551792,-3,0,-11,-1,2,12,-5,-4
1537920276552789,-1,-1,-4,-8,-4,0,7,0
1537920276552789,-1,1,-3,-3,-3,-1,9,0
1537920276573733,-2,0,2,-1,-6,-7,-33,-7
1537920276573733,0,-5,-6,-2,-1,-18,19,6
1537920276574730,-1,0,0,3,7,64,22,2
1537920276574730,-1,-3,2,2,2,13,6,2
1537920276588693,-1,1,-1,1,4,-22,-11,0
1537920276588693,-4,-1,-1,-5,-10,-18,-12,-6
1537920276596672,-1,-2,1,1,-6,-23,1,-2
1537920276596672,0,-1,2,-1,-4,11,0,2
1537920276611632,-2,-1,-2,-1,-1,0,-4,-2
1537920276611632,-1,-1,2,1,2,-2,-5,-4
1537920276612629,-1,-1,-2,-2,-2,-24,-35,-3
1537920276612629,2,3,1,2,5,40,82,8
1537920276634571,0,-1,-3,0,0,-15,-6,2
1537920276634571,-1,1,-1,-5,-1,0,5,-1
1537920276635569,1,-3,3,0,-2,15,-4,2
1537920276635569,-2,-3,-6,-3,-1,-1,-29,-5
1537920276648533,0,0,-3,0,0,-9,14,1
1537920276648533,1,0,7,3,0,5,-3,0
1537920276656512,-1,-2,0,3,3,-2,-1,-2
1537920276656512,-2,0,-4,-7,-8,-38,-13,-2
1537920276671472,-1,-1,0,-3,-5,20,14,3
1537920276671472,-3,-3,-3,0,2,11,-16,-5
1537920276672469,-1,1,-2,0,0,-24,12,-1
1537920276672469,0,-1,4,3,2,5,-3,-1
1537920276695408,-3,-1,-6,-3,-4,-4,-10,-5
1537920276695408,1,-1,1,-4,0,-29,5,0
1537920276695408,0,3,0,0,-3,36,2,2
1537920276695408,-1,-4,-1,-2,0,-11,-13,-6
1537920276708373,-1,-2,-2,-3,-2,2,-5,0
1537920276708373,-2,-3,-3,-2,1,0,4,-3
1537920276716352,0,0,-1,1,-1,-7,-7,4
1537920276716352,-2,2,-6,-1,-2,21,-1,-1
1537920276731312,-1,-1,1,-2,-2,-18,-2,0
1537920276731312,-1,-1,3,1,-2,5,9,0
1537920276732309,-1,-1,-7,-2,0,-16,-18,-7
1537920276732309,-1,-2,-6,-4,-2,7,5,3
1537920276755249,4,2,3,5,10,8,6,3
1537920276755249,-1,2,-3,-3,-3,36,29,1
1537920276755249,1,0,5,2,1,9,4,2
1537920276755249,-2,-5,0,2,-4,-24,-21,-3
1537920276768215,-2,-1,-7,-1,-7,-8,-16,-1
1537920276768215,1,-1,3,1,3,-1,8,1
1537920276777192,-1,-3,-2,-1,-2,8,13,-1
1537920276777192,-2,0,6,-2,0,-2,-5,-2
1537920276800131,-3,-2,-13,-3,-7,-7,-8,-4
1537920276800131,-1,-2,0,4,0,-21,-12,-1
1537920276801129,0,1,-1,0,4,48,6,2
1537920276801129,-1,0,-1,-2,-1,-9,-2,0
1537920276815090,-4,-2,4,0,-2,-2,-3,-5
1537920276815090,-2,-1,0,1,-4,-24,-5,0
1537920276816088,1,1,-5,-1,6,-18,4,1
1537920276816088,2,0,8,-5,-11,2,-3,2
1537920276837032,2,-1,2,-3,-1,-15,6,-1
1537920276837032,-1,-4,-8,-1,0,23,-2,2
1537920276838030,-1,0,3,2,5,22,4,0
1537920276838030,-1,-2,-5,0,-3,-15,-14,-2
1537920276851991,-1,0,3,0,-1,12,13,0
1537920276851991,-1,0,-2,0,1,-8,-6,0
1537920276852988,-3,-2,-4,-5,-4,-26,-5,-6
1537920276852988,0,2,0,-1,3,9,-4,1
1537920276874928,1,0,-3,-1,-1,5,7,-1
1537920276874928,0,-1,7,-2,2,8,3,-1
1537920276875925,-2,-1,-2,0,-5,-12,-13,-2
1537920276875925,-3,-1,-1,-1,2,-10,18,-5
1537920276897867,-1,0,-1,0,3,32,-8,1
1537920276897867,0,-1,-4,-2,-5,1,-8,-3
1537920276897867,-2,-1,-1,1,-4,-10,-2,-1
1537920276897867,0,-2,-5,-2,-1,-21,-12,-1
1537920276911829,-1,0,2,2,2,8,8,0
1537920276911829,0,1,-9,-3,2,-26,-4,-2
1537920276912827,0,-1,-1,-4,-6,-21,9,1
1537920276912827,2,2,8,5,6,43,26,4
1537920276934769,-1,-1,-3,-1,4,-5,-11,-3
1537920276934769,-1,-1,-2,-2,-3,2,-3,-3
1537920276935766,-2,-2,-5,-3,-6,-39,-9,-3
1537920276935766,-3,1,-3,0,3,14,-2,-4
1537920276957709,1,-1,4,1,-3,4,-9,1
1537920276957709,1,-2,0,-1,-1,19,13,0
1537920276958707,1,1,2,1,2,-18,-16,3
1537920276958707,-1,2,1,0,-3,-16,-1,-2
1537920276971671,-2,-3,0,-1,-3,-27,-11,-2
1537920276971671,-2,-1,-5,0,5,59,6,-3
1537920276972671,1,-2,-4,0,2,-3,5,2
1537920276972671,-1,0,9,1,0,1,-17,-1
1537920276994610,0,0,-6,-3,-3,-8,-8,1
1537920276994610,0,1,7,2,-5,-28,-8,-2
1537920276995607,-1,-2,-1,-2,1,21,28,3
1537920276995607,-3,-1,-8,-5,-2,-2,-15,-4
1537920277017549,0,-3,0,-1,-4,2,33,4
1537920277017549,-2,-1,1,0,-1,5,-3,2
1537920277018547,-1,-2,1,-1,-2,-8,-14,-5
1537920277018547,-1,-1,-2,1,2,-25,2,-1
1537920277031511,0,-1,2,2,9,31,-19,-2
1537920277031511,1,0,-3,-1,-4,-34,14,-1
1537920277032509,0,-1,6,1,5,49,-13,-4
1537920277032509,0,-2,2,-1,-3,-20,3,0
1537920277055447,-1,0,-7,-4,-6,-15,-2,0
1537920277055447,0,-2,-3,-2,1,16,-4,-3
1537920277055447,0,3,-2,-1,-3,-43,-4,4
1537920277055447,-2,-1,-2,-1,-3,1,0,-1
1537920277077387,-3,2,2,-2,4,42,10,-6
1537920277077387,1,0,0,-3,-8,14,-4,2
1537920277078385,-1,-2,0,2,0,-5,5,-1
1537920277078385,1,1,-6,0,3,2,-14,-1
1537920277091350,0,-2,2,1,-4,-21,16,0
1537920277091350,-1,-2,-1,-1,4,-12,-11,-3
1537920277092348,-2,-3,-7,-3,-3,14,1,-4
1537920277092348,2,0,4,2,2,17,-5,1
1537920277122267,0,1,-1,-2,-3,-32,-15,-2
1537920277122267,0,-1,4,-1,1,16,8,2
1537920277123264,1,-1,-10,-3,-5,-10,-4,4
1537920277123264,0,-4,-3,-4,-6,-11,-4,-1
1537920277137227,-3,0,0,2,0,7,-10,-4
1537920277137227,0,-1,1,-2,0,-8,15,0
1537920277138224,0,3,0,1,2,39,2,-3
1537920277138224,-3,-1,-1,-1,1,-4,14,-1
1537920277152187,-2,-4,0,1,2,-24,-4,-2
1537920277152187,2,3,1,1,0,16,-9,2
1537920277152187,-2,-4,0,-2,-8,-26,3,-4
1537920277152187,1,-3,-15,-2,0,29,-3,2
1537920277175127,-1,0,1,-3,-5,-6,3,-3
1537920277175127,-1,0,0,2,6,27,2,0
1537920277176125,-3,-1,0,-3,-2,-19,-10,-3
1537920277176125,0,0,0,2,2,-6,5,0
1537920277197068,0,0,-1,-2,-1,21,22,4
1537920277197068,-3,-3,-2,1,0,-8,-19,-5
1537920277198067,1,2,1,0,-1,-2,11,2
1537920277198067,-2,0,1,-1,-3,-11,1,-2
1537920277212028,-1,-4,-1,2,2,4,-11,-3
1537920277212028,0,-1,8,-3,-1,6,0,-1
1537920277212028,1,-2,0,0,-3,3,-7,2
1537920277212028,1,-5,-1,2,0,-31,0,1
1537920277234967,1,3,0,2,3,3,8,1
1537920277234967,-1,-1,5,0,-11,-33,-11,-1
1537920277235965,-1,0,-10,-6,2,26,3,-4
1537920277235965,-2,2,2,-1,-1,20,2,-4
1537920277257905,1,0,-2,-1,-1,3,-7,0
1537920277257905,-1,-3,-5,2,2,-20,4,0
1537920277257905,0,-1,2,2,2,-10,-6,0
1537920277257905,0,-2,2,-2,-3,-9,7,0
1537920277271868,0,-1,-8,-4,-3,7,-10,-2
1537920277271868,-1,4,-5,-3,2,-7,7,0
1537920277272865,-1,-4,3,-3,-3,-31,-11,-5
1537920277272865,-1,-2,0,-2,-4,19,15,2
1537920277294806,-3,2,6,4,7,35,-13,-7
1537920277294806,0,-4,-6,-4,-8,-24,9,4
1537920277295803,-1,-2,-3,-1,-3,4,-9,-3
1537920277295803,1,0,-1,-3,-3,-6,4,-3
1537920277317745,-1,-1,0,-1,-4,-37,0,2
1537920277317745,0,3,0,5,5,28,-3,-2
1537920277317745,-1,-2,-9,2,5,-1,-4,-1
1537920277317745,-4,-2,-1,-7,-5,-4,-11,-6
1537920277331707,-1,-1,-6,-2,-3,-18,2,-1
1537920277331707,0,-1,6,0,3,43,0,0
1537920277332705,-2,1,0,1,-3,-19,2,-2
1537920277332705,-1,0,-3,1,2,46,-3,-3
1537920277354647,1,-2,-1,1,-1,-20,4,1
1537920277354647,-3,1,-5,-2,-2,-12,-9,-5
1537920277355645,1,-2,1,-2,-2,6,13,8
1537920277355645,0,2,3,3,-2,-6,-6,3
1537920277376589,0,-2,0,-1,-1,-2,-3,4
1537920277376589,-1,-2,2,0,-2,7,0,-4
1537920277384567,-2,2,2,1,0,-18,-5,-4
1537920277384567,1,-2,-6,-1,6,24,8,1
1537920277391548,-2,-4,-1,-3,-7,-24,-15,-2
1537920277391548,-1,-1,-3,-2,3,23,10,0
1537920277399526,-1,0,5,2,-4,-11,10,2
1537920277399526,-1,2,-1,-1,0,-24,-9,-2
1537920277415486,-1,-1,-1,-4,-3,-3,-1,-2
1537920277415486,0,-1,-8,-2,-6,-10,-5,-2
1537920277415486,-1,-1,7,1,0,-13,-16,-5
1537920277415486,1,1,-4,2,2,-2,3,0
1537920277437424,-4,-2,-1,-2,-4,-2,0,-4
1537920277437424,1,-1,0,-5,-2,-27,2,1
1537920277438422,1,0,-3,-4,1,43,-1,5
1537920277438422,-2,-1,2,2,-2,-30,1,-2
1537920277451388,-2,1,0,0,6,56,11,1
1537920277451388,-1,0,-3,1,-2,-32,-12,-3
1537920277460364,0,-1,-5,0,1,32,27,0
1537920277460364,0,-2,0,-2,-7,-42,-16,1
1537920277475323,0,0,-3,-4,0,31,7,0
1537920277475323,-1,-2,-2,-1,-3,1,-9,-3
1537920277476321,-1,-2,2,0,-4,-20,-7,-4
1537920277476321,-1,-3,-8,1,6,31,7,1
1537920277497265,1,-2,1,-3,-6,-22,-4,1
1537920277497265,-1,2,-1,-3,-3,-11,-4,0
1537920277499259,0,1,3,-1,-1,-4,-3,-2
1537920277499259,0,-3,1,2,-3,9,-4,0
1537920277511228,0,-3,0,-1,1,-10,-2,-3
1537920277511228,1,-1,0,-1,-2,18,6,4
1537920277520204,-3,-2,-3,2,3,-29,-10,-5
1537920277520204,-1,-1,-3,-3,1,4,-8,-3
1537920277535163,0,1,-2,-3,-9,-12,1,0
1537920277535163,0,-3,4,0,1,10,7,0
1537920277536161,-1,-2,1,0,-4,-2,-16,-4
1537920277536161,0,2,-1,-2,2,-1,2,0
1537920277557105,1,-4,2,1,1,-18,-5,3
1537920277557105,-3,-3,-8,1,0,-2,3,-3
1537920277559099,-3,-2,1,-1,-2,-8,1,-1
1537920277559099,-2,1,0,2,4,27,-6,0
1537920277581040,-1,-2,6,2,1,-2,5,-1
1537920277581040,-2,-4,-1,0,-1,-2,3,-2
1537920277583035,-1,-3,-5,-5,-4,-1,-13,-3
1537920277583035,-1,-1,0,1,1,7,14,-2
1537920277595003,0,1,-1,-2,1,1,3,4
1537920277595003,-1,-2,0,-4,-7,-18,-7,-2
1537920277596000,1,-1,3,0,0,19,9,4
1537920277596000,-1,-2,-2,-2,-4,-31,-2,-3
1537920277616944,-2,-1,-3,0,0,32,2,-2
1537920277616944,0,0,2,-1,3,-15,-2,0
1537920277618939,0,1,-5,0,-1,5,8,1
1537920277618939,-2,-5,0,-3,-5,-1,-4,1
1537920277639883,-1,0,0,1,-1,-24,-13,-4
1537920277639883,-1,2,-2,-2,-3,-4,4,-2
1537920277640880,1,-2,-2,-2,-1,4,4,-1
1537920277640880,-2,-4,5,5,7,-7,-12,-1
1537920277654843,-1,-1,-8,-6,-2,19,4,-1
1537920277654843,0,-1,1,-3,-4,24,5,-1
1537920277656838,-1,2,-1,1,1,-8,5,3
1537920277656838,-1,1,1,-2,-5,-11,-4,2
1537920277677782,-1,-1,-1,2,5,-14,-11,-3
1537920277677782,-1,-1,-4,-1,4,30,3,0
1537920277678779,-1,-1,-1,-1,-5,-30,-19,-1
1537920277678779,2,2,-1,0,1,37,29,-2
1537920277699723,-1,0,3,3,0,-15,-12,-1
1537920277699723,0,-3,-4,0,0,-18,-13,1
1537920277701718,-1,-1,-4,-5,-5,12,12,-1
1537920277701718,-1,-3,-1,-1,2,-11,-8,0
1537920277714683,-1,1,0,-5,-1,-12,10,-2
1537920277714683,1,0,4,1,-4,13,0,-2
1537920277716678,-3,-3,0,0,0,-28,-12,-8
1537920277716678,1,0,-1,1,-3,25,15,0
1537920277737622,-1,-2,-1,1,2,15,-7,-1
1537920277737622,-1,-1,1,-1,1,-30,-5,3
1537920277738619,-1,0,-2,-1,-2,7,2,0
1537920277738619,1,1,0,0,7,-7,4,1
1537920277759563,-1,-2,-1,-1,-9,-1,-4,-4
1537920277759563,-2,-1,-1,1,-1,-16,2,-1
1537920277761558,1,-1,-8,-3,0,7,10,-2
1537920277761558,-1,-3,6,0,-2,-1,-18,1
1537920277774523,-1,1,0,-1,-3,11,-13,-1
1537920277774523,-1,0,-2,-1,2,-1,13,4
1537920277776518,0,-4,-1,2,-2,-4,7,-3
1537920277776518,-4,-5,-6,-10,-17,-21,-11,-2
1537920277797462,-2,-3,-9,-3,0,-2,9,-3
1537920277797462,-4,0,4,-1,0,-1,-9,-7
1537920277798459,1,2,3,1,5,15,5,5
1537920277798459,-1,3,4,1,0,-23,-9,-1
1537920277819403,0,-1,8,0,-5,-1,6,1
1537920277819403,1,-2,-13,-2,4,34,12,1
1537920277821398,-1,0,3,1,-4,-10,-3,-1
1537920277821398,0,0,-8,-4,-4,-1,1,-2
1537920277835360,0,-2,-6,-5,-5,-37,-5,1
1537920277835360,-1,-1,5,2,4,47,-1,-1
1537920277836358,-1,1,0,-1,0,8,-3,-3
1537920277836358,-1,2,0,1,3,-17,-4,1
1537920277857302,1,-3,0,2,9,12,16,3
1537920277857302,-2,-2,-2,-6,-20,-40,-6,-1
1537920277859297,-1,-3,-4,-2,-2,4,-2,-3
1537920277859297,-2,1,1,3,2,-6,-16,-5
1537920277880241,-1,1,0,1,1,10,12,2
1537920277880241,-1,-2,-3,-1,1,-28,-4,0
1537920277881238,-1,-1,1,0,-1,24,-7,-5
1537920277881238,-1,-2,-3,-4,-3,-1,10,-4
1537920277894203,0,-2,6,0,-3,3,-6,-3
1537920277894203,2,1,3,1,-2,-17,-16,1
1537920277901185,-2,0,-1,0,3,-6,-1,2
1537920277901185,-3,-3,0,-1,0,15,9,-3
1537920277917142,0,1,0,-1,-2,-10,1,-1
1537920277917142,-1,2,3,1,0,9,-4,0
1537920277919137,0,-2,0,-1,-4,-16,-9,-5
1537920277919137,3,-5,-5,3,4,13,3,3
1537920277940080,2,-2,-4,-3,-2,34,-7,1
1537920277940080,0,-3,-4,-2,0,-13,11,-4
1537920277941078,-1,0,0,-2,-3,2,-4,3
1537920277941078,-1,-1,-3,0,6,7,10,-1
1537920277954044,-2,-1,-3,-3,-9,-19,-8,-4
1537920277954044,2,0,0,-1,2,13,4,2
1537920277961024,-1,0,-1,-1,3,13,-3,1
1537920277961024,0,2,-1,-3,-2,-4,8,-2
1537920277976982,0,-1,1,-1,-1,-9,-7,3
1537920277976982,-1,-2,-1,2,5,5,2,-7
1537920277978976,0,-1,-1,0,-2,-13,3,2
1537920277978976,-1,-1,1,-1,-4,-4,13,2
1537920278007899,-1,1,-2,2,0,10,8,-2
1537920278007899,-2,-6,-7,2,-1,-6,-3,0
1537920278008897,0,0,-1,-2,-1,-6,-1,3
1537920278008897,-1,-3,1,-2,-4,-7,-12,-3
1537920278013883,-1,-2,-1,-3,1,29,5,-2
1537920278013883,-2,1,-4,-2,1,-7,-9,-2
1537920278020865,0,-1,1,3,4,-4,-4,-1
1537920278020865,1,1,0,0,-5,2,-6,3
1537920278037820,-1,0,-5,-1,-3,-28,-2,-1
1537920278037820,1,1,6,1,-4,-12,5,4
1537920278038817,-1,-1,-6,0,8,25,7,-2
1537920278038817,-2,-1,4,-3,-9,-25,-9,-6
1537920278059762,0,-2,-7,-3,2,14,-5,-2
1537920278059762,-1,-3,-3,-1,-1,-9,11,0
1537920278061758,-2,-1,5,2,-1,2,0,1
1537920278061758,-2,-1,-9,-3,0,3,0,1
1537920278074722,-3,-2,2,-2,-4,-27,-3,-5
1537920278074722,-1,5,1,0,0,46,2,-1
1537920278080706,2,-2,4,3,7,19,-22,-2
1537920278080706,-2,-2,-4,1,-2,-10,-3,-2
1537920278097660,-1,1,-2,-2,0,-1,13,0
1537920278097660,-2,-1,-1,-4,-5,-23,-8,-1
1537920278098657,-2,2,-1,-5,-5,-10,-4,-3
1537920278098657,-1,1,5,2,10,11,-8,2
1537920278119600,-1,-3,0,0,-5,-2,-5,1
1537920278119600,-1,-1,-5,-3,-1,-1,-5,-2
1537920278121596,-1,-1,-2,0,-1,-9,4,0
1537920278121596,0,0,0,3,2,3,2,0
1537920278134561,-1,0,1,1,7,-13,5,-1
1537920278134561,-3,-3,-10,-4,-6,-5,-12,-6
1537920278140544,0,0,-1,-2,-9,-11,11,7
1537920278140544,-1,0,-2,-1,-1,19,1,-1
1537920278157499,-1,1,7,3,6,-1,5,2
1537920278157499,0,-5,-2,-2,-3,2,-7,1
1537920278158497,-2,-1,-1,-3,-3,-21,-11,-4
1537920278158497,-1,-1,-2,0,-1,18,7,-3
1537920278179441,0,0,-2,0,3,4,-5,1
1537920278179441,-1,-1,2,-1,-1,-3,5,-2
1537920278181436,0,-2,-2,-4,-8,2,9,0
1537920278181436,-3,-2,0,-3,-2,-2,-10,-4
1537920278193404,3,2,4,1,-4,-22,-15,3
1537920278193404,-2,-1,-2,-1,6,58,10,-1
1537920278202380,0,-1,-1,2,3,-6,5,-2
1537920278202380,0,1,0,2,2,-32,-7,2
1537920278218339,-1,-1,-3,0,0,39,7,-1
1537920278218339,-1,0,3,1,-1,-19,-5,-1
1537920278219336,0,-1,-3,-2,-5,-1,1,2
1537920278219336,1,-4,-2,-1,-1,-13,11,-1
1537920278240280,-1,-4,-2,0,-1,-4,-15,-1
1537920278240280,0,-1,-1,-1,-1,-9,3,4
1537920278241278,-3,-1,4,-1,4,37,7,-3
1537920278241278,-3,0,4,-2,-4,-11,-4,-1
1537920278253245,-1,1,-3,0,4,-8,-4,0
1537920278253245,-2,0,1,1,1,11,0,-1
1537920278262220,1,-1,-3,0,2,-18,-6,-1
1537920278262220,-1,-2,-3,-4,-10,-2,1,-1
1537920278277182,-2,-1,1,-3,-9,-15,1,-1
1537920278277182,0,1,0,2,2,30,-11,2
1537920278279177,0,1,-1,1,4,-2,29,3
1537920278279177,-1,0,0,-1,-1,4,-16,-1
1537920278300120,-2,-2,-3,1,-2,-4,0,-4
1537920278300120,1,-4,-2,-4,-3,-20,-2,0
1537920278301117,-1,-2,2,-2,3,2,-7,-3
1537920278301117,-2,-2,-6,-5,-4,-32,-2,-1
1537920278314081,-1,0,-1,-2,-7,24,2,2
1537920278314081,-1,1,1,2,1,-20,-2,-2
1537920278322059,0,0,5,1,3,20,11,1
1537920278322059,0,-1,-1,-3,-4,-5,7,2
1537920278337019,0,1,-1,0,4,-13,0,-2
1537920278337019,-4,-2,-5,-1,-4,-6,-1,-4
1537920278339014,-1,-2,-1,-1,-5,-10,-5,0
1537920278339014,1,0,2,0,-2,-2,-1,0
1537920278359958,0,-1,-6,-1,5,31,2,-3
1537920278359958,2,1,5,5,0,2,1,5
1537920278360955,-3,-1,-12,-7,-4,-34,-11,-6
1537920278360955,0,2,-2,-1,5,37,12,2
1537920278373921,-3,-1,-2,-2,-3,14,-16,-3
1537920278373921,-1,-3,1,0,4,2,37,2
1537920278382898,-2,-2,0,-2,-7,-16,-7,1
1537920278382898,-1,-1,3,3,5,12,-4,-3
1537920278397857,1,2,-1,-1,4,-15,-3,1
1537920278397857,2,1,3,1,-1,5,-10,-1
1537920278398855,0,0,-1,-1,-1,7,0,2
1537920278398855,-2,-2,2,-6,-7,-11,-8,-3
1537920278419799,-1,-3,-1,-1,0,3,15,-2
1537920278419799,-2,-2,-1,-1,1,-28,-6,-1
1537920278421794,-1,-2,-2,3,1,20,-2,-2
1537920278421794,2,-1,-4,0,5,3,-3,1
1537920278433762,-2,-3,0,-5,-2,4,1,-2
1537920278433762,-1,1,0,-3,-6,-29,-2,0
1537920278442738,-1,-1,-3,1,0,20,-10,-2
1537920278442738,-3,-3,-2,3,-1,-8,-1,-6
1537920278457697,0,-3,-1,0,-2,-7,2,5
1537920278457697,-1,0,-4,-1,0,6,6,1
1537920278458695,-3,-1,0,-2,-1,-8,-5,-2
1537920278458695,-2,1,-4,-1,-1,8,2,1
1537920278479639,1,-1,1,-1,-3,-27,-5,0
1537920278479639,-1,0,0,-1,2,28,-2,-1
1537920278481633,0,-1,-4,-4,-6,-21,1,-3
1537920278481633,2,1,15,2,3,27,2,4
1537920278493601,-2,0,1,4,-4,-84,-7,0
1537920278493601,-2,1,-1,-1,11,97,6,-3
1537920278502577,-3,-1,0,-6,-10,-50,-5,-3
1537920278502577,-2,-3,-14,-5,1,-6,-8,-5
1537920278517538,-1,-2,3,-1,-2,14,13,0
1537920278517538,-1,-1,3,0,1,-30,-12,-4
1537920278518535,1,-4,-1,1,2,19,4,-4
1537920278518535,-1,0,0,-1,-3,4,0,2
1537920278539479,0,0,-3,0,1,10,-1,-2
1537920278539479,-1,-1,-4,-1,-2,-16,-4,-1
1537920278541474,-1,0,-2,1,2,5,4,-2
1537920278541474,0,-1,0,-1,0,-13,-6,-2
1537920278553442,-1,0,-1,-3,0,29,4,-2
1537920278553442,0,-2,1,-1,-4,11,2,3
1537920278562417,-2,0,0,-1,3,-6,-5,0
1537920278562417,-1,-1,-2,-2,-10,-4,-2,-1
1537920278577377,0,-1,-1,0,3,-20,-3,-2
1537920278577377,-1,-1,-1,-3,3,11,-3,-1
1537920278578375,0,-1,-2,0,0,3,-4,3
1537920278578375,-2,0,0,1,-3,12,4,1
1537920278600317,-2,0,1,-2,-2,-33,-2,-2
1537920278600317,0,-1,2,1,0,-5,-9,1
1537920278601315,0,0,-7,-1,3,1,1,1
1537920278601315,0,-5,2,1,-4,6,3,1
1537920278613282,-2,-1,-4,-2,-1,-9,-7,-2
1537920278613282,0,0,0,0,-1,-2,2,0
1537920278622257,0,-1,1,0,-3,0,12,2
1537920278622257,0,2,-6,-3,0,-5,-6,-3
1537920278637217,0,0,3,1,0,9,-1,-1
1537920278637217,-1,-2,-1,-3,-8,-13,-4,1
1537920278639213,0,-1,1,-1,-4,3,1,-2
1537920278639213,-1,-1,-2,0,2,-18,1,-2
1537920278660156,-2,0,1,3,9,25,0,-2
1537920278660156,0,0,-2,-5,-10,-30,0,2
1537920278661153,-1,0,2,-1,0,14,-2,2
1537920278661153,-2,0,0,0,1,-12,-2,-1
1537920278682098,0,0,-5,-1,0,31,0,-1
1537920278682098,-2,-3,-1,3,4,-21,-2,-3
1537920278684093,0,0,2,-1,-3,-15,-2,2
1537920278684093,1,-5,-5,-3,4,32,7,1
1537920278697058,-1,0,-1,0,-4,2,-1,0
1537920278697058,0,-1,-3,-1,0,-17,4,-4
1537920278699053,-1,1,4,5,5,-3,-6,-2
1537920278699053,1,2,2,-1,0,-17,-8,-4
1537920278719996,-2,-2,-4,-7,-7,50,3,0
1537920278719996,-1,2,-5,-1,-1,-10,4,-3
1537920278720994,-2,-1,-2,-1,0,5,-1,2
1537920278720994,-1,0,-1,1,-1,-4,1,-1
1537920278741937,-1,-1,-2,-1,-1,-9,-3,-1
1537920278741937,-1,0,-2,-4,-3,-4,-5,3
1537920278743932,-2,0,-3,-3,-1,9,1,-2
1537920278743932,-1,1,-1,2,2,-10,-1,0
1537920278757895,2,-3,0,-3,-6,-36,-8,1
1537920278757895,-3,-1,0,0,4,22,7,-1
1537920278758892,0,0,2,1,3,15,-4,-1
1537920278758892,0,-5,0,-1,-4,-10,-7,0
1537920278779836,-2,0,0,0,-2,-12,7,0
1537920278779836,-1,-1,3,-1,0,-7,-10,-4
1537920278781831,0,1,-9,-4,1,-5,3,1
1537920278781831,-2,-2,0,-6,-14,-39,-2,-2
1537920278802776,-1,-2,-3,0,7,88,-1,-4
1537920278802776,0,0,4,2,2,-26,-8,-2
1537920278803774,0,-1,-2,1,2,26,23,1
1537920278803774,0,2,1,3,5,19,-13,-4
1537920278816738,2,0,1,-1,-4,-42,10,7
1537920278816738,-1,-3,-4,-5,-6,17,-2,0
1537920278823719,0,0,8,-1,-2,-3,-12,-5
1537920278823719,-2,2,0,-1,1,-2,7,5
1537920278839677,0,-2,0,3,-3,-13,-10,-1
1537920278839677,-2,0,-1,2,5,15,-3,-2
1537920278841672,-1,-2,-3,-2,-5,-33,-2,-1
1537920278841672,-3,-2,-3,-3,-1,16,4,-2
1537920278862616,0,2,2,-2,2,-9,-2,1
1537920278862616,0,0,-3,-1,1,-8,7,2
1537920278863613,-2,-3,0,-1,-5,-4,-8,-5
1537920278863613,-1,-1,2,1,0,4,-2,-1
1537920278876579,0,-1,-13,-4,1,-27,1,-1
1537920278876579,-3,-4,-3,-7,-13,-12,-7,-4
1537920278883560,1,0,0,1,2,35,4,1
1537920278883560,1,0,-1,0,1,-27,-3,1
1537920278899518,-3,-2,0,2,1,31,6,1
1537920278899518,0,-3,0,-2,-4,-23,-8,-4
1537920278901513,-1,1,0,-1,0,-9,-6,3
1537920278901513,2,1,0,-1,1,41,11,3
1537920278922455,-2,0,-1,-4,-4,-22,-7,-4
1537920278922455,0,-2,1,1,-4,-5,1,1
1537920278923452,-2,-3,-1,1,1,10,3,-3
1537920278923452,0,-1,-3,-4,1,-3,5,2
1537920278936417,-2,1,2,1,-2,-2,-5,-5
1537920278936417,1,4,1,3,5,33,-4,2
1537920278943399,0,-1,-4,2,4,-8,9,-1
1537920278943399,-1,-1,0,0,-1,-20,-8,-2
1537920278960353,-1,-3,-1,-3,-3,50,4,-1
1537920278960353,-2,-1,0,-1,-1,-19,-1,1
1537920278961351,-2,-3,-2,-3,-5,-12,-5,-1
1537920278961351,0,-1,0,2,6,6,1,0
1537920278982295,-1,0,3,2,-3,-13,0,-3
1537920278982295,-1,0,-1,-1,-2,-2,2,0
1537920278984290,-1,1,-7,-4,0,0,-9,-3
1537920278984290,-4,-6,-2,-1,-4,-11,-2,-3
1537920278996258,0,-2,1,0,1,-13,6,2
1537920278996258,-1,-1,2,3,4,54,-4,-2
1537920279003239,-1,1,2,0,-3,-12,-5,0
1537920279003239,-1,3,-3,-1,-1,3,2,0
1537920279020193,0,-1,6,0,3,-22,-7,0
1537920279020193,-2,0,0,-2,-11,-35,1,-5
1537920279021191,0,-1,0,1,4,61,9,-2
1537920279021191,-1,0,1,0,-1,0,-3,-2
1537920279042134,-2,-4,-4,-2,1,-8,-4,1
1537920279042134,0,2,-1,1,1,-11,0,-2
1537920279044129,-2,-2,-4,-1,-4,15,3,-1
1537920279044129,0,-1,-1,-3,-6,-2,2,0
1537920279057095,-2,0,-1,3,2,-7,0,-2
1537920279057095,-2,-1,-3,-4,-1,1,1,-2
1537920279063078,0,-3,-4,-4,-4,-21,-14,-1
1537920279063078,-1,-2,3,1,0,10,16,0
1537920279080033,0,2,0,-1,0,-19,-3,-2
1537920279080033,-2,-3,-2,1,2,30,-1,0
1537920279081031,-1,-5,-2,1,0,-17,-5,0
1537920279081031,-3,0,-2,-2,-3,-5,0,-1
1537920279101975,1,-2,2,1,-1,-8,-2,1
1537920279101975,-4,-1,-4,-3,2,-14,0,-6
1537920279103970,-1,1,2,-3,-5,-31,-2,0
1537920279103970,-2,-2,0,-2,-3,32,-4,-4
1537920279116935,-2,1,-1,1,0,20,14,2
1537920279116935,2,0,1,1,4,4,-5,2
1537920279123916,-1,-1,1,0,0,-9,-1,-5
1537920279123916,1,-1,-2,0,0,10,-3,-2
1537920279139873,-2,-3,-2,-2,-5,2,-1,-3
1537920279139873,0,-3,-3,-7,-7,-10,-3,-2
1537920279140871,-2,-1,2,-1,-2,-29,0,1
1537920279140871,0,-1,-2,-1,-1,12,-3,2
1537920279162812,-1,1,-1,0,4,-1,-4,-1
1537920279162812,-1,-4,-1,3,1,-18,-5,2
1537920279163809,-3,-2,0,-2,-1,22,12,1
1537920279163809,0,2,1,0,-2,-21,-5,0
1537920279175777,0,-1,0,-1,0,-4,-2,1
1537920279175777,-1,-1,0,2,-1,5,2,-2
1537920279184753,0,0,-2,4,3,-7,-6,-3
1537920279184753,1,-1,-2,-2,-1,-18,-3,2
1537920279199713,0,-2,-2,-6,-10,26,5,1
1537920279199713,-1,0,2,0,2,50,2,-1
1537920279201708,0,-1,-2,2,0,15,0,1
1537920279201708,-2,-1,0,3,3,-14,-1,-2
1537920279222652,-1,1,-1,-3,0,-18,-10,-2
1537920279222652,1,-1,0,-1,-1,-10,-1,1
1537920279223649,-2,-1,-3,-2,-3,1,4,-1
1537920279223649,0,0,0,-1,0,3,0,-2
1537920279235617,0,0,-1,1,-1,-7,-5,-4
1537920279235617,-2,-3,0,-2,-1,-11,6,2
1537920279244593,-1,-2,-1,-3,-1,-8,-5,-3
1537920279244593,-2,-2,-3,-1,-5,-10,-9,-2
1537920279259553,1,-2,-3,0,0,-4,2,2
1537920279259553,0,2,0,1,3,9,-6,-5
1537920279261548,-1,0,-3,-2,-6,-45,-2,0
1537920279261548,-2,-2,3,-3,3,77,0,1
1537920279282492,-1,0,-3,0,0,0,-5,1
1537920279282492,-1,0,1,2,2,-16,1,2
1537920279283489,-1,-3,-6,-7,-11,-10,-4,0
1537920279283489,-2,-1,-2,-1,-1,-11,1,-1
1537920279296455,-2,0,-2,1,0,1,0,-3
1537920279296455,0,0,2,0,-3,-18,-2,-1
1537920279305431,0,1,-6,-2,5,27,2,1
1537920279305431,1,0,7,1,-1,1,-1,-1
1537920279319393,-1,-2,0,-1,-3,-20,5,-1
1537920279319393,-2,-1,-3,-2,-1,23,-3,0
1537920279321388,2,-1,3,2,-1,-19,2,2
1537920279321388,0,-4,-5,1,1,14,3,1
1537920279342332,-2,-2,-1,0,0,-4,-5,-2
1537920279342332,-2,0,0,-2,-7,-12,2,-3
1537920279344327,1,0,0,-2,-2,-9,-8,2
1537920279344327,0,1,-3,-1,4,-12,0,-1
1537920279356295,-1,-2,-2,0,-4,7,1,-1
1537920279356295,1,-2,-4,-2,-1,-5,-2,0
1537920279365271,0,-2,1,2,3,20,4,0
1537920279365271,-2,-1,-2,0,-4,-37,-2,-1
1537920279380231,-2,-2,-6,-4,-2,8,0,1
1537920279380231,-2,0,-1,-2,-3,1,-1,0
1537920279381228,-1,0,2,0,2,-1,-7,-2
1537920279381228,2,0,-1,3,2,2,12,4
1537920279402172,-1,0,0,0,1,20,3,-1
1537920279402172,0,-1,-1,-2,-4,-28,-1,-1
1537920279404167,-2,4,-2,-2,-4,-4,-10,-2
1537920279404167,-1,-2,-2,-2,0,-5,6,-3
1537920279416135,1,-3,5,0,-4,6,-9,-1
1537920279416135,0,-2,0,3,1,-5,13,3
1537920279425111,-1,0,-1,-2,0,4,2,0
1537920279425111,-1,0,-5,-4,-4,-6,-1,-1
1537920279440071,-1,-1,0,0,-1,-12,-1,0
1537920279440071,0,-1,1,2,8,7,-7,-2
1537920279441068,-1,-1,0,1,-2,4,5,-1
1537920279441068,-2,-1,-3,-4,-10,-22,-11,-5
1537920279462012,-1,-2,-1,-1,3,40,3,-2
1537920279462012,0,0,-4,-3,-4,-45,-5,0
1537920279464007,-1,-1,1,0,2,20,5,-2
1537920279464007,1,0,-1,3,1,-3,-7,2
1537920279475975,-2,-1,-1,-2,-4,-18,-2,-1
1537920279475975,0,0,-1,-3,0,3,3,2
1537920279490936,-3,-2,1,0,0,5,-6,-4
1537920279490936,0,-2,1,0,-2,-22,5,1
1537920279499912,-3,-3,-7,0,1,-23,-3,-2
1537920279499912,-2,-1,8,1,1,50,11,0
1537920279500909,1,-1,0,0,-3,-12,-5,-2
1537920279500909,-2,2,-2,-1,-3,7,2,3
1537920279529831,1,1,0,-3,0,-29,-5,1
1537920279529831,0,-1,-9,0,0,2,-3,1
1537920279531825,-1,-1,2,-3,0,6,-2,-1
1537920279531825,0,-2,1,-2,1,3,-2,1
1537920279535815,-1,-1,1,-2,-4,4,1,-1
1537920279535815,-2,-2,-5,-2,-1,-1,-1,-2
1537920279544791,0,-1,0,2,1,1,-6,1
1537920279544791,-2,-1,-4,-3,-5,-21,3,-5
1537920279559751,-1,2,-1,-1,6,57,3,-2
1537920279559751,0,-1,-1,-2,1,1,3,1
1537920279561745,-2,-1,-2,-4,-5,-52,-4,-4
1537920279561745,-3,-5,0,0,7,66,1,-2
1537920279582689,1,1,-1,1,-2,-12,5,2
1537920279582689,-2,0,0,-3,-5,-15,-10,-3
1537920279583688,-1,-3,-3,-2,0,-6,3,-5
1537920279583688,-1,-1,0,0,0,-21,-6,-3
1537920279604631,0,0,0,0,1,-15,0,2
1537920279604631,0,-1,-2,0,8,30,-3,-1
1537920279606626,-2,-1,-3,-6,-11,7,-1,1
1537920279606626,-2,-1,-2,-1,-5,-13,-3,-3
1537920279619591,-1,-2,1,1,2,19,0,-2
1537920279619591,1,-1,0,1,-3,-10,-2,-1
1537920279621586,-1,-2,1,3,6,13,0,3
1537920279621586,0,-1,-2,-3,-2,-9,-3,1
1537920279642530,0,-2,-2,-1,0,3,3,0
1537920279642530,-1,-1,-2,-1,-2,3,-5,0
1537920279643528,0,1,5,-1,3,19,2,-1
1537920279643528,-2,0,1,2,-5,-9,5,3
1537920279664471,-1,0,2,-1,2,-33,-7,-1
1537920279664471,0,0,3,1,-2,26,3,-1
1537920279666466,-1,-4,-6,-1,1,-3,3,2
1537920279666466,-1,-1,1,-2,-2,-3,-3,-4
1537920279679431,-2,-2,-2,1,-5,-2,-1,0
1537920279679431,-3,-2,-3,-3,-1,-12,-3,-5
1537920279681426,-1,-2,0,-2,-4,-37,3,0
1537920279681426,-1,0,-2,-1,7,70,5,-2
1537920279702370,0,0,-3,1,0,5,3,0
1537920279702370,0,0,-1,-1,-3,-12,-1,-1
1537920279703367,0,-1,-2,2,-1,-9,1,0
1537920279703367,-2,-1,-1,-4,-4,-13,-7,-1
1537920279725309,-2,-1,2,-1,-3,-14,1,2
1537920279725309,1,-1,0,1,3,5,-13,-1
1537920279726306,1,0,0,2,4,15,16,2
1537920279726306,2,2,-2,-1,0,-9,-4,-1
1537920279739271,1,-4,-2,-3,-6,-26,-5,-3
1537920279739271,0,1,-3,-4,-2,46,5,-1
1537920279746252,-2,-2,-1,-1,0,9,-4,-1
1537920279746252,-1,-2,-1,-1,-2,-10,-2,-3
1537920279762210,1,1,0,1,-1,0,-1,2
1537920279762210,-1,0,0,1,1,-34,-3,-1
1537920279764205,1,1,-8,-3,-1,10,2,0
1537920279764205,-4,1,2,-4,-5,-1,-7,-3
1537920279784152,-2,-1,1,2,3,18,2,-1
1537920279784152,0,-2,-1,-1,-1,-12,8,2
1537920279792131,-1,0,1,0,3,13,-4,-3
1537920279792131,0,-2,-3,1,1,-20,3,2
1537920279799112,-1,-1,-3,-4,-9,4,-3,-1
1537920279799112,-1,-3,-3,-2,0,-8,4,1
1537920279806094,0,-1,-1,-2,-4,-16,-13,-3
1537920279806094,-1,-1,8,1,3,20,0,-2
1537920279822051,-1,0,4,0,4,26,-1,-4
1537920279822051,-1,-4,-1,1,-2,-13,3,0
1537920279824046,-2,-2,4,0,-5,-19,-5,0
1537920279824046,0,-2,-5,-1,2,21,3,-1
1537920279844989,-1,1,-6,-4,0,0,-5,-2
1537920279844989,-2,-3,1,-2,-3,0,-6,-1
1537920279845987,-2,-3,-2,0,2,-6,7,1
1537920279845987,-2,1,-1,1,-2,-12,-9,-2
1537920279858952,0,0,0,0,1,-17,7,2
1537920279858952,0,0,0,0,-4,15,-8,-2
1537920279865933,-2,0,-1,-1,0,2,0,-4
1537920279865933,0,0,-1,2,1,0,-10,4
1537920279881891,0,-2,0,-3,0,-9,7,-2
1537920279881891,0,0,0,-3,-3,-16,1,-2
1537920279889870,1,-2,-2,-4,-4,19,-3,1
1537920279889870,0,0,0,-1,1,-19,4,1
1537920279904830,-2,-1,-1,1,1,23,-3,-2
1537920279904830,-1,-3,0,3,4,-10,-1,-2
1537920279906824,-2,-1,-1,-1,0,5,0,-3
1537920279906824,1,-2,-6,-3,-3,-21,6,3
1537920279918792,1,1,9,0,-1,2,-5,1
1537920279918792,-1,-2,0,-1,2,2,0,2
1537920279925773,-1,0,-1,-1,-1,-6,-5,-3
1537920279925773,2,-1,-3,-4,-6,-16,-2,0
1537920279949709,-1,-2,-3,-1,2,17,0,0
1537920279949709,-2,1,-1,-3,-8,-8,-1,0
1537920279951705,-1,0,0,1,1,5,-3,-2
1537920279951705,-1,-1,0,1,3,1,1,-3
1537920279972648,0,-2,-4,-2,-3,-15,-2,-2
1537920279972648,-1,0,-8,-5,-5,-8,7,0
1537920279973645,-1,-1,-1,0,0,1,2,3
1537920279973645,-1,-3,0,1,-2,9,-5,-2
1537920279979629,0,1,-7,-1,0,-25,-3,-1
1537920279979629,-3,-2,0,1,4,-3,3,-1
1537920279985613,-1,-2,-2,0,1,2,-3,0
1537920279985613,-2,-1,-1,0,-4,6,-2,-3
1537920280002568,-1,-1,-3,-1,-3,-11,-5,-1
1537920280002568,0,1,0,-1,2,2,0,-2
1537920280003565,1,0,1,1,-1,-19,1,3
1537920280003565,-3,-4,-1,0,3,33,0,-1
1537920280024510,1,-1,-1,-3,-5,-25,-4,0
1537920280024510,0,1,-1,-3,-5,2,-6,-2
1537920280026504,-1,-1,1,0,-1,-21,-5,-5
1537920280026504,0,0,0,2,4,11,4,-1
1537920280039470,-1,-2,-1,-1,3,-1,0,-1
1537920280039470,0,0,-1,0,-4,4,1,1
1537920280046452,0,-1,-3,-1,-3,-9,-3,-2
1537920280046452,-1,1,-1,-3,-3,-23,-6,-1
1537920280061412,-3,-1,1,-1,-1,7,0,-4
1537920280061412,3,-5,-1,1,3,9,3,5
1537920280070388,0,0,-2,0,3,45,5,2
1537920280070388,1,-1,-1,0,-2,-13,-1,-3
1537920280085347,-1,-1,-2,-5,-5,-2,-1,-1
1537920280085347,-2,1,1,2,-1,-10,-5,-2
1537920280086347,-1,-1,0,-2,0,17,1,-1
1537920280086347,1,1,0,2,9,31,4,1
1537920280098314,-2,0,-1,-3,-11,-13,-11,-3
1537920280098314,0,-1,0,-3,-5,-1,3,0
1537920280107289,-2,-2,-1,-1,1,-25,-1,0
1537920280107289,0,0,-1,-1,-2,3,-6,-3
1537920280122249,0,-1,0,3,4,7,10,1
1537920280122249,-1,0,-1,-2,-2,7,-14,-2
1537920280124243,1,2,-1,-1,-3,0,-2,-2
1537920280124243,-2,-5,-5,-2,0,-25,-3,0
1537920280145186,-1,-2,-1,0,-4,-14,-2,-4
1537920280145186,-2,-1,-1,0,1,11,-1,-1
1537920280146184,-2,-1,0,0,1,1,3,-3
1537920280146184,1,-1,-10,-2,-1,-4,1,5
1537920280158151,0,1,6,2,1,9,-5,-3
1537920280158151,-2,-1,-1,-1,1,-16,2,-4
1537920280167128,0,0,-2,0,-1,3,-3,2
1537920280167128,-2,-1,-2,-4,-6,-5,1,-4
1537920280182087,0,-2,-1,0,6,4,3,2
1537920280182087,-1,-1,0,-2,-2,23,6,1
1537920280184083,-1,-1,-1,-3,-6,-12,1,-2
1537920280184083,0,-1,3,0,-1,3,-1,-1
1537920280205027,-1,-1,-2,1,0,0,1,1
1537920280205027,0,1,0,1,2,-14,-1,-2
1537920280206024,1,-1,0,1,2,17,-4,0
1537920280206024,0,-4,2,-2,-2,-4,2,0
1537920280218989,0,-1,-3,-5,-1,28,2,0
1537920280218989,-1,1,-2,-3,-2,-13,-7,-1
1537920280227967,-2,0,-1,0,-2,-1,-1,-1
1537920280227967,-3,1,1,0,-3,-20,1,0
1537920280241930,0,-1,-1,2,0,-10,-1,-2
1537920280241930,-1,-6,-2,-1,2,34,2,1
1537920280243924,-1,-1,-1,-4,-2,-6,-2,-3
1537920280243924,-1,-1,2,-1,1,0,-2,-2
1537920280264867,-2,-1,-2,-4,-5,-1,0,-2
1537920280264867,0,0,-1,0,-2,-25,2,0
1537920280265866,-1,-1,-2,1,4,42,2,-2
1537920280265866,-2,1,0,0,-2,-8,-4,-2
1537920280278830,-1,1,0,1,3,9,-3,-3
1537920280278830,0,1,3,-1,0,-10,-1,2
1537920280287807,0,-3,-1,0,0,-11,-4,1
1537920280287807,0,2,0,-1,-1,-5,0,-3
1537920280302767,-1,-1,-1,-1,0,-28,-5,3
1537920280302767,-4,-1,-1,-4,-2,43,8,-4
1537920280303765,2,0,0,0,2,5,-1,-2
1537920280303765,-1,0,1,1,0,2,1,0
1537920280324709,1,-2,-2,0,-4,-11,-9,-1
1537920280324709,-2,-3,-3,-2,2,-32,-12,-2
1537920280326704,-1,-1,-1,-2,-8,19,14,1
1537920280326704,-1,-1,-1,-3,-4,-3,0,1
1537920280347645,-1,-1,0,0,1,11,2,2
1537920280347645,-1,-1,-1,0,0,-12,-7,-2
1537920280348643,-1,-2,-1,-1,1,-2,-3,-2
1537920280348643,0,-1,1,-1,-2,-16,0,1
1537920280362605,1,-1,-1,0,3,38,0,2
1537920280362605,0,-1,-2,-1,-5,13,7,0
1537920280363602,0,2,0,0,1,-25,-4,-1
1537920280363602,0,1,-2,0,1,20,2,0
1537920280384547,-2,-1,-1,-1,-3,-27,2,-2
1537920280384547,-1,0,-1,0,-1,4,-1,2
1537920280386541,-1,-1,-1,-2,-8,-25,1,2
1537920280386541,-2,0,0,-1,0,6,-5,-4
1537920280398509,-2,-2,-3,-4,-1,2,-5,-3
1537920280398509,1,3,-2,0,2,-15,4,0
1537920280407486,-1,-2,1,0,-4,-27,-6,-4
1537920280407486,-1,-4,-1,0,1,9,3,0
1537920280422445,0,-1,0,4,3,9,4,4
1537920280422445,0,-2,-1,-3,-1,-8,-2,-1
1537920280423443,-2,0,-1,-2,-2,-8,-6,1
1537920280423443,0,1,0,1,4,0,5,-1
1537920280444386,-1,0,1,2,-1,-4,-1,-2
1537920280444386,0,0,-3,-2,-1,-21,-4,-1
1537920280446381,-2,0,-1,-2,-1,20,0,0
1537920280446381,-1,-5,-1,-5,-6,-24,-4,-2
1537920280458349,-1,1,-1,0,5,36,8,2
1537920280458349,-1,-1,-1,2,-7,-5,-3,-2
1537920280467325,-2,0,-2,-2,2,-6,-5,-2
1537920280467325,-2,1,-1,0,2,-4,-4,-3
1537920280482285,-1,1,0,-1,1,-9,-1,2
1537920280482285,-2,0,2,-1,3,5,0,-1
1537920280484279,1,-5,-2,-1,-3,2,-2,-2
1537920280484279,0,-1,-1,-1,-3,-3,-3,-3
1537920280505223,-2,-1,1,-1,-3,-2,-3,-2
1537920280505223,0,-1,0,1,3,-1,1,0
1537920280506221,-1,0,0,0,0,0,1,0
1537920280506221,0,0,2,1,0,-7,-5,-1
1537920280527165,0,1,-1,-4,-2,31,3,-3
1537920280527165,-1,1,-1,-1,-4,-18,-4,-3
1537920280529159,0,-2,-1,1,10,19,-1,3
1537920280529159,-2,-2,-2,-7,-17,-23,5,0
1537920280542125,-1,-4,1,-3,-1,19,-2,-2
1537920280542125,1,0,-2,-1,1,7,-2,-1
1537920280544119,-1,1,2,2,4,-9,0,1
1537920280544119,1,0,-4,0,7,-7,-5,-3
1537920280565063,-1,0,0,-1,-8,1,1,-2
1537920280565063,0,-4,-1,-3,-3,7,-3,-2
1537920280566061,-2,-1,-1,-1,-6,1,4,0
1537920280566061,0,1,-1,0,1,5,-2,-1
1537920280587005,-2,-3,-2,-3,0,0,0,-2
1537920280587005,-1,-3,-1,1,2,7,5,1
1537920280589000,-1,0,-2,-1,-1,-12,1,-1
1537920280589000,-2,-2,0,-1,0,10,-1,0
1537920280601965,0,0,-1,0,4,-26,-4,0
1537920280601965,-2,1,-1,-4,-6,1,-2,-2
1537920280603960,0,-4,-2,-4,-2,3,1,-1
1537920280603960,-2,0,0,1,-2,8,1,0
1537920280624903,-2,-1,0,1,0,-10,-2,-1
1537920280624903,0,0,0,1,2,-2,-2,-2
1537920280625901,-1,1,-3,-1,-3,1,0,-2
1537920280625901,0,1,-1,-2,4,12,-2,0
1537920280646845,-2,-4,0,-1,-5,-13,0,-2
1537920280646845,0,1,-2,-2,-2,2,-3,2
1537920280648840,-3,-1,-1,0,-2,-1,-2,-4
1537920280648840,1,-1,-2,2,4,3,0,2
1537920280662802,0,0,-3,-1,-1,14,1,-1
1537920280662802,-2,1,0,0,-2,-30,-5,-1
1537920280663800,1,0,-1,0,9,46,2,-1
1537920280663800,-3,-1,-1,-3,-6,6,-1,-2
1537920280684744,-1,2,-2,0,-2,-15,2,0
1537920280684744,0,-3,-1,2,3,-1,-4,-1
1537920280686738,-2,-3,-2,0,-1,-19,-2,-2
1537920280686738,-2,0,-2,-3,-7,-2,-3,-3
1537920280706685,-1,0,0,-1,6,-4,1,-1
1537920280706685,-1,-3,-3,-4,-9,1,-1,-1
1537920280713666,-2,0,-1,-2,-5,-16,2,0
1537920280713666,1,-2,0,2,-1,14,-4,-1
1537920280721645,-2,-1,-2,-2,-6,-9,-2,-3
1537920280721645,-1,-1,1,2,6,37,7,2
1537920280728626,1,-2,-1,1,0,1,-6,-2
1537920280728626,-2,0,-2,-1,0,-11,5,-1
1537920280744584,1,-2,-1,-2,-5,-28,-6,-1
1537920280744584,-3,-1,0,0,1,21,4,-3
1537920280746578,0,1,-1,1,-1,1,3,3
1537920280746578,0,0,1,-1,0,-16,-2,0
1537920280766525,0,-2,-1,-1,-1,-4,-1,-3
1537920280766525,0,0,-2,0,1,7,-2,-1
1537920280767522,-1,-2,-1,-1,3,-8,1,-1
1537920280767522,0,1,-1,-1,-9,-2,-4,-2
1537920280782482,0,-1,-2,-1,-3,-34,-3,0
1537920280782482,0,-2,0,-1,1,40,3,-1
1537920280789464,-1,1,-1,-1,0,-5,-2,0
1537920280789464,0,-1,0,2,8,7,-1,-1
1537920280804424,-1,0,-1,-2,-3,-7,-2,0
1537920280804424,0,-1,-1,-3,-10,-18,-4,-4
1537920280804424,0,-1,0,0,0,-1,5,-1
1537920280804424,1,-1,-1,1,2,8,-1,-1
1537920280827362,-1,-2,0,1,0,0,-4,-1
1537920280827362,0,-1,-2,-2,0,-27,-3,1
1537920280827362,-3,1,0,-4,-1,0,-7,-3
1537920280827362,0,-2,0,-2,-4,36,4,-1
1537920280841325,0,2,-2,2,3,-1,-2,-1
1537920280841325,0,-4,0,1,-2,-3,-3,0
1537920280849304,-1,-2,-1,-1,-2,-12,0,-1
1537920280849304,-2,-2,-3,-1,1,-1,4,0
1537920280864263,-1,0,-1,-2,-2,12,-1,-2
1537920280864263,-1,1,-1,0,1,-18,-2,-1
1537920280865261,-1,-1,-2,0,-5,6,3,-1
1537920280865261,-1,1,0,0,3,-27,-4,0
1537920280886205,-1,-2,-1,-1,1,48,1,-3
1537920280886205,1,-4,0,1,1,-14,3,1
1537920280887203,0,0,0,0,-1,-1,-4,-2
1537920280887203,-1,-2,0,2,-2,-5,-2,0
1537920280901165,-1,-2,0,-2,-2,3,3,-1
1537920280901165,0,1,-2,-3,-1,-4,-3,1
1537920280909144,0,1,2,-1,-1,2,-3,-1
1537920280909144,-1,-1,1,-1,-2,-16,-3,-2
1537920280924104,0,-2,0,-1,6,-2,1,0
1537920280924104,-1,2,0,1,1,-3,0,-3
1537920280925101,0,-1,-3,-1,0,8,2,0
1537920280925101,-1,-3,-3,-4,-6,-6,2,2
1537920280947043,-3,-2,-2,-1,-6,-15,-4,-2
1537920280947043,0,-1,-1,0,1,2,6,2
1537920280947043,-2,3,1,-1,1,-18,-5,-2
1537920280947043,0,-2,-1,-1,1,2,-5,-1
1537920280962004,0,-1,-1,0,4,35,3,0
1537920280962004,-2,-1,-3,-3,-2,-8,-3,-2
1537920280962004,-1,0,-1,-1,-4,-6,1,-1
1537920280962004,-1,0,1,2,4,3,1,-1
1537920280983944,-2,0,0,-2,-5,-9,-5,-1
1537920280983944,1,-1,0,0,-1,-6,1,2
1537920280984941,0,-3,-4,-4,-3,4,2,1
1537920280984941,-2,-1,-2,1,5,14,0,0
1537920281006882,-1,-1,0,1,-5,3,-1,-2
1537920281006882,-2,-3,1,3,0,1,-3,-2
1537920281006882,-2,-3,0,-2,-1,-12,-3,-4
1537920281006882,0,0,-1,-1,-4,-3,2,2
1537920281021842,0,0,-2,-1,-1,-14,-7,-2
1537920281021842,-3,0,0,0,1,4,10,1
1537920281022840,0,-1,0,-1,-4,10,-1,1
1537920281022840,0,2,1,0,0,-28,-4,-2
1537920281043784,-1,-2,1,3,3,16,0,0
1537920281043784,-2,-1,-3,-2,-2,3,-5,-2
1537920281044781,-1,-1,-2,1,0,-12,1,-2
1537920281044781,-1,-2,-2,-3,-2,6,1,0
1537920281066723,0,-1,-2,-2,-1,-19,-2,0
1537920281066723,0,1,0,1,5,-18,-3,-1
1537920281067720,-2,1,-2,-6,-14,18,-7,-4
1537920281067720,1,-2,0,1,-3,15,1,-2
1537920281080686,1,-3,1,-2,-3,-10,1,0
1537920281080686,-1,-1,-2,-1,2,13,2,1
1537920281089663,-1,-1,1,1,3,16,0,1
1537920281089663,-2,2,0,0,-1,-1,-3,-1
1537920281104623,0,-1,-1,-2,0,-3,1,0
1537920281104623,0,1,0,-1,-4,-15,-3,-4
1537920281104623,0,-1,0,-2,-1,2,0,2
1537920281104623,-1,-3,-2,-2,0,5,3,-1
1537920281126564,-2,1,1,2,5,16,3,1
1537920281126564,0,1,0,-3,-3,-4,-5,-2
1537920281127562,-2,1,-2,-2,0,-9,-2,-1
1537920281127562,0,1,2,0,1,-3,-1,-1
1537920281141524,-1,-3,-2,-3,-1,-3,1,0
1537920281141524,-2,-4,-1,-1,-2,0,-2,-4
1537920281149504,1,0,1,-1,-4,1,-3,1
1537920281149504,-1,-2,-1,0,6,-19,1,0
1537920281164462,-2,-2,-2,0,-4,39,1,0
1537920281164462,0,1,2,1,3,6,0,1
1537920281164462,-2,-1,-3,1,-2,-10,0,1
1537920281164462,-3,-1,-3,-5,-1,-4,-1,-2
1537920281186403,-1,-3,-1,-1,0,-15,-3,1
1537920281186403,-2,0,-1,-1,-5,-2,-1,0
1537920281187400,-1,-1,0,3,3,12,3,-4
1537920281187400,0,-1,-2,-2,-2,-7,0,1
1537920281201363,0,1,-3,-1,-1,-18,0,-2
1537920281201363,-1,-3,-1,0,-2,26,-3,1
1537920281209341,-2,0,1,0,3,-5,1,-2
1537920281209341,0,-1,-2,1,-2,11,-1,-3
1537920281224301,-1,1,0,-1,-3,-26,-3,-1
1537920281224301,0,-1,0,-4,0,2,-2,-2
1537920281225299,1,-1,0,-2,-4,-3,0,0
1537920281225299,-1,-5,-4,-8,-11,-11,0,-2
1537920281246243,0,0,1,3,0,21,0,2
1537920281246243,-1,0,0,5,4,-4,-5,-2
1537920281247240,0,2,-2,1,4,13,-1,0
1537920281247240,1,-2,-1,0,-2,11,2,-2
1537920281261203,-2,-2,-2,1,0,-13,0,-1
1537920281261203,-2,-1,1,-3,-2,0,1,-3
1537920281269181,0,-3,0,-3,-1,-4,-1,-1
1537920281269181,0,2,0,0,1,0,-3,-1
1537920281284141,-1,0,-1,-4,-4,-10,-1,-2
1537920281284141,0,-1,-1,2,2,4,-3,0
1537920281285139,-2,-1,0,0,3,46,2,-2
1537920281285139,-2,0,0,-1,0,-3,0,-1
1537920281307080,1,-4,1,0,6,-12,-3,-5
1537920281307080,-1,-1,-2,-4,-13,-9,0,-1
1537920281307080,-1,-1,-1,-1,2,-23,-2,-1
1537920281307080,-1,0,-1,0,-2,-20,-2,-1
1537920281321043,0,-2,-1,-1,0,31,-2,-1
1537920281321043,-1,1,-3,-3,0,-11,-1,0
1537920281329023,0,-2,-2,-1,0,-4,0,0
1537920281329023,0,0,0,0,0,2,0,0
1537920281343984,1,3,-1,0,-2,-13,-1,-2
1537920281343984,1,-3,-1,-1,1,4,2,3
1537920281344981,0,-2,1,0,0,-9,-2,0
1537920281344981,0,0,-2,2,1,5,-3,0
1537920281366923,-2,-1,-2,-6,-5,8,5,3
1537920281366923,-1,-1,-2,-3,3,15,0,0
1537920281367919,0,0,-1,-3,-7,-15,-4,-1
1537920281367919,0,-5,0,1,3,7,0,-1
1537920281389859,-2,0,3,4,7,-1,0,-1
1537920281389859,0,1,-2,-5,-4,-11,-1,0
1537920281390857,1,-2,-3,-6,-6,-6,-1,0
1537920281390857,-1,-2,0,1,1,8,-2,-1
1537920281403822,-3,-4,-1,2,-4,-8,-2,-1
1537920281403822,-1,-1,-1,0,3,-2,0,-2
1537920281404819,-1,0,1,1,0,-24,-3,0
1537920281404819,-1,0,-1,-1,2,36,-1,-3
1537920281426760,0,-1,-1,-3,2,-5,6,2
1537920281426760,-1,0,1,0,-4,-12,-3,0
1537920281427758,-2,0,-1,-1,1,-9,-3,-2
1537920281427758,-2,0,0,-1,0,3,-4,0
1537920281449699,-1,2,-1,1,3,1,-1,0
1537920281449699,1,1,-1,-1,-1,-4,1,-2
1537920281450697,-1,-1,-2,-1,-5,5,0,-1
1537920281450697,-1,-2,0,0,1,-18,1,0
1537920281463662,-1,1,-1,-2,-1,4,-4,-2
1537920281463662,0,0,0,-1,-8,5,1,1
1537920281464659,0,1,1,3,2,-6,0,1
1537920281464659,-1,-3,-1,1,4,22,2,0
1537920281486600,1,0,0,0,-4,1,0,0
1537920281486600,-2,-1,0,-3,0,1,0,-3
1537920281487598,-3,-3,-1,0,0,16,-1,-2
1537920281487598,0,1,-1,-1,-1,-15,0,0
1537920281509539,1,-1,0,2,0,-4,-1,-2
1537920281509539,-2,0,0,-1,0,1,1,0
1537920281510537,-2,-2,-1,-1,5,3,1,-2
1537920281510537,0,-1,0,-2,-2,-9,-1,1
1537920281523503,0,1,-2,-4,-1,-1,-2,-1
1537920281523503,1,-1,0,-1,-5,-11,0,-1
1537920281531482,0,-4,-1,-1,3,24,1,-1
1537920281531482,-1,0,-2,-2,-1,14,2,-3
1537920281546442,-1,-1,0,0,-4,-4,-2,0
1537920281546442,2,2,1,4,3,19,4,2
1537920281547440,0,-4,-5,-6,-8,-18,-4,0
1537920281547440,-3,0,-1,-3,-2,1,-4,-6
1537920281570378,1,0,0,-1,0,-7,3,5
1537920281570378,-2,-2,-3,1,3,1,-4,-3
1537920281570378,-1,1,1,4,3,-6,-1,0
1537920281570378,0,0,-1,-1,-4,-1,-1,-1
1537920281584340,-2,-1,-2,-4,-1,-6,0,-4
1537920281584340,-2,-1,0,2,2,-4,-3,-1
1537920281585337,0,-1,-1,0,-3,5,3,-1
1537920281585337,0,1,-1,1,0,-13,1,0
1537920281606280,1,-3,0,0,-1,6,-4,0
1537920281606280,-1,-2,-1,-1,1,-11,0,-2
1537920281614259,0,1,-2,-4,-3,1,2,0
1537920281614259,-1,-1,-3,-4,-7,-2,-4,-1
1537920281630216,0,1,-2,0,1,-5,-2,-1
1537920281630216,-1,-3,-1,0,-2,-8,-2,0
1537920281630216,-1,-2,0,-4,0,-6,-1,0
1537920281630216,-3,0,-1,0,1,0,0,-1
1537920281644179,0,1,-1,0,-2,-31,-2,0
1537920281644179,2,-1,0,2,6,54,3,-2
1537920281645176,-1,0,0,0,-3,7,7,1
1537920281645176,2,-3,0,-3,-3,-8,1,2
1537920281667118,-1,-2,-1,0,-2,7,-1,-1
1537920281667118,-1,1,-1,-2,-4,-21,-7,-2
1537920281667118,-2,-1,0,0,2,25,3,1
1537920281667118,-1,0,0,-1,-1,-9,1,-1
1537920281690057,0,-2,0,-1,-2,3,-1,-2
1537920281690057,-2,-2,-1,-2,-3,-8,-1,-2
1537920281691054,-3,0,-1,0,0,-16,-3,-2
1537920281691054,-1,-1,-1,3,5,12,1,0
1537920281704020,-3,1,-1,2,-4,6,0,-2
1537920281704020,-1,-2,-2,-1,1,-4,1,1
1537920281705017,-1,-2,-1,-2,-3,14,-2,0
1537920281705017,-1,1,0,2,2,-2,-2,-2
1537920281726959,-1,-2,-1,-3,-1,-1,-1,-2
1537920281726959,-1,0,0,-1,1,-4,1,1
