timestamp,emg1,emg2,emg3,emg4,emg5,emg6,emg7,emg8
1537917659224133,-1,0,0,3,4,1,-6,2
1537917659224133,-1,-1,-1,1,6,2,5,-4
1537917659225130,-3,-2,-2,-3,-6,-2,1,-2
1537917659225130,-2,-3,-2,-2,1,0,-1,-1
1537917659233109,-5,-2,0,1,0,5,2,-6
1537917659233109,-3,-1,0,-1,-5,-13,-1,-1
1537917659234106,3,0,-1,-1,4,2,-2,0
1537917659234106,-1,1,1,3,5,2,-1,-1
1537917659236101,-2,-1,-2,0,1,9,1,-3
1537917659236101,-1,-1,0,0,7,-9,-6,0
1537917659247071,-1,-2,-4,-8,-26,-9,2,0
1537917659247071,-2,-1,-2,-2,-3,-3,-2,-3
1537917659251061,0,1,1,0,6,5,0,-1
1537917659251061,0,-2,-1,-2,-12,-6,-2,-2
1537917659267018,0,1,0,1,13,5,-1,0
1537917659267018,1,-1,0,-2,-3,5,-1,0
1537917659275994,-1,-1,0,-1,-4,-7,0,0
1537917659275994,0,1,0,4,13,3,1,-1
1537917659304916,0,-2,-2,-4,-25,-1,-1,-1
1537917659304916,-2,-1,-2,-4,-3,13,0,0
1537917659305914,-1,-1,-1,-5,-3,-20,-2,0
1537917659305914,-2,-1,-2,-1,9,14,-1,-2
1537917659343812,0,1,0,-1,3,-3,2,-1
1537917659343812,-1,0,1,3,9,-5,-5,-2
1537917659343812,1,-1,0,3,4,2,0,-1
1537917659343812,-2,-2,-1,0,1,-14,-2,0
1537917659344810,0,-1,-2,-4,-4,-14,-1,0
1537917659344810,-1,-1,-3,-2,-5,42,2,-2
1537917659349797,-1,0,1,1,3,-2,0,1
1537917659349797,-1,-1,2,2,9,7,-5,-2
1537917659355781,1,1,-3,-2,-8,0,9,2
1537917659355781,-1,-1,-1,-2,-10,-30,-1,0
1537917659364757,-1,-2,0,-1,2,4,-2,-1
1537917659364757,0,1,-3,-3,-5,-5,-2,-1
1537917659370741,-1,-1,-1,0,6,0,-5,0
1537917659370741,-1,-2,-1,2,5,-6,0,1
1537917659387695,0,-1,-1,0,-7,-2,-1,-1
1537917659387695,0,-1,-4,-7,-11,7,-1,-1
1537917659393679,-1,-1,2,3,2,6,-4,-2
1537917659393679,-1,0,0,-2,-3,-1,-1,1
1537917659416618,-1,-1,-2,-1,4,-6,-3,-2
1537917659416618,-1,-2,1,0,4,-1,1,-1
1537917659417615,0,-1,-1,-1,-3,4,-1,-2
1537917659417615,-1,-1,-1,-1,-1,-4,-1,-2
1537917659431578,-2,-2,1,2,3,-3,-1,-2
1537917659431578,-3,0,-2,0,1,-7,1,0
1537917659432576,-1,-3,-1,1,-5,8,0,-1
1537917659432576,-2,0,-3,-1,4,-5,0,-4
1537917659453519,0,1,-1,1,10,10,-1,-1
1537917659453519,0,-1,-1,0,-18,-14,-1,0
1537917659454517,-1,-2,-2,-5,-7,-4,-3,-2
1537917659454517,0,0,-2,-4,-6,-4,-1,-1
1537917659476459,-1,-1,-2,-4,-2,6,3,-1
1537917659476459,-2,-1,0,4,24,6,-15,-4
1537917659477456,-2,-1,1,5,8,8,-1,3
1537917659477456,0,-1,3,1,5,31,-14,-4
1537917659491418,-1,0,0,3,12,-101,-40,-8
1537917659491418,-2,-2,2,11,44,103,55,-4
1537917659492415,0,-1,2,6,-8,-49,61,30
1537917659492415,-20,-9,-11,-20,-11,-25,-73,-27
1537917659514356,20,-1,-7,-33,-29,-26,-87,-3
1537917659514356,3,3,4,10,61,30,77,-1
1537917659514356,8,2,6,15,-5,32,13,26
1537917659514356,-16,-5,-3,9,118,110,6,5
1537917659536298,10,2,2,8,-57,-64,-50,34
1537917659536298,-11,-3,-10,-30,-46,-62,-128,-45
1537917659537295,7,3,5,3,37,122,16,-10
1537917659537295,14,0,-8,-39,-128,-96,127,73
1537917659551258,-2,13,11,30,121,-6,31,30
1537917659551258,-2,2,3,9,-37,-88,-111,-16
1537917659558239,-23,-7,0,-8,1,-19,31,-29
1537917659558239,34,3,-1,-18,-103,-51,16,2
1537917659574197,-23,5,2,2,-28,107,21,-10
1537917659574197,4,-6,-3,3,59,-5,49,-15
1537917659581178,-14,-10,7,15,84,-6,-56,-49
1537917659581178,11,15,24,51,120,117,-14,30
1537917659596138,4,-15,6,4,-47,79,127,-1
1537917659596138,-7,3,9,24,56,57,-88,5
1537917659597136,-4,-2,-3,14,-78,-111,60,18
1537917659597136,9,-14,-42,-81,-86,-7,-40,-37
1537917659611098,-20,-1,14,75,127,57,-25,-24
1537917659611098,-8,-12,-34,-86,-128,-57,-4,30
1537917659618079,-17,4,1,7,35,-5,51,-13
1537917659618079,-29,7,12,25,38,7,-68,-33
1537917659634037,28,5,-16,-19,-25,-66,19,-15
1537917659634037,-45,-11,14,47,124,53,7,22
1537917659635034,22,14,7,-7,4,-6,17,-19
1537917659635034,9,-6,-8,-36,-105,-2,-19,4
1537917659655978,-26,-1,16,29,64,72,-9,-12
1537917659655978,44,1,-8,-22,-86,-63,-10,-4
1537917659656976,-5,-9,-8,-1,68,127,10,22
1537917659656976,-19,7,16,31,63,-88,-87,-9
1537917659670938,3,-23,-16,-30,-92,-62,50,5
1537917659670938,-2,21,13,20,33,-22,3,2
1537917659677920,25,-5,-21,-43,-94,41,-44,-15
1537917659677920,-6,-9,-5,-8,21,3,-82,-4
1537917659693877,25,9,-9,-29,-67,58,57,12
1537917659693877,-4,-5,-6,-6,10,-31,24,-9
1537917659694874,-6,5,2,13,100,5,-95,7
1537917659694874,-19,3,4,17,61,-82,-48,-14
1537917659716815,11,3,3,7,80,58,51,-3
1537917659716815,-5,-3,-2,-14,-124,6,-56,-5
1537917659716815,21,10,24,84,75,-57,69,27
1537917659716815,-21,-20,-27,-41,-52,-7,67,3
1537917659730778,-5,3,-1,-23,-13,-110,-128,-33
1537917659730778,28,2,2,-1,-22,83,62,12
1537917659738757,-14,-4,4,13,70,-26,-45,-14
1537917659738757,6,7,14,31,-7,53,127,27
1537917659755712,-1,-2,-11,-25,-105,-52,-37,22
1537917659755712,-2,-1,-6,6,110,-39,-4,-19
1537917659755712,-19,-9,-9,-41,-77,98,31,-10
1537917659755712,-25,4,5,15,31,-32,41,-1
1537917659776655,29,1,0,3,1,80,-73,-8
1537917659776655,8,6,12,30,125,-10,34,30
1537917659777653,-8,-9,-19,-61,-128,-22,-105,-3
1537917659777653,28,11,5,9,41,-31,72,39
1537917659790618,-31,1,9,17,37,70,-15,-5
1537917659790618,-6,-10,7,26,-18,104,-3,-43
1537917659798597,33,3,-11,-21,-65,21,-17,24
1537917659798597,3,-1,2,11,49,46,-65,-27
1537917659813557,-18,-1,-6,-4,22,65,72,-2
1537917659813557,-1,3,5,14,23,127,-34,-1
1537917659814555,-25,-8,-14,-46,-77,-128,-37,-5
1537917659814555,16,11,17,53,68,-56,-53,-22
1537917659836496,-18,-10,-10,-21,-27,70,104,12
1537917659836496,24,-2,-7,-51,-13,-128,-44,24
1537917659837493,-9,-4,7,18,21,-37,22,1
1537917659837493,14,2,1,-9,-20,-12,80,-10
1537917659850459,-14,0,3,27,88,-100,-38,-9
1537917659850459,-1,-5,-4,-8,-100,-34,44,5
1537917659858437,-5,5,-1,-11,46,40,-50,-3
1537917659858437,-9,-2,4,14,38,2,11,-29
1537917659874395,-7,-4,4,3,12,-70,9,16
1537917659874395,5,0,-9,-1,-67,-25,9,8
1537917659874395,25,10,9,5,19,-1,15,-1
1537917659874395,-13,-20,-20,-30,-74,122,-50,-18
1537917659896336,4,-1,-6,-11,-41,-119,22,9
1537917659896336,-15,3,7,9,56,-27,11,-8
1537917659897334,-5,-6,4,15,73,-23,-22,-26
1537917659897334,1,-11,-10,-25,-89,-77,40,32
1537917659911296,12,-1,-12,-26,-93,-40,-74,0
1537917659911296,-17,3,4,6,13,34,56,0
1537917659918277,-15,0,5,30,58,51,55,-24
1537917659918277,15,0,-4,-9,47,61,14,6
1537917659934234,22,-5,-10,-21,-46,47,-79,-2
1537917659934234,-6,4,10,28,33,53,17,21
1537917659934234,-3,4,5,19,35,63,42,3
1537917659934234,18,-7,-10,-16,-41,-27,-101,4
1537917659956176,-2,4,8,20,29,30,121,-7
1537917659956176,7,-3,-10,-37,-53,-14,-26,-3
1537917659957173,6,-2,-4,-7,-14,53,-3,10
1537917659957173,-11,5,13,35,26,53,18,-9
1537917659971136,-15,-5,-1,2,47,6,-34,-11
1537917659971136,-4,-2,-7,-10,-9,-27,-2,3
1537917659978117,10,-3,-8,-17,-55,-53,-16,2
1537917659978117,-6,2,6,14,38,-9,10,-7
1537917659994074,15,2,2,-2,-11,-17,-5,0
1537917659994074,-3,-3,0,6,12,43,-12,-1
1537917659995073,2,-1,-9,-13,-29,-31,-32,4
1537917659995073,-3,5,2,3,1,19,32,8
1537917660016016,13,2,3,4,25,14,-25,-1
1537917660016016,-2,-4,-5,-6,-19,-14,16,-2
1537917660017013,-1,-1,0,1,1,-17,-15,6
1537917660017013,3,-1,-2,-4,-8,-14,-11,-3
1537917660038954,-12,-1,-2,-4,-6,-2,0,-2
1537917660038954,-8,-1,1,1,12,-9,6,-4
1537917660039952,12,0,-1,-1,-17,-18,-9,7
1537917660039952,-1,0,1,3,3,10,-4,1
1537917660053915,-20,-7,-4,-13,-6,-3,-6,-11
1537917660053915,1,2,0,-3,2,12,-5,7
1537917660054912,8,2,-1,-1,-2,-7,-13,-3
1537917660054912,-5,-2,1,-1,-9,-4,25,6
1537917660076853,-23,0,4,10,14,12,-17,7
1537917660076853,10,-5,-6,-9,-9,-10,17,-7
1537917660076853,-8,-1,-2,-2,-4,-6,-4,0
1537917660076853,2,-14,-4,-4,1,-10,-5,-44
1537917660098794,-5,-8,-1,-2,-4,1,-6,33
1537917660098794,-2,8,3,5,10,17,17,0
1537917660099792,14,6,1,-4,-9,-6,-5,16
1537917660099792,5,8,-1,-8,-7,-3,-2,8
1537917660113754,-4,-7,-2,0,6,5,-4,-8
1537917660113754,-3,-2,-2,0,-7,-3,-1,2
1537917660114752,-1,-8,-1,2,-2,-7,0,3
1537917660114752,-3,4,-1,0,-2,0,-8,7
1537917660138688,8,4,1,-3,-4,-4,4,-11
1537917660138688,1,-4,0,0,3,-6,-8,-4
1537917660138688,-4,3,0,-4,-7,-3,4,13
1537917660138688,-4,-3,2,4,0,1,-8,4
1537917660158634,6,6,0,-3,-1,1,1,-5
1537917660158634,0,-3,1,2,0,-1,-5,-3
1537917660159632,-7,-1,-2,1,-2,-2,-2,-4
1537917660159632,-4,3,-1,-1,-2,-1,-2,2
1537917660173594,3,-2,-2,-3,-3,0,-2,-2
1537917660173594,3,1,-1,1,0,-1,-3,1
1537917660174592,-9,-5,-3,-2,-3,-6,3,-7
1537917660174592,0,-1,0,1,4,0,-6,5
1537917660196533,0,1,-1,0,-2,0,0,-10
1537917660196533,-7,-5,-2,0,-2,-1,-1,-1
1537917660197530,-3,-1,-1,-1,0,-1,2,-2
1537917660197530,-3,-3,-4,-2,-2,0,-5,-6
1537917660218474,0,0,-1,-1,-1,3,-3,-3
1537917660218474,-1,0,-1,0,0,2,0,0
1537917660219472,-3,-2,0,-2,-1,1,-3,-4
1537917660219472,4,1,0,0,-1,1,-2,4
1537917660233434,-3,0,0,0,0,0,1,-4
1537917660233434,-4,-4,-1,-1,2,1,-1,3
1537917660234432,-8,-4,0,-2,-1,-1,-1,-8
1537917660234432,-8,4,1,-2,1,1,-1,3
1537917660256374,10,4,0,0,1,0,1,1
1537917660256374,0,-1,-1,-2,0,-2,-4,-3
1537917660257371,-5,-1,-2,1,-1,-1,-1,-3
1537917660257371,-3,-2,-2,-1,-5,-1,-2,-1
1537917660279313,-1,0,-1,-1,-2,-1,-2,0
1537917660279313,6,3,2,3,-1,-1,-1,2
1537917660279313,-10,-3,-1,-1,-3,-3,-1,-2
1537917660279313,25,13,-2,-1,-2,-1,-1,3
1537917660294274,1,3,4,1,2,-2,1,1
1537917660294274,-10,13,-5,-5,-3,-4,-1,-4
1537917660294274,-1,-10,1,3,3,3,3,3
1537917660294274,-14,-6,1,-3,-3,-3,-4,-5
1537917660327184,9,1,-1,0,-1,-2,-2,-2
1537917660327184,-4,-5,-1,1,-1,-1,-1,-1
1537917660329179,0,8,-4,-2,-4,-3,-3,-1
1537917660329179,5,-8,-2,-4,-3,-3,0,4
1537917660331173,-10,-7,-1,0,-1,-1,-2,-4
1537917660331173,-2,3,1,-1,2,-1,0,-2
1537917660340149,-3,-2,-3,-2,-3,-4,-3,-7
1537917660340149,-2,-37,-3,0,-1,-1,-2,-1
1537917660356107,-1,6,-3,-4,0,1,0,1
1537917660356107,6,7,0,-1,-2,-3,-1,1
1537917660357104,3,-2,-2,-3,-3,0,-2,-2
1537917660357104,3,1,-1,1,0,-1,-3,1
1537917660358101,-9,-5,-3,-2,-3,-6,3,-7
1537917660358101,0,-1,0,1,4,0,-6,5
1537917660363088,0,1,-1,0,-2,0,0,-10
1537917660363088,-7,-5,-2,0,-2,-1,-1,-1
1537917660380043,-1,6,-3,-4,0,1,0,1
1537917660380043,6,7,0,-1,-2,-3,-1,1
1537917660381040,11,-5,-2,-2,-1,-2,0,5
1537917660381040,-10,-12,-4,-1,-2,-1,-2,-4
1537917660386027,-1,54,6,0,-1,0,0,1
1537917660386027,-7,-10,0,-1,-2,-2,-1,-1
1537917660387024,-1,-4,-2,-2,-1,0,-2,-7
1537917660387024,-6,-4,0,-1,-1,-3,-3,-3
1537917660391013,13,-12,-5,0,-1,0,1,1
1537917660391013,-12,3,-1,-4,-3,-2,0,1
1537917660397995,12,6,-2,1,0,1,2,2
1537917660397995,2,7,1,2,4,2,3,-1
1537917660413952,-5,-16,0,1,1,1,1,-1
1537917660413952,8,9,-2,1,1,-1,-2,0
1537917660414950,0,-3,0,-3,-1,-2,3,2
1537917660414950,-3,6,0,0,0,1,0,-1
1537917660427915,-5,-6,-4,-3,-1,-2,-2,-5
1537917660427915,2,-8,1,2,3,2,1,-2
1537917660435893,-1,-1,1,1,0,0,-2,0
1537917660435893,-16,7,1,1,1,0,0,-3
1537917660450854,18,-1,1,5,16,5,-7,5
1537917660450854,4,-7,3,12,45,22,9,19
1537917660457835,-8,-1,2,10,54,13,-3,-20
1537917660457835,0,5,1,2,-18,31,-14,8
1537917660473792,-11,-11,-1,6,22,-81,-10,-21
1537917660473792,-2,-12,-8,0,29,81,0,26
1537917660474790,-26,1,-12,-44,-107,-65,12,41
1537917660474790,27,8,6,19,127,70,-24,-16
1537917660488752,2,-8,-11,-42,-115,-81,67,15
1537917660488752,-2,-7,-8,-18,26,75,-26,-33
1537917660495735,-11,-2,-9,-23,-60,-126,5,-75
1537917660495735,-15,-2,-10,-21,31,69,-11,13
1537917660510695,17,9,14,10,54,44,21,79
1537917660510695,-14,-9,-1,-14,-79,-115,-27,5
1537917660518673,2,6,19,53,127,106,-40,-46
1537917660518673,8,10,16,52,-69,-28,34,18
1537917660533632,-7,-20,-24,-29,-50,7,-42,-38
1537917660533632,5,1,5,-2,55,-10,3,30
1537917660534630,1,-4,6,47,76,-54,-19,26
1537917660534630,-23,-19,-35,-69,-45,23,3,-40
1537917660548592,-16,-6,10,-4,-26,114,-12,-32
1537917660548592,-3,16,12,10,-15,-55,17,-23
1537917660555573,43,0,-8,-4,-75,-79,-19,-29
1537917660555573,-8,8,11,28,114,38,11,-11
1537917660570533,-4,-8,-15,-35,-62,-80,2,-11
1537917660570533,-8,-12,-16,-39,-44,-73,7,-8
1537917660578512,-3,5,1,-12,-16,127,33,-13
1537917660578512,9,10,17,42,40,-60,-16,-4
1537917660593472,1,-3,-11,-25,-17,-41,15,-15
1537917660593472,6,5,13,43,127,90,-12,-32
1537917660601451,-9,4,6,19,63,-94,-10,48
1537917660601451,7,-11,-18,-56,-128,-96,8,-7
1537917660608432,3,7,19,51,127,-25,-22,-1
1537917660608432,9,3,8,39,58,-20,-10,34
1537917660615413,-16,-18,-34,-86,-128,124,23,-7
1537917660615413,9,4,10,5,47,-63,9,35
1537917660630373,-4,4,8,36,90,43,-23,-14
1537917660630373,-7,-5,-13,-16,-41,78,34,-30
1537917660638353,14,-4,-5,-12,-56,-64,-13,36
1537917660638353,-5,2,3,9,59,56,5,19
1537917660653313,13,2,0,8,11,69,-6,17
1537917660653313,3,-1,5,18,43,88,-6,7
1537917660661292,-24,-4,-1,-10,-33,-20,2,1
1537917660661292,13,-8,-11,-15,-26,73,0,4
1537917660668274,-24,-7,1,13,84,-34,-27,-41
1537917660668274,0,4,-4,-19,-71,33,-4,4
1537917660676252,10,2,-4,-16,-39,51,36,2
1537917660676252,-16,-11,-6,-24,-52,-33,-12,-12
1537917660691212,9,4,15,35,92,118,10,8
1537917660691212,4,1,-3,-2,-60,-2,0,-15
1537917660698194,-1,-1,-3,-10,-37,-66,-20,12
1537917660698194,5,0,-3,-1,-14,72,4,26
1537917660715148,5,-2,-3,-2,-93,-111,28,35
1537917660715148,6,-1,-6,-10,-39,25,-4,5
1537917660722130,-6,3,11,27,70,14,2,6
1537917660722130,14,4,6,26,30,-45,12,-13
1537917660736092,4,4,-1,-2,56,52,11,9
1537917660736092,-23,-15,-22,-54,-80,-56,-15,-49
1537917660737089,2,-1,2,1,56,83,6,17
1537917660737089,-4,4,8,6,31,18,18,29
1537917660751051,1,0,-3,1,-75,-72,-9,-2
1537917660751051,8,2,3,14,57,48,11,11
1537917660758032,-4,-1,5,9,66,-85,-10,4
1537917660758032,8,4,7,18,60,52,-36,-24
1537917660772992,-17,-14,-19,-39,-69,11,9,13
1537917660772992,-3,-3,4,-4,15,-17,2,17
1537917660780971,11,9,3,24,87,71,-13,-1
1537917660780971,-2,-7,-6,0,-18,-25,-3,7
1537917660795931,-11,-3,-1,0,-1,41,-12,-32
1537917660795931,12,2,1,11,12,-128,-11,6
1537917660796928,7,2,0,7,38,22,-10,-14
1537917660796928,-10,-1,-5,-19,-124,-71,13,-26
1537917660811888,12,3,10,30,84,77,5,26
1537917660811888,1,-1,-2,-11,-48,-51,13,36
1537917660818869,-4,0,1,-7,-37,-37,7,-7
1537917660818869,-6,0,1,4,34,-61,-13,1
1537917660832833,-4,-6,-11,-20,-39,-31,-23,-36
1537917660832833,-1,2,9,20,48,57,11,-4
1537917660841808,-3,-2,-1,6,-18,-5,2,-2
1537917660841808,-2,-4,-7,-15,39,-27,-3,-5
1537917660856769,-15,-1,-1,-17,-43,32,-12,-30
1537917660856769,6,-2,-2,0,-5,22,12,1
1537917660856769,-9,-2,1,1,10,56,-7,-9
1537917660856769,-1,4,5,17,-1,-15,11,-9
1537917660870732,-5,1,2,7,15,-56,-4,0
1537917660870732,-8,-5,-4,-5,5,79,-1,-10
1537917660878710,9,3,4,14,7,-31,-3,-33
1537917660878710,1,0,-2,-10,-4,16,-2,-16
1537917660893671,26,0,-9,-13,-25,-24,1,66
1537917660893671,-8,-3,-2,-4,-7,-11,0,-2
1537917660901650,-1,-2,-4,-8,-5,10,6,10
1537917660901650,0,0,-2,-11,-21,-4,-17,-12
1537917660916609,-11,-5,0,-5,-10,-40,2,-10
1537917660916609,0,4,5,18,23,4,2,1
1537917660917612,-7,-5,-4,-8,5,0,5,13
1537917660917612,18,2,-2,-7,-22,-15,-1,3
1537917660930573,-7,-2,1,3,12,8,0,-3
1537917660930573,-1,0,0,6,-6,-35,-7,-8
1537917660938550,3,-1,0,3,1,-1,3,12
1537917660938550,-10,-2,1,1,-2,15,-4,-6
1537917660953511,-1,3,0,10,0,20,8,2
1537917660953511,6,-2,-1,-1,14,-23,-6,-1
1537917660961489,-5,-2,-6,-11,-20,2,-1,2
1537917660961489,-7,-1,-2,-4,-2,-1,-2,6
1537917660976449,0,3,3,2,-1,7,1,-7
1537917660976449,-2,-1,-1,-6,-12,-24,1,-5
1537917660977446,1,1,1,4,6,0,3,-3
1537917660977446,-3,-1,0,3,2,2,5,3
1537917660990411,-1,-1,-3,-2,-9,2,4,-12
1537917660990411,0,-2,-2,-6,-13,-8,-3,-1
1537917660999388,1,-1,2,2,3,8,-1,-1
1537917660999388,-5,-3,0,1,2,1,5,5
1537917661013350,2,0,-1,-3,-3,11,4,3
1537917661013350,-3,1,0,1,0,-14,-7,-11
1537917661021329,6,-1,-3,1,-2,0,-12,-1
1537917661021329,-3,3,-4,-5,-8,-5,-9,-11
1537917661036289,-2,-14,-7,-3,2,1,-8,-9
1537917661036289,-12,4,4,2,1,-4,-1,4
1537917661037286,17,8,-2,-2,0,0,0,22
1537917661037286,-10,-17,0,1,0,4,2,37
1537917661051249,-23,-4,4,1,-3,1,-3,12
1537917661051249,33,6,-4,-3,-1,-5,6,-1
1537917661059228,-1,-28,-6,0,-2,-1,2,-11
1537917661059228,-12,9,-1,-2,-2,0,0,-16
1537917661073190,12,14,-1,0,0,1,3,-8
1537917661073190,-9,33,3,-2,-6,-7,0,-2
1537917661081169,12,-4,2,-1,-1,-2,-1,-18
1537917661081169,-4,9,-3,-3,-3,0,-1,-19
1537917661096128,-8,-24,0,1,2,5,7,20
1537917661096128,24,-11,-3,-3,-3,-3,-1,-4
1537917661097126,-2,22,0,3,0,-1,-5,-4
1537917661097126,-12,-8,-5,-2,-1,0,6,-13
1537917661111088,-5,-10,-1,-1,-2,0,-8,-8
1537917661111088,12,21,3,-3,2,-3,4,1
1537917661119068,-25,-7,-3,-3,-1,-1,-3,-1
1537917661119068,16,-18,3,-1,-3,-1,-4,1
1537917661133031,-19,17,0,0,1,0,4,3
1537917661133031,-20,-8,-6,-4,-3,-1,4,1
1537917661142006,-8,-15,1,3,3,2,10,-1
1537917661142006,-2,7,1,1,-1,-1,-14,-21
1537917661155969,29,4,-7,-3,0,1,-2,-2
1537917661155969,-34,1,2,3,2,0,-5,-5
1537917661156967,-12,10,1,-4,-3,-3,4,0
1537917661156967,11,-10,-2,0,0,0,0,12
1537917661170929,9,5,2,2,0,-1,-4,-7
1537917661170929,-7,-3,-4,-2,-1,-2,-2,-13
1537917661178907,4,-1,-1,-3,0,2,-1,1
1537917661178907,3,4,0,-2,1,0,0,6
1537917661192870,-3,15,2,-2,-1,-2,-8,-11
1537917661192870,1,-10,-2,-1,-2,1,1,5
1537917661201846,-16,-14,2,1,2,3,11,10
1537917661201846,25,3,0,-2,-1,-2,0,12
1537917661224784,-3,-3,-3,-3,-2,-1,1,-1
1537917661224784,1,-17,-3,0,0,-1,-1,2
1537917661225782,4,6,-1,1,0,-1,-1,0
1537917661225782,-12,7,0,0,0,-1,-2,-4
1537917661237749,2,-4,1,-2,0,-1,2,2
1537917661237749,5,-8,-1,-2,0,-1,-4,2
1537917661246726,6,4,-1,-2,-2,0,-4,-3
1537917661246726,-5,-3,-3,0,-1,0,3,3
1537917661261685,-2,-6,-1,2,0,0,-1,-3
1537917661261685,2,-4,0,-1,-1,0,-1,2
1537917661263680,-3,0,0,0,-1,-3,-3,-5
1537917661263680,-1,-2,-1,0,-1,-1,0,5
1537917661284624,2,-1,1,-2,-1,1,0,-1
1537917661284624,-4,-1,-1,0,-1,-1,-3,-4
1537917661285622,2,-1,-1,-2,-1,-1,0,2
1537917661285622,-2,0,1,4,12,11,0,-3
1537917661298587,0,5,3,12,45,32,5,-1
1537917661298587,-1,-2,10,32,95,-40,-19,1
1537917661307564,19,4,-2,-9,-5,84,32,14
1537917661307564,-4,-1,4,13,9,2,-16,-11
1537917661321526,-18,-5,2,12,-32,52,1,-10
1537917661321526,22,-7,-15,-17,-58,8,-11,36
1537917661328508,-9,-3,-7,-22,46,108,-12,-7
1537917661328508,-7,-6,-23,-59,-120,-116,40,5
1537917661344466,6,-8,-11,-44,85,114,-35,-14
1537917661344466,3,-1,-7,-36,-128,-109,8,-13
1537917661346461,-9,5,17,25,105,23,-16,5
1537917661346461,13,13,20,39,82,48,19,24
1537917661358429,-6,-1,8,37,100,43,0,-15
1537917661358429,8,4,11,40,59,56,10,20
1537917661367405,-14,-10,-11,-5,-12,-56,-13,-29
1537917661367405,5,-5,8,21,62,-114,-29,-6
1537917661381366,-4,-13,-18,-36,-128,-71,37,22
1537917661381366,4,-5,0,1,118,14,1,-17
1537917661388347,10,22,-4,-61,-128,62,3,8
1537917661388347,-27,4,5,-18,45,-84,-10,-21
1537917661404305,-2,-1,-4,-5,-5,93,-4,10
1537917661404305,-9,-14,-1,19,-14,-83,-27,-50
1537917661406299,1,-15,-13,-1,-74,-128,27,68
1537917661406299,17,6,2,13,35,127,4,46
1537917661418267,8,0,5,18,-9,-112,2,4
1537917661418267,-22,-6,-9,-17,-25,72,-11,-40
1537917661427244,4,6,4,-3,-38,63,25,-9
1537917661427244,-10,1,1,7,24,101,3,-8
1537917661441206,5,-3,-7,-10,-31,-128,-17,14
1537917661441206,-14,-5,-8,-33,-35,44,6,21
1537917661448188,-9,4,23,67,123,21,-42,-61
1537917661448188,12,-5,-17,-41,-128,127,37,36
1537917661464145,-9,-2,-7,-28,-38,-12,7,-18
1537917661464145,9,11,10,16,97,35,-2,6
1537917661466141,15,-2,0,13,42,-101,-12,-2
1537917661466141,-10,-4,3,10,73,-26,-47,-39
1537917661487084,0,2,6,25,55,66,17,26
1537917661487084,-7,0,-14,-51,-128,-74,27,-6
1537917661489079,-1,-5,-2,17,127,83,-6,13
1537917661489079,4,-2,2,-2,2,17,-20,-57
1537917661501048,5,7,-7,-19,-105,-91,15,11
1537917661501048,-10,0,12,39,104,50,-5,16
1537917661508029,-3,-12,-18,-52,-94,-74,3,-2
1537917661508029,10,5,-5,-3,29,-55,-1,-4
1537917661525982,-9,0,10,1,55,105,-6,-33
1537917661525982,13,12,18,66,66,94,-3,-1
1537917661526979,7,3,-1,11,79,57,13,15
1537917661526979,-15,-18,-28,-56,-113,-77,-12,3
1537917661554905,0,-1,4,-12,15,-1,10,3
1537917661554905,-13,6,8,19,28,-69,-23,-66
1537917661555902,-4,-5,-8,-22,-65,-25,-2,9
1537917661555902,-10,3,11,47,63,13,-6,-25
1537917661561884,10,6,0,10,2,-24,-3,11
1537917661561884,-12,-14,-21,-61,-103,-31,-11,-17
1537917661567868,-2,0,4,6,16,-2,7,9
1537917661567868,-11,1,3,13,37,85,-6,-14
1537917661584822,8,0,-3,-8,-38,-31,-7,0
1537917661584822,6,-3,-4,-6,39,45,16,36
1537917661585819,-5,-1,-2,-4,-90,-95,-5,-12
1537917661585819,9,1,4,7,16,37,6,25
1537917661606763,-5,1,4,25,65,0,-6,-8
1537917661606763,-1,-2,-3,-4,-15,-5,5,12
1537917661608758,1,4,9,34,60,46,-12,-11
1537917661608758,-9,-2,-1,2,4,13,-1,-6
1537917661621723,2,-5,-8,-20,-57,-90,-14,-5
1537917661621723,3,-3,-5,-15,-17,3,5,8
1537917661628705,-4,-2,-3,-3,-13,0,-3,-6
1537917661628705,5,-1,-1,-2,-2,-13,9,18
1537917661644662,-2,-2,-4,-8,8,2,-3,-6
1537917661644662,0,-2,1,-6,-4,18,3,17
1537917661645659,1,0,-2,2,-5,-14,-2,-6
1537917661645659,3,1,-1,4,-14,-29,6,5
1537917661667601,-2,0,3,13,40,36,-5,0
1537917661667601,-4,-2,-1,2,-1,-7,0,-4
1537917661668599,-1,0,0,3,1,0,-5,-6
1537917661668599,0,-3,-3,-6,-20,-32,-3,-1
1537917661680568,0,0,1,5,13,27,-1,-1
1537917661680568,6,-1,1,0,5,-1,6,13
1537917661689544,-1,0,-4,-7,-17,-24,7,-2
1537917661689544,2,-1,-1,-2,5,1,11,6
1537917661704504,-5,-2,1,4,6,11,1,-16
1537917661704504,6,9,-1,-1,1,-7,-4,-2
1537917661706498,10,17,3,-1,7,2,-11,8
1537917661706498,-15,-57,1,0,-10,-11,-9,15
1537917661727441,-3,21,1,5,5,8,-10,10
1537917661727441,1,-4,-3,-3,-3,-10,0,22
1537917661728439,2,-7,-1,0,-2,0,3,-8
1537917661728439,15,14,-4,-8,-12,-7,7,16
1537917661740407,-13,9,-3,-5,-4,-1,0,-4
1537917661740407,30,-22,-13,-2,8,6,-1,-1
1537917661749384,-31,-59,4,4,2,0,-4,-7
1537917661749384,4,51,1,-4,-13,-12,-4,-16
1537917661764343,-6,-15,2,4,9,10,0,-7
1537917661764343,-3,19,1,-1,-1,-2,-3,-14
1537917661766338,24,11,-8,-5,-5,2,9,2
1537917661766338,-16,-49,-1,3,1,-3,-3,-5
1537917661787282,-32,-17,12,13,2,-1,-11,-32
1537917661787282,40,22,0,-4,0,-1,1,17
1537917661788279,-42,14,0,-1,-4,-4,-2,-20
1537917661788279,-22,5,-4,2,0,-1,-7,-2
1537917661809222,31,-1,-9,-6,2,6,3,21
1537917661809222,-19,-20,4,5,4,2,1,1
1537917661811218,4,15,2,-4,-3,-4,1,-2
1537917661811218,12,11,-1,-2,-1,0,5,4
1537917661824182,-12,-9,-4,-1,3,4,-1,-8
1537917661824182,-17,-12,-1,0,0,-3,5,-5
1537917661826177,22,18,-4,-3,3,6,10,25
1537917661826177,-11,-2,2,2,-1,-3,-4,-18
1537917661847121,9,11,-2,-3,1,2,2,15
1537917661847121,1,-16,0,1,3,2,0,6
1537917661848119,-9,-18,-4,-1,-5,-4,-3,-4
1537917661848119,2,47,9,0,1,2,3,0
1537917661861084,-3,-6,-1,0,1,1,-6,-9
1537917661861084,-7,8,2,-2,-3,-3,-5,-10
1537917661870060,-6,-20,-4,-3,-1,-2,-5,-7
1537917661870060,28,1,-1,-3,-3,-3,-1,4
1537917661885020,10,13,1,0,1,4,3,8
1537917661885020,-18,4,0,0,2,0,3,-3
1537917661886017,13,6,1,3,0,-2,-3,-6
1537917661886017,1,-8,-3,-1,-1,-2,1,7
1537917661906961,1,1,0,-2,0,1,2,-1
1537917661906961,-4,-10,-1,0,-1,-3,-1,-2
1537917661908956,2,-1,0,-1,-1,0,-2,1
1537917661908956,-3,-5,-3,-3,-2,-3,-3,-4
1537917661920924,-4,-10,-3,-2,-3,-2,-3,6
1537917661920924,-1,4,0,2,-1,-1,0,1
1537917661929900,-1,4,1,3,8,7,-1,0
1537917661929900,-3,0,5,18,68,33,1,-2
1537917661944860,12,1,2,10,34,-81,-9,4
1537917661944860,-5,6,5,11,67,4,-9,-4
1537917661945857,0,3,1,8,-33,15,14,3
1537917661945857,7,-6,-2,8,27,-29,0,5
1537917661966803,2,-4,-4,1,-11,109,5,2
1537917661966803,-7,8,6,3,-44,-73,19,-9
1537917661968797,-15,-21,-43,-106,-103,28,4,-15
1537917661968797,14,-8,-20,-71,-65,-64,0,10
1537917661980764,7,7,-1,-48,-104,-48,-23,6
1537917661980764,-10,0,13,5,41,-15,-35,13
1537917661989740,8,12,43,127,127,80,-5,17
1537917661989740,7,8,16,29,-84,62,16,1
1537917662004699,-12,-7,-6,5,18,118,8,-45
1537917662004699,16,-17,13,77,35,-8,-4,40
1537917662005697,-4,-21,-27,-18,-57,-128,-53,-20
1537917662005697,-4,33,9,6,127,104,7,13
1537917662026641,0,7,-16,-85,-128,-128,-25,-11
1537917662026641,-21,-9,-19,-95,76,59,-27,-66
1537917662028636,4,2,17,43,41,127,12,3
1537917662028636,-10,-31,-20,-8,-92,-128,-48,40
1537917662040603,8,-1,10,79,127,48,7,3
1537917662040603,-2,-6,-30,-57,-128,-31,20,41
1537917662049580,13,8,-1,-9,-8,-45,-7,16
1537917662049580,-3,3,12,27,66,105,12,-15
1537917662064539,-9,-6,-7,-17,-97,-83,-10,-27
1537917662064539,-2,-1,2,19,14,120,-6,-42
1537917662066536,-5,3,4,-5,4,98,16,-1
1537917662066536,-7,3,2,-5,-52,16,11,-1
1537917662087478,4,-2,11,39,115,4,-21,9
1537917662087478,9,7,1,6,-77,56,35,17
1537917662088475,-2,2,-5,-35,-69,-37,-6,-4
1537917662088475,-10,-7,2,11,58,72,-2,-33
1537917662100444,0,-4,9,2,71,-49,-5,24
1537917662100444,-14,-9,-23,-52,-122,65,19,-31
1537917662109419,15,5,4,-9,22,68,7,19
1537917662109419,-8,-15,-9,1,15,-96,18,33
1537917662125377,19,14,10,20,60,23,-14,46
1537917662125377,-6,-2,-16,-38,-61,23,-2,-43
1537917662130364,-10,1,-4,-6,74,-23,-2,-31
1537917662130364,9,-1,5,20,23,-20,12,13
1537917662147319,1,4,8,39,46,113,21,2
1537917662147319,6,9,1,29,-1,-83,0,11
1537917662148316,-14,-7,-6,-26,71,59,0,-9
1537917662148316,0,-10,-13,-49,-124,-74,-30,-26
1537917662160284,11,3,-3,-3,-54,-35,5,22
1537917662160284,5,9,28,76,127,22,1,26
1537917662169260,-8,-6,-23,-66,-128,-101,22,-12
1537917662169260,-3,-7,-8,-8,126,17,-25,-41
1537917662184220,-11,-10,-7,-34,17,27,33,-19
1537917662184220,1,-1,-4,-24,-54,-127,-13,3
1537917662186215,12,9,24,45,45,-22,15,44
1537917662186215,-1,10,33,99,96,105,-20,-12
1537917662207158,-33,-20,-39,-73,-96,-52,4,5
1537917662207158,18,1,-6,-30,78,24,-12,14
1537917662208156,-8,0,3,8,46,-21,-16,-33
1537917662208156,0,2,-2,-19,-42,-19,10,-22
1537917662221121,-5,7,15,35,5,63,9,21
1537917662221121,-6,4,16,51,68,-67,-2,4
1537917662230097,2,-2,1,4,-28,71,-23,-35
1537917662230097,-12,-7,-7,1,-59,-35,29,17
1537917662244059,2,4,-5,-16,-47,-71,-10,-34
1537917662244059,-17,-11,-17,-50,-61,-33,-13,-21
1537917662251041,11,2,2,-8,-2,-22,27,39
1537917662251041,1,2,9,37,-8,-30,7,7
1537917662266998,-7,-2,-4,3,81,9,-2,-29
1537917662266998,23,-1,-6,-18,-35,-30,-28,91
1537917662268993,-7,4,16,46,65,-16,-15,-39
1537917662268993,8,1,-11,-40,-3,11,-2,-2
1537917662280961,5,-5,-4,3,-37,-82,-7,2
1537917662280961,2,1,4,7,-10,97,28,11
1537917662289937,-4,1,3,29,83,74,-23,0
1537917662289937,17,5,-5,-22,-70,48,42,45
1537917662303900,-8,-4,-1,-1,-21,3,8,-13
1537917662303900,-6,2,10,49,91,-17,-5,-23
1537917662310881,2,3,-3,-30,-34,-100,28,-7
1537917662310881,-11,-8,-16,-41,-70,0,-35,-71
1537917662326838,-6,-3,-2,-15,4,-34,1,38
1537917662326838,-6,-6,-6,-31,-21,127,15,-19
1537917662328833,-1,2,1,24,-98,-104,-10,25
1537917662328833,-10,0,2,1,109,-7,3,-14
1537917662340801,-2,-4,-4,-18,-63,28,2,-3
1537917662340801,2,5,8,19,3,-7,-13,-8
1537917662356759,7,3,-1,7,44,60,17,-2
1537917662356759,-1,1,3,12,-45,-8,16,19
1537917662363740,-5,-2,3,28,98,50,-6,-45
1537917662363740,-12,6,4,-6,20,34,1,-17
1537917662370721,-8,-6,-12,-15,-99,-13,-1,-14
1537917662370721,-4,-6,-19,-55,-59,-94,-14,3
1537917662394657,5,2,9,-3,-41,-31,2,0
1537917662394657,-1,1,9,84,83,4,-9,-24
1537917662395654,-8,-10,-19,-79,29,40,-17,-6
1537917662395654,2,-2,-12,-30,-86,-1,-8,21
1537917662409617,5,3,11,23,24,81,2,26
1537917662409617,4,3,2,-10,-30,-58,-3,-8
1537917662410614,5,-1,-1,14,-41,-26,4,35
1537917662410614,3,0,5,18,55,23,-22,-45
1537917662424577,-3,3,2,1,60,46,2,17
1537917662424577,3,-2,0,6,3,27,1,2
1537917662425575,-9,4,12,51,127,-11,-17,3
1537917662425575,-6,-7,-5,-22,-25,-36,11,-14
1537917662447516,1,2,0,11,-2,7,12,4
1537917662447516,-3,1,1,5,38,-3,8,2
1537917662448513,3,-6,-9,-26,-81,5,6,6
1537917662448513,-1,3,4,3,4,32,0,18
1537917662469457,4,3,4,12,-3,-4,-1,-2
1537917662469457,-1,-2,-6,-21,-23,-52,2,2
1537917662471452,-1,-2,1,0,17,16,-8,-16
1537917662471452,10,3,4,19,8,-37,10,62
1537917662483420,3,-4,-8,-11,-14,42,-2,-19
1537917662483420,-2,-2,-5,-21,-11,-3,4,6
1537917662492396,-4,-2,2,4,-20,1,-22,-18
1537917662492396,-1,3,4,14,36,12,-35,-25
1537917662507356,6,2,-2,-3,7,-8,-5,4
1537917662507356,10,9,-1,-11,-28,-12,62,10
1537917662508353,-39,-41,-1,6,5,-8,-20,6
1537917662508353,44,13,10,8,17,13,-29,0
1537917662529297,5,14,-1,-9,-23,-16,68,2
1537917662529297,12,15,-2,1,-2,25,-46,-13
1537917662531292,-23,-27,8,-2,-16,-38,-93,-9
1537917662531292,-17,-13,-15,-4,9,37,107,7
1537917662543260,15,2,-4,-5,-4,4,-15,-6
1537917662543260,20,6,-23,-2,-4,-55,-71,-25
1537917662552236,-38,-27,-12,-3,-2,28,104,-35
1537917662552236,-3,17,10,0,-2,27,48,24
1537917662567196,4,5,17,7,1,18,-84,-2
1537917662567196,-37,-19,-8,-9,-13,-62,15,18
1537917662568194,12,5,-2,-6,-16,-5,-52,-13
1537917662568194,-9,-13,-4,7,17,15,16,11
1537917662589137,-5,9,-2,1,1,10,19,-8
1537917662589137,-2,4,10,-3,-11,2,-25,-6
1537917662591132,14,21,1,1,2,3,34,22
1537917662591132,-3,-2,1,0,5,3,-19,-3
1537917662603100,-8,-19,-12,-6,-5,-7,4,-3
1537917662603100,-2,-11,8,-2,-6,11,-9,2
1537917662612076,18,25,-4,0,2,-8,17,16
1537917662612076,-3,1,-3,1,-6,6,-18,-10
1537917662626039,1,1,5,2,7,-4,-30,-13
1537917662626039,-11,-8,-2,5,22,25,31,3
1537917662635015,12,14,-3,-7,-24,-11,12,8
1537917662635015,1,-4,3,5,25,-70,-45,-15
1537917662649975,-15,-18,-9,-19,-50,20,12,1
1537917662649975,-1,7,6,7,12,24,14,7
1537917662650972,37,8,3,7,29,45,9,9
1537917662650972,-18,-8,2,2,-15,-24,-27,-14
1537917662662940,-5,-2,-2,5,30,-5,9,-2
1537917662662940,2,-4,-5,-12,-36,-4,13,-2
1537917662671916,6,6,1,-6,7,-7,-13,-3
1537917662671916,-3,-2,-3,-4,-3,22,-3,-6
1537917662686876,11,1,2,8,11,-3,3,1
1537917662686876,2,-5,2,5,1,11,0,-6
1537917662688871,-22,-7,-2,2,-3,-17,7,3
1537917662688871,47,6,2,3,4,17,-6,10
1537917662709815,-17,-3,-4,-3,-7,-15,-1,0
1537917662709815,-3,-5,1,2,7,-9,1,1
1537917662710813,3,2,-3,-4,-10,-10,-3,14
1537917662710813,-27,-4,-3,-2,-5,11,-20,-12
1537917662722780,0,0,-1,-1,-1,-10,-10,8
1537917662722780,2,-1,-2,-2,-3,0,5,-4
1537917662731756,7,3,-1,-4,-5,-4,2,-6
1537917662731756,-7,0,1,-4,-6,5,-12,7
1537917662746716,2,-3,-1,3,4,-5,1,-1
1537917662746716,-24,-1,0,1,1,1,2,-4
1537917662748711,3,2,-2,-2,-6,-8,1,3
1537917662748711,-19,-5,-2,-1,3,0,-3,-18
1537917662769656,-10,-5,-3,-2,-3,-10,-2,-6
1537917662769656,-2,1,1,-3,-5,-2,-1,1
1537917662770654,13,6,-2,-5,-2,-5,-6,-1
1537917662770654,-1,-5,-2,-5,1,12,10,11
1537917662783619,7,8,-2,-1,0,2,9,19
1537917662783619,11,-3,0,-1,-2,1,-1,3
1537917662792594,-19,-5,-1,2,-3,-3,2,-7
1537917662792594,19,1,-4,-2,3,5,0,-2
1537917662807554,-5,-8,-1,3,1,-2,1,-11
1537917662807554,0,0,2,2,4,3,-1,1
1537917662813538,-8,0,-1,-1,-1,1,8,-8
1537917662813538,17,3,-6,-5,-8,-8,-10,15
1537917662829495,-3,0,1,-2,-1,1,0,-5
1537917662829495,6,1,-3,-3,-3,0,0,-2
1537917662831491,4,2,2,0,-3,2,2,-1
1537917662831491,-21,-4,0,-1,-1,2,1,-13
1537917662843458,19,-1,1,6,5,5,1,6
1537917662843458,1,2,6,27,110,23,-6,-5
1537917662852435,12,-1,-1,-14,-77,-33,-9,-12
1537917662852435,-12,-1,0,5,52,-3,37,55
1537917662867394,-19,-4,-6,-21,-44,-119,5,-20
1537917662867394,-26,-6,6,18,59,57,-28,-104
1537917662868392,40,21,18,20,-65,36,41,103
1537917662868392,-53,-27,-32,-60,34,116,-34,-116
1537917662889336,43,5,4,-6,49,-66,62,105
1537917662889336,-10,-8,-8,-31,-48,19,6,98
1537917662891331,3,4,-7,-10,38,-115,-82,2
1537917662891331,11,23,38,81,57,95,-117,-43
1537917662903299,3,-6,-23,-49,-111,30,62,57
1537917662903299,2,-9,-5,12,107,63,24,-3
1537917662912276,-7,-12,9,41,64,-86,-25,-81
1537917662912276,6,4,-12,-55,-118,30,36,65
1537917662927234,-36,-11,14,56,127,106,-37,-78
1537917662927234,62,15,8,9,-128,21,33,24
1537917662928232,-27,-9,-17,-25,77,44,-14,-10
1537917662928232,-15,-9,2,9,71,-82,-5,-41
1537917662949177,-4,10,-3,-22,-127,0,-58,-57
1537917662949177,9,1,-8,-12,-5,-50,-59,76
1537917662951172,8,8,10,37,80,117,123,-20
1537917662951172,18,1,-2,18,11,-52,61,83
1537917662963138,-13,-5,-12,-33,-80,44,-64,-61
1537917662963138,-13,-2,-4,-12,-69,-13,-21,8
1537917662972114,-7,-4,-7,-28,-77,43,-9,-3
1537917662972114,7,2,1,-6,-41,-52,13,57
1537917662987074,3,7,22,52,127,28,81,-4
1537917662987074,-4,-1,-1,-4,-46,-122,-40,-1
1537917662988071,-13,-10,-13,-22,19,36,-19,-44
1537917662988071,6,4,5,-10,5,-95,7,-32
1537917663010012,-11,-9,-6,-25,-75,-83,-102,-31
1537917663010012,0,2,5,-6,15,3,44,15
1537917663011010,-5,0,3,7,7,31,42,38
1537917663011010,1,2,5,21,14,-6,15,-23
1537917663031954,0,4,-3,10,36,-17,-80,-22
1537917663031954,-8,1,-2,2,14,56,78,7
1537917663033948,-25,2,-16,-15,-46,-98,-128,-52
1537917663033948,50,-19,11,15,9,65,106,31
1537917663046914,-50,11,1,12,13,-21,6,-6
1537917663046914,27,-8,-4,-8,-12,-36,27,-35
1537917663048909,-6,30,1,2,5,54,5,29
1537917663048909,-2,-15,5,-3,-24,-61,-90,-11
1537917663069852,-5,-35,-10,4,17,102,46,44
1537917663069852,-28,10,16,-2,3,-23,9,-1
1537917663070850,-5,13,42,4,5,-32,67,17
1537917663070850,44,32,-78,-16,-27,-21,-100,17
1537917663082818,8,-23,-2,11,8,34,67,5
1537917663082818,-34,-12,-23,-3,-1,-64,-90,-17
1537917663091794,-4,-14,15,-6,-1,54,52,9
1537917663091794,-36,5,24,4,-12,-40,-33,-41
1537917663106753,25,19,-8,-11,-4,-24,-102,-44
1537917663106753,-4,24,-9,10,17,61,-49,41
1537917663112737,36,63,60,-5,-13,-42,44,15
1537917663112737,-29,-58,-18,0,-7,20,-92,-48
1537917663129692,-26,-25,-1,1,9,-29,65,19
1537917663129692,5,-26,14,-3,-4,-9,-38,-32
1537917663130689,-18,-20,-30,4,-4,10,-4,-10
1537917663130689,-2,16,4,-8,-12,-9,62,-27
1537917663143655,30,13,18,1,2,11,31,15
1537917663143655,10,2,-9,-1,-1,-6,63,18
1537917663152631,-26,-31,-16,-2,-7,-18,-56,-31
1537917663152631,0,6,0,-3,-5,0,1,-3
1537917663166594,19,16,-4,3,5,51,35,39
1537917663166594,-6,8,-3,-1,5,7,-33,-57
1537917663173575,31,-13,-20,-3,-3,-38,-40,32
1537917663173575,-11,-3,21,4,2,11,16,34
1537917663189532,11,28,-2,-11,-13,-20,-16,-19
1537917663189532,-7,-29,-6,-5,-5,39,1,-27
1537917663191527,-4,-15,-1,7,6,-35,-42,-1
1537917663191527,6,36,4,-1,2,25,17,-26
1537917663203495,-10,-19,-2,4,11,12,22,36
1537917663203495,0,0,-1,-1,-4,10,7,-11
1537917663212471,-23,-5,-11,4,5,-5,11,-11
1537917663212471,7,9,1,-5,-8,33,29,34
1537917663226433,5,-9,4,3,4,-34,-44,-57
1537917663226433,-4,-30,-7,-6,-10,-12,-12,-17
1537917663233415,24,9,-3,1,4,34,7,38
1537917663233415,-17,-31,-3,0,4,1,36,-4
1537917663249373,3,-6,2,1,1,-15,-33,21
1537917663249373,-16,29,8,5,10,-6,28,-10
1537917663251368,4,-3,1,0,-3,10,3,7
1537917663251368,-9,20,-6,1,1,-2,12,0
1537917663263337,4,12,8,-5,-2,10,5,4
1537917663263337,-2,6,5,1,0,-37,-38,36
1537917663272313,-12,-24,-13,0,-2,18,17,-54
1537917663272313,-3,-1,7,-1,0,-6,-31,11
1537917663286276,-7,-12,-9,-1,-7,-42,-23,-8
1537917663286276,6,-6,-5,2,8,40,91,68
1537917663293257,25,6,-4,-4,-2,8,-82,-20
1537917663293257,-9,-4,7,3,-3,-5,84,4
1537917663310210,3,6,-2,0,1,19,-2,13
1537917663310210,-3,-2,-4,-3,-1,-18,-85,-29
1537917663311208,0,-2,-2,1,7,18,45,37
1537917663311208,-3,-1,3,-6,1,-3,-16,-19
1537917663332151,-14,-4,-3,-3,-8,-12,-20,12
1537917663332151,12,15,0,-7,-14,-24,-58,-29
1537917663333149,4,13,-4,-1,-3,-1,72,5
1537917663333149,4,-5,-1,1,1,-14,-92,-22
1537917663347111,-17,6,4,3,9,30,94,25
1537917663347111,18,-15,-1,0,3,9,-41,4
1537917663355090,-5,23,-1,0,-1,1,-61,-19
1537917663355090,-12,-8,1,1,-1,-15,-3,-3
1537917663370050,-4,4,-3,1,-1,-13,-48,1
1537917663370050,-1,5,3,2,6,3,4,22
1537917663371047,-4,-18,-7,-5,-7,-5,14,-15
1537917663371047,8,6,-3,-5,-14,-5,-45,19
1537917663391991,-17,-4,1,0,1,11,9,-33
1537917663391991,-15,-12,-4,-4,-3,-26,25,18
1537917663393986,6,-16,1,1,6,13,47,34
1537917663393986,23,31,2,-1,2,21,12,11
1537917663405954,7,-17,17,8,-5,-22,-2,-14
1537917663405954,13,-3,-30,-8,6,11,44,-45
1537917663412935,9,3,6,2,-9,-18,-34,50
1537917663412935,11,15,-9,-2,4,20,62,-1
1537917663429889,-13,-10,13,1,-4,-1,-16,-9
1537917663429889,9,2,-3,-6,-6,-8,-2,9
1537917663430887,-9,0,2,1,1,7,-1,-68
1537917663430887,8,9,1,1,-3,-25,5,55
1537917663451831,6,2,-9,-8,-3,0,-21,-4
1537917663451831,-14,-5,8,3,1,14,-55,-24
1537917663453826,16,4,-5,2,6,13,23,-5
1537917663453826,-7,-13,4,-1,-7,-66,-9,63
1537917663466791,6,10,-8,1,13,18,-10,-46
1537917663466791,15,-1,8,5,4,-36,72,29
1537917663472775,-17,0,-3,1,7,64,-2,-54
1537917663472775,4,-12,3,2,1,-60,-38,57
1537917663489730,1,-26,-8,-3,-2,-12,66,11
1537917663489730,-9,6,2,-3,-4,-6,-80,22
1537917663490727,-9,-5,-4,-10,-11,39,-9,1
1537917663490727,25,4,4,7,6,29,-26,-26
1537917663511671,-4,46,-7,-2,-4,-23,-14,-24
1537917663511671,-1,-8,2,-2,0,20,19,-3
1537917663513666,-6,-16,-4,-2,-7,-61,-75,33
1537917663513666,-4,-3,-6,-7,-1,45,24,-61
1537917663526631,3,-4,3,5,5,16,-2,24
1537917663526631,-12,11,1,1,-1,-3,12,-49
1537917663533612,14,17,-2,-3,-1,-11,17,26
1537917663533612,-13,-20,-4,-5,-5,20,15,-41
1537917663549570,11,-2,-1,-2,0,-24,-10,10
1537917663549570,-8,12,4,4,5,-10,1,-32
1537917663551565,-13,-17,-3,-3,-1,-1,11,31
1537917663551565,-11,-18,-5,-6,-5,13,4,-39
1537917663572509,1,-15,-5,-4,-10,-6,-41,17
1537917663572509,3,0,6,4,2,4,14,14
1537917663573508,-7,-8,-3,1,1,-12,7,11
1537917663573508,-16,2,-1,1,3,3,-2,7
1537917663585474,2,6,-3,-6,-1,18,-2,-19
1537917663585474,5,-4,3,1,-2,-12,5,3
1537917663600434,-1,0,0,1,-3,-37,9,-3
1537917663600434,-9,-3,-4,0,0,15,4,-22
1537917663609410,6,3,-3,1,1,23,20,17
1537917663609410,4,-1,7,-3,-1,21,1,-15
1537917663611404,-13,-9,-5,-3,-2,-40,-48,-50
1537917663611404,1,3,0,3,3,6,49,48
1537917663632349,-2,2,-1,1,0,-21,-41,1
1537917663632349,-1,-1,-3,-1,4,55,84,6
1537917663633346,10,8,5,0,-8,-66,-11,-13
1537917663633346,3,-7,-2,-6,-9,3,-73,-42
1537917663645314,4,3,-3,0,-4,-11,42,11
1537917663645314,-7,3,1,-2,-3,-4,-18,1
1537917663654290,11,-3,-14,-5,-2,-20,-15,1
1537917663654290,-13,-2,18,4,3,12,6,4
1537917663669250,4,16,-9,0,4,4,-40,-11
1537917663669250,-9,-20,-3,-2,-4,-9,-11,-10
1537917663671244,3,-8,-5,1,2,32,3,13
1537917663671244,-5,12,-1,2,1,-13,7,-5
1537917663692188,-6,-14,-1,-3,-2,-7,-25,19
1537917663692188,23,25,4,1,0,-5,-21,-21
1537917663693186,-1,-16,-3,-2,-1,2,36,-10
1537917663693186,3,-1,-2,2,3,27,66,50
1537917663706151,-15,-16,4,-1,-9,-31,-58,-6
1537917663706151,9,4,-8,0,2,14,47,-25
1537917663713133,4,9,7,3,2,0,-31,6
1537917663713133,3,-5,-3,-4,-6,0,-31,-42
1537917663729090,-8,1,-3,-1,3,16,58,-56
1537917663729090,-13,-6,0,-2,-7,-34,-60,23
1537917663731085,-4,-14,-2,-2,3,23,-1,18
1537917663731085,-3,15,-1,2,2,-9,-2,-12
1537917663752028,14,40,2,-3,-5,-5,-18,-11
1537917663752028,2,-13,-4,-3,-3,-21,-29,20
1537917663753026,-11,-3,1,-1,-1,-6,-46,-6
1537917663753026,7,-8,-5,1,6,53,66,43
1537917663774967,-1,-7,1,3,2,2,-4,-7
1537917663774967,-3,3,-1,2,0,-5,6,-17
1537917663775965,12,11,-2,-8,-9,-2,3,-5
1537917663775965,10,-10,0,1,2,-19,-15,-40
1537917663789928,-1,-10,0,-1,1,-4,33,18
1537917663789928,-6,-3,-1,-2,-4,2,5,-1
1537917663790925,9,4,1,5,9,22,-21,16
1537917663790925,-15,-2,-4,-2,-2,-18,-31,-32
1537917663811868,4,-10,-2,-5,-4,15,16,12
1537917663811868,-1,5,2,1,-7,-34,-1,42
1537917663813863,-6,-2,3,1,-1,14,35,12
1537917663813863,-5,-12,-5,-1,1,1,-24,32
1537917663825831,9,7,2,3,5,2,25,18
1537917663825831,1,-3,9,-2,1,12,1,-7
1537917663841788,-17,0,-18,-1,-1,-16,-1,18
1537917663841788,4,-6,-4,-3,2,13,0,0
1537917663848770,0,5,3,-1,-4,-35,-18,32
1537917663848770,7,15,13,1,3,37,47,-7
1537917663849770,-5,-17,-14,0,-1,-8,1,-22
1537917663849770,1,1,-1,-1,-5,-38,-16,38
1537917663871708,-8,-21,-6,1,3,31,-13,-32
1537917663871708,9,6,-1,-1,-3,-11,-14,18
1537917663871708,3,12,9,-2,-1,7,4,-6
1537917663871708,-3,-11,-2,-1,0,2,-17,-40
1537917663894647,-7,4,2,0,-2,-9,-35,-3
1537917663894647,-14,-28,-7,-3,-1,-12,8,10
1537917663895645,9,-2,5,0,4,27,38,61
1537917663895645,3,17,-7,-2,-5,-30,-45,-17
1537917663908610,-1,-1,6,1,7,35,11,-7
1537917663908610,7,-9,-8,-3,-4,-6,-4,-4
1537917663909607,-8,-4,-2,-6,-9,-25,-13,-33
1537917663909607,-1,4,4,1,-1,-3,23,22
1537917663931549,3,-2,-5,-1,0,11,32,34
1537917663931549,-6,1,-5,2,3,-3,-22,16
1537917663932546,-10,5,7,0,2,6,6,-34
1537917663932546,9,-3,2,1,0,1,-3,39
1537917663945511,0,-6,-4,-1,-5,-13,-14,-13
1537917663945511,6,10,3,1,1,8,-9,-19
1537917663953490,-8,-7,1,-1,-2,-4,-17,-1
1537917663953490,-9,-4,-1,-2,-1,3,23,-22
1537917663968450,6,-2,-5,-2,-4,-36,-12,-27
1537917663968450,-11,-1,-4,1,5,36,-25,-31
1537917663969447,13,7,1,-1,-1,-11,-7,14
1537917663969447,-17,-4,-2,-2,-3,-14,-10,-5
1537917663991389,-5,-10,1,-1,1,19,13,20
1537917663991389,1,-10,-3,-2,-2,-7,20,-9
1537917663992386,-2,-6,-1,2,1,5,-48,-51
1537917663992386,4,-2,2,-1,0,2,32,68
1537917664005352,-11,3,1,-4,-7,-20,-23,-19
1537917664005352,6,-9,-20,-2,0,4,-10,20
1537917664014327,-8,1,4,3,5,7,-8,-11
1537917664014327,3,1,-2,-2,-4,-6,16,-26
1537917664029287,-6,-2,-2,0,-1,-21,-27,37
1537917664029287,-6,6,5,0,4,35,12,-20
1537917664029287,1,-3,0,-1,-2,-1,10,5
1537917664029287,2,-9,-3,-1,-1,3,-30,-23
1537917664051229,6,19,1,-2,-1,-8,13,-9
1537917664051229,-6,0,0,-1,-2,-9,9,11
1537917664052226,4,-4,-5,-2,-4,5,22,7
1537917664052226,-16,-19,1,0,2,4,-4,-42
1537917664074167,5,5,4,1,-2,4,0,45
1537917664074167,-4,3,3,1,1,-25,-26,-23
1537917664075165,7,2,-2,-3,-3,-1,27,15
1537917664075165,-1,12,4,-1,-5,2,-30,-69
1537917664089128,8,-4,-10,-2,-2,-2,37,60
1537917664089128,-6,-9,2,2,5,20,25,17
1537917664089128,0,0,-1,-3,-3,-14,-38,-7
1537917664089128,-3,-2,0,-1,-3,4,-6,0
1537917664114061,3,-4,0,1,2,14,50,-11
1537917664114061,-8,2,-1,0,-5,-15,19,-1
1537917664115058,-6,-2,-2,-1,1,0,-1,15
1537917664115058,-5,-1,-2,-2,0,-14,-42,-21
1537917664120045,-7,-1,2,3,2,0,-7,27
1537917664120045,3,0,-3,-5,-6,-6,-8,11
1537917664127026,8,2,1,0,-2,-11,25,-19
1537917664127026,-9,2,2,3,7,17,-7,11
1537917664140989,5,-5,-5,-2,-1,4,0,-28
1537917664140989,-14,-5,-2,0,-1,-3,8,-12
1537917664147970,0,4,-1,-3,-6,-38,-17,8
1537917664147970,0,2,-3,-1,2,38,31,27
1537917664163927,-6,-4,2,0,2,6,-12,-21
1537917664163927,3,12,-3,-1,2,-3,-13,-35
1537917664164925,3,-7,5,1,0,7,-4,68
1537917664164925,3,22,4,0,0,-2,73,20
1537917664179885,1,0,-2,-2,-1,1,-29,-47
1537917664179885,-1,21,2,0,-3,-17,-37,-4
1537917664185869,-16,-9,1,1,1,7,46,23
1537917664185869,-1,-2,-1,0,3,15,18,26
1537917664200829,4,-4,1,-2,0,-7,-24,-15
1537917664200829,-3,-5,0,1,0,-3,10,17
1537917664207811,-7,2,0,0,1,3,-20,6
1537917664207811,3,-7,-1,-5,-5,-10,-30,-19
1537917664223768,0,-7,-2,-2,1,-1,27,-29
1537917664223768,16,-9,1,0,1,-7,-5,5
1537917664224765,-17,5,-2,-3,-1,2,-28,-11
1537917664224765,2,-2,0,0,0,2,26,-4
1537917664239725,2,5,-4,1,2,9,6,25
1537917664239725,-5,-7,-1,3,6,3,-8,13
1537917664245709,10,-2,-5,-3,-8,-4,-10,-11
1537917664245709,22,2,-5,-4,-2,-17,-35,-55
1537917664260669,-9,20,4,0,0,4,-17,-5
1537917664260669,-7,0,-1,-1,-1,0,9,-19
1537917664267650,17,12,8,0,2,7,15,-25
1537917664267650,2,1,-8,-4,-5,-11,-41,29
1537917664283608,-16,-8,-4,-1,0,5,27,-33
1537917664283608,23,4,-4,-6,-7,3,-27,43
1537917664290589,0,5,5,6,9,-9,53,9
1537917664290589,28,-3,1,-1,-1,-3,-44,-31
1537917664299565,2,-4,4,1,-2,-11,-1,-2
1537917664299565,-13,-3,-2,-1,-2,15,19,-7
1537917664305549,-15,-14,-7,-4,-4,-6,-12,-13
1537917664305549,7,6,10,6,-1,-9,1,25
1537917664320509,-3,-1,-3,-9,1,4,-3,-1
1537917664320509,-8,-2,-10,-3,-3,-17,-8,-12
1537917664328487,0,-1,0,3,0,20,12,-10
1537917664328487,-5,0,-6,-7,0,-21,18,-3
1537917664343448,-1,-6,2,-3,-7,29,6,2
1537917664343448,-5,-5,0,1,0,-28,5,0
1537917664350429,5,3,-2,-1,6,23,-15,-10
1537917664350429,-10,-1,-3,-2,-10,-18,-4,5
1537917664359405,-1,-6,2,0,-4,3,-14,0
1537917664359405,-5,-6,-1,-3,-2,3,26,13
1537917664365389,1,-1,-1,1,3,3,-24,-11
1537917664365389,-12,-3,-2,1,5,3,14,1
1537917664380350,-4,-10,5,2,2,-15,-49,8
1537917664380350,-6,25,8,2,1,10,9,-7
1537917664388328,5,-1,-1,1,0,1,37,7
1537917664388328,1,-6,-3,-3,-3,-5,-8,-24
1537917664403288,-1,3,-4,-2,1,5,8,33
1537917664403288,5,-8,1,-1,-2,3,-13,-19
1537917664410269,1,-1,-1,-2,-2,-1,16,2
1537917664410269,-6,-1,-5,1,5,11,7,29
1537917664419245,7,-2,1,3,-5,-14,-2,-9
1537917664419245,-5,-6,2,-2,-6,-10,-28,-6
1537917664425229,4,3,-9,-6,-5,-10,28,5
1537917664425229,-11,-8,2,4,1,9,9,-5
1537917664440189,5,4,-4,-1,5,4,0,-13
1537917664440189,-2,-3,-2,-4,-8,-9,-18,9
1537917664448168,-6,-5,-4,-2,-4,0,0,-7
1537917664448168,-4,1,6,2,-1,22,37,10
1537917664463128,-4,-4,1,2,1,-1,-4,3
1537917664463128,3,11,-1,0,1,1,-19,-7
1537917664471107,10,-4,-12,-6,-4,-19,-38,-12
1537917664471107,-10,-5,-2,0,0,9,20,7
1537917664480082,5,8,24,-1,0,-3,-15,17
1537917664480082,1,-19,-32,-2,-3,6,23,-5
1537917664486066,5,1,8,3,0,-10,-29,5
1537917664486066,-5,10,21,-1,-3,-2,1,8
1537917664502024,-8,-23,-2,-1,-2,-6,4,5
1537917664502024,-13,-7,-42,-7,0,3,-7,-2
1537917664508008,-3,15,68,3,-2,10,16,6
1537917664508008,2,-26,-87,-2,-1,-18,-20,-4
1537917664522968,1,5,16,-2,-4,7,3,-11
1537917664522968,5,-2,-7,-1,3,8,30,-5
1537917664530946,-19,-25,-52,-7,1,-1,-25,-8
1537917664530946,-3,8,45,2,3,18,14,4
1537917664545906,10,17,3,1,-6,-38,-2,-7
1537917664545906,7,15,41,5,-2,1,-29,2
1537917664546904,-1,-19,-51,-4,-1,-4,24,-2
1537917664546904,-1,3,18,-2,-1,11,-1,0
1537917664560867,-8,-8,-25,-1,1,2,-3,-13
1537917664560867,-5,-2,7,0,2,-13,7,25
1537917664567848,-7,1,15,3,-1,4,9,-8
1537917664567848,5,6,-17,-3,0,0,-3,-4
1537917664582808,2,-9,4,3,2,1,29,20
1537917664582808,3,2,29,2,-1,-4,-24,-13
1537917664590787,1,8,-3,5,1,10,29,0
1537917664590787,-7,-18,-7,-6,-4,-4,-12,13
1537917664606744,11,21,10,-3,-3,-4,-10,-20
1537917664606744,-2,-33,-36,-5,0,2,3,-6
1537917664606744,10,23,7,0,0,15,-13,0
1537917664606744,-3,12,19,0,-3,-17,-8,-7
1537917664620706,-5,-3,-6,-3,-2,5,-6,-12
1537917664620706,4,0,5,0,0,-6,24,2
1537917664628685,-2,1,5,0,-2,21,1,20
1537917664628685,2,-1,1,1,3,-13,-2,-11
1537917664643646,1,-1,-12,-3,-3,-24,-17,-5
1537917664643646,-6,-4,5,-1,1,31,13,-7
1537917664650627,-2,-4,10,0,-3,-15,-7,-8
1537917664650627,0,-2,-14,-3,-2,-29,-25,-6
1537917664666584,-2,-7,-2,1,7,40,3,-2
1537917664666584,0,8,9,-1,-1,-3,19,-2
1537917664666584,-2,-8,17,-1,-1,46,8,-4
1537917664666584,-3,-7,-14,-4,-4,-19,-5,7
1537917664680547,-6,-6,-4,-3,-8,-52,-5,-2
1537917664680547,0,2,17,4,12,59,8,6
1537917664688525,7,-8,-21,-4,-2,-36,-36,-26
1537917664688525,-2,5,-6,-5,-8,-16,10,1
1537917664703485,-3,-4,-2,0,1,14,-33,-3
1537917664703485,1,3,-5,1,-1,-27,18,-3
1537917664710466,-4,-2,7,1,0,-22,-15,6
1537917664710466,7,0,9,2,1,35,23,-4
1537917664726424,3,-1,-11,-4,-5,-14,-10,-8
1537917664726424,-2,3,4,-1,-1,1,-46,-25
1537917664727422,-12,-2,-2,1,3,20,67,33
1537917664727422,0,3,5,1,-1,-4,-34,2
1537917664740386,-5,1,-2,0,0,6,-4,2
1537917664740386,-2,-2,-4,-1,0,-11,31,2
1537917664748365,-3,1,0,-4,-6,-2,-13,-8
1537917664748365,-3,-4,0,1,2,7,4,-4
1537917664763325,-2,0,0,-1,-2,17,11,11
1537917664763325,2,0,-2,-1,-1,-25,-6,-7
1537917664770307,4,2,-2,-2,-1,6,-33,-8
1537917664770307,0,-1,4,-3,-7,5,8,-1
1537917664786264,1,-1,-2,0,-1,3,5,-4
1537917664786264,-2,0,-1,-2,-3,-14,-2,0
1537917664787262,1,0,-1,1,4,-1,7,-2
1537917664787262,3,-1,2,2,3,-1,-10,-6
1537917664800227,-3,0,-2,0,0,10,22,2
1537917664800227,8,-1,-1,0,1,1,-7,4
1537917664808205,-6,1,0,-1,-2,-26,-9,-3
1537917664808205,0,-4,2,0,3,16,0,-7
1537917664823165,3,0,-2,-1,-1,-3,12,0
1537917664823165,-1,0,-1,-1,-5,-4,-2,5
1537917664831144,-1,-1,-1,0,1,2,-11,-7
1537917664831144,-7,0,0,0,-9,-22,-2,5
1537917664846104,-4,-5,-2,1,3,3,-3,-11
1537917664846104,-1,-3,-2,-4,-2,15,15,6
1537917664847102,12,3,0,-2,-1,-13,5,-6
1537917664847102,-5,1,1,3,2,11,-14,-13
1537917664861064,5,0,1,0,1,-7,19,32
1537917664861064,-1,-3,-1,-2,-1,0,-16,11
1537917664868045,-7,-2,0,1,1,-7,-5,-10
1537917664868045,-3,-2,0,0,3,9,9,0
1537917664883006,-4,-1,-2,0,-1,-14,-14,-11
1537917664883006,-3,-1,0,-2,-4,2,-2,-10
1537917664890984,-4,-4,-4,-2,1,10,-7,10
1537917664890984,-2,-4,-2,-3,-5,-8,14,-1
1537917664905944,-6,4,0,-2,0,-10,-17,-13
1537917664905944,2,-2,0,0,3,25,33,10
1537917664906941,10,6,2,1,1,-12,-28,13
1537917664906941,5,0,1,-1,-2,1,6,0
1537917664920904,-3,-5,-4,-5,-6,-1,-9,-7
1537917664920904,-7,1,0,1,1,1,4,-9
1537917664927886,5,0,0,-1,-1,-1,7,5
1537917664927886,1,-1,-1,1,3,8,0,0
1537917664942846,-1,-1,-1,1,-2,-13,-5,-13
1537917664942846,1,0,-1,1,-2,-2,-18,-17
1537917664950824,3,-3,-2,-2,-7,8,6,-2
1537917664950824,5,3,1,0,2,-1,19,6
1537917664966782,0,-1,-1,-1,0,21,-5,-1
1537917664966782,-6,-2,-2,-1,0,-24,2,-11
1537917664966782,8,2,0,1,2,-4,-18,-4
1537917664966782,-3,-3,-2,-1,-3,-10,-21,-3
1537917664980744,-1,0,-1,1,3,14,2,1
1537917664980744,1,0,0,-1,-2,-2,14,6
1537917664987726,-6,-3,0,-2,-2,-3,3,11
1537917664987726,-3,-1,0,-1,1,3,-8,-26
1537917665011662,10,1,-2,-1,-2,-6,-1,3
1537917665011662,-4,-3,-2,-2,-4,1,-13,-8
1537917665011662,-3,-2,-2,1,-2,-1,0,-8
1537917665011662,-1,0,-1,0,1,0,-9,27
1537917665034600,-3,-2,0,0,3,12,37,-7
1537917665034600,4,0,-1,0,1,5,2,6
1537917665035598,-6,-5,-2,0,-4,-27,-16,-3
1537917665035598,-2,-1,-2,-2,0,12,-6,-5
1537917665048563,2,1,2,0,3,-1,14,-2
1537917665048563,-1,0,0,-1,-2,-13,-20,2
1537917665056542,-5,-4,-2,-2,-5,-13,-1,0
1537917665056542,2,1,0,-1,-2,25,24,5
1537917665071501,-3,-2,0,1,1,-11,-8,-6
1537917665071501,-3,0,1,-2,2,5,-3,-2
1537917665072499,-5,0,0,-1,3,8,3,-7
1537917665072499,-5,0,0,0,-2,-26,-16,5
1537917665094440,1,-4,-2,-4,-4,6,-16,4
1537917665094440,3,-3,0,-2,1,3,42,-8
1537917665095438,-1,3,1,2,2,0,-3,15
1537917665095438,-5,-2,-2,-1,3,-6,-2,-4
1537917665108403,0,2,-1,-2,-2,13,-8,0
1537917665108403,2,2,0,2,1,-14,9,8
1537917665116381,-3,-4,-1,-2,2,9,2,-5
1537917665116381,8,0,0,-1,-3,-6,-1,-6
1537917665131341,-9,-1,0,-1,0,-5,-9,6
1537917665131341,-2,-2,-2,-1,-7,-9,-40,-16
1537917665132339,-4,0,-2,-1,2,10,47,-4
1537917665132339,2,0,0,-1,-2,1,-2,-21
1537917665154280,0,-2,-1,0,-1,-1,3,-5
1537917665154280,-9,0,-2,-2,-4,-3,-27,11
1537917665155278,1,0,-1,-1,-1,-2,0,-8
1537917665155278,4,0,-1,-2,-1,-9,-17,-3
1537917665177219,-1,-2,0,0,1,6,29,7
1537917665177219,-1,-1,0,1,-1,5,-10,-5
1537917665178216,-2,-3,-4,-3,-3,-10,-18,-20
1537917665178216,-2,-2,0,0,1,3,17,14
1537917665191182,6,2,-1,-1,-2,0,-11,1
1537917665191182,2,-1,0,-1,0,0,12,10
1537917665192179,-2,0,0,0,0,3,-3,-6
1537917665192179,-3,-1,-2,-2,-2,-5,-15,-1
1537917665214121,-2,0,-1,0,0,-3,11,0
1537917665214121,-4,-3,-2,-2,1,8,-18,-8
1537917665215118,2,1,2,1,0,7,19,-11
1537917665215118,-5,-1,-1,0,1,-17,-9,25
1537917665237059,-4,-2,1,1,0,-10,-12,-5
1537917665237059,5,0,-2,-3,-4,-13,-2,5
1537917665238056,-2,-3,-3,0,-1,6,-16,6
1537917665238056,-1,-1,-1,0,1,11,14,-4
1537917665251021,3,-1,-2,0,-1,20,27,2
1537917665251021,0,0,0,-1,0,-34,-3,2
1537917665252019,-5,0,0,-2,1,23,-15,-3
1537917665252019,0,1,-1,-1,-6,17,-4,-3
1537917665274957,-2,-2,0,-3,-3,-21,-1,6
1537917665274957,-1,2,1,3,4,43,-3,-3
1537917665274957,-5,-4,-2,-3,-5,-38,26,10
1537917665274957,1,-1,-1,3,12,46,-25,-8
1537917665296899,8,3,1,-2,1,-29,-1,10
1537917665296899,2,2,-1,0,-3,-3,32,-2
1537917665297896,0,-1,-3,5,8,29,-18,3
1537917665297896,3,-2,-1,-2,-4,-25,3,0
1537917665310861,-6,-5,-9,-2,-4,1,-17,-5
1537917665310861,-3,3,7,-2,0,-27,-4,2
1537917665311859,0,12,-4,-3,-5,0,17,-1
1537917665311859,8,4,-2,-3,-2,-14,-14,-3
1537917665334797,7,-13,5,3,1,19,19,19
1537917665334797,2,4,-5,0,1,-4,3,3
1537917665334797,-25,-6,-5,0,-3,-10,-19,8
1537917665334797,-4,1,1,0,1,-4,-15,-34
1537917665356739,21,10,2,-2,-4,14,78,21
1537917665356739,10,4,1,1,3,4,-14,-20
1537917665357736,8,-6,2,-1,-1,0,-26,21
1537917665357736,-4,-2,-4,0,1,-11,54,45
1537917665371699,-19,-5,-5,0,0,-3,-59,-28
1537917665371699,-13,-4,3,-1,-2,13,29,19
1537917665371699,-1,0,-4,1,2,-3,21,-16
1537917665371699,7,-6,0,-4,-6,-7,-14,-1
1537917665394638,-11,3,1,-1,0,1,-16,-12
1537917665394638,1,-2,6,0,0,2,1,4
1537917665395635,-8,-5,19,10,-6,-8,-4,0
1537917665395635,-7,2,-19,-13,1,-13,4,-5
1537917665416579,0,0,-4,1,1,13,0,1
1537917665416579,-6,-9,12,7,-5,-21,-10,-10
1537917665418574,22,9,-10,-12,5,56,9,4
1537917665418574,-5,-13,5,4,-5,-45,-12,-23
1537917665430542,-13,1,4,0,1,14,5,27
1537917665430542,-6,-19,-14,-11,-11,-68,-39,-45
1537917665439518,7,13,15,10,16,55,55,25
1537917665439518,-2,-5,1,4,3,1,20,24
1537917665454477,1,11,-9,-13,-20,-87,-36,-45
1537917665454477,-1,2,0,3,2,53,18,43
1537917665455475,-5,-11,-2,-2,0,-32,12,-21
1537917665455475,2,9,-4,-1,1,-19,-69,-21
