timestamp,emg1,emg2,emg3,emg4,emg5,emg6,emg7,emg8
1537918924840535,-2,-2,0,2,3,6,8,2
1537918924840535,-3,-3,-4,-5,-8,5,-7,-7
1537918924841532,0,-2,0,0,7,-2,-1,3
1537918924841532,1,0,2,2,3,-17,-3,4
1537918924842529,-2,0,-2,1,1,2,1,3
1537918924842529,-1,0,0,-2,-20,-7,1,-2
1537918924846517,-2,-2,-1,-1,-22,-34,-19,-3
1537918924846517,-3,-5,-3,-12,-26,36,30,-4
1537918924852502,1,0,1,-3,4,-4,-5,2
1537918924852502,-2,1,0,2,19,22,8,3
1537918924860480,0,1,0,3,17,-9,0,-1
1537918924860480,-2,-1,-1,2,10,1,-12,0
1537918924868458,-3,0,-2,-1,-9,-1,0,-2
1537918924868458,1,-2,0,-2,-1,-7,-3,1
1537918924882422,-2,1,0,0,-3,3,6,-1
1537918924882422,0,0,-1,1,3,-7,-8,-1
1537918924893396,1,-2,1,-1,4,13,-1,-1
1537918924893396,0,1,0,2,1,-20,-3,1
1537918924906356,-1,-1,0,0,2,29,8,0
1537918924906356,-2,0,0,0,1,-3,-2,0
1537918924914335,-3,-3,-5,-2,1,-21,-12,-5
1537918924914335,1,1,1,-2,-16,-6,22,7
1537918924927300,2,-2,-2,-3,9,42,-2,1
1537918924927300,-4,-1,0,1,-14,-36,-27,-3
1537918924969187,0,-1,-3,-6,-17,-22,-12,-1
1537918924969187,-3,1,0,3,6,-17,-8,-3
1537918924969187,1,-3,1,2,12,16,-3,-1
1537918924969187,-1,0,0,0,2,4,-1,-3
1537918924974174,-3,1,-1,2,4,-1,2,-3
1537918924974174,0,-2,-1,-2,1,-2,-2,-1
1537918924975172,2,-1,-1,2,11,-2,-1,7
1537918924975172,-8,-1,1,6,21,-1,-3,-2
1537918924979161,2,2,4,11,60,36,4,14
1537918924979161,-7,-6,-7,-18,-33,-11,-6,-13
1537918924988137,-2,-2,-4,-9,-43,-73,-20,-5
1537918924988137,-6,-4,-8,-21,-67,8,6,-17
1537918924994121,1,-3,-2,-3,3,20,-8,19
1537918924994121,0,0,3,19,86,47,-7,3
1537918925011076,3,1,3,3,-19,-45,8,-3
1537918925011076,-2,-1,0,4,28,49,-2,-4
1537918925017060,2,3,0,8,28,-57,-28,-3
1537918925017060,0,-1,0,-7,-17,8,10,3
1537918925039999,-6,-6,-10,-26,-36,69,-1,0
1537918925039999,13,2,3,14,-47,-94,-26,30
1537918925040996,-10,2,8,0,74,66,14,-45
1537918925040996,11,5,0,1,-59,-73,-14,-4
1537918925054958,-12,-3,-12,-35,-61,-16,6,-30
1537918925054958,-4,1,6,36,94,69,-44,-51
1537918925055956,-13,-5,-6,-32,-128,-102,-11,-29
1537918925055956,5,1,0,13,53,105,39,36
1537918925077897,-7,-4,-5,-1,103,100,5,-33
1537918925077897,-11,-6,-11,-48,-97,-54,-2,-38
1537918925078895,-10,7,9,27,81,-55,24,-7
1537918925078895,-3,-9,-11,-30,-128,-21,-18,-12
1537918925108814,14,6,29,83,107,1,16,29
1537918925108814,23,-3,-18,-25,-72,63,-14,48
1537918925108814,11,-11,1,19,102,94,-34,13
1537918925108814,-14,20,1,-4,-7,-9,-1,-22
1537918925114799,12,-10,-8,-17,-30,-60,-20,27
1537918925114799,-24,-7,-8,-17,108,108,27,-66
1537918925121780,26,23,-2,-35,-128,-94,13,30
1537918925121780,1,-8,2,17,-2,101,-48,-9
1537918925137737,6,-2,5,13,1,-20,2,23
1537918925137737,-6,-11,5,19,2,-116,-14,-49
1537918925138735,32,12,-12,-30,-85,100,-21,26
1537918925138735,15,31,21,35,109,48,8,17
1537918925160676,-9,-12,4,21,-5,-96,16,14
1537918925160676,14,11,1,-9,-61,102,0,-11
1537918925160676,-20,-21,-2,6,95,82,13,4
1537918925160676,-5,-1,2,6,12,-119,15,-12
1537918925175636,-16,2,-9,-37,-22,-21,-47,-41
1537918925175636,13,9,5,-2,41,-38,25,63
1537918925175636,-19,8,-7,8,-12,-50,41,-21
1537918925175636,-1,-34,0,16,29,11,-5,-10
1537918925197578,1,15,-6,-23,-16,29,-26,-22
1537918925197578,-17,-9,-16,-30,-32,-35,-4,26
1537918925198575,-16,-4,-3,-9,-23,-32,0,-16
1537918925198575,9,4,-2,-7,-45,-32,52,19
1537918925220518,3,3,2,18,13,53,-10,-11
1537918925220518,0,2,6,16,-6,-21,1,16
1537918925227499,9,-3,4,22,38,0,-14,7
1537918925227499,-7,-5,-9,-18,-27,-29,-19,-8
1537918925234480,0,-4,2,2,2,30,22,17
1537918925234480,-3,1,5,12,31,-12,5,8
1537918925242457,-6,-8,-3,-4,-36,-9,1,-2
1537918925242457,-3,-6,-1,-8,28,25,3,3
1537918925257417,-5,1,-3,-10,-34,6,11,2
1537918925257417,7,2,3,11,13,-17,7,13
1537918925258414,-1,-5,-1,-1,1,11,-2,-10
1537918925258414,-3,-2,-5,-14,-26,-9,-9,1
1537918925280356,4,3,0,4,15,2,4,6
1537918925280356,-4,2,1,3,-2,-16,-1,1
1537918925281353,-2,-7,0,2,0,9,2,6
1537918925281353,1,3,-4,-4,6,-2,-4,-2
1537918925294318,-2,2,-1,-1,-13,2,3,-1
1537918925294318,1,-5,1,6,18,0,11,12
1537918925302297,-4,-3,-3,-5,-19,0,-4,-3
1537918925302297,-6,-2,0,-1,0,-7,-1,2
1537918925318254,1,-1,-1,-2,4,9,3,-7
1537918925318254,-1,2,3,5,-2,0,-1,4
1537918925318254,1,-1,-3,-4,-2,-6,-2,3
1537918925318254,4,-1,-2,-5,-6,-7,-4,1
1537918925348174,0,0,0,1,1,6,4,5
1537918925348174,-2,0,1,0,5,-3,3,-2
1537918925349172,-1,-2,-1,1,-7,0,-2,-2
1537918925349172,-7,-3,-1,0,8,7,3,2
1537918925354158,-3,-2,-2,-2,-6,-9,-4,1
1537918925354158,0,-1,0,-1,7,11,1,3
1537918925362137,4,-1,2,3,-16,-19,-11,-8
1537918925362137,1,-1,-3,-6,-9,2,-1,4
1537918925378094,-2,-1,0,1,2,1,-9,-4
1537918925378094,-5,-1,2,6,17,10,13,-4
1537918925378094,3,1,0,-1,-12,-23,-9,8
1537918925378094,-7,-2,0,-1,6,32,8,0
1537918925400036,-1,0,0,-1,-2,0,-11,2
1537918925400036,0,0,1,-1,-5,-2,-4,-5
1537918925401034,0,-2,-2,-4,4,8,-7,-12
1537918925401034,-2,-1,1,2,1,-14,1,-1
1537918925414996,-1,-3,-1,0,6,16,7,4
1537918925414996,-5,0,1,8,33,7,-2,-1
1537918925421977,-8,-1,3,7,-9,-36,8,1
1537918925421977,10,1,-3,-4,-17,28,-15,9
1537918925437937,-1,-4,-7,-6,22,12,-5,-1
1537918925437937,-3,-5,-4,-15,-72,-100,-10,-6
1537918925438934,-7,-5,-2,7,47,102,-5,-33
1537918925438934,10,1,0,1,10,7,64,79
1537918925459877,14,6,4,8,8,-25,25,4
1537918925459877,20,5,-6,-16,-90,-74,-53,-11
1537918925460875,6,3,0,6,84,-20,-8,44
1537918925460875,-16,-6,-5,-10,-8,57,-10,-58
1537918925474837,6,1,-1,-5,-74,-25,12,31
1537918925474837,24,-5,-29,-83,-66,-46,-13,58
1537918925481819,-3,1,9,13,53,83,-11,-24
1537918925481819,0,-3,-1,13,80,-42,-27,37
1537918925497776,12,-1,2,17,78,2,24,-15
1537918925497776,-26,1,20,42,39,-86,67,-22
1537918925498774,-1,-3,-8,-31,-113,39,32,46
1537918925498774,4,6,4,16,41,86,-37,-28
1537918925520715,-1,-14,5,22,33,-33,-2,-21
1537918925520715,-2,-5,5,32,93,127,14,22
1537918925520715,-1,3,-6,-21,23,-44,-22,-42
1537918925520715,-29,7,7,1,-51,35,51,-10
1537918925534676,5,5,-12,-37,-94,41,-13,-18
1537918925534676,0,1,5,20,67,-56,-17,-36
1537918925550633,2,-7,-4,-7,-109,-51,32,19
1537918925550633,8,-3,-8,-7,-24,-22,-40,-67
1537918925557615,-3,4,4,15,98,-15,24,10
1537918925557615,-9,-4,6,35,87,-6,-21,-12
1537918925558612,1,-6,-19,-62,-112,-38,14,25
1537918925558612,-1,-6,-8,-27,-27,-128,10,23
1537918925580553,-5,-2,1,0,16,27,-15,3
1537918925580553,-1,-1,-6,-10,3,55,-1,-10
1537918925587535,-4,3,8,37,76,-3,-10,-10
1537918925587535,1,-1,0,-7,-13,10,4,-2
1537918925602496,-9,-1,-2,-9,-26,16,-7,15
1537918925602496,4,4,-4,-3,-40,53,-3,18
1537918925603494,1,0,-2,3,16,-13,-10,-6
1537918925603494,3,-3,-2,-4,-12,0,-6,1
1537918925617456,-7,1,0,3,-10,-10,-7,-10
1537918925617456,0,2,-2,-7,-27,-9,8,-2
1537918925618454,1,0,1,15,30,15,3,-10
1537918925618454,-1,-3,-3,-2,8,-26,-5,-4
1537918925640395,-6,0,-2,2,-20,-12,-9,-5
1537918925640395,0,-3,-2,-10,-6,33,4,2
1537918925641394,1,-1,1,4,5,8,0,3
1537918925641394,2,0,1,5,6,5,-7,4
1537918925663333,-1,-1,-1,-8,-13,-11,-6,1
1537918925663333,-1,-1,2,-3,-11,19,2,-1
1537918925663333,-1,1,4,12,16,-4,-2,-6
1537918925663333,4,0,1,0,0,-23,-5,0
1537918925678293,1,0,-2,-7,-8,2,-2,-2
1537918925678293,-7,-2,-1,-3,-5,1,3,-6
1537918925678293,3,0,4,4,13,-4,-2,0
1537918925678293,-1,-2,0,2,5,2,-10,-1
1537918925700233,-5,-2,0,-5,-10,4,4,-6
1537918925700233,1,-2,-2,1,-8,10,1,6
1537918925701231,-3,-2,1,4,16,-3,0,-3
1537918925701231,-2,-1,-2,0,-15,-14,-1,6
1537918925723172,-2,-2,0,-2,9,-15,-11,-9
1537918925723172,-6,1,0,2,7,42,-4,-10
1537918925723172,1,0,-1,-8,-41,-21,14,-11
1537918925723172,0,0,-1,5,4,-12,-11,1
1537918925738132,-7,-1,-2,-5,-17,-11,-3,8
1537918925738132,4,0,1,-2,9,8,-4,4
1537918925738132,-1,0,-1,5,18,0,1,9
1537918925738132,1,-2,-1,2,5,24,16,0
1537918925760073,-1,-1,-2,0,-4,6,1,13
1537918925760073,1,-2,-3,-4,-8,0,-12,16
1537918925761071,1,0,1,2,5,3,-2,-1
1537918925761071,0,-2,0,0,-1,-18,-2,-1
1537918925783012,-2,-2,-1,0,1,9,5,-8
1537918925783012,2,-1,1,2,-5,-13,-6,-4
1537918925783012,-7,-2,0,1,3,-8,-9,-1
1537918925783012,4,-2,0,-2,3,4,2,-6
1537918925797972,1,-1,0,-1,-1,5,-6,-1
1537918925797972,0,0,1,3,11,13,6,-4
1537918925797972,1,0,1,4,11,-19,0,-4
1537918925797972,-1,-2,-5,-13,-30,0,-2,-1
1537918925828889,2,-1,0,2,2,21,-5,1
1537918925828889,1,0,0,1,13,-5,5,2
1537918925828889,-2,-2,-2,-4,-17,-27,-4,0
1537918925828889,-4,0,-1,2,9,18,-1,-5
1537918925842852,4,0,-3,-1,-10,-7,-6,2
1537918925842852,-1,0,0,2,9,7,4,0
1537918925843850,0,-1,-2,2,12,14,5,-4
1537918925843850,-4,1,-2,0,-3,-10,-1,-3
1537918925857812,-3,-2,-1,-3,-3,-2,-3,-4
1537918925857812,-1,0,-1,-2,-3,-5,2,-6
1537918925858810,-1,-3,-1,-3,-1,7,-3,7
1537918925858810,-1,-1,0,-1,-7,-5,2,1
1537918925880752,-2,0,-2,-2,3,2,4,-3
1537918925880752,-1,0,-1,-2,-11,-14,-4,0
1537918925880752,1,1,0,-2,-3,8,1,1
1537918925880752,3,0,2,3,12,11,-2,-4
1537918925902694,-3,-2,0,2,0,-5,-3,-1
1537918925902694,-1,0,1,-1,-9,-13,3,1
1537918925903692,0,1,0,3,10,30,1,0
1537918925903692,-1,-1,-1,2,12,-19,-3,-2
1537918925917654,1,-2,-8,-18,-52,-35,-2,-2
1537918925917654,0,0,-4,-2,-10,-11,0,-1
1537918925918652,-2,-2,0,4,17,31,0,-5
1537918925918652,0,0,2,7,22,-5,-6,2
1537918925939594,-1,-1,-2,-2,-15,-7,-1,-5
1537918925939594,0,-2,-2,-1,-4,1,10,-2
1537918925947573,-1,-3,-1,0,1,-9,-5,3
1537918925947573,0,0,-2,-3,6,13,0,2
1537918925963530,0,0,0,0,14,4,1,5
1537918925963530,-1,0,-1,0,-14,-7,-1,2
1537918925971509,-1,-2,-2,-2,3,12,-2,0
1537918925971509,-1,-2,-1,-5,-13,-10,3,11
1537918925979487,0,0,2,4,10,4,2,-16
1537918925979487,0,-1,-3,-2,4,6,-6,-7
1537918925981482,-2,-1,-2,0,-4,-5,3,-1
1537918925981482,-1,-1,0,-1,-3,1,0,-1
1537918925992452,2,1,0,1,8,7,-1,3
1537918925992452,-1,-2,-1,-2,-4,-6,-2,-2
1537918925999434,-1,1,0,-1,-1,-10,-3,-4
1537918925999434,-1,-1,1,-2,-1,-3,-2,-6
1537918926014393,-2,-3,0,-1,10,11,1,2
1537918926014393,-1,-1,2,-3,-6,-5,0,1
1537918926022372,1,-1,-1,-3,-10,3,-2,-4
1537918926022372,0,0,2,3,17,5,-1,-3
1537918926038329,2,0,2,6,12,-28,-3,3
1537918926038329,-2,0,-1,-7,-31,19,3,0
1537918926038329,-2,-1,-3,-6,-5,-12,-4,-5
1537918926038329,-1,-1,-1,-2,-10,1,-5,-5
1537918926052292,-4,-3,-3,-1,9,9,0,-2
1537918926052292,0,-2,0,2,13,1,-2,-3
1537918926059274,-1,-3,-1,1,-5,-6,-3,2
1537918926059274,-4,-1,0,0,2,11,-1,-8
1537918926074234,-3,-1,2,3,-4,-8,0,2
1537918926074234,-3,-2,-3,-6,-6,-3,0,0
1537918926082213,1,1,0,-2,-7,0,-5,-1
1537918926082213,1,-2,-2,0,-1,-1,5,1
1537918926098171,-2,-2,-3,-2,-9,-11,-4,0
1537918926098171,-2,-1,1,1,7,14,0,-2
1537918926098171,-4,-3,0,-5,-10,5,0,-1
1537918926098171,-2,-2,-2,-1,5,5,-3,-3
1537918926112133,0,0,-1,-1,-9,5,1,-1
1537918926112133,-2,-1,2,4,17,-9,-2,-1
1537918926120112,2,1,-2,3,8,-25,-3,-1
1537918926120112,3,0,0,-5,-26,17,3,5
1537918926135072,-2,-2,-2,-4,-8,-8,-2,-1
1537918926135072,-1,0,-1,-1,1,4,-1,0
1537918926143050,-1,-1,0,-1,3,-19,-3,-2
1537918926143050,-2,-2,-2,-2,0,12,0,-2
1537918926157012,0,-2,-1,1,7,9,0,-2
1537918926157012,0,-1,-2,0,-1,-7,0,2
1537918926164991,-1,-2,-1,3,-1,8,1,1
1537918926164991,-2,0,-1,-1,-2,-14,-4,-4
1537918926179951,3,0,-1,-1,-2,8,1,-2
1537918926179951,0,-1,-1,-1,-1,-4,-3,-2
1537918926180949,5,0,-1,-3,-3,2,0,-1
1537918926180949,-2,0,-1,-2,-5,-6,-1,0
1537918926195908,-4,0,0,2,4,4,2,-4
1537918926195908,-1,0,-1,-1,-8,-18,-2,-1
1537918926202890,-2,0,0,1,13,25,-1,0
1537918926202890,-1,-1,1,3,-2,-32,-2,-1
1537918926216852,0,-3,-5,-12,-10,18,-2,0
1537918926216852,-3,-1,2,8,35,0,-3,-5
1537918926224831,-2,1,1,1,-8,-66,-7,10
1537918926224831,3,-1,-1,-4,-20,62,22,3
1537918926231812,-8,-2,7,26,89,-18,-24,-37
1537918926231812,12,1,-11,-37,-110,-39,-22,-31
1537918926239791,7,0,-3,-3,17,-49,51,48
1537918926239791,1,1,7,32,59,83,-1,9
1537918926254751,-20,-9,-18,-70,-98,-122,-61,-101
1537918926254751,-5,2,12,58,127,127,12,21
1537918926261733,0,6,-6,-60,-128,-55,-6,-32
1537918926261733,-8,-4,-6,-7,91,-53,31,15
1537918926276692,26,14,13,46,85,81,32,77
1537918926276692,1,12,14,36,83,-86,-3,-10
1537918926285669,-15,-7,11,73,127,102,-50,-58
1537918926285669,5,-3,-9,-60,-54,57,39,33
1537918926291652,-12,-13,-21,-17,-8,-48,-44,-18
1537918926291652,15,54,-3,-24,-103,-81,42,-16
1537918926299631,11,-19,-17,-19,-47,16,-15,50
1537918926299631,-23,-20,27,32,47,27,-11,-42
1537918926314591,18,7,-43,-6,-8,69,12,-6
1537918926314591,-31,-12,-8,-46,16,-3,-33,55
1537918926322570,-9,14,5,13,-68,45,-16,-49
1537918926322570,18,36,3,3,-23,-64,-85,-29
1537918926337529,7,-3,29,21,17,72,55,49
1537918926337529,-14,-30,-19,10,2,-4,-61,-43
1537918926345509,13,4,-4,-18,27,-15,24,14
1537918926345509,1,17,2,6,-15,13,-5,-2
1537918926361466,-11,-16,6,23,37,10,8,-11
1537918926361466,-10,2,6,-2,-3,10,13,17
1537918926362463,4,2,3,-9,0,-4,-6,-11
1537918926362463,1,-21,-7,7,-19,-33,11,21
1537918926382410,-5,5,7,1,-9,-10,0,-3
1537918926382410,4,-16,-1,-15,-32,10,25,1
1537918926383407,-5,-7,0,2,8,-8,2,19
1537918926383407,-6,4,-1,5,11,-16,-2,-20
1537918926397371,5,10,5,-9,-19,-12,7,20
1537918926397371,-2,-13,-7,-12,-13,-3,-5,3
1537918926405349,-2,8,2,12,24,9,3,-9
1537918926405349,6,-1,-8,-14,-5,-25,-7,5
1537918926420309,-12,-6,-1,-16,-39,-12,-2,4
1537918926420309,12,5,7,14,16,18,6,-3
1537918926421306,-6,-6,-1,6,22,6,2,-6
1537918926421306,-3,-8,-6,-7,-25,-14,4,0
1537918926434271,1,0,0,2,-3,-8,3,15
1537918926434271,1,0,2,6,21,15,5,-8
1537918926443248,0,-1,-3,-5,1,-1,3,4
1537918926443248,-6,-6,-6,-3,-13,-16,-7,2
1537918926466186,1,5,8,7,11,-1,3,1
1537918926466186,4,-4,-3,-2,-1,1,1,2
1537918926467183,-8,-4,1,-3,-1,0,0,0
1537918926467183,3,1,0,3,1,-4,-5,-8
1537918926480149,-3,-2,-2,-4,0,-2,-2,0
1537918926480149,-1,-5,-3,-7,-12,1,8,-1
1537918926481147,-2,-3,-1,-4,-4,-4,-1,4
1537918926481147,-2,0,1,3,12,-11,6,1
1537918926495110,1,2,1,-3,-12,11,-3,2
1537918926495110,0,-4,0,-1,-1,8,-4,-5
1537918926503088,1,1,-1,-1,1,-22,0,3
1537918926503088,0,0,-3,-3,-11,-5,-3,2
1537918926517051,-4,-3,2,-1,1,-14,5,-10
1537918926517051,4,1,-1,-1,1,14,-1,-1
1537918926525031,-2,-3,-1,1,9,11,6,24
1537918926525031,-5,-4,-1,-3,-5,-2,-5,-40
1537918926539990,4,0,1,1,0,-6,-11,21
1537918926539990,-3,0,-3,1,2,2,1,-6
1537918926540989,2,0,0,-1,3,1,3,-2
1537918926540989,-4,-3,-2,-2,-4,-5,-1,0
1537918926554949,0,0,0,2,4,2,2,-2
1537918926554949,1,-2,-1,-1,-1,-6,2,2
1537918926562927,-5,-1,-1,0,1,4,-5,-10
1537918926562927,2,2,-1,1,-1,-1,0,9
1537918926576890,2,-2,-5,-7,-6,-5,0,-7
1537918926576890,-2,-2,0,-1,-4,-2,0,4
1537918926584868,-1,-1,1,3,5,1,4,-11
1537918926584868,0,-1,2,4,2,9,0,3
1537918926599828,-14,2,9,24,84,43,-2,-20
1537918926599828,4,0,0,0,-38,-93,26,17
1537918926600826,5,-1,-4,-7,-16,76,-23,-3
1537918926600826,-7,-3,6,22,32,-13,29,5
1537918926614789,4,6,-3,-5,-12,12,-25,0
1537918926614789,3,-4,-4,-5,19,39,-45,-22
1537918926622767,-1,5,10,13,23,7,43,-6
1537918926622767,2,-6,-13,-42,-112,-9,26,71
1537918926636730,12,-13,-13,-29,-58,-50,0,15
1537918926636730,-16,0,-4,6,21,55,-22,-21
1537918926645706,15,21,17,19,102,122,-18,14
1537918926645706,12,-6,-31,-86,-80,-86,-20,-28
1537918926660667,-15,8,11,15,58,-10,40,-45
1537918926660667,13,-9,-3,-14,1,-58,10,35
1537918926660667,-17,8,-4,16,2,37,-1,-28
1537918926660667,-23,-80,11,50,71,54,-35,-47
1537918926674630,17,70,14,12,33,34,-21,-21
1537918926674630,-12,-29,-11,-25,-75,-72,28,-4
1537918926682608,23,30,4,17,51,-88,38,32
1537918926682608,-11,-6,2,10,32,30,15,3
1537918926697568,-5,-22,-11,-16,-74,42,-34,-4
1537918926697568,-10,-6,3,2,1,73,53,67
1537918926705546,-8,-11,-11,-24,-40,-79,1,-5
1537918926705546,12,14,6,16,75,35,-23,-18
1537918926720506,-4,-24,-10,-18,-56,-6,14,22
1537918926720506,6,28,1,-7,-30,-62,-22,-12
1537918926720506,-10,-18,-7,-21,-51,-33,-22,-15
1537918926720506,6,18,6,23,39,-15,6,4
1537918926734469,-4,-6,3,10,28,2,16,4
1537918926734469,4,6,2,1,7,22,-9,-6
1537918926742447,-2,-16,-7,-11,-26,-14,-13,-6
1537918926742447,-2,16,3,-1,-15,21,-7,-2
1537918926757407,1,-1,-2,-4,2,-19,1,17
1537918926757407,-1,-4,0,0,-1,34,-6,-15
1537918926766383,-6,-8,-2,3,8,-2,-10,0
1537918926766383,4,18,-2,-2,3,-14,11,10
1537918926780346,-4,-12,-4,-4,-11,-12,5,12
1537918926780346,-3,3,4,17,41,14,-9,-16
1537918926788324,7,2,-5,-9,-14,0,3,-4
1537918926788324,0,7,-2,-7,-22,-6,-7,3
1537918926794308,2,-5,-1,3,0,-9,-1,0
1537918926794308,-2,11,2,9,17,24,-14,-10
1537918926803285,-18,-29,-2,-2,-8,-5,13,-2
1537918926803285,1,-19,-3,-6,-14,7,20,10
1537918926817247,5,9,4,3,9,-7,-19,-10
1537918926817247,9,6,3,3,15,-2,-10,-15
1537918926825226,7,7,0,-4,-6,3,5,48
1537918926825226,-1,5,-1,2,-1,-8,-6,12
1537918926840186,-13,-10,0,2,5,0,-32,-70
1537918926840186,-7,1,-3,-3,-1,1,-32,10
1537918926841183,-20,-4,-1,0,-15,-6,0,-37
1537918926841183,30,10,4,2,1,-3,-26,21
1537918926862127,6,4,2,4,6,-6,15,7
1537918926862127,3,-4,0,4,13,20,4,17
1537918926871103,-1,-5,-5,-11,-8,10,23,8
1537918926871103,-11,5,-1,-3,-15,-32,-62,-62
1537918926893044,-2,-2,-2,-7,-8,10,-11,41
1537918926893044,5,1,2,6,20,-19,68,17
1537918926895040,1,-7,3,12,26,63,-13,4
1537918926895040,-6,4,-7,-12,-49,-32,11,0
1537918926908005,2,2,7,-8,-5,-21,-30,18
1537918926908005,-4,-9,-13,-4,-6,-1,34,-15
1537918926910000,2,0,3,-1,7,-18,-12,2
1537918926910000,-10,7,4,4,27,60,65,2
1537918926921968,3,-5,-3,2,-5,-22,-48,-8
1537918926921968,1,-5,4,1,9,29,23,-1
1537918926930944,6,0,-7,0,-11,-48,-34,-11
1537918926930944,-9,-7,4,3,5,7,23,5
1537918926944906,1,9,-12,-2,1,12,32,18
1537918926944906,-3,-21,3,5,5,32,5,-1
1537918926951887,-2,-5,-3,-1,-3,5,10,-3
1537918926951887,-2,-18,-2,1,-1,-24,-12,1
1537918926968842,0,-10,-2,-3,-1,-19,8,2
1537918926968842,-2,53,31,-1,-7,26,-28,-6
1537918926969839,0,-45,-30,1,2,-3,41,12
1537918926969839,-4,-5,-6,-3,4,6,0,3
1537918926981807,3,-9,-2,3,0,-27,-19,-2
1537918926981807,-7,-4,-7,-5,-6,-12,8,-16
1537918926990783,8,13,16,-2,-7,14,0,5
1537918926990783,1,9,0,-1,1,-33,-13,7
1537918927005744,-3,-7,-3,1,8,58,26,2
1537918927005744,-5,-2,-3,-3,-6,7,-7,-13
1537918927013723,4,15,6,2,4,-17,-41,0
1537918927013723,0,1,-4,2,1,-13,-2,-3
1537918927028683,-4,6,5,1,-2,-10,10,-7
1537918927028683,-2,-10,-7,-4,3,2,-8,-4
1537918927029681,-2,2,-1,-6,-10,-13,-1,-5
1537918927029681,-9,4,0,0,2,12,-6,-2
1537918927050626,13,0,3,2,0,-10,20,6
1537918927050626,-2,-6,-7,-1,-4,-12,-17,-1
1537918927052620,-2,4,-1,-5,-8,-8,6,-7
1537918927052620,2,7,4,1,7,23,-3,-1
1537918927065585,-11,-2,-2,1,3,10,12,0
1537918927065585,7,-6,-4,0,-1,-15,-12,4
1537918927072566,-3,7,3,-4,-5,-9,-13,-8
1537918927072566,2,-1,0,-1,1,3,5,1
1537918927088524,-6,-2,-2,0,-2,-4,7,0
1537918927088524,2,-2,0,4,6,8,-11,-3
1537918927089523,-3,2,1,-2,-4,-2,2,-2
1537918927089523,0,-2,-3,0,2,11,2,2
1537918927111462,-1,-4,-2,-1,-1,-9,6,1
1537918927111462,2,-1,0,0,-1,-12,-7,1
1537918927112461,-4,3,0,0,0,5,-1,-1
1537918927112461,0,0,-2,-1,-1,0,-2,-2
1537918927133404,-1,0,0,-3,0,1,-1,0
1537918927133404,1,-4,-4,-3,-1,-9,-5,1
1537918927135400,-1,0,1,-1,0,3,-4,-4
1537918927135400,1,1,1,1,-3,1,-2,0
1537918927139388,-4,-2,2,0,0,0,5,-1
1537918927139388,2,-2,-1,-1,0,-2,-5,0
1537918927148365,1,0,-1,-2,-2,-2,0,0
1537918927148365,0,2,0,-1,-3,-3,-2,-1
1537918927154347,1,0,-2,-1,0,7,4,2
1537918927154347,0,-2,-4,-1,-2,-6,-4,-3
1537918927163323,-1,2,2,0,-1,-2,-4,-2
1537918927163323,-1,-2,2,0,-1,0,0,-1
1537918927177285,0,-1,-1,0,-2,3,1,-2
1537918927177285,-2,-2,-1,-2,-2,-6,-6,1
1537918927186261,-2,0,0,1,-2,-4,-18,-3
1537918927186261,1,-1,0,-1,0,7,20,1
1537918927199227,-1,-2,-1,2,-1,-8,-26,1
1537918927199227,-1,1,-2,0,-1,9,36,2
1537918927208203,-4,-1,0,-1,-2,-9,-37,-6
1537918927208203,-4,-3,-1,-1,-2,6,24,-5
1537918927214187,3,1,-2,-3,-2,4,33,5
1537918927214187,-2,-4,-3,-3,0,-10,-13,-1
1537918927223162,3,1,1,1,2,1,-4,2
1537918927223162,-1,-1,0,-3,-5,-6,-39,-3
1537918927237126,-3,-2,-1,-3,-2,1,0,-1
1537918927237126,0,0,-1,-2,-1,-1,2,-3
1537918927246102,-1,0,-1,-2,-2,1,3,-1
1537918927246102,-1,-2,-2,1,1,-4,-7,1
1537918927260064,-2,-2,-1,0,1,5,4,-2
1537918927260064,-1,-1,-2,0,0,-3,-9,-3
1537918927268042,-1,-1,-1,-2,0,-3,2,-1
1537918927268042,0,1,-1,2,2,12,20,2
1537918927283002,-2,2,-2,-4,-2,10,16,1
1537918927283002,-4,-11,-2,-1,-3,-19,-35,0
1537918927284997,3,1,3,3,3,0,5,1
1537918927284997,-2,2,0,0,1,-8,-7,-1
1537918927296965,-1,1,1,2,0,5,-5,-4
1537918927296965,1,0,-3,-6,-3,4,11,-1
1537918927305941,-6,-5,-3,-4,-4,9,1,-6
1537918927305941,-2,-1,1,-1,-1,-17,-48,-5
1537918927319904,0,0,0,2,3,-4,45,5
1537918927319904,2,3,2,1,2,11,39,4
1537918927328880,1,-5,-3,-4,-3,-2,-1,-1
1537918927328880,-24,7,3,-2,-2,17,29,-8
1537918927343842,37,-1,2,3,0,-28,-117,10
1537918927343842,11,4,3,6,5,-22,5,9
1537918927344840,1,3,0,2,0,9,22,0
1537918927344840,-16,-2,-2,-5,-4,-2,1,-10
1537918927356807,-3,-3,5,-3,-2,19,77,4
1537918927356807,1,-1,-9,-2,1,-4,-29,-18
1537918927365782,-3,5,6,5,16,17,-9,15
1537918927365782,-10,-4,6,8,35,19,-27,18
1537918927379743,-9,3,-20,6,6,-92,-35,4
1537918927379743,23,-9,9,4,32,82,31,8
1537918927388720,-17,-4,-26,-24,-77,-31,-15,-11
1537918927388720,-31,-82,-34,22,48,-36,9,-1
1537918927403680,41,93,32,-39,-98,9,5,22
1537918927403680,-21,-7,11,-9,19,-128,-85,-28
1537918927404677,91,16,7,-5,-101,37,54,37
1537918927404677,35,3,-43,-25,45,117,3,2
1537918927416645,-17,-2,35,75,123,-60,-6,-92
1537918927416645,-61,-16,-3,-9,-100,-23,60,12
1537918927425621,-44,-83,-50,-33,59,-37,5,-25
1537918927425621,-3,48,-30,9,51,-128,-43,21
1537918927448560,51,-6,55,-13,-57,127,68,41
1537918927448560,38,42,34,14,-41,-23,-43,-44
1537918927449558,-70,-68,-73,-42,31,-36,-5,-15
1537918927449558,-45,93,90,30,7,-25,4,-42
1537918927463521,65,-9,29,5,-12,42,-19,21
1537918927463521,62,-76,-77,-34,-17,-28,-17,23
1537918927464518,-92,21,79,38,79,98,47,30
1537918927464518,95,79,23,-3,-90,-77,31,51
1537918927477483,-107,-87,-68,-3,37,38,-27,-54
1537918927477483,-8,42,24,9,4,82,2,-18
1537918927486460,36,-106,-123,-14,26,28,-20,46
1537918927486460,28,69,86,26,39,99,7,13
1537918927499425,-5,85,90,39,-34,-46,-10,-22
1537918927499425,7,-29,-57,-12,9,-12,-17,32
1537918927508401,18,48,13,2,48,3,-10,-30
1537918927508401,-45,-101,-10,14,-50,-18,-1,-42
1537918927525355,22,-14,-59,-28,13,-51,-15,47
1537918927525355,-43,-12,6,-35,-40,-12,-10,-54
1537918927526353,30,41,46,29,-25,-21,4,34
1537918927526353,36,-48,-34,-57,-35,46,10,19
1537918927537323,-49,-30,-43,-16,-3,-51,-17,-30
1537918927537323,0,35,4,27,44,11,10,15
1537918927546300,12,13,60,34,12,29,-9,-34
1537918927546300,-10,-9,-28,-2,-64,-64,-6,5
1537918927559265,-46,-25,-30,-19,57,29,-4,-46
1537918927559265,4,-3,4,-18,-67,3,12,33
1537918927568240,9,32,-2,-20,-47,-34,-21,-26
1537918927568240,-21,-35,-14,43,48,33,-2,-26
1537918927583200,-8,-21,28,15,36,31,19,22
1537918927583200,16,34,-62,-43,16,-6,2,6
1537918927585195,-18,1,12,20,14,-12,-2,0
1537918927585195,-6,-7,-17,-28,-9,9,-8,-8
1537918927606138,3,-13,-13,-1,-26,-15,-1,7
1537918927606138,-9,2,18,26,18,24,2,9
1537918927607136,2,10,-22,4,-3,-9,-6,-6
1537918927607136,-20,-26,11,-9,-2,-2,1,-11
1537918927619104,2,11,-7,-12,-30,-1,-5,10
1537918927619104,43,7,17,17,31,8,6,11
1537918927628080,-2,10,18,-7,-5,-15,-8,-5
1537918927628080,5,-18,-2,-10,-23,-9,-3,-3
1537918927643040,-6,3,-21,-11,-2,9,2,11
1537918927643040,-6,-5,12,12,20,13,4,-4
1537918927645035,2,0,19,4,-10,-17,3,-8
1537918927645035,7,2,-14,-9,1,9,6,2
1537918927657003,-12,-4,-17,-9,-13,5,2,3
1537918927657003,-19,-8,21,12,15,3,3,-8
1537918927665980,11,4,1,-1,-13,-12,-3,-7
1537918927665980,-2,3,-10,-8,1,2,-6,1
1537918927679942,5,0,0,1,5,0,-6,11
1537918927679942,-13,-10,10,6,0,-1,-4,4
1537918927688919,6,11,0,-1,3,-1,-3,11
1537918927688919,-2,0,-2,-8,-5,4,1,-1
1537918927703878,4,-9,0,0,-5,-3,0,2
1537918927703878,-9,-3,-2,4,7,4,1,-1
1537918927704879,-2,6,3,0,0,-1,2,0
1537918927704879,0,0,4,-1,-1,1,1,-2
1537918927716843,2,-5,-6,-3,-9,0,-1,-1
1537918927716843,-10,-1,2,2,9,4,1,-4
1537918927725819,1,3,3,-2,-4,-6,-3,-8
1537918927725819,2,-3,-1,-3,-5,-2,0,-3
1537918927739781,2,0,-5,-2,-2,3,0,0
1537918927739781,-7,-1,3,3,4,3,3,-6
1537918927748757,3,0,3,0,-3,-5,-2,-5
1537918927748757,1,0,-3,-2,0,2,-2,2
1537918927763717,-3,-1,-4,-2,-1,2,0,-5
1537918927763717,-5,-3,5,2,3,-1,-1,-3
1537918927764715,1,0,-2,-2,-3,0,5,-1
1537918927764715,-1,-2,-5,-2,-1,-2,-2,-3
1537918927776682,0,0,0,0,-1,-5,-3,0
1537918927776682,-1,-3,2,1,0,-2,-2,2
1537918927785658,2,3,0,2,0,-3,-4,-1
1537918927785658,0,-1,-1,-2,-1,2,1,0
1537918927799621,1,0,-1,-1,-3,0,1,-1
1537918927799621,-4,-1,-3,-1,1,0,2,-1
1537918927808597,-1,0,-1,-1,-1,-1,-5,0
1537918927808597,-2,-2,2,0,0,-5,-9,-1
1537918927823557,-1,0,-1,0,-1,-2,-20,-3
1537918927823557,-3,0,-1,1,2,4,20,-1
1537918927824555,1,1,0,1,0,1,13,4
1537918927824555,3,1,0,1,-1,-1,4,6
1537918927837520,2,-2,-4,-5,-5,-3,-1,3
1537918927837520,-1,0,-2,1,1,-1,-13,-4
1537918927845499,-3,0,4,0,-3,-3,-6,-5
1537918927845499,-7,-3,-1,-1,-2,0,7,-8
1537918927860459,0,-2,-1,0,13,-2,-11,4
1537918927860459,-16,-7,-14,-16,-21,-7,-8,12
1537918927867440,27,10,-7,6,19,10,-24,0
1537918927867440,9,-15,5,3,14,16,25,8
1537918927883397,18,17,-3,7,24,-27,18,6
1537918927883397,26,-14,20,-4,11,78,-3,-16
1537918927885392,-18,-20,-11,-16,-66,22,-38,26
1537918927885392,14,-15,-50,-20,38,-1,-20,30
1537918927897360,16,57,58,46,15,51,0,2
1537918927897360,-22,-25,14,-8,49,-75,7,-23
1537918927906336,10,14,-34,-12,-44,-22,-4,-10
1537918927906336,7,34,-1,-19,-20,-9,-6,4
1537918927919301,-12,-80,-25,-11,10,89,24,-20
1537918927919301,-14,103,49,26,-31,-95,-38,-34
1537918927928277,-40,-43,-17,-16,3,35,-5,-53
1537918927928277,-32,16,38,45,80,88,40,57
1537918927943237,13,64,-48,-14,-47,-111,14,44
1537918927943237,30,7,100,38,32,27,-12,-27
1537918927945232,16,-5,5,-29,-56,-77,3,42
1537918927945232,-7,-68,-84,47,-53,44,-38,17
1537918927957200,-19,15,-23,-81,98,12,4,7
1537918927957200,6,-110,-74,-39,-88,-50,-15,41
1537918927966177,28,87,-6,-6,-29,-12,40,74
1537918927966177,-39,91,22,-57,43,-2,-9,-54
1537918927980140,-7,-28,-2,29,-91,-47,-24,-23
1537918927980140,24,-12,-51,9,67,29,32,20
1537918927988119,-26,-49,25,34,37,10,-7,-53
1537918927988119,23,7,3,16,-30,-41,-20,4
1537918928003078,-21,34,50,17,36,18,13,-21
1537918928003078,-3,-90,-35,0,-2,25,-7,-20
1537918928009062,-11,18,25,14,2,20,4,11
1537918928009062,14,39,54,10,4,-46,3,-28
1537918928032998,-7,-28,-25,-3,-36,0,-5,-12
1537918928032998,-11,28,-10,-17,-17,0,1,-9
1537918928034994,27,-20,-33,-14,30,-2,15,45
1537918928034994,-1,-31,9,6,-6,-5,3,-23
1537918928047958,3,-12,-6,0,-37,-21,-4,-2
1537918928047958,-18,15,-22,-28,-17,15,6,6
1537918928054940,-8,-1,11,1,13,4,-3,-18
1537918928054940,6,-6,12,1,-9,-6,1,-14
1537918928070897,-3,-19,-6,11,7,19,-7,3
1537918928070897,-6,22,3,16,26,21,6,10
1537918928071895,4,6,13,-9,10,-11,-3,-17
1537918928071895,0,-21,-13,1,-21,-11,-3,1
1537918928093835,-3,-12,36,9,18,12,-1,-10
1537918928093835,-2,14,1,-5,-19,-8,-1,7
1537918928094834,-12,0,-3,-5,12,-3,-1,-15
1537918928094834,11,-14,-18,-20,-12,-5,1,-2
1537918928107798,0,-5,-10,-12,6,2,-3,7
1537918928107798,0,18,6,-1,-16,1,3,7
1537918928114780,-4,-8,7,22,12,3,0,-10
1537918928114780,-7,-10,-2,-3,-1,-5,-1,-6
1537918928131734,0,1,-1,-14,-16,-7,-1,-2
1537918928131734,-1,6,0,6,2,6,2,4
1537918928132733,-2,-5,-5,9,19,4,4,-16
1537918928132733,2,-11,-3,-14,-20,-13,-5,10
1537918928153676,-1,-3,-1,-2,-6,0,-3,-2
1537918928153676,-31,5,-1,7,7,12,2,-3
1537918928154673,13,-2,-1,-2,2,1,-3,3
1537918928154673,0,-3,2,-5,-5,-4,5,-3
1537918928166642,2,-4,-3,2,-4,-5,-15,4
1537918928166642,-7,3,-2,-2,4,4,4,4
1537918928175617,-4,-1,2,3,7,-3,-5,-11
1537918928175617,-1,-2,-4,3,-3,-1,-2,0
1537918928190576,-5,-5,-2,-2,0,5,5,-5
1537918928190576,9,2,-2,-2,-3,-3,0,9
1537918928192572,-2,0,1,2,5,2,4,-3
1537918928192572,2,-3,0,-2,-6,-1,4,0
1537918928213515,-2,-2,-5,-2,-3,-1,0,0
1537918928213515,4,4,0,2,2,0,1,-3
1537918928214513,1,-2,0,-1,-2,0,-1,4
1537918928214513,-6,-4,-1,-4,-1,-4,-2,-6
1537918928227477,4,0,-2,1,1,-1,-1,-5
1537918928227477,1,2,0,0,0,4,0,-2
1537918928242437,1,0,-3,-2,2,-1,10,-1
1537918928242437,-1,-2,-1,-3,0,-3,-11,-6
1537918928251413,1,-2,1,3,5,2,-4,1
1537918928251413,4,2,-1,-1,-1,0,-1,3
1537918928252411,-2,2,1,0,1,3,-3,-5
1537918928252411,2,0,0,-4,-3,1,6,-1
1537918928273354,4,-1,-1,0,-2,1,2,-1
1537918928273354,0,1,-2,-1,5,0,6,1
1537918928275350,-3,-1,0,-2,-4,-6,-15,-6
1537918928275350,-1,0,6,3,3,1,0,3
1537918928287317,-2,-1,-3,-5,-8,-1,-5,-3
1537918928287317,3,0,-5,-2,-4,-4,4,2
1537918928294299,-1,0,0,0,2,4,6,2
1537918928294299,-1,0,9,3,1,1,-5,-5
1537918928311253,2,-2,-5,-1,-1,-2,-2,1
1537918928311253,1,0,0,1,-1,-2,-3,-2
1537918928312251,-2,-3,-7,-6,-1,-2,-4,-5
1537918928312251,-5,-1,-2,-2,-3,-4,-1,1
1537918928333195,-1,-1,-2,0,1,1,4,1
1537918928333195,0,-3,-1,-2,-3,-2,-4,-1
1537918928335189,-4,-1,-3,-3,-1,-3,-3,-2
1537918928335189,-3,0,-2,-3,-4,1,2,-1
1537918928348155,-1,0,-3,0,-2,-1,1,0
1537918928348155,-1,-1,2,3,-2,0,-3,-1
1537918928354139,0,1,0,0,1,1,-2,0
1537918928354139,0,-1,-2,-3,-2,-1,1,-1
1537918928370098,1,0,-2,-3,-2,1,-1,-1
1537918928370098,-1,0,0,-2,-3,-3,-2,0
1537918928378076,-2,-1,3,0,-1,-1,1,-4
1537918928378076,0,-2,-4,-2,-2,-3,2,-1
1537918928393035,-3,0,-1,1,-1,0,-1,-1
1537918928393035,0,-1,0,-1,-1,1,-2,0
1537918928400016,-3,-1,-5,-2,0,-1,-1,0
1537918928400016,-1,0,1,-3,0,-1,0,0
1537918928407995,0,-1,0,-4,-2,-2,0,1
1537918928407995,1,-1,-2,-2,-1,2,0,0
1537918928414977,-1,0,2,3,0,1,1,2
1537918928414977,-1,-2,2,-1,-4,-2,0,-3
1537918928431931,0,-1,-3,1,1,3,-1,-1
1537918928431931,-1,-1,-1,0,0,0,-1,-1
1537918928432929,-1,-1,-8,-1,0,-2,-3,-2
1537918928432929,0,0,2,1,2,-1,-1,-1
1537918928453872,0,1,2,3,0,-1,0,-1
1537918928453872,1,0,-1,-1,-2,-1,-2,-1
1537918928454870,-1,0,-1,-2,-2,0,0,-2
1537918928454870,-3,-1,-2,-1,-1,-2,0,-1
1537918928466838,0,-2,0,0,-1,0,1,0
1537918928466838,-2,-1,1,0,1,-2,-3,-3
1537918928475814,-2,0,3,-1,0,-1,0,-1
1537918928475814,-1,0,-4,-2,0,0,0,1
1537918928490775,-2,0,1,-1,2,-1,0,1
1537918928490775,1,0,0,0,0,0,2,-3
1537918928492771,1,-2,2,-1,-1,-2,-1,1
1537918928492771,-1,-2,-2,-2,-1,-1,1,-1
1537918928513714,-1,0,-4,-2,-1,-1,-2,-1
1537918928513714,-2,0,2,2,2,0,0,2
1537918928514712,0,-1,-1,-2,-1,-2,-2,-1
1537918928514712,-2,-1,-2,-1,-1,-1,-1,-4
1537918928526679,-1,-2,0,2,0,1,1,6
1537918928526679,0,-3,-2,-2,-2,0,-1,-2
1537918928535655,-23,-4,0,0,0,0,1,-9
1537918928535655,28,2,0,-1,-1,0,1,9
1537918928558594,-11,-5,0,0,-1,-3,-5,-11
1537918928558594,17,2,1,1,3,3,3,7
1537918928559592,-35,2,2,5,14,15,-1,-8
1537918928559592,-11,2,-3,16,71,24,-50,-8
1537918928573555,6,-9,-27,-26,-54,-79,79,28
1537918928573555,38,-14,22,5,-31,25,-8,10
1537918928574552,-69,34,36,12,-3,-12,1,-18
1537918928574552,38,-61,-67,-9,-5,39,0,0
1537918928587515,52,76,81,14,7,-16,-8,14
1537918928587515,-21,-17,-16,-14,-40,-95,-11,-26
1537918928596492,-20,-87,-40,-34,-39,43,-1,12
1537918928596492,-65,63,83,18,12,6,-11,-32
1537918928610454,11,-13,-53,-8,-28,-17,24,10
1537918928610454,37,-77,-86,-43,20,-35,-19,59
1537918928612449,26,4,87,55,57,70,-33,-40
1537918928612449,1,-12,-32,5,-39,-61,-10,-9
1537918928633392,-31,43,93,-17,58,83,28,31
1537918928633392,-3,-56,-67,-20,-49,-33,-28,-53
1537918928634390,24,61,26,-19,61,-14,7,108
1537918928634390,38,10,97,0,-125,2,40,25
1537918928647356,-29,-38,-62,-2,16,-55,-54,-39
1537918928647356,-13,-55,-56,22,52,104,-2,-23
1537918928656331,44,63,40,33,50,-11,10,5
1537918928656331,-7,-79,-105,-53,-43,-59,-16,46
1537918928671293,37,0,32,1,-16,-6,-6,47
1537918928671293,-42,18,39,26,54,50,25,-2
1537918928672289,-3,26,-38,2,-12,-22,-10,-68
1537918928672289,17,38,53,14,28,5,31,30
1537918928693233,18,-78,-70,4,-25,3,-32,-18
1537918928693233,-15,72,-1,-37,19,10,1,5
1537918928695228,25,-25,13,12,-70,-19,15,-1
1537918928695228,3,-35,-5,-7,60,11,0,-15
1537918928707196,-45,-21,-38,-33,-28,-3,-20,-25
1537918928707196,5,31,66,19,-8,-6,19,5
1537918928716173,16,11,-22,-4,-31,-20,2,21
1537918928716173,-25,-23,-23,9,22,7,-1,-30
1537918928730135,4,-4,1,7,62,35,-4,-16
1537918928730135,-4,51,40,8,-48,-9,1,8
1537918928737116,0,-48,-24,-23,-17,-19,0,-15
1537918928737116,-7,10,-16,-22,16,17,-6,-10
1537918928753073,-8,18,37,39,24,20,0,-12
1537918928753073,-13,2,7,-15,-4,-21,-2,-7
1537918928755068,-3,-29,-28,-14,-20,-3,-2,-9
1537918928755068,-3,15,2,10,16,5,7,2
1537918928767035,-10,14,15,2,-9,2,-3,-7
1537918928767035,-4,-12,0,5,-4,-10,-3,-7
1537918928776012,21,-13,-23,-5,8,7,10,4
1537918928776012,-4,29,10,-3,-8,-2,-5,0
1537918928789974,-8,-23,-13,5,-10,-8,-13,-6
1537918928789974,14,13,4,0,5,10,-2,1
1537918928796956,-4,1,4,-9,4,-17,-12,-1
1537918928796956,4,10,-4,4,-8,-5,-2,-4
1537918928812913,-11,-15,-9,1,-8,1,-1,-9
1537918928812913,26,7,17,8,12,-8,0,2
1537918928814908,-21,-9,-5,-5,2,27,25,14
1537918928814908,-4,1,-6,-1,-8,3,7,14
1537918928826876,2,-3,4,4,8,12,10,10
1537918928826876,-3,12,8,3,3,-21,-25,-5
1537918928835852,7,-8,-14,-8,-10,-8,-12,-20
1537918928835852,-9,-6,0,6,1,16,3,-20
1537918928849814,6,12,2,-4,1,10,13,-7
1537918928849814,-8,-1,1,3,-2,-12,-6,-4
1537918928856795,-3,-7,-8,-2,-6,-19,-16,-7
1537918928856795,-3,1,2,-2,3,-1,2,-4
1537918928873750,2,7,1,-3,-4,4,-9,-2
1537918928873750,-10,-4,1,2,1,11,8,3
1537918928874748,-2,-4,-2,2,3,-3,-19,2
1537918928874748,4,6,1,2,0,6,52,7
1537918928895692,0,-1,-6,-3,-3,-1,22,5
1537918928895692,-8,-3,-3,2,1,6,9,6
1537918928897687,2,1,1,-2,-1,-4,-23,6
1537918928897687,-3,-2,-1,-3,-5,-17,-40,-8
1537918928909655,-4,1,1,0,-2,2,-46,-7
1537918928909655,5,1,4,1,4,6,32,12
1537918928918630,5,-1,-4,-4,-6,-4,3,-5
1537918928918630,-18,-1,0,-1,0,8,29,6
1537918928933590,12,-3,0,1,4,-4,-20,11
1537918928933590,1,2,1,-1,-1,3,-22,-7
1537918928934587,-23,-5,-8,-6,-1,-11,-35,-14
1537918928934587,11,9,-5,0,1,-1,26,3
1537918928955531,-25,-15,-11,3,14,6,2,-16
1537918928955531,-15,1,47,25,50,31,3,1
1537918928957526,-36,-3,-2,1,53,-57,-6,-7
1537918928957526,-9,-24,-70,-31,-89,14,-4,-16
1537918928970491,0,71,86,26,34,101,29,27
1537918928970491,0,-37,-36,-35,-53,-64,-12,0
1537918928977472,-32,-1,-18,10,16,-39,-21,-3
1537918928977472,-38,-31,19,5,25,46,-22,-37
1537918928993430,75,29,14,14,24,-9,4,54
1537918928993430,-74,32,0,7,5,-13,23,-18
1537918928994427,-2,-82,21,-18,-95,-26,-14,-46
1537918928994427,20,113,21,-12,27,25,-23,13
1537918929016368,6,-46,-25,0,-30,-85,7,-44
1537918929016368,-33,-93,-38,38,38,23,23,-13
1537918929017366,84,120,59,2,29,20,27,30
1537918929017366,-3,-81,-7,34,26,22,-1,-15
1537918929029334,-47,34,47,-3,13,8,-22,3
1537918929029334,29,-66,-66,-31,68,69,-30,-50
1537918929038310,-21,45,-104,-32,-87,-50,28,44
1537918929038310,-2,102,44,-16,51,24,-14,29
1537918929053270,-8,-23,-56,-62,-103,-96,-3,-49
1537918929053270,20,-12,13,-6,-23,52,15,46
1537918929055265,41,1,35,21,59,73,15,36
1537918929055265,-1,-73,-1,22,52,2,0,-47
1537918929076209,24,80,5,33,34,13,0,54
1537918929076209,0,-28,-17,14,1,-34,-9,-40
1537918929077206,7,-106,-96,-42,-6,25,-13,-21
1537918929077206,42,109,99,41,6,2,11,31
1537918929089174,-46,-65,15,8,-9,10,-9,-36
1537918929089174,-11,-11,-5,-6,-20,-14,-8,1
1537918929098152,0,-54,-30,12,17,27,5,7
1537918929098152,-13,25,-25,-17,-19,-63,0,-29
1537918929113111,34,-34,12,-22,-7,60,14,61
1537918929113111,26,52,32,-31,-46,-18,4,16
1537918929115107,-17,-36,-3,3,28,-18,11,-6
1537918929115107,20,-35,-31,10,-23,-18,4,14
1537918929136050,-13,-3,-51,-1,73,40,0,-31
1537918929136050,37,27,84,11,-2,12,2,6
1537918929137047,-35,22,17,10,5,17,14,-35
1537918929137047,35,33,29,-7,-19,-13,-13,19
1537918929150013,-14,-25,-29,-3,11,1,0,-7
1537918929150013,-19,22,-27,-18,5,-20,0,19
1537918929157992,14,-27,-9,-14,-21,-10,-4,-14
1537918929157992,-24,27,26,14,4,1,-1,2
1537918929173949,-3,-19,-9,20,6,-15,-1,-12
1537918929173949,1,21,14,-2,-25,-14,3,6
1537918929174947,7,25,22,7,9,23,10,27
1537918929174947,-13,-49,-58,-25,-16,-12,-4,7
1537918929195890,0,-12,9,23,16,-5,-1,-10
1537918929195890,7,41,1,-13,-8,-16,-15,-7
1537918929197885,2,15,11,7,22,6,11,1
1537918929197885,-20,-41,-16,-18,-38,-6,-15,9
1537918929209853,18,-13,6,-12,-15,0,5,-33
1537918929209853,-3,31,17,28,19,3,7,11
1537918929218828,9,31,12,9,14,5,-10,-4
1537918929218828,-9,-46,-17,-12,7,-19,0,-7
1537918929233787,-23,-6,-3,-5,-21,2,2,-2
1537918929233787,4,8,-7,0,-4,-4,-5,21
1537918929234785,-1,16,16,5,0,-2,2,-13
1537918929234785,-2,-20,-11,9,21,-6,-8,13
1537918929255728,-11,16,-4,-11,-9,5,-7,-5
1537918929255728,9,-5,-2,7,-2,-2,8,-7
1537918929257723,-17,0,0,-5,0,3,-1,-1
1537918929257723,2,-9,3,4,1,-2,-4,-5
1537918929269691,-3,0,-11,-9,-12,-14,-2,-10
1537918929269691,-7,-5,-8,-4,2,-2,-5,-2
1537918929278667,5,4,21,10,8,6,1,2
1537918929278667,-4,-7,-9,-5,-9,-2,2,-9
1537918929293627,3,2,-9,-7,-5,-10,2,8
1537918929293627,2,0,-1,6,7,7,-5,-8
1537918929294624,4,6,11,0,3,5,0,11
1537918929294624,-3,-16,-5,-3,-7,-7,2,-2
1537918929315569,-1,7,-4,-7,-5,0,4,3
1537918929315569,2,2,-3,-2,-3,-4,-18,-3
1537918929317563,-4,1,7,5,-4,-4,-2,-20
1537918929317563,1,-3,-7,-7,4,1,13,-7
1537918929329531,-1,-1,13,4,-5,-20,-26,-13
1537918929329531,-16,-12,-7,-2,4,22,23,-3
1537918929338507,25,17,3,-3,-8,-19,-23,6
1537918929338507,-5,-7,-1,4,4,-3,-26,-3
1537918929353467,-5,-1,-2,1,2,9,12,4
1537918929353467,7,5,-6,-4,-3,-9,-18,5
1537918929354465,-14,6,3,0,-2,25,82,10
1537918929354465,-6,-20,16,11,1,-6,-1,3
1537918929375409,4,0,-27,-15,-4,-2,1,3
1537918929375409,-7,-5,-5,1,3,-10,-28,-4
1537918929377403,-5,-3,-2,-6,-8,7,-25,0
1537918929377403,4,3,-3,1,5,1,29,8
1537918929389371,-1,0,7,3,2,-9,-20,3
1537918929389371,-2,1,5,3,-2,-5,-12,-3
1537918929398348,-2,-6,-3,-3,-6,-8,-11,-2
1537918929398348,1,8,-2,-2,0,6,28,0
1537918929412310,1,-1,0,0,-1,8,-4,-1
1537918929412310,2,1,-5,-1,-2,-2,25,0
1537918929413307,-2,-1,6,3,-4,-12,-23,-9
1537918929413307,-2,-2,-8,-4,-2,3,1,4
1537918929435248,-2,1,-2,-2,-1,3,14,-2
1537918929435248,4,1,-1,-1,-1,3,2,-1
1537918929436246,-6,-6,0,0,1,-1,-2,0
1537918929436246,0,0,-5,-4,-3,-10,-12,-3
1537918929458187,2,1,-2,0,-1,1,-5,-2
1537918929458187,1,-1,1,1,1,-1,-3,-2
1537918929459185,-4,-4,-1,0,-2,-6,2,-1
1537918929459185,2,2,-5,-4,-2,-3,-13,-2
1537918929473147,3,0,1,2,2,-1,0,0
1537918929473147,-4,0,1,0,-2,0,7,-2
1537918929473147,-1,-3,-4,0,-1,2,1,-1
1537918929473147,2,0,0,-3,2,-2,-7,-3
1537918929495089,-1,-2,0,-1,1,-4,3,0
1537918929495089,0,-1,-2,-1,-2,-1,5,0
1537918929496087,1,-1,-1,-2,-3,0,-5,2
1537918929496087,1,-3,-2,0,-1,-3,-7,-3
1537918929518029,0,0,0,-4,-2,-2,4,1
1537918929518029,0,1,-3,-1,1,4,1,0
1537918929519026,1,1,2,1,2,-3,-4,-3
1537918929519026,-2,-2,-3,-1,-2,-3,-3,-2
1537918929532989,-1,-1,-1,-2,0,-3,2,-1
1537918929532989,-1,1,0,4,-1,7,0,-3
1537918929532989,-2,-2,-8,-6,-1,1,0,2
1537918929532989,-1,-2,-1,-3,1,4,-1,-2
1537918929554930,-1,0,4,1,0,-3,2,0
1537918929554930,3,-2,-3,-1,0,-7,-7,0
1537918929555928,0,-2,3,3,0,0,0,-1
1537918929555928,0,1,-1,0,-1,-1,-1,-1
1537918929578866,-1,0,-4,0,-1,4,1,0
1537918929578866,-2,-1,0,-4,-2,-2,6,-1
1537918929578866,-1,-1,-1,-2,-3,0,-1,-1
1537918929578866,0,-2,-3,-2,-1,-4,-7,-1
1537918929592829,-2,-3,-1,2,1,-3,1,-2
1537918929592829,-2,-1,0,0,2,9,-1,-1
1537918929593829,0,-2,-1,-1,-1,-2,-1,1
1537918929593829,0,0,-1,0,0,-2,-3,-2
1537918929615769,-1,-2,-1,1,-1,-7,-1,0
1537918929615769,-1,0,1,-2,0,3,1,0
1537918929615769,-1,0,-2,-2,-4,-1,1,-1
1537918929615769,0,-1,-2,-2,-3,-1,-2,-1
1537918929638705,0,1,0,-2,-1,0,-2,1
1537918929638705,0,-1,-2,-1,0,-5,0,-1
1537918929638705,-2,0,0,0,-1,0,-2,-1
1537918929638705,0,-1,0,0,1,-2,-1,1
1537918929652668,-1,0,-1,0,-1,1,0,-2
1537918929652668,-1,-1,-3,-3,-3,-4,-2,-2
1537918929653665,-2,-1,0,-1,1,-2,0,-2
1537918929653665,1,-1,0,-2,0,-1,-2,-1
1537918929675606,0,-1,-1,-1,0,3,-2,-2
1537918929675606,-1,-1,0,2,0,-3,-2,1
1537918929675606,0,-3,-1,1,-3,-1,-2,-2
1537918929675606,-2,-2,-2,-1,-1,0,1,-1
1537918929697548,-1,0,1,1,0,0,-1,-1
1537918929697548,-1,0,-2,-2,-1,-4,1,-1
1537918929698545,-1,-2,-1,-1,-1,0,-2,-1
1537918929698545,-1,-2,0,1,0,0,0,0
1537918929712507,-1,-1,-3,-3,-1,-1,-2,-1
1537918929712507,0,0,-2,-2,-1,-2,-1,-1
1537918929713505,0,0,-1,0,-1,1,-2,-1
1537918929713505,0,-2,-1,-2,-3,-3,-1,-2
1537918929735446,-2,-2,0,-1,-2,0,-1,-1
1537918929735446,-1,-1,1,0,0,-1,-1,0
1537918929735446,-2,-2,0,2,0,-1,1,-1
1537918929735446,0,-1,-2,-1,-3,-2,-1,-2
1537918929757388,0,-1,-3,-4,-2,0,-2,-2
1537918929757388,-1,-1,-1,1,-1,0,-1,-3
1537918929758385,0,0,1,1,1,0,-2,-1
1537918929758385,-1,1,-1,-1,-1,-1,-2,0
1537918929772347,-1,0,-2,1,0,-2,1,0
1537918929772347,0,-1,-2,-2,-2,-1,0,0
1537918929773345,-1,-1,0,0,0,-2,-1,0
1537918929773345,-1,-1,1,-1,1,1,0,-1
1537918929795286,0,-2,-2,-1,-3,-1,-1,0
1537918929795286,1,0,0,-3,-3,0,-2,0
1537918929796284,-1,1,-3,-3,-1,-1,-1,-1
1537918929796284,-1,0,-2,0,-1,0,-2,-2
1537918929817227,-2,1,0,0,0,0,-2,0
1537918929817227,-2,-1,-2,-1,-3,-2,1,-1
1537918929818225,0,-2,1,-2,-1,-1,-2,-1
1537918929818225,-1,0,-1,0,1,-1,0,-2
1537918929832188,0,0,-1,-3,-1,-1,0,-1
1537918929832188,-1,-2,-1,1,-1,-2,-1,-1
1537918929833185,1,-1,-2,0,-2,0,1,0
1537918929833185,0,0,0,0,0,-1,-1,0
1537918929855126,-3,-1,0,-1,0,0,-2,-1
1537918929855126,-2,-2,0,-1,0,-2,-1,0
1537918929856124,0,0,-3,-3,-4,-2,-1,-1
1537918929856124,0,-2,1,0,-1,-1,-1,0
1537918929878065,0,0,0,-2,-1,0,0,-2
1537918929878065,-2,0,0,0,2,0,-1,-1
1537918929878065,-3,-1,-1,0,0,-1,-1,-1
1537918929878065,0,0,-2,0,-2,-2,-1,-1
1537918929893025,0,1,0,2,1,1,1,-2
1537918929893025,0,0,0,2,2,-1,-1,-3
1537918929893025,-3,0,-2,-2,-1,0,0,-1
1537918929893025,1,-1,-2,-2,-3,-1,1,-2
1537918929914968,-1,-2,-2,-1,1,-3,1,-1
1537918929914968,-3,0,1,2,1,1,-1,-1
1537918929915966,-2,-1,0,0,1,0,0,-3
1537918929915966,-3,0,-4,-3,0,1,-2,0
1537918929937906,0,-1,0,-1,-1,-2,0,0
1537918929937906,-1,0,-1,-1,-1,0,-1,0
1537918929944888,-1,1,1,0,-1,-2,1,-1
1537918929944888,0,-2,2,2,0,-2,0,0
1537918929960844,-1,1,-3,-1,-2,-2,-2,0
1537918929960844,0,-1,-1,0,-1,-2,0,1
1537918929961842,-2,-1,-1,0,0,-3,-1,-1
1537918929961842,-1,-1,0,-1,1,1,-1,2
1537918929974807,-1,-2,-2,-2,-1,-1,1,-2
1537918929974807,2,-3,-2,-5,-2,-1,1,0
1537918929975804,-1,-2,0,-1,0,0,1,0
1537918929975804,-1,-1,0,0,0,-1,0,-1
1537918929998742,-1,0,1,1,2,1,-2,-2
1537918929998742,0,2,-1,-3,-2,0,-2,-2
1537918929998742,1,1,-2,-1,-2,-1,-1,0
1537918929998742,-1,-2,-1,0,-2,-2,-1,-3
1537918930012705,0,-1,0,1,0,-1,1,0
1537918930012705,-3,0,1,-2,-1,0,-2,-1
1537918930013702,0,1,0,-1,-1,0,-2,-1
1537918930013702,0,-1,-2,-2,-3,0,-1,-1
1537918930035644,3,-1,-3,-5,-4,-3,-2,0
1537918930035644,1,-2,0,2,2,-2,-2,-3
1537918930035644,-2,-2,0,0,1,1,1,0
1537918930035644,-2,-1,-1,0,1,-2,1,-2
1537918930058582,-1,-2,1,1,-1,-1,-1,-1
1537918930058582,-1,-1,-4,-2,0,-1,0,0
1537918930058582,0,-1,-2,0,1,0,-3,-1
1537918930058582,-1,-1,-1,0,0,0,-1,0
1537918930072545,-2,-1,-1,1,0,-1,-2,-1
1537918930072545,0,0,-1,-1,-4,-1,-1,1
1537918930073542,-1,0,-2,1,-4,-1,-1,-2
1537918930073542,-1,0,-1,0,1,0,0,2
1537918930095484,1,-1,-1,0,-1,0,0,0
1537918930095484,5,-1,0,0,-1,0,-1,-3
1537918930096481,-24,-5,-3,-6,-5,0,-4,-8
1537918930096481,-3,-3,-3,-1,-2,-4,-5,-2
1537918930118422,-6,0,2,3,4,2,6,5
1537918930118422,27,4,-1,3,6,4,10,3
1537918930119420,-4,-1,-2,3,43,-1,-13,-9
1537918930119420,-18,-3,7,2,-14,17,18,15
1537918930132385,30,5,-16,-17,-12,-44,-46,-19
1537918930132385,-23,-27,12,32,73,14,-33,-4
1537918930133383,8,-1,-23,-12,-86,30,91,12
1537918930133383,-43,-5,-3,4,47,-27,-19,0
1537918930155324,39,5,-6,-12,-59,57,20,31
1537918930155324,-11,-3,-14,-33,-28,-40,-27,-25
1537918930156321,6,53,85,50,100,62,-26,9
1537918930156321,-71,-78,-66,-18,-68,-21,27,-2
1537918930178263,-59,-20,11,6,40,-14,-12,-27
1537918930178263,68,86,53,8,-25,73,19,1
1537918930179260,45,-65,-66,-29,5,62,-15,16
1537918930179260,40,-21,39,19,7,-56,-1,-8
1537918930192225,-50,-29,-33,28,102,-23,-14,-2
1537918930192225,-32,28,83,2,-59,58,31,-22
1537918930193223,23,40,102,17,-10,-58,-13,26
1537918930193223,21,59,-87,-20,90,99,-31,-18
1537918930215165,33,94,29,0,-20,-5,39,19
1537918930215165,-40,-46,-60,-6,-40,-113,-15,25
1537918930223144,-47,-20,2,-5,-8,14,-3,7
1537918930223144,42,-64,14,-10,-42,-20,12,-16
1537918930238105,-35,-98,-42,20,120,58,-23,-20
1537918930238105,-41,59,-7,-10,-62,-3,22,9
1537918930239102,7,-22,-14,-22,-40,-71,-21,2
1537918930239102,14,-7,6,-9,-56,-44,-9,9
1537918930253063,11,31,10,-7,-12,3,6,-11
1537918930253063,-3,-44,-17,2,26,-14,0,-2
1537918930253063,0,-18,-36,-4,2,16,-1,-26
1537918930253063,4,37,48,18,25,32,-1,11
1537918930275004,2,-5,-4,-6,-47,-26,12,-3
1537918930275004,0,-19,-12,-6,20,23,-9,-18
1537918930276002,-1,10,-7,3,7,-7,2,-5
1537918930276002,2,13,-12,-24,4,-8,-3,7
1537918930297943,-4,7,32,1,-46,-8,-1,-1
1537918930297943,17,-22,-24,6,24,-6,1,11
1537918930298940,1,7,-21,-14,13,-11,-2,3
1537918930298940,-7,13,32,22,-14,-7,1,-5
1537918930311905,7,-5,-25,-15,-19,10,-2,2
1537918930311905,-15,-24,-32,0,27,8,-3,5
1537918930319885,6,5,-7,-3,-12,-17,2,-9
1537918930319885,1,13,15,8,4,16,-2,-9
1537918930334844,7,0,6,-3,-12,0,3,6
1537918930334844,10,-9,-1,4,15,-3,-3,5
1537918930342823,-25,-2,-7,-5,-13,-13,-5,-10
1537918930342823,2,3,2,-2,5,3,-1,3
1537918930358780,7,2,9,5,-5,0,5,8
1537918930358780,2,-4,-3,-4,5,-8,3,-2
1537918930358780,0,-2,4,0,-3,3,-3,-7
1537918930358780,3,7,-6,6,3,7,3,8
1537918930372743,-6,-7,-2,-12,-10,-10,-1,-6
1537918930372743,3,1,2,-1,2,4,-8,-8
1537918930373741,-3,0,-9,2,1,-2,-2,-11
1537918930373741,-2,3,2,0,2,-1,2,-4
1537918930395682,-3,-2,2,-2,-13,0,2,-1
1537918930395682,5,-4,1,-2,3,-2,-1,-4
1537918930395682,3,0,1,6,5,-1,2,4
1537918930395682,-2,2,-1,-3,-2,-1,2,5
1537918930418621,2,-1,1,-4,-5,1,-4,7
1537918930418621,2,1,-2,-4,2,-1,-1,11
1537918930419619,-4,-4,-4,0,-3,-6,0,6
1537918930419619,-2,2,-3,-6,-3,-2,-5,0
1537918930440562,0,-1,2,0,-3,0,4,2
1537918930440562,0,-4,0,1,4,8,10,-2
1537918930441561,-2,-1,-4,1,-2,-9,-17,-6
1537918930441561,1,1,0,-1,1,4,-4,-3
1537918930455523,-1,1,3,0,-4,-4,-4,-2
1537918930455523,0,-2,2,-3,1,0,2,-1
1537918930455523,-2,-2,-6,-2,-3,0,4,-2
1537918930455523,-1,-1,-2,-2,0,10,17,-1
1537918930478461,-1,-3,4,0,-3,-12,-15,-3
1537918930478461,2,1,2,1,1,-5,-12,-3
1537918930479460,0,0,-3,-2,-1,-1,0,-1
1537918930479460,-1,1,0,0,2,-2,-4,-2
1537918930492423,-2,-1,-1,-1,-3,8,15,-1
1537918930492423,0,-1,-2,-3,-1,-1,-1,0
1537918930500402,-1,-1,-3,2,1,-3,-3,-2
1537918930500402,-2,0,0,-1,-1,-1,-1,-3
1537918930515362,1,-1,0,0,0,5,3,2
1537918930515362,1,0,0,-2,1,-2,-3,2
1537918930516359,-2,-1,1,-1,-2,1,4,-2
1537918930516359,0,0,1,-2,0,-3,1,-2
1537918930538300,1,0,-3,0,0,-4,-8,2
1537918930538300,2,1,4,1,-1,2,-1,2
1537918930539299,0,-1,-2,-1,-2,-3,2,1
1537918930539299,-2,-1,-2,-1,0,4,-1,-3
1537918930561239,0,-1,2,1,0,0,0,-2
1537918930561239,-2,-2,-2,0,-2,-2,2,-1
1537918930561239,-1,-2,-1,0,-1,4,-1,-2
1537918930561239,-1,-1,-1,-2,-2,-9,-6,0
1537918930575201,-1,-1,-1,0,-1,-4,-4,-3
1537918930575201,0,-1,-2,-1,-1,1,0,-1
1537918930576199,-1,-1,0,1,-1,-3,-1,-2
1537918930576199,1,-1,0,2,0,0,-3,-2
1537918930598140,-1,0,1,-2,-1,1,1,-1
1537918930598140,-1,0,-1,-3,0,-1,-1,0
1537918930599138,-1,-1,0,0,-2,-1,1,0
1537918930599138,-1,0,-1,0,1,1,-2,-1
1537918930612103,1,0,-3,-4,-4,0,0,0
1537918930612103,-2,0,-1,2,2,-1,-2,-3
1537918930620082,-3,0,-2,-3,-2,-1,-1,-1
1537918930620082,0,-1,1,1,1,0,1,1
1537918930635041,-2,-1,1,1,-2,-2,-3,-2
1537918930635041,-1,-2,-1,-3,-4,0,1,0
1537918930636039,-1,-1,-2,-1,-2,0,-1,-1
1537918930636039,-1,0,-1,-1,-2,-3,-5,-1
1537918930657981,0,0,0,1,1,0,-1,1
1537918930657981,-1,-2,-1,0,0,-1,1,-2
1537918930658978,1,-1,0,2,1,1,4,2
1537918930658978,-1,-2,0,-3,-4,-3,-3,-1
1537918930671943,0,-1,-1,-1,-2,0,0,-3
1537918930671943,0,0,-1,-1,0,-2,-1,-1
1537918930679921,1,1,-1,-1,1,-1,0,-2
1537918930679921,3,0,-2,1,0,1,-2,1
1537918930694881,-7,-6,-3,-1,-2,-1,0,-2
1537918930694881,-4,-2,0,-1,1,0,-3,-2
1537918930695879,-4,-1,-2,-1,-3,-1,-1,-1
1537918930695879,15,8,0,-3,-1,-2,-2,0
1537918930717820,-20,0,-3,-2,0,0,-3,-2
1537918930717820,29,-5,-7,0,4,3,1,3
1537918930718817,10,5,9,0,5,-1,-5,0
1537918930718817,-22,-15,-4,4,47,36,1,-4
1537918930731783,-1,-7,-17,-3,31,-64,-9,-6
1537918930731783,-13,12,14,9,-12,76,5,14
1537918930739761,-44,-91,-87,-38,-27,-86,-31,-30
1537918930739761,62,95,87,25,43,-54,35,13
1537918930754721,25,-46,16,-11,-86,62,10,28
1537918930754721,-27,-32,-59,-2,110,-47,-17,-22
1537918930755719,-20,66,99,27,-47,38,36,10
1537918930755719,-17,-68,-51,-29,-96,-80,-14,-1
1537918930778658,-22,33,-81,-14,82,-34,-35,-41
1537918930778658,98,90,100,30,-55,53,59,84
1537918930778658,-34,-32,4,13,59,45,4,-6
1537918930778658,41,-19,-34,6,89,24,-38,15
1537918930800599,-47,88,77,8,-89,-79,-8,-23
1537918930800599,-10,-104,-56,-24,6,10,-23,-35
1537918930801596,30,94,54,10,8,15,17,21
1537918930801596,-6,-48,-68,-16,-61,-26,29,51
1537918930815559,-25,-10,52,3,-41,-8,4,-32
1537918930815559,18,29,-40,-32,23,-29,-27,22
1537918930815559,-5,-93,-38,-3,11,33,-9,-17
1537918930815559,62,12,-30,-21,-53,-1,-1,-12
1537918930838497,25,-18,-8,23,122,127,2,4
1537918930838497,-58,-19,-24,-14,-100,-103,36,-52
1537918930839495,58,15,-5,-11,-6,-30,-18,30
1537918930839495,-22,56,80,23,10,19,-6,-19
1537918930860439,13,-26,-16,7,1,7,11,2
1537918930860439,-19,-16,-2,21,22,30,-2,2
1537918930861436,-20,-22,-68,-47,5,-26,-1,-8
1537918930861436,-25,-9,-1,11,4,18,-4,-4
1537918930875399,16,3,33,11,-2,11,9,19
1537918930875399,-15,-6,16,16,5,-6,-8,-12
1537918930875399,-1,4,-45,-40,-8,-3,-3,-4
1537918930875399,-21,3,14,-1,-2,20,-3,-8
1537918930898338,1,-17,-17,-5,-1,-5,3,13
1537918930898338,3,13,21,14,0,-6,-9,-4
1537918930899335,12,15,19,23,0,1,1,-2
1537918930899335,-24,-10,0,-7,9,11,-1,-11
1537918930921277,1,-15,-24,-10,-14,-6,7,2
1537918930921277,4,9,9,-5,0,3,-2,3
1537918930921277,0,9,21,17,12,2,-11,0
1537918930921277,-27,-21,-8,-6,-11,-7,-7,-14
1537918930935240,13,3,-14,-2,-4,-7,-1,11
1537918930935240,-4,4,2,-11,-3,8,2,0
1537918930936238,-4,-2,8,12,2,3,0,0
1537918930936238,-7,2,0,6,5,3,-2,-6
1537918930958179,7,1,0,-2,-1,-5,1,4
1537918930958179,-7,-2,2,-6,2,3,-6,-8
1537918930960175,-3,-3,4,13,-2,-7,-1,-7
1537918930960175,-2,-1,4,0,4,7,2,0
1537918930981118,2,-3,-6,-11,-6,0,-2,3
1537918930981118,-7,-3,1,-1,0,-4,-4,-3
1537918930982115,5,4,6,13,-3,0,-1,-4
1537918930982115,-5,3,4,-6,1,7,2,-3
1537918930994084,0,-5,-4,0,4,-1,2,2
1537918930994084,-1,1,2,1,-2,-6,-6,3
1537918931003059,2,2,4,1,-5,-1,0,4
1537918931003059,-8,-5,-5,-3,3,11,10,0
1537918931018019,-1,-1,-3,-3,-2,-9,-4,0
1537918931018019,0,-1,1,-2,-3,-5,-12,-5
1537918931020015,0,1,-2,-1,0,-3,1,-3
1537918931020015,-7,-5,-4,1,3,-3,-13,-5
1537918931040958,1,1,-1,-1,-3,2,3,1
1537918931040958,-2,0,0,-4,-6,15,31,2
1537918931041957,-4,-2,-5,-4,-2,-12,-19,-1
1537918931041957,0,1,1,3,5,3,-11,-6
1537918931054919,2,-1,2,1,-1,-2,-11,1
1537918931054919,1,0,-1,-2,1,-7,-16,-3
1537918931063896,-3,-3,-1,-3,-3,3,29,1
1537918931063896,-4,-3,-3,-2,-3,-2,-8,-1
1537918931077858,1,0,2,-1,1,-4,5,3
1537918931077858,-1,-1,-1,-2,1,2,0,0
1537918931079853,1,1,0,-1,-1,2,1,-1
1537918931079853,-3,-1,-2,-1,-2,-2,-2,-3
1537918931100796,-1,-2,-1,-2,1,-5,-33,-5
1537918931100796,0,-2,-1,-2,1,2,30,3
1537918931101794,0,1,3,3,0,3,3,0
1537918931101794,-1,-1,-2,-3,-1,1,18,-2
1537918931114759,-2,-1,0,-3,-1,-1,0,1
1537918931114759,-1,1,1,-1,-2,-6,-25,-5
1537918931121740,-1,0,-1,-1,-1,0,-25,-4
1537918931121740,-3,-2,0,0,0,5,-3,-3
1537918931138695,3,2,-1,-2,-1,5,36,-1
1537918931138695,6,3,-2,-2,-3,-10,-9,7
1537918931139692,-22,-8,-7,-2,-2,0,4,0
1537918931139692,21,11,-20,-10,-1,-7,-18,-3
1537918931160636,-11,-15,6,7,52,-1,-27,-10
1537918931160636,-32,-61,-42,-15,-71,-47,8,-2
1537918931162631,-12,8,17,9,7,58,-2,1
1537918931162631,41,24,-4,-18,-42,-54,-16,8
1537918931174599,-47,-91,-89,-12,54,67,-15,-43
1537918931174599,47,-41,-69,-34,-82,-81,16,28
1537918931189559,-40,77,74,10,14,89,5,-15
1537918931189559,-56,-39,43,4,57,51,-19,-36
1537918931198536,103,62,127,46,-61,-81,70,78
1537918931198536,-43,-44,31,-7,-8,80,-33,-47
1537918931199533,47,-84,-111,-35,-82,-9,12,38
1537918931199533,15,44,-19,15,99,41,1,8
1537918931220480,-24,12,27,4,-66,29,14,-25
1537918931220480,-43,-10,-45,9,64,-17,-11,-5
1537918931222474,60,-104,-21,4,25,-12,17,-10
1537918931222474,-51,-16,1,14,33,14,6,-18
1537918931234441,28,11,-51,-20,32,21,-31,3
1537918931234441,19,127,85,8,-36,-62,14,49
1537918931243418,-38,-42,7,-5,-4,13,-13,-39
1537918931243418,23,-59,-31,-7,-51,-53,21,4
1537918931258377,-30,-30,-43,-18,-23,-13,-24,-18
1537918931258377,-3,-58,-14,-4,-1,4,8,-5
1537918931260372,23,127,18,3,35,-16,1,12
1537918931260372,-32,-101,7,6,-21,8,-6,1
1537918931281315,-5,52,29,-3,-16,10,5,18
1537918931281315,2,13,38,22,41,36,-7,-9
1537918931282312,25,-21,10,6,20,-22,-11,-1
1537918931282312,9,-19,-46,-24,-41,-6,13,14
1537918931294279,3,-20,-14,-1,0,5,5,-6
1537918931294279,9,55,42,22,49,30,-13,-4
1537918931303255,-5,-2,49,20,-18,-34,5,4
1537918931303255,9,50,12,-3,-20,16,8,2
1537918931318215,-22,-31,-25,-6,9,-15,-7,4
1537918931318215,21,-29,-14,-9,7,3,1,-8
1537918931320210,1,14,-2,-1,-13,-11,0,2
1537918931320210,-6,42,16,4,-10,-8,-1,-3
1537918931341154,-3,-19,-4,5,18,6,-2,-6
1537918931341154,-3,-14,-12,-6,-7,10,-1,-6
1537918931342151,-9,30,1,2,5,-6,-1,-2
1537918931342151,8,-21,-4,0,-7,-3,-3,6
1537918931354119,-9,7,11,5,-10,-12,-2,-7
1537918931354119,0,7,-2,-1,3,21,0,-5
1537918931363095,-13,-21,-23,-19,-1,-13,-6,-1
1537918931363095,-1,11,12,8,-2,3,2,-5
1537918931378055,1,-6,-15,-6,-2,3,2,0
1537918931378055,6,15,21,12,5,9,8,-5
1537918931380050,-5,-18,-17,-6,6,-18,-22,-5
1537918931380050,2,2,10,3,-7,5,-1,1
1537918931400994,1,19,7,-2,0,-3,1,-4
1537918931400994,4,-15,-10,4,12,9,-5,1
1537918931401991,-10,-1,0,1,-11,-9,6,4
1537918931401991,-1,7,-6,-6,-1,1,0,11
1537918931414956,3,-5,5,-1,-2,-2,-2,6
1537918931414956,-2,-2,-2,-1,0,8,5,4
1537918931429917,-2,-6,-10,2,-1,-1,4,1
1537918931429917,-1,5,2,0,-2,-4,-2,-2
1537918931437895,-3,-3,-7,-10,0,5,1,-4
1537918931437895,-2,-5,-4,-1,-3,-3,-1,0
1537918931439890,2,9,-4,-3,1,4,20,2
1537918931439890,-3,-10,10,7,1,-8,-25,-6
1537918931460834,0,13,5,-1,-4,-2,7,2
1537918931460834,-3,-6,6,-1,3,-1,-15,-5
1537918931461831,-5,-5,-10,-1,-3,8,-4,-2
1537918931461831,0,1,-3,-4,-5,0,6,-4
1537918931474797,-8,-8,0,1,0,-18,-37,-4
1537918931474797,15,10,-8,-4,1,4,27,1
1537918931483773,-3,-6,3,3,0,-2,1,1
1537918931483773,-1,2,-2,-4,-4,7,-1,0
1537918931497736,1,1,-2,-1,-1,-5,13,1
1537918931497736,-5,-1,-2,-1,3,6,-26,-3
1537918931504716,-3,-3,-1,2,-2,-8,-5,-2
1537918931504716,1,4,-3,-3,-2,4,18,0
1537918931520674,-3,-3,2,-1,-2,3,16,-4
1537918931520674,-3,-2,-8,-2,0,0,-1,2
1537918931522669,-1,-1,3,3,0,-3,-17,-1
1537918931522669,-2,3,2,-4,-1,-3,-13,0
1537918931534637,2,1,0,1,0,2,29,2
1537918931534637,-3,-4,-5,-2,-3,-2,-5,-2
1537918931543613,-2,-2,-4,-2,-3,-2,-9,-5
1537918931543613,0,0,3,4,0,-4,-7,-1
1537918931558573,-1,-2,-1,-3,-2,4,-3,-2
1537918931558573,-2,-1,-2,-1,0,-2,-1,0
1537918931559570,0,-2,1,0,3,-4,0,0
1537918931559570,2,0,-3,-3,-3,-2,2,-4
1537918931580516,0,0,1,1,2,4,6,2
1537918931580516,-1,0,-2,3,1,-5,-4,-3
1537918931582511,-2,-2,-2,-2,-1,-2,1,-1
1537918931582511,-1,-1,-2,-3,-3,1,7,1
1537918931594479,-2,-1,-2,-1,-3,2,-7,-3
1537918931594479,-2,-2,2,-1,-2,-1,-5,-2
1537918931603454,0,-1,-3,1,1,-7,-3,-2
1537918931603454,1,1,2,1,0,1,1,-2
1537918931618414,0,-2,-4,-2,-1,0,-3,2
1537918931618414,-3,-1,-3,0,0,1,0,-2
1537918931619413,-2,0,-4,-3,-3,-2,2,1
1537918931619413,1,0,0,1,1,-4,-4,2
1537918931641353,1,-1,2,-2,0,2,-4,-1
1537918931641353,-3,-1,-2,-1,-2,3,9,0
1537918931642352,-2,-1,0,-1,-2,7,-10,-5
1537918931642352,-2,-3,-2,-2,-2,-13,-39,-6
1537918931654319,2,0,1,3,2,-1,31,5
1537918931654319,0,-1,-3,-2,0,1,13,2
1537918931663294,0,-1,3,2,-1,1,10,0
1537918931663294,-2,0,-1,-2,-4,2,-31,-4
1537918931678255,-4,-3,-1,-1,-3,-2,-57,-9
1537918931678255,0,0,1,0,-2,-9,8,1
1537918931680249,-1,-1,-8,1,-1,5,18,-1
1537918931680249,7,3,2,1,6,0,44,13
1537918931701194,-7,1,-4,-5,-6,-8,-25,-9
1537918931701194,2,-2,0,-1,-2,-5,-23,-5
1537918931702192,-19,-3,-2,1,0,0,-28,-4
1537918931702192,-10,6,-7,-1,0,5,52,2
1537918931732111,46,-12,-32,-13,1,-1,9,3
1537918931732111,-38,1,24,16,52,21,4,-11
1537918931733107,-19,-78,-55,-19,-53,-71,-21,-9
1537918931733107,-18,102,96,35,51,55,-8,-14
1537918931734104,-56,-81,-61,-22,-51,11,10,16
1537918931734104,22,73,-15,-19,6,-87,-42,-17
1537918931739091,-70,-68,56,16,-76,127,58,0
1537918931739091,-40,6,-23,-17,67,-32,-42,-25
1537918931752056,11,48,19,32,20,22,36,-23
1537918931752056,81,42,5,-37,-54,1,12,68
1537918931760035,-65,2,-52,-17,60,-128,-37,-65
1537918931760035,-35,-18,83,31,-63,89,44,45
1537918931767016,63,-98,-40,7,0,-9,-37,-33
1537918931767016,54,72,52,29,37,18,-1,-2
1537918931774994,40,-67,-79,-23,4,-2,-3,35
1537918931774994,16,69,-8,-2,29,-13,-7,8
1537918931789954,-21,-20,9,-3,18,-12,-10,-42
1537918931789954,18,-35,-8,4,-26,1,15,-13
1537918931797933,21,13,23,2,11,5,5,35
1537918931797933,-17,-46,-32,-12,-23,-30,-11,-20
1537918931811896,-26,14,13,-1,7,4,9,24
1537918931811896,-17,-53,-37,-11,-22,-4,7,-26
1537918931819875,13,67,36,14,21,32,-1,-2
1537918931819875,19,-45,-41,-13,-20,-25,-2,3
1537918931826856,2,43,36,-3,-11,-14,6,6
1537918931826856,-36,-29,4,8,12,19,-6,1
1537918931834834,18,27,4,0,10,-4,5,-2
1537918931834834,21,-26,-29,-12,-15,-10,2,-5
1537918931849794,11,18,2,-6,9,-9,-10,14
1537918931849794,-34,-11,7,3,0,9,7,-3
1537918931858771,18,20,15,14,10,14,3,4
1537918931858771,24,-16,0,-8,-15,-20,-13,-6
1537918931871737,-14,29,6,10,9,10,18,11
1537918931871737,-16,-28,-28,-24,-5,3,-4,2
1537918931888691,15,20,15,4,2,0,-7,-6
1537918931888691,4,-13,-7,4,3,-2,0,3
1537918931889689,-7,8,15,7,1,-11,-16,4
1537918931889689,-13,-15,-6,-1,-4,7,-2,-10
1537918931903651,17,11,5,-3,3,4,-13,3
1537918931903651,3,-6,-6,-1,-1,-4,48,0
1537918931909635,-3,5,6,1,0,-11,-23,7
1537918931909635,-4,-10,-5,4,-5,9,50,-2
1537918931918612,-4,13,1,-2,5,6,-16,2
1537918931918612,19,-8,3,2,-3,-8,-16,1
1537918931931577,20,11,5,-5,-4,-2,5,6
1537918931931577,-8,-8,1,9,7,-1,-10,1
1537918931940553,1,5,8,4,0,1,5,-3
1537918931940553,0,-6,-20,-8,-6,-2,0,-1
1537918931954516,-6,1,0,-4,1,-4,6,-1
1537918931954516,-8,-3,0,5,0,-2,-37,-4
1537918931963492,7,5,11,1,-2,5,8,2
1537918931963492,-2,-5,-9,-3,-3,5,31,-4
1537918931969475,-10,4,6,-3,1,0,-16,-3
1537918931969475,-3,-5,-2,2,0,-1,51,10
1537918931978451,1,3,-1,-1,0,-6,-35,-6
1537918931978451,1,-4,-2,0,-1,9,36,3
1537918931992414,-8,-2,-3,-5,-3,-7,-2,0
1537918931992414,-3,-4,-2,0,-2,-5,-27,-3
1537918932000392,7,3,2,-1,2,-8,-8,-1
1537918932000392,0,-2,-6,-5,-2,2,-18,-2
1537918932014355,-3,-2,-2,3,-1,7,-1,-4
1537918932014355,-3,-4,-4,-4,-4,-10,-23,-4
1537918932023331,2,2,1,-2,0,0,10,1
1537918932023331,-3,-3,3,3,0,-3,-5,0
1537918932029315,-3,0,-6,-3,0,3,17,3
1537918932029315,-4,-4,-4,-4,-4,-3,-52,-7
1537918932038292,2,1,2,-2,0,14,102,4
1537918932038292,0,-3,-6,-3,-1,-4,-30,-4
1537918932052254,0,2,4,-2,2,-4,3,-1
1537918932052254,-2,-2,-6,2,0,2,5,0
1537918932061231,1,3,6,0,-3,-2,-7,-3
1537918932061231,2,-1,-3,1,-3,-9,-23,-4
1537918932076191,-1,1,1,-4,-5,3,24,0
1537918932076191,-7,-6,-4,0,-3,-6,-59,-7
1537918932082175,-5,-3,-3,1,0,-1,35,0
1537918932082175,-15,-1,0,-4,-2,-7,7,3
1537918932089155,46,-3,-15,-4,-1,3,22,6
1537918932089155,-43,21,16,0,1,7,26,-15
1537918932098132,56,12,-12,-8,3,-7,-42,8
1537918932098132,-36,-68,-21,1,41,3,-22,-25
1537918932113092,-26,77,23,-5,-41,-46,-15,-3
1537918932113092,36,-61,-54,-22,-57,26,15,6
1537918932121072,-12,70,59,12,24,44,-21,-16
1537918932121072,-45,-13,15,5,-21,-83,-11,-8
1537918932135045,-14,-120,-93,-36,28,-23,-7,-1
1537918932135045,105,101,98,54,-33,110,52,37
1537918932142013,-80,-40,-33,-17,-37,-57,-9,-15
1537918932142013,-1,7,-70,20,115,-23,-18,-3
1537918932148995,-22,27,0,-10,-33,97,37,27
1537918932148995,-82,-20,35,6,16,-24,1,13
1537918932157971,5,-102,-85,-6,26,12,4,-29
1537918932157971,71,127,119,28,7,65,34,66
1537918932171933,17,-23,-82,7,76,21,-51,-3
1537918932171933,-72,24,68,18,26,-60,36,23
1537918932180910,50,-46,-26,-14,-59,-13,-25,-29
1537918932180910,-28,45,-26,-30,-7,11,-11,-28
1537918932194872,1,70,30,9,-67,-11,3,-3
1537918932194872,-29,-30,-49,-17,40,-15,-10,-18
1537918932201853,12,-98,-36,-1,44,32,1,39
1537918932201853,6,10,29,-4,-53,-31,11,-4
1537918932209832,-10,-6,40,8,27,11,-15,-25
1537918932209832,-15,-40,-48,-17,-16,-14,-5,-25
1537918932225789,12,22,24,9,25,5,3,17
1537918932225789,27,-20,-25,-4,-3,50,-7,3
1537918932231773,-15,-6,45,19,-5,-27,5,1
1537918932231773,7,-15,-52,-18,16,-14,-14,-14
1537918932240749,-8,52,17,-3,-18,-9,-3,13
1537918932240749,0,-8,20,9,-18,-4,2,-2
1537918932254712,-19,-13,3,12,-7,-26,-5,-9
1537918932254712,30,-9,-26,-25,-3,-11,-6,1
1537918932263688,-4,45,8,13,8,15,-1,2
1537918932263688,-12,-37,-12,-4,-26,-13,3,-7
1537918932269672,8,-13,19,0,15,-1,-7,-1
1537918932269672,21,13,-5,-11,9,17,-20,-1
1537918932284632,-22,21,-29,5,-9,-11,20,-3
1537918932284632,-15,-27,29,-3,-4,-8,-21,-7
1537918932300589,2,-2,3,10,2,12,32,4
1537918932300589,11,14,13,7,10,-13,-18,1
1537918932302584,-13,11,8,-10,-14,-13,-21,-3
1537918932302584,6,-13,-17,5,-6,4,11,7
1537918932315549,3,3,7,-7,8,5,10,0
1537918932315549,-5,-10,-15,-3,-7,4,16,-8
1537918932317544,-4,4,27,12,4,-8,-36,-3
1537918932317544,7,-3,-24,-17,-3,12,-9,0
1537918932329512,-2,-2,-5,-6,-2,0,-10,5
1537918932329512,2,-2,0,9,3,-19,-27,-2
1537918932338488,-2,12,20,6,-3,2,18,1
1537918932338488,-3,-6,-12,-18,-7,1,3,-6
1537918932351453,-4,-2,-20,-10,-2,-4,-5,-6
1537918932351453,4,-4,-2,3,-1,5,17,-2
1537918932360429,-8,6,12,-6,2,-2,-9,-3
1537918932360429,8,-5,-9,-2,-8,5,6,-1
1537918932375389,2,-3,8,6,4,-2,2,0
1537918932375389,5,2,7,4,4,-1,-1,4
1537918932377384,-5,2,-5,-3,1,-2,8,0
1537918932377384,-5,-4,-11,0,-3,3,-6,-1
1537918932389352,-2,0,2,-2,0,3,24,2
1537918932389352,-1,-6,-4,-2,-3,-9,-12,-2
1537918932398328,-1,3,6,-2,-2,-3,-2,1
1537918932398328,1,1,-5,2,-2,2,11,6
1537918932412290,0,-1,5,0,1,-6,-16,0
1537918932412290,-10,-4,-1,-1,-1,3,13,-3
1537918932421266,18,-2,-1,-1,2,1,-1,2
1537918932421266,-1,-4,-6,-2,-1,1,4,-2
1537918932443208,-3,-1,-2,-1,-3,-5,-5,0
1537918932443208,-1,-2,-4,-2,-2,1,2,-3
1537918932445202,-4,1,1,0,0,0,4,2
1537918932445202,1,0,-1,0,0,-2,-1,-3
1537918932449192,0,0,2,-2,-2,-4,-10,-2
1537918932449192,1,0,-2,3,0,2,4,0
1537918932458168,-4,2,2,-3,-1,-2,-6,-3
1537918932458168,1,-2,3,3,-2,-7,-8,-2
1537918932472130,-4,-3,-5,-1,2,-3,-9,-1
1537918932472130,4,1,-3,-2,-2,5,12,0
1537918932481107,-4,1,-2,-2,-2,0,7,1
1537918932481107,-4,-7,-1,2,-2,0,-4,-2
1537918932496067,0,-1,0,0,0,-2,-2,-3
1537918932496067,1,1,3,3,0,-3,-5,-1
1537918932497065,-1,-2,-2,-2,1,1,-1,2
1537918932497065,-2,-3,-2,-2,-1,-2,-1,-1
1537918932509033,1,1,2,0,-2,6,13,1
1537918932509033,-1,0,-6,-9,-4,-9,-34,-4
1537918932519007,-3,-2,-3,-1,2,6,38,-1
1537918932519007,-1,-1,-2,-1,-2,1,6,-2
1537918932531972,0,-1,-2,-2,-1,-5,0,1
1537918932531972,-1,-2,0,1,1,5,11,1
1537918932540948,-2,1,8,4,-1,-10,-38,-6
1537918932540948,-4,-4,-6,-10,-7,1,-36,-9
1537918932555907,-1,-1,-6,-2,1,1,18,6
1537918932555907,5,0,2,2,2,-7,-2,9
1537918932556904,-3,0,2,-2,-4,0,-6,-3
1537918932556904,-1,-1,2,3,-1,-3,2,-1
1537918932569869,-3,-2,1,-1,-3,-2,-44,-8
1537918932569869,-1,0,1,-4,-1,3,9,-3
1537918932578845,-3,-2,-2,-6,-4,-5,-9,0
1537918932578845,-11,-2,-3,-1,-4,4,13,-6
1537918932591811,28,0,-2,0,2,-3,-21,14
1537918932591811,0,1,5,5,-2,-4,-11,-4
1537918932600787,-2,1,-2,4,2,-2,6,-2
1537918932600787,0,5,0,-3,-2,0,8,-8
1537918932623725,13,3,-13,-3,11,15,-16,-3
1537918932623725,-32,-8,-3,4,20,19,35,-2
1537918932624723,43,3,-9,-1,31,-17,-28,15
1537918932624723,15,-8,-4,7,47,9,-24,5
1537918932646665,-76,-28,21,-15,-98,32,16,-2
1537918932646665,55,87,41,17,38,-98,-45,-30
1537918932647664,10,-99,-22,-13,-81,82,32,16
1537918932647664,74,-13,-95,-25,54,36,-18,11
1537918932660628,-103,40,90,38,-6,67,27,-16
1537918932660628,24,-115,-50,-47,-86,-34,8,-4
1537918932666613,5,100,18,22,64,-27,15,8
1537918932666613,-7,31,-52,-13,28,-44,8,15
1537918932683567,76,83,86,32,58,-6,-18,33
1537918932683567,-65,-78,-9,16,1,22,-3,-9
1537918932690548,-3,27,4,1,11,52,8,10
1537918932690548,-67,-38,-2,14,-21,-55,-8,-19
1537918932690548,-11,-6,-49,-23,1,-24,2,-25
1537918932690548,-35,39,23,1,-8,16,11,4
1537918932698528,4,-30,-16,-11,-13,-28,-7,-16
1537918932698528,5,3,16,2,-9,25,9,5
1537918932711493,18,-24,-25,-9,-12,-44,6,-7
1537918932711493,41,-9,-13,-3,2,34,2,8
1537918932720468,-30,-13,-15,1,2,-16,-10,-7
1537918932720468,1,33,52,5,-20,4,7,-4
1537918932735427,10,-25,-35,-7,6,-5,-2,-1
1537918932735427,-5,0,-15,-5,10,10,-6,12
1537918932742408,-11,22,15,2,-2,-14,1,-7
1537918932742408,-23,-4,9,-4,-18,3,8,-2
1537918932749390,22,-26,-33,-4,12,-9,-2,0
1537918932749390,4,23,-5,-2,9,7,-4,2
1537918932758365,-8,4,5,1,-8,-14,-4,-6
1537918932758365,13,-9,32,5,-13,8,-6,-1
1537918932772328,-3,-12,-6,0,6,-20,-14,-4
1537918932772328,8,23,-14,-17,2,22,47,8
1537918932781304,-7,-11,0,-5,-2,9,-6,-8
1537918932781304,-7,-12,-9,-1,-8,-3,58,13
1537918932795267,2,8,1,1,8,-17,-36,-6
1537918932795267,-17,1,15,13,0,-1,-22,2
1537918932802248,13,-3,2,-4,-1,4,-37,-5
1537918932802248,-5,4,5,3,-4,1,9,0
1537918932809229,3,-5,-6,-1,0,-8,17,-5
1537918932809229,21,11,4,1,3,-3,-5,2
1537918932818206,-7,-3,-13,-3,0,9,3,-8
1537918932818206,-5,1,-13,6,-8,5,6,-5
1537918932832168,3,-15,-4,-12,1,-2,-51,4
1537918932832168,-22,11,-16,9,3,1,-26,-8
1537918932841144,-7,4,38,24,4,-9,-13,2
1537918932841144,-3,11,-19,-32,-3,3,93,5
1537918932855107,-2,-17,-6,1,2,1,-48,2
1537918932855107,9,-7,-14,-5,3,27,85,19
1537918932862088,-10,-1,-1,0,-3,-23,-61,-7
1537918932862088,0,-5,21,19,-2,4,-22,2
1537918932869069,4,9,-10,-7,-1,0,-18,-1
1537918932869069,2,10,14,-3,-2,-4,-11,-7
1537918932878046,-4,-4,-3,0,-1,-2,36,-2
1537918932878046,-2,-5,4,-5,-7,-3,-70,-11
1537918932892008,-2,4,-7,-4,4,2,55,5
1537918932892008,5,1,6,6,-4,-10,-29,0
1537918932900984,-16,0,-10,-12,-7,-5,15,-9
1537918932900984,3,11,-7,-3,4,-1,-26,5
1537918932914948,-22,-46,-33,5,65,32,-9,-20
1537918932914948,-35,31,49,13,-50,-21,-6,4
1537918932921928,-25,-40,-55,-25,38,-75,-25,-26
1537918932921928,14,59,53,-7,-53,31,-1,6
1537918932937886,36,-41,22,5,-99,-93,22,-9
1537918932937886,-91,-57,-89,-8,97,-7,-12,-19
1537918932939881,37,56,85,45,57,-39,4,-20
1537918932939881,93,-95,-99,-70,-81,75,8,45
1537918932951848,-89,81,79,8,112,-40,53,-8
1537918932951848,42,24,100,23,-44,48,-43,-10
1537918932960825,-58,-9,49,-5,-41,-16,-14,-23
1537918932960825,106,16,-39,40,127,48,-20,7
1537918932974787,-14,54,-35,-5,-107,-48,29,55
1537918932974787,71,-90,-87,-30,-33,111,2,-37
1537918932981769,16,51,-26,-14,-33,11,7,-8
1537918932981769,-30,-7,10,5,7,-79,-22,21
1537918932998725,-77,-11,-20,-8,55,41,2,1
1537918932998725,46,-84,-23,11,-19,-101,4,82
1537918932999722,10,-3,-39,-9,-32,28,18,1
1537918932999722,-41,66,83,17,-19,-42,-3,-34
1537918933011690,19,-12,-9,1,21,15,-18,1
1537918933011690,-37,39,15,3,10,-3,3,-12
1537918933020665,-3,-52,-18,-7,-20,11,19,7
1537918933020665,-41,-19,-22,-2,16,-17,-15,-15
1537918933035625,34,9,11,10,-11,32,-12,1
1537918933035625,-1,11,8,-15,-18,-16,-6,-15
1537918933041610,16,-7,-34,-8,9,16,-26,15
1537918933041610,-28,4,28,10,4,-3,-6,-11
1537918933058564,33,-23,4,1,-27,23,6,-8
1537918933058564,10,27,-37,2,10,-13,-13,0
1537918933059563,-5,7,29,13,19,20,39,18
1537918933059563,-33,-19,-15,-27,-24,-25,-109,-21
1537918933073526,31,-4,24,3,-9,11,59,6
1537918933073526,-10,26,-16,-12,19,-9,-20,-5
1537918933080507,-2,8,0,13,3,21,-15,14
1537918933080507,-11,-27,1,6,-22,-5,-47,-22
1537918933095466,19,0,-19,-6,2,1,-4,8
1537918933095466,-7,26,20,14,9,10,15,0
1537918933102447,-10,-11,1,-22,-11,7,7,1
1537918933102447,-15,-6,43,1,-8,-9,27,-2
1537918933118405,-4,-8,-21,-14,-3,2,-13,-18
1537918933118405,13,25,23,9,6,-10,9,9
1537918933119403,2,-14,-15,-3,-5,-1,31,5
1537918933119403,-9,0,-13,7,2,1,-18,-8
1537918933132368,6,4,-2,3,0,16,14,0
1537918933132368,-10,0,27,-6,-4,1,14,-17
1537918933141342,9,-1,-10,-1,-2,-3,-25,6
1537918933141342,-15,-5,-3,5,5,-16,83,12
1537918933155304,11,3,-5,0,-6,-14,-38,15
1537918933155304,10,4,-12,-6,5,3,29,1
1537918933162286,4,2,3,-5,8,25,85,15
1537918933162286,-8,-5,-3,10,-6,-16,-80,-16
1537918933178244,1,-1,17,2,-8,-19,-49,-14
1537918933178244,-26,-8,-14,13,2,-12,-76,-12
1537918933180238,-3,-11,2,-31,0,24,43,8
1537918933180238,-3,-10,3,4,3,37,91,8
1537918933192206,2,1,-12,0,5,26,81,7
1537918933192206,3,5,-4,-3,-4,-40,-107,6
1537918933201182,7,7,40,14,2,-5,-4,14
1537918933201182,4,6,-10,2,-4,-20,-75,-18
1537918933215145,-4,-6,-6,-8,-4,13,49,1
1537918933215145,8,8,20,7,10,7,40,6
1537918933222126,6,4,-11,10,-2,-34,-72,16
1537918933222126,-11,-3,-4,-8,-2,51,-59,-3
1537918933238083,5,0,-1,4,1,3,-41,-10
1537918933238083,-2,-3,0,-7,-4,22,6,-13
1537918933240078,2,-9,-18,-5,-2,-26,-50,-2
1537918933240078,-19,1,5,-2,-5,-36,-62,-40
1537918933252046,1,-9,-10,-4,-2,33,-96,25
1537918933252046,8,-1,3,-1,2,2,100,-11
1537918933261022,14,4,-4,-2,-4,-23,-13,62
1537918933261022,-5,-1,-6,5,-4,-26,2,-12
1537918933274984,-6,-13,-12,-8,-13,-61,9,0
1537918933274984,-1,-1,0,-6,4,48,-59,-71
1537918933288947,-3,-1,5,9,9,38,82,36
1537918933288947,13,17,7,-1,-3,-9,-29,29
1537918933297923,4,1,-7,-6,-2,14,52,-30
1537918933297923,8,1,4,-6,-4,-29,23,31
1537918933299918,-14,-2,-3,0,1,5,-35,-54
1537918933299918,2,0,-3,-5,-10,-9,35,0
1537918933311886,-7,-3,-1,-1,-2,18,-32,-18
1537918933311886,-4,0,-1,-1,-6,1,18,20
1537918933320862,2,0,-1,1,0,-2,-15,-22
1537918933320862,7,1,1,4,6,-34,55,27
1537918933334825,1,1,0,2,4,87,7,-11
1537918933334825,-7,-3,-2,-4,-2,-35,-2,2
1537918933341806,0,0,-2,0,-5,-7,-40,-15
1537918933341806,-9,-7,0,-1,4,6,3,-31
1537918933358761,6,1,-1,1,-9,-45,-11,-8
1537918933358761,0,2,3,4,7,-3,-32,63
1537918933359758,0,-1,-7,-4,-2,14,-40,-2
1537918933359758,8,5,3,1,-4,-10,106,18
1537918933371726,-8,-5,-3,-2,8,33,-40,7
1537918933371726,-5,0,-2,0,6,11,-1,-33
1537918933380702,-11,-3,-3,2,13,-21,-1,-41
1537918933380702,13,2,2,5,3,58,32,18
1537918933394664,3,2,-3,-10,-42,-94,2,48
1537918933394664,1,-2,0,-6,0,74,23,3
1537918933401646,-18,-3,-2,1,5,9,-15,-40
1537918933401646,-1,-5,-5,-7,-11,-19,-14,-2
1537918933418600,-9,2,3,4,17,-7,-5,-9
1537918933418600,10,1,0,0,-4,-2,20,5
1537918933419598,-1,-1,0,2,2,-16,8,12
1537918933419598,1,0,-1,3,15,62,19,16
1537918933431566,0,-3,-1,-1,-2,-11,8,-6
1537918933431566,-18,-3,-4,0,1,-11,16,-18
1537918933440542,6,-2,-3,-4,-7,7,-4,16
1537918933440542,2,1,-4,-1,-8,-25,-4,7
1537918933455502,15,1,1,-1,5,-18,13,15
1537918933455502,0,1,3,1,1,18,-14,-16
1537918933461486,4,0,-2,2,-5,18,73,2
1537918933461486,-5,-3,-2,-2,-6,1,-17,-11
1537918933478441,6,-4,-4,-3,3,-9,-33,1
1537918933478441,6,-2,-1,-4,-7,-46,-38,17
1537918933479438,5,1,0,-1,-5,1,-6,-6
1537918933479438,2,-2,-1,-1,2,17,14,50
1537918933492403,-5,-3,-7,1,4,7,-4,-25
1537918933492403,-5,-2,6,0,-6,-22,-13,-11
1537918933500382,2,1,-2,-2,-7,11,-48,12
1537918933500382,-10,-6,0,-1,4,-13,34,-15
1537918933515342,8,8,9,7,4,-23,1,15
1537918933515342,5,8,-4,-7,-5,12,31,30
1537918933522323,26,-7,-2,-3,-6,-13,-44,-14
1537918933522323,-27,-26,-12,-7,-1,-6,-40,-28
1537918933538280,-14,6,-7,3,1,9,-5,8
1537918933538280,-15,-6,12,12,3,5,11,-2
1537918933539278,-11,9,-7,-13,-1,-11,17,-5
1537918933539278,19,-2,30,-3,0,14,-18,-11
1537918933552243,16,-19,9,7,4,16,25,7
1537918933552243,-19,-8,-11,-7,-7,-62,-40,-10
1537918933561219,9,0,-14,1,-5,40,4,8
1537918933561219,13,9,-2,4,5,-29,6,52
1537918933582163,-11,-4,1,-7,-10,-48,61,-2
1537918933582163,4,3,8,7,10,88,-1,-12
1537918933591139,-8,0,7,1,-15,-108,11,-28
1537918933591139,-11,-2,-11,-2,2,40,-60,-14
1537918933606100,-7,4,3,1,9,107,-29,-51
1537918933606100,17,3,-7,-1,0,27,76,45
1537918933607097,-8,-2,-2,3,15,49,16,19
1537918933607097,5,0,2,5,5,-4,20,-22
