timestamp,emg1,emg2,emg3,emg4,emg5,emg6,emg7,emg8
1537915436241741,0,2,-1,-1,-15,-46,-39,-8
1537915436241741,-3,-4,0,-2,1,38,59,-2
1537915436242738,0,-1,1,8,32,-29,-7,-2
1537915436242738,0,1,-1,2,-10,48,1,0
1537915436243735,-3,-4,-4,-5,2,6,-1,2
1537915436243735,1,1,1,5,19,-17,-20,-4
1537915436244733,-1,2,-1,-8,-33,-6,24,-13
1537915436244733,0,2,1,3,13,-14,-15,-3
1537915436253708,-1,-3,-2,-3,-7,-1,8,-2
1537915436253708,-4,1,-1,0,2,-25,-16,-3
1537915436259692,2,-1,-1,6,34,57,11,7
1537915436259692,-1,-2,-1,-4,-27,-17,0,-7
1537915436270663,1,1,1,2,3,7,4,11
1537915436270663,2,1,-3,-6,-17,-30,-22,-4
1537915436274652,-1,0,0,-3,-2,0,4,8
1537915436274652,-6,-1,1,4,8,21,0,9
1537915436289612,1,1,0,-1,-2,19,30,-7
1537915436289612,1,-2,-3,-2,-2,-15,-18,-29
1537915436304573,-1,-2,-2,-2,-7,-20,-21,1
1537915436304573,-2,0,-3,0,9,-20,-31,-5
1537915436314546,-5,0,1,3,10,22,49,9
1537915436314546,3,0,0,1,-5,-14,-36,13
1537915436352445,-1,1,0,-2,2,-1,-7,-1
1537915436352445,6,-2,-2,-3,-4,-4,9,5
1537915436353443,0,-4,-2,0,1,0,-10,8
1537915436353443,0,-1,-2,0,0,-10,12,-8
1537915436354440,-2,3,0,3,-4,21,-39,4
1537915436354440,-5,-3,-3,-2,-2,2,25,-6
1537915436357431,-3,3,1,0,-1,-16,2,-13
1537915436357431,1,0,-1,-2,2,-17,-6,-5
1537915436365409,0,-4,-1,0,-1,-4,-1,1
1537915436365409,-3,0,0,-1,1,6,-2,-3
1537915436372391,-1,1,-3,-3,-9,-5,-2,9
1537915436372391,-5,-3,-1,-1,2,13,-28,-10
1537915436379372,-2,-2,-1,-4,-3,-11,25,-11
1537915436379372,5,3,-1,2,0,3,-19,12
1537915436394332,-9,-11,-3,-2,0,-4,17,6
1537915436394332,3,0,1,-1,-3,-1,-10,4
1537915436402310,-1,-2,-1,0,1,-2,-1,-1
1537915436402310,-3,0,-1,-1,-3,-6,2,0
1537915436426246,2,2,-1,-2,-2,0,-12,-14
1537915436426246,2,1,2,1,0,8,28,15
1537915436426246,-4,-1,-2,-1,-3,-8,18,2
1537915436426246,-4,2,2,0,4,27,-15,-4
1537915436440209,3,0,1,1,1,-35,-32,-6
1537915436440209,0,0,0,1,2,43,18,12
1537915436441207,1,2,-1,2,5,8,-7,-9
1537915436441207,0,-3,-1,-3,-6,-13,-8,-4
1537915436463149,0,0,-1,-1,1,15,0,1
1537915436463149,-6,0,-2,-1,-4,-11,-9,-11
1537915436464146,0,-4,-2,-4,-7,-14,-5,1
1537915436464146,0,-1,-1,1,0,6,10,4
1537915436486087,-1,1,-2,-3,0,3,2,-6
1537915436486087,0,0,-2,-1,-4,-23,-10,3
1537915436486087,-2,-1,0,0,6,12,20,1
1537915436486087,-2,0,-1,0,-3,-43,-3,-1
1537915436500049,-3,2,1,0,3,54,-2,-15
1537915436500049,2,0,1,0,-1,8,46,6
1537915436501047,1,1,-2,0,-6,-13,-9,8
1537915436501047,-3,-1,-1,1,6,9,-24,0
1537915436522988,0,-2,1,2,-1,-7,16,-3
1537915436522988,1,-4,-1,-1,0,2,-24,-9
1537915436523986,-5,-6,-2,-1,-4,2,-2,0
1537915436523986,3,-1,0,0,-1,-21,10,4
1537915436545927,0,-4,-1,-1,-1,-1,17,-17
1537915436545927,-4,0,-1,-5,-4,-5,-28,-3
1537915436546924,6,5,2,0,1,-15,-11,8
1537915436546924,-3,-4,-2,-2,-2,0,16,0
1537915436559889,0,-1,-2,-1,-3,-11,-4,10
1537915436559889,-1,-2,-2,-3,-2,20,-4,-4
1537915436560887,-5,-2,-1,-1,2,4,5,-15
1537915436560887,-4,-3,-1,-3,-2,15,-10,1
1537915436582828,-1,0,0,1,-1,-15,-6,5
1537915436582828,-3,-1,-2,-1,-3,-20,-8,-10
1537915436583825,3,-1,1,0,4,1,46,19
1537915436583825,4,1,0,1,2,22,16,6
1537915436605767,-4,0,-2,-2,-5,-38,-8,2
1537915436605767,2,-4,1,4,5,48,-8,6
1537915436606765,-3,-1,-2,-1,-2,-11,-15,-12
1537915436606765,-1,0,-1,-3,-2,22,3,1
1537915436619729,0,-3,-1,-3,-4,-37,-7,-5
1537915436619729,-2,-1,0,0,3,27,4,0
1537915436620727,-3,1,-2,0,1,-1,-6,-5
1537915436620727,-3,-1,-1,-1,0,-12,2,-5
1537915436643665,-2,-1,0,-1,-1,9,-10,8
1537915436643665,-1,1,-2,-2,-4,-20,-1,-2
1537915436643665,-1,3,-3,-3,-1,-3,-1,-1
1537915436643665,-3,-10,-2,-1,-3,-9,-9,-1
1537915436665607,1,1,0,0,2,15,5,0
1537915436665607,-5,-12,-1,2,-2,-15,22,11
1537915436666604,4,8,1,2,0,8,-2,2
1537915436666604,-3,4,-2,-1,-2,-13,-5,1
1537915436680567,1,0,-1,0,0,13,-32,-6
1537915436680567,0,3,2,0,2,-10,37,-1
1537915436680567,0,-8,-3,-4,-5,5,-12,9
1537915436680567,-1,-1,-1,0,-1,-2,-5,-7
1537915436703505,1,0,0,-2,0,-4,4,6
1537915436703505,0,-4,-1,-1,-2,-22,-14,-5
1537915436704503,-1,-3,-1,0,0,6,-1,-6
1537915436704503,2,1,-1,-2,1,39,-9,-5
1537915436725447,-3,-2,-1,-1,-1,6,15,3
1537915436725447,-1,4,-2,-1,0,-18,-15,-4
1537915436726444,-2,-3,0,-1,-3,-1,-3,-1
1537915436726444,-1,4,-1,1,1,-16,-2,-2
1537915436740407,-1,-3,-1,-1,1,10,10,-6
1537915436740407,-1,0,-2,-1,-2,1,-6,-11
1537915436740407,0,2,-1,-1,-3,-3,-7,9
1537915436740407,-2,-4,0,0,0,-15,-23,-9
1537915436763346,0,-2,-3,1,-1,11,13,-1
1537915436763346,1,2,-1,-1,1,-8,22,17
1537915436764343,-1,-3,-1,-2,0,2,-9,-6
1537915436764343,1,0,0,-3,-3,-5,12,-1
1537915436786284,-1,-1,0,-1,0,4,-5,0
1537915436786284,-2,0,-1,-1,-4,-3,-11,-1
1537915436787282,-2,-1,-1,0,2,-3,-5,-16
1537915436787282,0,0,-1,-2,-3,-4,3,11
1537915436799249,1,1,-1,2,1,-8,-10,-9
1537915436799249,0,-2,-3,-5,-5,10,-2,7
1537915436808226,-2,-2,0,1,1,-6,-5,-4
1537915436808226,-2,-2,-1,-2,-1,-4,-3,-9
1537915436823186,0,-2,1,0,0,9,11,6
1537915436823186,1,1,1,0,-1,-10,-9,2
1537915436825180,0,-1,-1,-1,-2,-45,5,-3
1537915436825180,0,1,0,3,7,68,1,-4
1537915436846124,-1,0,-3,-1,-2,-3,-11,2
1537915436846124,-1,-1,0,0,3,-8,-8,-4
1537915436847122,3,-1,-3,-1,-3,-11,7,7
1537915436847122,0,-1,-1,-1,1,5,12,1
1537915436859089,0,0,1,-1,1,5,-2,0
1537915436859089,-1,-2,-1,-3,-7,-10,-10,-4
1537915436868066,-3,-2,-1,-2,0,4,13,0
1537915436868066,-3,-2,1,4,0,-20,-13,-5
1537915436883026,6,0,-1,-6,-3,33,38,21
1537915436883026,-5,-1,-2,-5,-6,-20,3,-27
1537915436885020,2,-2,1,4,21,35,16,19
1537915436885020,-5,0,2,8,60,-34,-46,-15
1537915436906962,4,2,-3,-14,-86,-32,27,13
1537915436906962,3,1,-4,-3,2,70,5,2
1537915436908956,-2,-2,-5,-11,-28,-6,-5,-7
1537915436908956,-1,-2,-1,-3,-10,2,12,1
1537915436918930,-3,-1,0,5,41,11,-12,-8
1537915436918930,-2,1,4,9,18,-22,-1,1
1537915436927905,0,-1,-3,-7,-22,27,1,1
1537915436927905,-3,-1,-1,-1,0,-10,-13,-10
1537915436942866,-2,0,5,5,7,-18,-19,-7
1537915436942866,-2,0,0,-2,-5,2,9,-1
1537915436944860,1,-1,-1,5,21,4,-21,0
1537915436944860,0,-2,-2,-5,-23,-19,9,1
1537915436965804,-7,-3,-2,-1,2,2,7,-7
1537915436965804,4,1,1,1,5,8,-4,4
1537915436966802,-4,0,1,2,1,-7,-6,-7
1537915436966802,1,1,-1,-2,-17,-4,12,4
1537915436979767,-2,-1,0,2,6,3,-4,-4
1537915436979767,-2,-4,-3,1,1,2,-22,3
1537915436988743,-1,-1,-1,-1,-5,-4,5,-7
1537915436988743,2,0,-1,-4,-11,1,5,2
1537915437003703,-1,-3,-2,3,14,1,-11,12
1537915437003703,-2,-1,-2,-4,-9,-18,-9,5
1537915437004700,-1,-2,2,-1,0,7,29,-23
1537915437004700,0,-1,3,4,7,4,-12,-12
1537915437025644,-2,-2,-6,-6,0,7,-23,-27
1537915437025644,4,1,4,7,20,18,11,6
1537915437027639,-5,-3,0,7,49,-34,21,5
1537915437027639,-3,-3,-6,-14,-65,-8,-48,10
1537915437039607,-2,-1,-2,0,16,-11,77,-22
1537915437039607,7,-1,-3,-8,-12,56,-20,22
1537915437048583,-1,3,5,13,32,-14,10,-23
1537915437048583,0,0,-3,-4,-20,-10,1,25
1537915437063543,-1,-4,-3,-7,1,-44,-9,23
1537915437063543,-20,0,5,17,75,-72,26,-58
1537915437064541,6,2,0,0,-44,62,4,29
1537915437064541,7,3,3,19,53,-61,-44,-20
1537915437085484,4,-2,-7,-26,-112,92,-49,34
1537915437085484,-9,-4,5,12,66,6,9,-15
1537915437087479,-2,11,11,39,-16,-85,-5,9
1537915437087479,-5,-19,-39,-102,-65,49,18,-21
1537915437099447,-1,16,33,76,119,70,22,-48
1537915437099447,12,9,9,20,-18,-2,29,5
1537915437108423,6,-25,-42,-81,-42,-22,-50,6
1537915437108423,-12,3,18,57,123,58,20,8
1537915437123383,1,1,-19,-72,-127,-106,19,7
1537915437123383,-15,-8,-6,-5,35,37,-16,-27
1537915437129367,-3,9,20,41,97,72,-13,12
1537915437129367,14,-7,-14,-40,-99,-56,9,33
1537915437145325,-11,-2,10,43,127,83,28,-27
1537915437145325,16,1,-2,-7,-29,20,20,18
1537915437147319,-7,-9,-5,4,57,-84,-6,11
1537915437147319,-11,-4,-22,-65,-59,-4,-20,-26
1537915437159287,14,5,19,45,59,-99,-31,-2
1537915437159287,-11,-3,-7,-5,-13,12,-19,-10
1537915437168263,-19,2,4,12,-46,127,25,-27
1537915437168263,19,7,19,50,68,-13,-11,-20
1537915437183223,-6,-4,0,10,-9,26,11,60
1537915437183223,6,5,7,29,-27,-12,5,-14
1537915437185218,3,-1,0,14,17,127,-48,25
1537915437185218,-22,-10,-21,-56,30,40,27,-32
1537915437213143,-8,-12,-31,-88,-34,26,-24,7
1537915437213143,38,6,3,-17,-25,-10,9,31
1537915437215138,-11,0,12,9,-128,-117,-27,-23
1537915437215138,42,18,18,59,8,-3,10,42
1537915437231095,-18,-2,5,30,66,18,16,-33
1537915437231095,-33,-5,-7,-30,-6,26,-16,12
1537915437232092,18,3,2,9,35,-101,-13,-3
1537915437232092,-13,-1,10,31,-48,-44,35,0
1537915437235085,6,-3,-11,-24,-49,-11,-13,-11
1537915437235085,3,-3,-6,3,-19,54,34,5
1537915437246055,-14,-6,-22,-71,28,82,23,-15
1537915437246055,-9,1,12,16,45,-12,7,17
1537915437260018,11,5,10,70,26,92,-29,19
1537915437260018,21,9,14,80,105,51,16,19
1537915437260018,6,2,0,0,-44,62,4,29
1537915437260018,7,3,3,19,53,-61,-44,-20
1537915437261015,4,-2,-7,-26,-112,92,-49,34
1537915437261015,-9,-4,5,12,66,6,9,-15
1537915437266002,-2,11,11,39,-16,-85,-5,9
1537915437266002,-5,-19,-39,-102,-65,49,18,-21
1537915437266999,-1,16,33,76,119,70,22,-48
1537915437266999,12,9,9,20,-18,-2,29,5
1537915437282957,-14,-6,-22,-71,28,82,23,-15
1537915437282957,-9,1,12,16,45,-12,7,17
1537915437283955,11,5,10,70,26,92,-29,19
1537915437283955,21,9,14,80,105,51,16,19
1537915437288941,-6,-13,-25,-78,-108,-108,-21,-10
1537915437288941,0,13,35,111,56,85,-1,2
1537915437289938,4,-4,-6,-29,95,16,48,-6
1537915437289938,-40,-28,-43,-72,-128,-112,-35,-19
1537915437290936,0,1,1,34,102,-1,-46,-27
1537915437290936,1,8,15,-19,58,33,-7,7
1537915437293927,-1,9,22,75,63,-56,1,6
1537915437293927,-16,-11,-12,-60,-22,61,-46,-21
1537915437302904,18,5,5,15,47,-67,52,24
1537915437302904,-15,-2,6,16,7,72,-19,-4
1537915437316866,-3,5,18,69,4,33,-49,-7
1537915437316866,22,6,-5,-1,-8,-54,81,60
1537915437325842,-11,-9,-11,-65,-59,-13,-3,-10
1537915437325842,-1,-2,-1,13,80,52,36,-6
1537915437347783,-6,-14,-31,-114,-128,-88,-52,9
1537915437347783,8,8,27,76,71,18,25,22
1537915437349778,3,2,3,43,38,97,16,4
1537915437349778,-16,-9,-16,-91,-67,-70,11,-16
1537915437363740,-6,-9,-17,-29,-59,-60,-30,-46
1537915437363740,-4,0,-7,-20,-54,-11,-40,4
1537915437364738,-11,9,28,56,46,66,25,-30
1537915437364738,17,1,0,46,16,-18,-18,16
1537915437376706,-3,-4,-2,12,70,66,1,11
1537915437376706,2,1,10,-3,-3,-30,24,-5
1537915437385682,-1,-5,-9,51,43,40,-27,-24
1537915437385682,-10,-5,-15,-105,-61,-34,21,19
1537915437399644,2,-7,-15,-27,-74,59,-71,-33
1537915437399644,1,-1,-10,-38,30,-38,20,23
1537915437408621,5,3,11,9,0,-23,12,2
1537915437408621,-8,-5,-12,2,-17,-47,-50,-12
1537915437423581,13,7,8,13,12,-19,88,13
1537915437423581,-4,5,18,68,114,-45,-29,-19
1537915437424578,24,-2,-12,-20,-70,53,-17,49
1537915437424578,2,-6,-13,-45,-18,-64,23,-16
1537915437436546,13,1,8,11,-12,-16,-6,15
1537915437436546,-5,0,3,23,3,-14,8,-26
1537915437451506,6,7,3,-21,42,-37,-35,48
1537915437451506,6,-3,-6,-14,-9,26,73,1
1537915437460482,4,1,4,11,32,83,-20,14
1537915437460482,-5,-5,-4,-13,-27,-79,-20,-16
1537915437466466,-4,-5,-3,-16,68,-29,-21,-13
1537915437466466,-7,-7,-9,10,-3,51,3,-14
1537915437483421,-11,2,6,6,7,-68,-22,-36
1537915437483421,6,3,5,25,14,40,11,-6
1537915437485416,-10,1,11,42,43,32,41,4
1537915437485416,25,6,4,17,59,-18,-28,-9
1537915437497383,-11,-6,-13,-5,-56,-125,-13,-34
1537915437497383,-6,-7,-18,-93,-58,92,10,-10
1537915437505363,2,1,1,6,-39,-41,25,-7
1537915437505363,-3,-2,9,11,-6,43,-11,37
1537915437520322,1,-1,-7,-27,-7,-7,54,7
1537915437520322,-5,0,5,12,-22,-42,-71,-18
1537915437527303,0,-1,4,-25,-16,-30,1,7
1537915437527303,-1,3,5,75,50,22,19,-4
1537915437543261,-20,-9,-11,-32,-31,5,-47,-33
1537915437543261,15,-3,-12,-41,-60,6,59,44
1537915437544258,3,-1,-4,-16,-35,-44,34,15
1537915437544258,-5,3,11,59,-20,21,-12,-7
1537915437557223,1,6,11,2,72,68,-39,-26
1537915437557223,4,-3,-12,-5,-25,-10,11,-8
1537915437566200,-7,-4,-2,0,-52,39,-16,-16
1537915437566200,9,4,11,17,61,19,24,13
1537915437580162,0,-1,-8,-7,62,66,42,50
1537915437580162,-1,-3,0,-1,-22,-58,-47,-16
1537915437587143,9,2,4,-4,28,13,-30,43
1537915437587143,-12,-4,-4,37,-40,9,18,-12
1537915437603101,6,-4,-7,-47,103,-20,28,20
1537915437603101,-14,-4,-10,-27,-36,-16,-14,-10
1537915437605095,-2,-3,-14,-71,-24,42,10,-18
1537915437605095,0,3,7,-5,22,-25,-26,-25
1537915437618061,13,10,21,120,46,-6,10,25
1537915437618061,-4,-3,-9,-41,12,21,-25,-9
1537915437626039,-9,-5,-1,8,-7,31,32,-5
1537915437626039,6,4,6,19,1,-85,-41,-7
1537915437640002,2,-6,-9,-33,-91,-19,23,0
1537915437640002,-4,-1,4,26,17,-10,-48,-18
1537915437647981,-5,-1,4,21,-2,-9,11,-6
1537915437647981,0,-4,-12,-37,-30,-73,-15,17
1537915437661943,-3,-2,2,32,-43,-16,-43,-11
1537915437661943,-4,0,-4,-69,93,47,-6,-26
1537915437670919,4,-2,0,4,-13,16,3,2
1537915437670919,-4,-3,-3,-18,-6,12,-4,-9
1537915437676903,0,3,12,57,6,-2,26,15
1537915437676903,10,5,10,31,84,98,18,21
1537915437685879,2,-1,-6,8,17,-35,-31,-11
1537915437685879,-24,-8,-12,-45,-24,16,2,-25
1537915437699842,15,3,6,6,-7,16,3,8
1537915437699842,3,3,7,63,79,34,14,22
1537915437706824,-6,-7,-10,-47,-59,-43,-6,-24
1537915437706824,-5,-2,7,13,-21,50,-57,-10
1537915437722781,-5,2,-6,-13,53,1,-18,-13
1537915437722781,5,0,-2,-22,-56,-35,70,22
1537915437724776,-7,0,0,13,-27,-63,-43,-18
1537915437724776,1,-2,-3,-15,-27,-40,7,9
1537915437736743,-2,-1,1,-13,-22,11,10,-10
1537915437736743,-5,-2,-1,10,-29,16,18,34
1537915437745720,4,1,0,8,-22,-66,-19,-2
1537915437745720,3,0,-2,-10,4,10,53,21
1537915437759682,-6,-4,-4,-18,-25,-21,-3,5
1537915437759682,-3,3,6,15,-24,-16,-9,-9
1537915437766663,3,-2,-2,29,127,90,22,16
1537915437766663,-10,-3,-4,-17,-61,3,-24,-8
1537915437783618,18,0,1,-23,-55,-96,-8,16
1537915437783618,-7,-4,0,-26,14,41,36,-30
1537915437784616,-1,3,4,20,41,-3,12,-2
1537915437784616,2,-4,-7,-10,8,18,-14,10
1537915437796583,-15,-1,-4,-24,-25,10,7,-42
1537915437796583,18,8,16,72,14,-3,-17,10
1537915437805559,-2,0,4,-2,68,97,9,-7
1537915437805559,-8,-7,-14,-31,-63,-44,20,-6
1537915437828498,0,0,2,32,64,61,-29,6
1537915437828498,-10,-5,-10,-56,-78,37,-42,-16
1537915437829496,4,1,1,-6,-74,-70,26,24
1537915437829496,4,-1,-2,-2,49,5,-29,-5
1537915437843458,-8,2,12,41,32,49,-3,5
1537915437843458,0,0,5,24,49,-31,-10,-4
1537915437844456,-6,-8,-17,-42,-48,-2,16,2
1537915437844456,4,0,4,2,2,-15,18,4
1537915437857421,2,0,-5,-32,-49,-32,-3,51
1537915437857421,12,5,5,34,63,-16,-11,12
1537915437871383,-1,0,0,-3,-3,45,43,-12
1537915437871383,2,1,2,4,19,4,-13,-4
1537915437880359,-2,-2,1,19,12,19,8,3
1537915437880359,-6,-5,-8,-29,-11,-14,-17,-5
1537915437887341,1,1,1,-7,-11,12,-24,4
1537915437887341,-2,0,2,21,25,30,-2,-12
1537915437902301,1,-1,-5,-24,-32,-32,10,-8
1537915437902301,-9,-1,-3,-2,-3,-18,13,-3
1537915437909282,0,0,1,9,4,12,-25,-23
1537915437909282,-5,-2,-3,-14,-1,16,9,-2
1537915437917261,-1,-1,-5,-27,-12,-10,15,1
1537915437917261,-2,-2,0,8,0,-11,-9,-1
1537915437926237,0,1,2,10,-4,-5,-7,0
1537915437926237,3,0,0,8,11,9,-2,9
1537915437940200,-2,-2,-4,-10,6,11,13,5
1537915437940200,3,0,-2,-1,-21,-14,-13,-2
1537915437947181,-4,-1,5,11,7,-9,-3,-3
1537915437947181,1,2,1,5,14,2,4,2
1537915437962141,-2,-2,-5,-19,-10,-2,5,-8
1537915437962141,-4,-3,0,8,-1,-7,-2,-7
1537915437969123,3,1,2,3,3,-7,-10,0
1537915437969123,0,1,-2,3,3,2,6,6
1537915437977101,0,-4,-3,-7,-2,-2,0,0
1537915437977101,-1,-1,0,1,-5,-1,-2,-2
1537915437986077,-2,1,0,3,6,0,-3,-3
1537915437986077,2,-1,-1,-1,-2,1,2,1
1537915438000039,-1,-1,-2,-5,-3,-2,4,3
1537915438000039,0,0,0,1,-1,-4,-4,1
1537915438007021,0,1,-1,-2,-3,-4,-3,-3
1537915438007021,0,-1,1,5,8,0,0,0
1537915438022978,-2,-3,-1,-3,1,0,4,-3
1537915438022978,-2,-1,-3,-2,-4,-6,-1,-2
1537915438028962,1,1,2,2,1,-4,-4,0
1537915438028962,1,1,0,1,1,2,-2,-5
1537915438036941,-1,-3,-3,-6,1,3,6,8
1537915438036941,2,1,3,6,2,-2,-3,0
1537915438045917,-4,-4,-3,-4,-7,-5,-2,0
1537915438045917,-2,-1,-1,-3,-1,-1,-1,-2
1537915438059880,0,-1,-3,-5,-5,-1,-4,-5
1537915438059880,-3,0,-2,-1,-1,-3,4,-2
1537915438066861,-1,1,1,6,6,1,-5,-5
1537915438066861,-2,-3,-2,1,3,-5,1,-1
1537915438082818,0,0,0,-2,-2,1,-3,1
1537915438082818,0,-2,-2,-3,-9,-11,-7,0
1537915438089800,-1,0,1,0,1,0,3,3
1537915438089800,-1,0,0,1,0,-2,-1,4
1537915438105757,-3,0,0,0,5,0,-4,-7
1537915438105757,4,-2,-2,-2,-4,2,-29,2
1537915438106754,-2,-3,-1,-2,-12,-4,15,-13
1537915438106754,4,2,1,2,1,1,21,23
1537915438126701,-2,-1,-2,0,3,-1,3,-6
1537915438126701,-2,0,1,0,6,6,0,-8
1537915438135677,1,-1,0,0,1,-5,-12,3
1537915438135677,-4,-1,-3,-1,-8,-15,-9,-3
1537915438150637,-3,-2,-1,-3,-4,6,2,-3
1537915438150637,1,-2,-2,-2,0,16,0,6
1537915438152632,2,2,0,5,12,-8,2,3
1537915438152632,-5,1,0,1,4,0,2,-17
1537915438173576,2,-1,-1,-6,-17,-10,-8,3
1537915438173576,-6,-1,-1,2,7,8,14,-7
1537915438174573,1,0,1,7,25,-24,-1,3
1537915438174573,-1,-2,-4,-12,-26,43,7,-5
1537915438186541,1,0,0,-2,-2,-12,-9,0
1537915438186541,0,0,-1,-1,0,1,-30,5
1537915438195517,0,-1,-2,2,11,32,60,1
1537915438195517,-3,-1,-2,4,3,-33,-20,-3
1537915438210477,-2,-2,-4,-1,-5,-9,-11,0
1537915438210477,3,-1,0,-3,-1,19,19,3
1537915438212472,1,-2,-3,-4,-6,-3,-43,0
1537915438212472,2,-1,0,1,4,1,8,4
1537915438233416,-3,0,2,3,1,-1,-21,1
1537915438233416,-3,1,1,1,-3,-40,46,-7
1537915438234413,-2,-1,-3,-6,-17,-29,0,0
1537915438234413,1,1,1,-1,9,66,9,1
1537915438246381,0,-2,-4,-2,3,-4,-25,-4
1537915438246381,-4,1,1,1,-1,11,3,-4
1537915438255357,-4,-3,-3,-2,-11,-9,-13,-5
1537915438255357,4,-1,-2,-2,6,-23,5,1
1537915438270317,-2,-1,3,2,12,15,11,0
1537915438270317,6,0,-4,-3,-18,-15,-20,7
1537915438272312,-7,-1,1,0,-1,11,28,-11
1537915438272312,3,-2,-2,0,6,-12,-22,1
1537915438293256,-6,-1,-1,-2,-1,-1,-13,-6
1537915438293256,-2,-2,-2,-2,-6,-7,4,-6
1537915438294253,-6,-1,-1,-2,-12,6,-10,-8
1537915438294253,2,-2,0,0,3,-2,25,7
1537915438307219,3,0,0,0,0,-30,-10,1
1537915438307219,-2,-2,-3,-2,3,11,-27,2
1537915438316195,-1,-2,-1,0,0,-2,-18,-3
1537915438316195,1,1,-2,-1,-1,7,-2,3
1537915438331155,1,0,-2,-1,-6,-1,1,-3
1537915438331155,-3,-2,0,-2,0,-12,-24,-2
1537915438332153,-1,0,0,-1,0,24,37,1
1537915438332153,0,-1,-1,-1,-5,-33,-36,-6
1537915438353096,-5,0,2,1,2,-2,3,-6
1537915438353096,8,-2,-4,-3,-2,-2,16,22
1537915438355091,1,-1,-1,-1,2,34,-25,-2
1537915438355091,-1,-1,2,3,-3,-15,-29,-3
1537915438367058,0,-3,-3,-3,-3,10,42,5
1537915438367058,-9,-2,1,1,6,19,-5,-15
1537915438376035,8,1,-1,-4,-14,-44,-47,15
1537915438376035,-1,-1,-2,-2,0,-18,-8,0
1537915438390995,0,-1,0,1,1,34,38,0
1537915438390995,6,-2,-3,-4,-1,-15,19,11
1537915438391992,-5,-3,-2,-1,2,9,8,0
1537915438391992,-6,2,2,7,25,38,29,-12
1537915438412936,1,-2,-4,-14,-53,-71,-38,2
1537915438412936,-3,-2,-3,-3,-9,28,41,2
1537915438414931,0,0,1,-2,-1,-1,17,2
1537915438414931,-3,-1,-2,-3,-5,-1,-11,-2
1537915438426899,1,1,0,2,15,8,16,1
1537915438426899,1,2,1,3,3,1,-34,-5
1537915438435875,0,0,0,1,-2,-18,-19,0
1537915438435875,-1,-2,0,1,6,17,32,2
1537915438450834,-1,-2,-2,-1,6,5,-11,-4
1537915438450834,-3,1,0,1,-6,-23,-7,-8
1537915438451832,0,-1,-2,-2,3,-2,-16,-1
1537915438451832,-1,-1,1,0,-1,20,4,-9
1537915438472776,0,-2,0,-1,1,0,-4,1
1537915438472776,-1,0,0,0,2,8,33,0
1537915438474771,1,-1,-1,-1,0,2,9,4
1537915438474771,3,0,-2,-2,-7,-21,-32,4
1537915438486738,0,0,0,1,2,-2,-40,-3
1537915438486738,0,2,3,4,6,-21,27,0
1537915438495715,2,-2,-3,-3,-5,7,9,-6
1537915438495715,1,-2,-2,-3,-6,-24,-2,5
1537915438510675,-8,-2,-3,-2,6,20,-1,-9
1537915438510675,-1,-1,0,0,-1,-12,-35,-8
1537915438512669,-11,-1,-1,2,3,-17,0,-13
1537915438512669,1,-1,0,-1,-5,9,39,3
1537915438533613,8,1,-2,1,5,41,25,18
1537915438533613,-3,-2,-2,-3,-3,-7,-33,-6
1537915438534611,11,0,-2,-1,1,17,31,10
1537915438534611,-6,-3,-3,-2,-8,-37,-65,-18
1537915438546579,-1,1,1,2,4,2,15,9
1537915438546579,2,-1,-1,-4,-2,25,50,8
1537915438555555,0,0,0,1,8,1,-5,0
1537915438555555,2,-1,0,-1,-6,-3,-14,0
1537915438570515,-3,-1,-2,0,-5,-40,22,-8
1537915438570515,-5,-3,-2,-4,-1,18,-28,-5
1537915438572509,-3,-2,1,-1,0,-30,-41,-4
1537915438572509,-3,0,1,3,-1,63,18,-4
1537915438593453,-4,-1,0,-1,-3,1,48,-11
1537915438593453,2,0,2,2,1,-10,-30,2
1537915438594451,0,-1,-1,-3,-4,0,41,9
1537915438594451,-13,-2,-2,-1,2,-8,-24,-28
1537915438606419,1,-2,-3,-4,-6,-26,21,-1
1537915438606419,-2,-1,0,2,8,45,0,0
1537915438615395,-3,0,-1,3,2,-4,-30,-16
1537915438615395,-2,-2,-1,-2,-2,-6,25,19
1537915438630355,-2,-1,1,-2,0,18,-14,-2
1537915438630355,-14,0,0,0,-1,-47,-23,-20
1537915438632350,-3,-6,-2,-4,-1,23,26,-2
1537915438632350,-2,0,2,0,-2,-22,-36,1
1537915438653293,1,-1,-2,-1,0,-17,-8,1
1537915438653293,-2,-3,-1,0,-3,12,20,0
1537915438654291,2,2,-1,3,6,33,-15,8
1537915438654291,9,-2,-5,-5,-3,-29,-7,29
1537915438667256,0,-1,-1,1,4,10,-31,-2
1537915438667256,-2,0,1,3,14,-1,36,-6
1537915438676232,-7,-2,0,-1,-23,-14,-29,-2
1537915438676232,-7,-3,-2,-6,-4,-1,53,-16
1537915438690195,8,0,-2,1,1,11,-28,-1
1537915438690195,10,2,0,0,4,-17,11,23
1537915438697176,14,1,-2,-3,4,13,-2,11
1537915438697176,-4,-2,0,-3,2,-4,8,-7
1537915438713133,0,1,-1,-1,-1,12,-12,2
1537915438713133,-6,-2,0,-1,-4,-9,-24,-18
1537915438715128,1,3,3,3,1,-22,-7,2
1537915438715128,2,1,1,0,11,20,14,5
1537915438736072,-4,-1,1,-1,-7,-7,-23,-2
1537915438736072,7,-4,-8,-11,-26,4,35,16
1537915438738067,-8,1,0,-2,-1,-25,-8,-16
1537915438738067,-1,-2,-3,-2,-10,10,12,-7
1537915438750035,2,5,6,5,13,14,3,-3
1537915438750035,-6,-2,1,2,2,28,5,-8
1537915438757016,1,-2,-4,-3,6,-10,-8,-2
1537915438757016,2,0,-1,1,1,5,4,1
1537915438772974,-8,-4,-1,-3,-3,-11,-28,-8
1537915438772974,10,3,1,1,-2,-6,32,9
1537915438774968,-5,-3,-3,-3,0,-3,3,-2
1537915438774968,4,4,2,2,4,10,-2,-1
1537915438795912,-1,-3,-3,-3,-2,10,17,2
1537915438795912,3,-1,-3,-5,-1,-15,-36,7
1537915438796910,-7,-3,-1,1,5,7,12,-4
1537915438796910,1,-1,-2,1,1,2,-4,2
1537915438809875,-2,1,2,1,-5,-18,19,-3
1537915438809875,-3,-3,-3,-2,-1,-13,-44,-7
1537915438816856,-4,1,2,0,-2,15,27,-9
1537915438816856,-1,-2,0,-4,-5,-10,-33,-5
1537915438834808,-2,-3,-3,-3,4,2,-7,-1
1537915438834808,0,0,-2,2,-1,-37,-2,-1
1537915438835805,-1,-1,-1,-1,-2,27,17,-8
1537915438835805,0,1,-1,-2,-8,11,-22,-2
1537915438855752,4,1,1,3,6,-7,8,8
1537915438855752,-5,-2,-1,-3,-4,-11,-20,0
1537915438856750,-6,-3,-1,-2,-6,-5,10,-6
1537915438856750,6,-1,-2,-4,-5,-6,14,6
1537915438869715,-7,-3,-1,2,0,-13,-4,-8
1537915438869715,1,2,3,1,3,20,0,-3
1537915438876696,0,-2,-3,-3,-5,-10,-12,3
1537915438876696,3,-3,-3,-1,-2,-5,1,10
1537915438893651,-9,-3,-3,-3,-2,-4,9,-14
1537915438893651,2,1,0,2,0,-8,5,3
1537915438894648,5,-2,-1,-1,0,5,-15,19
1537915438894648,-5,1,0,1,1,-9,10,-8
1537915438915592,10,0,-3,-3,-6,1,1,8
1537915438915592,-1,-3,-1,-2,0,7,-10,4
1537915438917587,3,0,-1,-2,-1,4,3,1
1537915438917587,-3,-1,2,0,0,-4,6,-4
1537915438930552,-10,-5,0,0,2,6,6,3
1537915438930552,4,-1,-4,-2,0,5,6,1
1537915438936536,1,0,-1,-2,-2,-15,-22,0
1537915438936536,4,1,0,-1,2,-2,18,9
1537915438953491,2,0,-1,-1,-3,10,-1,1
1537915438953491,-2,-2,1,1,0,-4,-1,4
1537915438954488,-2,1,1,3,-3,-3,-17,0
1537915438954488,1,0,-3,-1,-1,0,7,11
1537915438975432,-4,-1,-2,0,-2,5,12,-14
1537915438975432,1,1,1,1,10,5,-12,-6
1537915438977427,8,3,2,8,36,15,-6,12
1537915438977427,-7,-3,-2,-6,-22,-44,9,-12
1537915438990392,0,-1,-5,-10,-33,32,-22,-2
1537915438990392,-8,-2,-2,-4,-8,-6,2,-1
1537915438996376,-1,-1,0,-2,-10,3,18,21
1537915438996376,-2,0,2,3,25,-8,-25,-7
1537915439013331,-4,-2,0,4,24,-20,52,4
1537915439013331,-13,3,5,12,35,47,-20,-37
1537915439014328,0,-1,-3,-9,-46,-18,71,-11
1537915439014328,3,-3,-2,-2,-9,1,-37,5
1537915439035272,2,0,1,-2,-11,-9,12,-18
1537915439035272,-5,-2,-2,-1,-1,7,24,0
1537915439037267,-6,-3,0,4,13,-7,-73,-4
1537915439037267,-7,-1,-2,-3,-7,-5,-53,-26
1537915439049235,9,6,3,6,13,14,59,45
1537915439049235,-7,0,-2,-7,-6,-9,-30,-1
1537915439058211,4,1,3,-2,-1,-16,-33,-73
1537915439058211,9,0,2,8,1,-6,17,51
1537915439073171,1,-4,-4,-1,6,23,4,45
1537915439073171,0,-3,0,2,-9,-4,49,-16
1537915439075166,1,1,-2,-2,-5,-1,-87,-34
1537915439075166,-7,-10,0,-1,6,6,-22,-37
1537915439096110,1,9,0,0,-2,-15,-21,-12
1537915439096110,3,-1,-4,-4,-13,-11,-13,4
1537915439097107,-4,-4,-4,-3,-1,6,14,3
1537915439097107,3,-2,-2,-3,4,-2,8,-3
1537915439109075,-5,-3,-1,-3,-3,-7,-3,6
1537915439109075,-3,3,2,0,-4,4,5,-18
1537915439118051,-3,1,0,1,7,-2,24,27
1537915439118051,15,6,-2,-3,-1,11,45,32
1537915439133011,-2,-3,-2,-3,-4,-7,-46,-27
1537915439133011,-1,-2,-1,-2,-1,-7,-2,-2
1537915439135006,-1,-4,-2,-2,0,-1,13,9
1537915439135006,-4,2,-2,-1,-2,11,26,14
1537915439155950,-1,-2,-1,-4,0,-3,-12,-22
1537915439155950,-2,-5,-1,-3,0,-10,-24,-9
1537915439156947,-4,-3,-2,-3,-1,4,8,2
1537915439156947,-4,2,0,3,-2,6,-12,3
1537915439168915,1,-3,-1,4,3,-7,-14,-2
1537915439168915,2,-1,-1,2,-2,-3,3,15
1537915439177891,0,0,0,-1,0,3,10,20
1537915439177891,-5,1,-1,0,1,3,5,-12
1537915439194846,-2,-3,0,-3,-1,-2,-9,-5
1537915439194846,2,-2,-3,-3,-4,-3,-7,7
1537915439195843,-5,2,0,1,2,3,27,-2
1537915439195843,-2,-2,-2,-6,-5,-10,-19,2
1537915439214792,-2,2,2,3,1,7,5,-10
1537915439214792,2,-1,-4,-5,-6,-5,-10,11
1537915439215790,7,0,-1,-1,0,-3,-5,18
1537915439215790,-11,-3,0,-1,-2,3,-2,-47
1537915439237731,0,-1,-1,-1,-1,-5,-30,-9
1537915439237731,4,0,-1,-1,-2,-3,30,38
1537915439237731,-9,-2,-1,2,2,4,12,-18
1537915439237731,4,-1,-2,2,2,6,12,2
1537915439252691,0,-1,-2,-2,-4,-7,-11,-4
1537915439252691,-2,-1,-1,0,-1,-3,-7,-4
1537915439253688,0,-1,-2,0,-2,1,-2,5
1537915439253688,0,-1,-2,-1,-1,2,-3,4
1537915439274632,0,-2,-3,0,0,-5,-5,9
1537915439274632,-2,-2,-1,-1,-1,-3,-7,-7
1537915439275630,1,0,0,-1,-2,-2,0,2
1537915439275630,-2,0,1,2,2,1,3,11
1537915439297571,0,-1,-1,-1,-2,0,-4,-11
1537915439297571,-1,1,-1,-2,-3,-2,3,-7
1537915439298568,3,1,-1,0,3,1,-6,-7
1537915439298568,2,-1,-1,-1,-1,-2,-21,4
1537915439308542,-2,-3,-2,-3,-4,-7,-46,-27
1537915439308542,-1,-2,-1,-2,-1,-7,-2,-2
1537915439313528,-1,-4,-2,-2,0,-1,13,9
1537915439313528,-4,2,-2,-1,-2,11,26,14
1537915439313528,-1,-2,-1,-4,0,-3,-12,-22
1537915439313528,-2,-5,-1,-3,0,-10,-24,-9
1537915439329486,0,-1,-1,-1,-2,0,-4,-11
1537915439329486,-1,1,-1,-2,-3,-2,3,-7
1537915439330483,3,1,-1,0,3,1,-6,-7
1537915439330483,2,-1,-1,-1,-1,-2,-21,4
1537915439337465,-8,0,0,1,1,3,22,-4
1537915439337465,5,1,-1,-1,-4,-4,-4,-8
1537915439338462,-2,-2,-2,-3,-4,-5,-4,36
1537915439338462,-3,1,2,-1,4,3,-1,4
1537915439343448,0,-1,1,0,3,-6,3,6
1537915439343448,-5,-2,1,1,-1,11,-17,-32
1537915439343448,-7,0,0,1,4,-5,3,-16
1537915439343448,-6,-3,-4,-4,-6,-1,3,-21
1537915439349432,1,-1,-3,-4,-6,2,-1,9
1537915439349432,0,-1,-2,-1,-3,-10,-2,6
1537915439357411,3,0,1,3,10,12,-2,-2
1537915439357411,0,-1,-1,0,-2,2,9,6
1537915439372371,0,-1,-1,0,-1,-5,-5,-4
1537915439372371,-3,-3,0,1,-4,3,5,1
1537915439373369,0,0,-2,-4,-3,1,-5,-6
1537915439373369,-2,0,1,4,18,-6,-2,-6
1537915439395310,1,0,1,3,18,23,-1,1
1537915439395310,0,-2,-1,-2,-7,-25,9,9
1537915439395310,-7,-4,-2,0,0,-21,-16,-8
1537915439395310,4,2,2,0,-19,46,23,7
1537915439417251,-1,0,-1,-1,-11,-19,-7,1
1537915439417251,-4,-2,-2,-6,-2,58,12,-5
1537915439418249,12,1,3,3,-1,-20,-10,22
1537915439418249,-5,0,0,1,4,-22,-8,-12
1537915439432211,-1,0,-2,1,4,-2,-18,0
1537915439432211,-4,2,3,5,12,18,32,-3
1537915439433209,-1,0,-1,-1,0,20,-3,16
1537915439433209,-5,-1,-1,0,-3,0,20,-1
1537915439455151,-3,-3,-2,-3,-10,-12,-23,-4
1537915439455151,-14,-3,-1,-2,5,-23,-26,-23
1537915439456148,1,-2,-3,-4,-10,2,2,-3
1537915439456148,-3,-4,-3,-5,-3,-8,9,2
1537915439478090,0,1,2,0,-2,-16,-24,-4
1537915439478090,-5,1,0,2,4,6,9,-5
1537915439479088,-10,-2,-1,-2,-7,-4,3,-18
1537915439479088,15,-1,-4,-5,-6,-5,-19,18
1537915439493050,-5,-1,-3,-3,12,12,-5,-7
1537915439493050,7,1,-1,-3,-18,-20,32,12
1537915439493050,-3,-3,-1,-2,-17,-4,-25,-8
1537915439493050,-2,0,1,1,-2,6,46,0
1537915439514991,-2,0,0,-5,-6,-12,-9,-1
1537915439514991,2,-2,0,1,9,-12,-25,8
1537915439515990,-3,0,-2,1,7,6,19,-7
1537915439515990,-5,1,-1,0,-2,-10,-44,-8
1537915439537930,6,0,-2,-3,-8,19,34,12
1537915439537930,-3,0,0,1,0,-6,-11,-4
1537915439538928,-1,-1,-2,-1,1,7,6,-5
1537915439538928,-2,1,1,3,16,-2,-13,-8
1537915439552891,-1,-2,-2,-2,-15,-17,8,-1
1537915439552891,5,1,-3,-2,-1,-2,-14,9
1537915439552891,0,0,0,-5,-10,-4,6,3
1537915439552891,-5,-1,0,3,20,24,-8,-8
1537915439574832,-5,-3,1,-4,-29,-14,17,-3
1537915439574832,-1,0,0,-2,-7,-12,-7,-13
1537915439575829,6,2,1,1,8,5,3,6
1537915439575829,1,0,1,-3,-1,-4,3,-3
1537915439597770,0,0,0,1,13,11,6,-4
1537915439597770,-2,-1,0,0,3,5,-7,-2
1537915439598767,0,1,0,0,2,-2,4,0
1537915439598767,1,1,-2,-3,-7,-7,-4,1
1537915439612729,3,0,-1,-1,8,10,1,5
1537915439612729,2,-1,-1,-1,0,-6,-7,0
1537915439613727,1,-1,-2,1,0,2,2,1
1537915439613727,1,-1,-1,-4,-9,-5,-3,5
1537915439634672,1,-2,-2,0,2,-1,0,0
1537915439634672,1,-1,0,0,-1,4,-1,5
1537915439635669,-1,0,-2,1,5,-11,-4,1
1537915439635669,-1,-3,0,1,2,8,1,1
1537915439659604,-1,-1,0,-1,-8,-5,1,-1
1537915439659604,0,1,-1,1,0,2,-1,5
1537915439661600,0,0,-3,-1,-3,-1,-1,-2
1537915439661600,4,0,-2,1,2,-7,-7,8
1537915439665588,-3,-1,0,0,9,8,1,-1
1537915439665588,2,-2,1,-2,-1,-1,-2,7
1537915439673568,0,0,0,1,4,0,0,-2
1537915439673568,-2,-1,-1,-2,-6,-4,0,-6
1537915439687529,1,0,0,0,2,3,2,5
1537915439687529,0,-1,-1,-2,-4,-2,-1,-2
1537915439688527,8,-2,-5,-5,-4,-5,-6,34
1537915439688527,-2,-1,1,0,-4,-5,-2,2
1537915439703487,-3,0,1,0,-1,-1,-3,-6
1537915439703487,2,-1,0,-2,1,-1,-2,6
1537915439709471,-1,0,0,-2,-2,3,3,-11
1537915439709471,2,-1,-1,-2,-5,-5,1,5
1537915439724432,0,-2,-1,1,2,-3,0,-3
1537915439724432,-2,2,1,11,48,26,-3,-5
1537915439731412,-3,-2,-1,-3,-38,3,10,-10
1537915439731412,-1,1,-2,-6,-40,-43,-1,5
1537915439747370,-2,-2,-1,-4,-8,4,-4,-10
1537915439747370,-5,-3,-3,-3,-11,-8,0,-12
1537915439754351,0,0,1,4,26,13,-3,8
1537915439754351,-7,-3,0,3,21,9,-9,-11
1537915439763328,-1,1,-1,1,1,1,6,-3
1537915439763328,-9,-2,-1,0,-2,-7,1,-7
1537915439769311,-4,-1,-1,-2,9,-2,2,-12
1537915439769311,-2,1,0,0,-1,3,-5,-6
1537915439784271,4,3,2,4,12,1,-7,10
1537915439784271,3,3,-1,-1,-4,29,5,12
1537915439792249,-2,0,-2,-5,-11,-12,13,-3
1537915439792249,-2,0,-2,-4,-8,-3,1,-11
1537915439807210,-1,0,-1,0,1,-9,-3,-5
1537915439807210,1,-1,-1,0,-3,-15,-7,-4
1537915439814191,5,2,1,3,11,6,-8,3
1537915439814191,1,0,-1,3,25,27,3,4
1537915439823167,3,1,0,-2,-10,-12,-1,11
1537915439823167,1,-1,-2,-6,-17,-5,2,-3
1537915439829151,-1,-2,-1,-5,-18,-7,5,4
1537915439829151,1,-1,0,0,12,16,-5,-1
1537915439846106,-2,-1,0,-1,-11,-11,10,-2
1537915439846106,2,0,0,1,7,9,-7,0
1537915439852090,-3,-2,0,1,2,-13,-11,-9
1537915439852090,0,0,0,1,-1,-5,6,-3
1537915439867050,2,1,-1,0,6,20,-2,3
1537915439867050,1,1,-2,0,-5,-11,-1,8
1537915439874032,0,0,-2,-1,5,2,-7,-6
1537915439874032,-2,-2,-2,-2,-8,-7,-2,-2
1537915439883007,-5,-1,-1,-1,2,0,-1,-8
1537915439883007,2,-1,-1,-2,-7,-5,10,2
1537915439888991,-1,-1,1,2,2,2,0,0
1537915439888991,-1,1,-1,-3,-4,2,-6,-1
1537915439903952,1,-3,-3,-1,-3,0,6,10
1537915439903952,-2,-1,0,-2,-5,-14,-33,-10
1537915439911930,2,1,1,1,5,15,83,5
1537915439911930,-1,-3,0,-1,-4,-9,-11,3
1537915439926890,-4,-1,-1,1,4,0,3,1
1537915439926890,-1,0,-1,-3,-5,-1,5,-8
1537915439934876,-2,0,-2,-1,0,-5,-26,7
1537915439934876,0,-1,-2,0,-2,0,-5,-8
1537915439949828,-1,0,1,1,4,0,-6,-3
1537915439949828,-1,-1,-3,-4,-2,-4,-6,4
1537915439950825,-5,-3,0,0,-1,-1,-16,-14
1537915439950825,-6,-1,0,-4,2,-1,11,-2
1537915439964787,3,-1,0,0,-8,2,-11,0
1537915439964787,-2,1,-2,6,7,-2,5,-4
1537915439971769,-2,0,-2,-5,-3,0,2,1
1537915439971769,-2,-1,-2,-7,-15,-2,4,-12
1537915439986729,0,-1,4,4,27,22,7,13
1537915439986729,-9,1,6,16,49,4,5,-22
1537915439994707,0,-2,-3,-2,-52,-16,-10,6
1537915439994707,5,0,-3,-4,21,-1,-11,16
1537915440009667,5,1,-1,-9,-17,-30,-5,-19
1537915440009667,4,-6,-8,-21,-30,-31,-20,12
1537915440010665,10,3,5,7,37,85,20,4
1537915440010665,-5,0,6,18,37,3,16,7
1537915440024627,-6,-1,-2,8,11,-58,-10,-6
1537915440024627,-8,0,-2,-11,-15,92,4,-29
1537915440031609,3,-2,-3,-19,-40,-44,-20,39
1537915440031609,-1,4,9,49,12,-74,-12,-7
1537915440048564,3,-3,-10,-17,65,114,12,11
1537915440048564,-24,-15,-10,-55,-90,-81,10,-17
1537915440054547,10,-1,-5,21,-12,-33,18,-35
1537915440054547,8,5,9,0,71,40,2,0
1537915440069507,11,9,4,0,-38,-124,-43,21
1537915440069507,3,2,-1,4,-74,31,18,12
1537915440070505,-26,-8,-15,-65,-116,-59,-1,-6
1537915440070505,16,-20,-28,-59,-34,23,-20,16
1537915440084468,-10,-4,8,10,96,70,8,-28
1537915440084468,7,6,17,48,-32,-30,-5,30
1537915440091449,2,8,11,42,127,5,-13,-16
1537915440091449,-11,0,-10,2,-128,-66,18,-17
1537915440106409,2,-10,-12,-38,52,120,-14,8
1537915440106409,9,-7,8,13,2,-46,3,11
1537915440114388,-3,8,15,57,50,80,-11,-5
1537915440114388,-2,-6,-16,-20,13,-66,-8,-4
1537915440130345,-12,25,30,8,24,30,8,-26
1537915440130345,12,15,6,2,-16,117,21,13
1537915440130345,0,-3,-2,-24,-28,-28,-5,-24
1537915440130345,-20,-7,2,20,73,99,-1,7
1537915440144308,14,-9,-18,-18,-128,-49,14,29
1537915440144308,4,-2,-2,-1,100,33,-6,3
1537915440152286,-1,-7,-1,-11,53,32,-4,10
1537915440152286,-6,3,8,3,-36,21,-1,8
1537915440167247,-8,-6,2,40,1,-44,-8,-38
1537915440167247,1,-1,3,0,30,58,-7,5
1537915440174228,-26,-4,-4,33,-69,48,47,-8
1537915440174228,13,4,-4,-31,47,-72,-15,-22
1537915440190187,-9,0,-6,-38,14,43,-13,-9
1537915440190187,2,-1,-16,-40,-106,-66,25,10
1537915440191183,2,-1,2,24,84,-35,-15,-11
1537915440191183,1,-1,19,64,62,112,20,13
1537915440204148,5,12,2,22,-12,47,24,22
1537915440204148,3,-5,-19,-82,-61,6,-8,-11
1537915440212126,0,-7,-13,-29,31,-40,-16,7
1537915440212126,2,-2,-1,4,-91,-32,7,4
1537915440227086,-8,-15,-9,-7,81,76,-10,-14
1537915440227086,-1,4,-4,-9,9,-74,-1,32
1537915440234067,20,16,1,4,5,-17,-24,32
1537915440234067,-2,4,9,9,24,-24,0,-11
1537915440250025,2,-3,2,17,-75,-68,-8,17
1537915440250025,-6,-5,11,57,127,12,-7,-18
1537915440251022,19,1,5,6,11,-6,22,38
1537915440251022,-5,-5,-9,-10,-43,71,1,-15
1537915440263988,3,-2,-4,-13,-47,-87,30,7
1537915440263988,-9,-4,-8,-18,-29,30,3,-23
1537915440271966,-5,-6,-11,-62,-110,-24,-21,-20
1537915440271966,-7,1,1,10,-42,3,7,-4
1537915440286927,3,2,7,6,-12,2,14,-5
1537915440286927,2,2,5,52,69,-32,-18,7
1537915440293908,-10,-5,-7,-29,37,32,4,-10
1537915440293908,7,4,0,5,-6,-17,2,14
1537915440309879,4,0,-12,-8,-7,-37,-19,13
1537915440309879,-6,1,1,-18,-9,-17,4,-10
1537915440310863,-7,-7,7,25,7,10,-10,-6
1537915440310863,-1,0,-2,-16,13,-15,2,-14
1537915440324826,-1,-5,-6,15,21,-11,-7,0
1537915440324826,7,18,8,17,-14,29,-3,-6
1537915440332804,6,10,-2,-4,19,-16,-12,-5
1537915440332804,-2,-6,4,-11,-30,4,10,-3
1537915440346766,-10,-1,6,22,19,-1,8,12
1537915440346766,9,-8,-2,-3,6,-43,-13,-4
1537915440354745,-8,-5,2,-8,-53,-5,9,-15
1537915440354745,10,19,-12,-14,31,-4,-9,10
1537915440369705,-8,-14,-6,-33,-11,1,-9,0
1537915440369705,-5,-12,-3,-3,-39,-23,7,-3
1537915440370703,0,-2,5,21,12,4,-26,-2
1537915440370703,1,-4,4,-19,-10,-7,1,3
1537915440384665,0,14,15,9,-6,-2,8,-7
1537915440384665,13,-9,-9,26,37,27,59,7
1537915440391646,-21,-14,-10,-14,1,-9,6,0
1537915440391646,-4,-5,-9,0,3,10,15,5
1537915440406607,-7,1,-8,-4,-15,-6,-22,-9
1537915440406607,0,-5,10,6,10,-18,-25,0
1537915440414586,7,20,6,5,-6,-26,-54,-6
1537915440414586,-18,-20,1,-2,8,-17,1,1
1537915440429546,35,13,4,-5,-4,60,68,3
1537915440429546,-30,8,-5,1,9,-9,-13,-6
1537915440430543,-1,11,16,1,-6,29,-1,-1
1537915440430543,-11,-25,-8,-5,-6,-23,-13,-5
1537915440444505,12,2,-2,-2,-12,-52,-42,-6
1537915440444505,-10,-16,-24,-2,13,9,15,5
1537915440451486,-1,-12,19,2,-2,-4,-9,-7
1537915440451486,-13,-4,5,3,0,11,46,3
1537915440466446,-8,-5,3,1,-10,-11,-30,-20
1537915440466446,8,-5,2,-4,8,0,55,17
1537915440474425,14,63,3,4,-4,-20,5,-1
1537915440474425,5,-27,-35,-11,4,43,-20,7
1537915440490383,-3,2,-5,5,-1,-31,-1,-4
1537915440490383,20,-20,9,-10,-6,-7,-56,-6
1537915440490383,-28,-37,-11,4,6,12,56,17
1537915440490383,25,29,15,3,1,-24,-63,20
1537915440504345,-31,-19,-17,-6,-2,1,45,-9
1537915440504345,26,46,12,6,6,48,-6,2
1537915440512324,-14,-29,-14,-6,-6,-39,-19,-13
1537915440512324,2,13,8,-1,6,36,-31,-4
1537915440527285,-5,-21,0,3,-6,2,22,16
1537915440527285,2,9,13,4,8,4,-12,-12
1537915440534266,-1,-11,-20,-7,-5,-2,16,-20
1537915440534266,-2,2,4,0,-6,-42,-31,3
1537915440558204,17,14,19,3,2,31,59,26
1537915440558204,-14,-17,-30,-2,-1,4,-5,-14
1537915440559202,17,-2,-5,-1,0,-2,-7,14
1537915440559202,7,6,-2,-5,-9,-50,-27,-8
1537915440572166,5,-9,-1,1,2,39,-60,9
1537915440572166,2,-3,7,3,0,-14,8,-1
1537915440580144,3,-5,-2,-5,-5,-2,7,49
1537915440580144,-11,7,-5,-8,-6,15,-7,-28
1537915440595104,-8,4,3,6,2,-29,15,-25
1537915440595104,-12,-8,1,1,3,4,6,11
1537915440596101,-12,-6,10,8,11,7,-55,-31
1537915440596101,16,15,-1,6,-3,-23,10,-15
1537915440618041,-5,-1,-7,-9,-8,-1,51,17
1537915440618041,-5,-1,-2,-7,-3,6,-8,8
1537915440619039,2,-2,3,6,28,23,-16,-11
1537915440619039,-2,-2,-1,-12,-34,-9,-8,4
1537915440640981,-6,-4,-3,-2,-7,-16,-27,-20
1537915440640981,0,6,0,-2,-3,-1,-40,-11
1537915440640981,2,-2,-1,0,3,14,35,4
1537915440640981,-7,-6,1,5,20,10,17,2
1537915440654943,16,9,0,5,7,-2,-47,3
1537915440654943,3,6,4,-1,-5,-11,26,4
1537915440655940,8,-3,-2,-1,-4,3,8,1
1537915440655940,-4,-1,5,2,4,-2,16,-31
1537915440677882,-10,-7,-11,-10,-5,-25,-17,29
1537915440677882,-2,-1,1,0,-4,2,-11,5
1537915440678881,1,1,-1,10,11,12,29,-21
1537915440678881,-2,-2,-1,-7,-10,-17,-16,19
1537915440700822,-4,-1,-3,-5,-3,15,-3,-19
1537915440700822,9,0,2,1,6,-4,9,47
1537915440701820,-5,0,-5,-9,-26,1,35,1
1537915440701820,-3,0,4,7,11,9,18,-17
1537915440714784,1,0,0,4,7,-8,-30,-4
1537915440714784,-6,-4,-3,-3,-3,-25,6,-11
1537915440715783,-1,-2,-1,-1,-8,13,-29,-6
1537915440715783,-2,3,3,5,14,17,28,9
1537915440737724,3,1,2,4,1,8,15,-10
1537915440737724,-7,-1,-1,1,-2,-14,-12,-7
1537915440739718,3,17,-2,-2,0,-25,-45,-13
1537915440739718,1,-20,0,-1,2,29,67,11
1537915440760663,-6,-2,-3,-6,-11,-12,-30,1
1537915440760663,-7,-3,0,-2,-1,4,22,-39
1537915440761659,2,0,1,3,-1,1,-1,1
1537915440761659,-2,4,-2,2,9,0,3,11
1537915440774623,-3,-2,-3,0,4,6,10,-3
1537915440774623,-10,-2,-1,-1,1,0,-18,-21
1537915440775621,2,-3,-6,-10,-29,-11,14,10
1537915440775621,4,9,1,-2,-9,-26,-50,-10
1537915440798559,5,-25,-9,5,6,9,19,-16
1537915440798559,-1,7,5,-4,3,-13,-58,3
1537915440799557,3,-2,-1,0,4,7,68,5
1537915440799557,19,7,12,7,3,10,-39,39
1537915440820501,-32,-7,7,3,-3,0,16,-7
1537915440820501,-20,-42,-50,-24,-6,-7,-13,-7
1537915440822495,14,-13,-7,0,1,-7,-13,18
1537915440822495,-5,6,-12,-10,-6,0,-5,-22
1537915440834463,-5,-6,20,3,0,-11,-12,-1
1537915440834463,3,-4,9,5,-7,-23,43,16
1537915440843439,-8,6,-1,-7,-7,-33,-69,-27
1537915440843439,9,-5,4,6,14,26,27,30
1537915440858399,11,11,-2,1,8,85,19,-10
1537915440858399,-6,5,3,-2,-15,-77,-42,-39
1537915440859397,13,0,-2,1,18,97,63,17
1537915440859397,1,5,4,5,0,-116,-59,-2
1537915440880341,1,4,-6,0,8,103,27,6
1537915440880341,7,5,2,4,8,-31,-42,-6
1537915440882336,-8,-3,1,-5,-17,-66,17,-4
1537915440882336,1,-5,-2,-7,-15,-6,43,2
1537915440894304,-4,0,-6,-4,-2,2,-9,-17
1537915440894304,0,5,6,7,12,-8,10,8
1537915440903280,3,2,4,0,-5,-5,9,6
1537915440903280,-8,-3,-5,-8,-25,2,6,-22
1537915440918240,16,-16,-8,-9,-21,-102,-30,22
1537915440918240,9,22,8,0,2,66,37,11
1537915440919238,-2,7,3,8,18,-2,-9,3
1537915440919238,-5,-14,-5,-2,8,12,36,-9
1537915440941178,-6,-2,0,0,-7,-5,-1,-8
1537915440941178,-1,-2,3,1,1,18,2,-3
1537915440942177,-12,6,-4,-1,3,0,-43,-23
1537915440942177,-1,-13,-2,-3,-1,31,-16,-19
1537915440954144,15,21,10,4,3,-28,-20,21
1537915440954144,-7,45,27,12,2,9,35,9
1537915440963122,-21,-56,-46,-15,-5,-18,-3,2
1537915440963122,2,-2,-46,-4,-1,21,-6,-31
1537915440978080,-2,-3,9,-12,-2,-28,-3,19
1537915440978080,-2,8,5,-2,-5,0,-5,3
1537915440980074,10,-6,17,5,-3,15,-25,-17
1537915440980074,-8,6,10,3,2,-2,-19,-33
1537915441001018,5,5,-9,-2,-13,-83,-28,-11
1537915441001018,-5,-15,-5,-1,6,86,43,-7
1537915441002015,2,8,6,1,-5,-38,-7,18
1537915441002015,2,-3,-7,-2,7,76,9,5
1537915441013983,-1,7,1,6,11,-55,-37,-9
1537915441013983,-2,-12,-1,2,11,-35,32,3
1537915441022959,0,-1,-7,-13,-31,65,5,7
1537915441022959,0,11,13,4,13,18,7,5
1537915441037919,-9,-3,2,-1,-1,61,-12,-10
1537915441037919,3,-17,-12,-3,-4,14,-24,15
1537915441039914,8,14,5,0,4,-58,61,12
1537915441039914,4,3,11,-1,-23,-58,20,35
1537915441060857,-4,-2,-5,1,8,11,24,13
1537915441060857,-9,-11,-11,-3,-4,-30,-48,-65
1537915441061855,18,16,9,6,8,24,34,44
1537915441061855,-12,-5,4,-3,0,-30,-11,7
1537915441073823,0,-4,-6,2,5,7,24,-9
1537915441073823,-4,-3,-2,-6,-7,-7,-45,-5
1537915441082799,-13,-2,6,2,3,-8,32,3
1537915441082799,1,-7,1,2,12,20,-13,-8
1537915441099754,9,22,-1,-1,-4,1,19,4
1537915441099754,-4,-2,1,0,-2,8,-9,-2
1537915441100751,-21,-3,1,9,43,13,-31,-23
1537915441100751,13,4,-1,-6,-31,0,28,13
1537915441120697,4,-13,-4,-2,-28,-29,-36,-31
1537915441120697,-2,-9,-6,-21,-67,7,15,32
1537915441121695,12,21,6,6,7,-2,-20,-1
1537915441121695,-10,-3,2,0,21,11,34,5
1537915441134660,-3,-2,-3,-1,2,-30,-32,-9
1537915441134660,-3,-11,-7,2,21,48,17,12
1537915441143636,8,-11,-1,-2,-1,-6,-12,8
1537915441143636,-7,7,3,-2,-10,-24,-31,-3
1537915441158596,-6,-5,-1,5,12,47,22,-10
1537915441158596,5,-2,-2,0,4,-47,-3,2
1537915441159594,0,15,1,-2,-7,40,0,-21
1537915441159594,-1,-11,2,1,2,-16,-10,-4
1537915441180538,-10,-3,-4,-2,-8,-23,-13,-34
1537915441180538,8,-5,-2,2,8,-2,-5,11
1537915441182532,-5,-6,-3,-3,-9,-21,1,-2
1537915441182532,-5,-3,2,2,2,10,-8,-6
1537915441203476,-7,0,0,-3,7,17,15,-2
1537915441203476,15,9,3,4,16,7,0,-21
1537915441204473,5,-7,1,1,-4,-50,-29,-19
1537915441204473,-4,9,-3,-7,-25,6,-27,-6
1537915441218437,-6,-7,-2,-8,-12,12,50,23
1537915441218437,4,1,2,2,9,6,5,-10
1537915441219434,0,-1,0,1,16,13,-5,5
1537915441219434,-1,-8,-4,0,3,-12,0,2
1537915441240378,0,3,0,-1,1,13,-4,2
1537915441240378,1,3,3,1,1,-19,19,8
1537915441242372,-5,-7,-2,-1,-1,9,5,-14
1537915441242372,2,0,-1,0,5,9,-29,14
1537915441254340,4,2,0,1,-1,1,32,15
1537915441254340,0,8,1,1,2,0,-16,3
1537915441263317,-6,-5,-3,-3,-13,-6,-13,-9
1537915441263317,3,4,0,2,5,2,5,38
1537915441278276,3,-2,-3,-2,-2,-5,-4,17
1537915441278276,-3,-7,-1,-1,-4,-9,-18,-3
1537915441279274,-3,-1,-3,-1,-5,5,1,-2
1537915441279274,-3,-1,-1,-2,1,-2,20,-23
1537915441300217,-1,1,-1,2,3,-12,-13,-11
1537915441300217,0,1,0,0,-2,2,-6,9
1537915441302212,-4,-5,-3,-3,0,9,13,-6
1537915441302212,0,-2,0,0,7,2,-3,-1
1537915441314180,2,4,0,-4,-12,-7,13,7
1537915441314180,-4,-1,2,-3,-17,-29,-62,-28
1537915441323156,7,2,0,1,-3,17,62,21
1537915441323156,-5,-4,-1,5,14,34,16,-4
1537915441338116,4,-5,-4,-5,-5,-6,-20,10
1537915441338116,-1,7,-1,-1,0,-1,42,9
1537915441339114,-5,-3,-1,-2,-2,-16,-31,-38
1537915441339114,4,0,-1,0,4,-5,18,-2
1537915441361055,-6,-4,1,2,3,4,-12,12
1537915441361055,4,-1,0,-2,-1,1,4,2
1537915441362052,5,-1,-5,-3,-5,0,-1,6
1537915441362052,-4,-2,-3,-1,-4,-6,9,-9
1537915441374021,0,3,7,3,3,9,-7,-10
1537915441374021,-5,-4,0,-1,0,-5,-8,5
1537915441382997,2,3,1,2,-2,-2,-23,7
1537915441382997,-1,-1,-2,-3,-4,-4,17,-12
1537915441397957,-1,-4,-3,0,4,-9,-1,-1
1537915441397957,3,-2,-3,1,2,9,-4,-7
1537915441399952,-6,-15,-4,-2,-10,-19,-21,-1
1537915441399952,-4,10,1,-1,-1,-4,12,-2
1537915441420895,8,13,2,0,3,6,-16,16
1537915441420895,-7,-1,0,-1,-1,-18,42,-14
1537915441421893,4,-1,-1,-1,9,63,-12,4
1537915441421893,4,-8,-3,-3,-7,-28,-15,17
1537915441433860,-5,-3,-1,0,4,10,8,-7
1537915441433860,-8,-4,-3,-2,-4,-29,-8,-29
1537915441442837,-2,-1,1,1,0,-9,7,13
1537915441442837,-3,-2,0,-3,-4,-4,-18,-28
1537915441457796,2,-1,-3,2,5,52,11,2
1537915441457796,2,-2,1,1,0,-12,14,10
1537915441459791,1,1,-1,-2,-7,-32,-4,-6
1537915441459791,-4,1,2,0,-4,-90,-89,-10
1537915441480735,-3,-5,-3,-3,-4,64,99,7
1537915441480735,-1,-4,-5,-1,6,13,6,9
1537915441481732,-4,-6,-1,-2,-3,33,19,0
1537915441481732,6,13,4,0,5,-7,-7,3
1537915441494698,0,1,0,0,-6,-54,-35,7
1537915441494698,0,1,2,3,8,44,8,0
1537915441503674,-7,-7,-2,-1,0,-34,-20,-24
1537915441503674,0,-4,-2,-3,-3,33,29,25
1537915441518634,1,2,0,1,2,-4,-5,-19
1537915441518634,-3,-2,-1,-2,-2,-3,-12,0
1537915441519631,-1,2,2,2,2,-16,-13,-8
1537915441519631,-5,-7,-1,-2,-1,27,6,6
1537915441540576,3,0,-1,0,-1,-24,-5,-9
1537915441540576,-10,-2,-4,-1,0,17,-6,16
1537915441542571,17,-1,-1,-1,2,3,-6,20
1537915441542571,-4,5,-1,-4,-14,1,12,-13
1537915441554538,-6,-1,0,-1,-1,-21,-32,-7
1537915441554538,2,-2,-3,-3,-3,-2,-38,1
1537915441563515,-5,6,2,1,2,4,40,7
1537915441563515,-1,-3,0,2,6,13,26,-3
1537915441578475,2,-6,-3,-1,-2,-18,-56,-4
1537915441578475,3,1,-1,-1,-3,0,37,1
1537915441579472,-3,-2,1,-1,-1,-4,-17,1
1537915441579472,7,2,-3,-1,0,8,26,29
1537915441600425,-16,-11,1,0,-1,-3,-4,-25
1537915441600425,4,5,-3,-3,0,4,3,7
1537915441602411,-9,1,3,-3,-3,-13,-29,7
1537915441602411,21,5,4,4,1,8,5,-37
1537915441623355,4,-4,-4,-2,-3,-7,26,40
1537915441623355,4,7,5,5,0,-25,17,8
1537915441624353,-5,-6,-4,0,4,56,-19,-12
1537915441624353,-9,-9,-3,-2,1,-3,-26,-1
1537915441638314,-2,8,0,-3,-3,5,-4,-11
1537915441638314,3,-7,-3,0,-2,-17,-5,0
1537915441639311,-4,3,-4,-6,-6,-2,29,9
1537915441639311,-4,-5,-1,2,5,12,-7,11
1537915441660255,3,-1,-3,-2,-3,-3,27,13
1537915441660255,-1,1,0,-3,-6,-7,6,10
1537915441662250,-4,3,-1,4,7,-14,-39,-22
1537915441662250,-2,-10,-3,1,3,39,15,10
1537915441683194,0,11,1,0,3,12,-12,-14
1537915441683194,2,-4,-3,-2,-14,-24,-10,-8
1537915441684191,1,2,0,-2,-9,-21,-4,6
1537915441684191,-6,-2,-1,1,-1,-15,-22,-8
1537915441697156,-1,-7,-3,-3,1,-11,11,7
1537915441697156,-4,-10,-2,-3,2,26,-8,4
1537915441704138,6,5,2,-2,-6,-1,-14,6
1537915441704138,-7,2,-1,-2,-2,-23,-20,-41
1537915441721093,3,4,1,0,-3,0,-33,3
1537915441721093,3,4,3,1,5,7,32,6
1537915441722090,-1,-6,-4,-2,-5,-14,-29,6
1537915441722090,-3,1,1,-3,-2,-3,54,0
1537915441743034,2,-5,-4,-1,-1,10,-4,0
1537915441743034,-6,-6,-4,-1,3,9,-13,-11
1537915441745030,1,0,0,0,1,-11,11,1
1537915441745030,1,3,1,1,2,15,-16,8
1537915441756998,-8,-4,-2,-4,-11,-5,-22,-16
1537915441756998,5,-1,2,2,5,5,38,15
1537915441765975,0,-5,0,-1,-4,-1,27,-3
1537915441765975,-2,8,-2,-2,-2,-5,-10,16
1537915441787918,-2,-4,0,-2,-2,-2,1,-12
1537915441787918,-1,-5,-1,-1,-11,-13,-46,-4
1537915441789910,0,6,0,-3,-4,6,37,-8
1537915441789910,-3,-4,0,-1,1,-11,-31,-12
1537915441802876,1,0,1,2,6,-4,17,-1
1537915441802876,0,2,0,-2,-1,-1,-15,-4
1537915441804887,0,0,0,2,4,10,29,3
1537915441804887,-2,-3,-1,0,1,-2,3,6
1537915441817834,-3,-3,-1,-2,-8,-7,2,-6
1537915441817834,2,-3,0,1,4,6,-48,-3
1537915441823819,-5,-2,-2,0,-3,-8,46,3
1537915441823819,1,-3,-6,-4,-6,-13,-6,3
1537915441840773,-2,-4,5,2,3,16,11,1
1537915441840773,-1,19,3,0,2,4,20,0
1537915441841770,1,-1,-1,-2,-2,-12,-30,7
1537915441841770,-5,-4,-2,1,2,5,18,3
1537915441862714,11,-2,-5,-3,-7,-43,-28,-3
1537915441862714,-3,-4,-2,-1,1,41,0,-15
1537915441864709,0,1,-1,0,4,9,-13,4
1537915441864709,1,-3,-1,0,-3,-5,8,-4
1537915441877674,-2,-4,-4,-4,0,6,4,9
1537915441877674,-2,-9,-3,-1,-7,-24,8,2
1537915441884655,2,13,2,1,0,-2,-6,0
1537915441884655,-3,-7,-2,-3,0,3,-17,-35
1537915441900613,-2,8,-1,1,1,-19,2,23
1537915441900613,3,-2,1,0,-4,26,24,4
1537915441902607,-4,-14,-2,-4,0,-6,-16,-10
1537915441902607,1,11,3,-1,-6,7,23,0
1537915441923553,-1,-2,-1,-1,4,14,-12,-5
1537915441923553,-6,-3,-3,-2,4,-10,-23,-9
1537915441924550,13,0,-3,-2,-3,-4,23,15
1537915441924550,14,-2,-3,-4,-6,-15,-25,19
1537915441937515,-10,-4,-1,-1,-1,-4,3,-14
1537915441937515,12,-2,-2,-2,2,-5,-4,11
1537915441944496,-7,-3,0,0,1,2,-11,-18
1537915441944496,-3,-2,-6,-1,0,1,-7,2
1537915441960454,2,1,2,-1,-2,8,32,1
1537915441960454,-1,14,4,0,-3,-8,-21,-1
1537915441962449,-5,-8,-2,-1,1,-3,-33,-15
1537915441962449,-4,-2,1,0,0,3,39,7
1537915441983393,-5,-1,-2,-1,4,3,1,-6
1537915441983393,-6,-1,-2,-1,-3,1,15,-36
1537915441984389,7,5,1,1,-1,-20,35,30
1537915441984389,5,-5,-1,1,4,16,-24,6
1537915441997356,0,-2,-1,-1,-4,-19,-40,-10
1537915441997356,-12,-4,-1,3,8,39,42,-9
1537915442004336,4,-1,-2,-2,-1,11,-36,-4
1537915442004336,-8,-1,1,1,4,-5,41,-1
1537915442020293,-1,1,-2,-4,-16,-45,15,6
1537915442020293,0,-3,0,4,16,48,-33,6
1537915442022288,-2,-7,-4,-1,-5,-10,2,-1
1537915442022288,5,8,4,4,11,-1,-23,21
1537915442043232,-1,3,-1,-2,-9,24,42,3
1537915442043232,-1,-4,-5,-6,-14,-47,-12,13
1537915442044229,-5,-8,-1,1,5,6,15,-11
1537915442044229,-3,3,1,-1,-2,2,12,-10
1537915442066170,2,5,0,2,7,-5,-16,4
1537915442066170,-2,-2,-2,-3,-3,-13,-4,8
1537915442067168,0,0,0,-2,-2,5,3,5
1537915442067168,-3,-3,-1,-2,-3,6,-5,-5
1537915442081131,-1,-3,-2,3,2,-13,-30,-5
1537915442081131,-17,0,1,1,3,12,71,6
1537915442082129,7,0,1,1,5,7,-18,-3
1537915442082129,-2,0,-2,-1,-4,-3,5,3
1537915442103073,-1,-1,0,-3,-4,5,-52,-4
1537915442103073,0,-5,-1,0,-5,-22,49,8
1537915442105070,-3,0,-1,-1,0,2,10,-14
1537915442105070,-1,-4,-2,-1,4,-13,-15,2
1537915442117035,0,-5,-1,3,14,34,26,3
1537915442117035,6,0,-5,-12,-24,-49,-40,2
1537915442126012,-2,9,4,2,2,31,-25,5
1537915442126012,3,0,-1,0,-3,9,42,6
1537915442140972,-4,-9,0,2,3,-3,-36,-9
1537915442140972,1,4,-1,1,4,-1,6,-4
1537915442141969,-1,2,-1,0,1,4,31,-3
1537915442141969,-2,2,-1,-3,-16,-32,-39,5
1537915442162913,-3,-4,-5,-3,0,1,20,0
1537915442162913,-1,-1,1,0,2,53,5,12
1537915442164908,-5,-7,-1,-3,-5,-15,-32,-2
1537915442164908,-4,4,1,1,1,14,18,-25
1537915442176874,2,-1,0,-1,-2,-21,14,2
1537915442176874,2,5,-3,1,0,-5,-23,0
1537915442185851,-14,-1,-3,-3,-1,-5,-9,-12
1537915442185851,6,-3,-2,-4,-8,-13,-36,6
1537915442200811,1,0,-2,-1,5,27,51,-2
1537915442200811,-1,-6,-1,0,2,-10,-32,-7
1537915442201808,1,5,5,0,-11,-16,8,6
1537915442201808,-1,-3,-3,-4,1,-8,4,-5
1537915442222752,0,-3,1,1,2,17,-13,-2
1537915442222752,1,0,-2,0,-6,-2,-6,-2
1537915442224748,-7,-3,-5,-5,-5,-20,2,-4
1537915442224748,-2,0,1,2,0,-15,-18,7
1537915442236714,2,0,-1,-1,5,26,6,-24
1537915442236714,-2,-2,1,-2,2,-14,-14,-6
1537915442245691,-1,-4,0,1,5,14,1,-3
1537915442245691,-4,4,-1,0,-4,-9,5,-1
1537915442260650,-10,-3,-1,-3,-12,-5,-12,-19
1537915442260650,4,-1,2,2,5,-5,-4,16
1537915442261648,4,1,-2,-3,-6,-7,1,-16
1537915442261648,-13,-5,-1,2,7,12,-35,0
1537915442283591,11,5,0,0,1,-8,27,1
1537915442283591,5,0,-2,-3,-5,-12,-21,-4
1537915442284588,-4,-1,-3,1,6,12,15,6
1537915442284588,1,-5,-2,-2,3,-5,3,-3
1537915442296556,-4,3,1,1,1,-5,13,8
1537915442296556,-6,-1,0,-3,-5,3,-20,-9
1537915442305532,4,-8,-5,-1,-6,-7,-6,4
1537915442305532,7,8,2,1,-2,8,-7,-1
1537915442320493,-5,-7,0,-1,-3,0,20,7
1537915442320493,5,8,5,2,7,-4,27,23
1537915442322489,-6,5,0,2,2,3,-16,-19
1537915442322489,-20,-14,-3,-1,4,9,-16,-18
1537915442343431,14,1,-2,-3,-11,-17,18,11
1537915442343431,4,-2,-6,-3,-4,1,0,-4
1537915442344428,4,-4,-4,-3,-2,3,-26,-7
1537915442344428,5,1,0,0,-3,-3,27,8
1537915442356395,-6,3,-1,-1,0,10,7,20
1537915442356395,-5,-18,-4,0,2,-13,16,7
1537915442365372,1,17,3,0,1,9,-25,-2
1537915442365372,6,1,-1,-2,-6,-15,32,14
1537915442380332,-7,10,7,2,3,29,-29,-11
1537915442380332,-2,-1,2,-2,-3,-27,10,-5
1537915442386315,-9,-11,0,2,4,35,25,6
1537915442386315,3,-3,-2,-1,-5,-18,-5,1
1537915442403270,-3,-3,-3,-2,-2,-25,-6,3
1537915442403270,-3,-1,-1,-2,-4,3,-11,-9
1537915442404267,2,-3,0,0,-1,-24,9,12
1537915442404267,-4,1,0,0,3,31,25,-11
1537915442417232,2,-3,-3,-2,-8,-1,-34,-1
1537915442417232,-1,-1,-6,-2,-1,-30,-28,-2
1537915442426208,-5,-4,-2,-2,1,22,48,-7
1537915442426208,6,7,2,-1,-5,1,19,6
1537915442441168,-3,2,-1,-2,2,-19,-32,0
1537915442441168,0,3,0,2,6,18,24,-20
1537915442443162,4,-1,-2,1,4,-19,-20,23
1537915442443162,-6,-8,-4,-5,-11,28,-23,-4
1537915442463109,3,-3,1,1,5,-1,23,2
1537915442463109,-6,11,1,0,-3,-8,-8,-10
1537915442464106,-7,-7,1,0,9,22,-4,-2
1537915442464106,4,7,5,2,6,4,5,7
1537915442477072,4,-1,0,0,-2,-9,-1,-13
1537915442477072,1,-6,-3,-1,2,11,1,11
1537915442486048,-3,-4,-5,-3,-9,-18,1,-1
1537915442486048,-3,-3,-1,-2,-2,-8,-9,-7
1537915442501009,-3,-4,-2,-1,-6,-12,-19,-4
1537915442501009,-3,-3,-1,0,7,14,22,3
1537915442502007,4,4,0,2,-3,2,-24,-1
1537915442502007,-5,-8,-4,-4,0,-3,-20,-9
1537915442522951,0,0,-1,2,9,15,-2,3
1537915442522951,2,0,0,-2,-7,-11,-14,-6
1537915442524946,-2,5,0,-3,-15,-31,0,2
1537915442524946,0,-8,-2,0,4,28,7,-3
1537915442545889,-3,-1,-1,-3,1,-15,-33,8
1537915442545889,-3,4,2,1,9,30,18,-6
1537915442546887,8,0,-1,-2,-9,-11,-4,-1
1537915442546887,-3,-1,0,0,-2,-16,2,-14
1537915442560850,-1,-7,-3,-1,-1,8,14,39
1537915442560850,-5,-7,-1,-1,-2,3,1,-1
1537915442561846,-3,4,0,2,6,1,4,-2
1537915442561846,-2,-5,-3,-2,-3,-8,-40,-9
1537915442582791,-1,1,2,1,2,-3,-12,-15
1537915442582791,1,-3,0,1,1,-5,69,4
1537915442584786,-5,-6,-1,-3,-8,29,-15,4
1537915442584786,6,7,-5,-2,-2,1,11,12
1537915442605729,-4,-2,8,4,0,10,15,-14
1537915442605729,1,2,-1,1,-1,-5,-31,3
1537915442606728,-1,-6,-1,-1,1,-16,-14,-14
1537915442606728,0,-1,1,1,1,9,41,3
1537915442620691,-3,2,-4,-1,-3,0,-3,0
1537915442620691,-2,-4,-2,-2,0,10,-34,-13
1537915442622684,2,-2,0,0,0,-22,21,4
1537915442622684,-2,-1,-1,-3,-2,-3,-37,2
1537915442643627,4,-3,0,1,1,0,26,1
1537915442643627,-7,3,-2,-1,2,20,-20,-8
1537915442644625,7,-4,-4,-5,-14,-12,-8,3
1537915442644625,-3,2,1,1,-1,-32,-7,11
1537915442665568,-3,-1,-2,1,5,-14,3,-24
1537915442665568,9,0,2,1,-7,-1,1,14
1537915442667563,-5,4,0,1,5,20,-11,-3
1537915442667563,-2,-4,-3,1,2,1,11,-1
1537915442679531,-5,-4,-6,-7,-13,-19,-4,-10
1537915442679531,4,-5,-1,-2,0,-13,-15,13
1537915442686512,7,5,4,1,7,18,20,2
1537915442686512,1,-3,-1,1,1,1,-12,-3
1537915442703467,11,4,2,4,8,5,15,15
1537915442703467,-4,-1,-1,-2,-5,-7,-8,-7
1537915442704465,-9,-4,-2,0,-1,-7,0,-6
1537915442704465,3,0,-1,-3,-3,-1,-11,-1
1537915442725408,-15,-1,-1,-1,-3,6,3,-2
1537915442725408,7,0,-1,-1,1,3,22,6
1537915442727403,18,5,1,1,-4,-13,-28,1
1537915442727403,-4,-6,-3,-3,1,12,19,-4
1537915442740368,-1,-4,-2,-1,0,5,-27,-4
1537915442740368,-2,10,1,-2,-2,-9,4,-6
1537915442746352,-12,-2,-2,-1,3,1,8,-8
1537915442746352,1,-8,-3,0,-3,-4,-8,-1
1537915442763307,12,6,5,-3,-5,-8,-35,0
1537915442763307,-16,-5,1,1,1,12,29,0
1537915442764304,7,-14,-8,1,2,-11,-16,2
1537915442764304,-2,20,10,1,-1,-1,4,-5
1537915442785248,-8,-6,0,1,-2,-3,-12,-3
1537915442785248,5,-5,-10,-8,0,15,22,2
1537915442787243,-3,6,3,-1,-1,-21,4,4
1537915442787243,-1,-8,-6,-3,-2,-14,-38,-3
1537915442800208,-5,-6,-2,1,4,33,29,-1
1537915442800208,-2,4,0,0,-5,14,-16,-32
1537915442807190,-3,1,-3,-2,-1,-4,-7,10
1537915442807190,0,-2,-1,0,-1,10,26,4
1537915442823148,2,5,-1,-2,-1,-13,14,8
1537915442823148,-1,-5,-1,0,-4,-32,-7,-3
1537915442824145,-2,9,1,-1,2,19,-1,-3
1537915442824145,-3,-1,2,1,0,15,7,-6
1537915442846085,-5,-4,-4,-3,-5,-7,-14,-12
1537915442846085,2,0,-2,0,4,12,-11,14
1537915442847083,-3,0,1,-3,-14,-11,46,-3
1537915442847083,0,-2,-1,0,2,-12,5,5
1537915442860048,1,-4,-5,-2,-8,-29,-2,3
1537915442860048,3,-7,-2,-4,-4,13,-19,-5
1537915442867029,-16,6,3,2,8,12,8,-3
1537915442867029,6,4,1,1,-1,2,-14,-12
1537915442882986,6,1,0,1,3,-2,-1,11
1537915442882986,-7,-3,2,6,4,-17,-4,-2
1537915442884981,7,-1,-4,-2,-1,-10,-39,0
1537915442884981,-4,-20,-3,2,3,15,8,-11
1537915442905925,-3,26,6,-3,-1,-11,-7,0
1537915442905925,-3,-3,-3,-5,-6,5,23,1
1537915442906923,-4,-2,-2,1,4,4,-55,-7
1537915442906923,-3,0,-3,-2,-7,-32,11,3
1537915442919895,8,-10,-1,-2,-9,34,11,-4
1537915442919895,-5,-4,-4,-2,0,2,-28,-3
1537915442926870,4,1,-2,-1,-1,-9,-18,-9
1537915442926870,3,5,2,-1,-2,-7,4,9
1537915442942828,-14,-3,-4,0,0,6,11,0
1537915442942828,11,6,1,-2,0,7,9,1
1537915442944824,6,-10,-3,-4,-1,-14,8,6
1537915442944824,-7,0,-2,2,4,10,-43,-8
1537915442965765,6,-10,-3,-4,-2,4,16,-2
1537915442965765,-1,14,2,-1,-10,-17,15,1
1537915442966763,-5,1,0,-2,1,9,34,-4
1537915442966763,-1,3,4,0,-1,5,25,-2
1537915442979728,-2,3,-4,-1,1,2,-19,-1
1537915442979728,-2,-13,-3,1,2,-8,-24,1
1537915442986709,6,-8,2,-2,-3,7,4,4
1537915442986709,3,17,2,-1,-4,3,-5,2
1537915443002667,-6,-9,0,0,0,-21,-30,4
1537915443002667,-2,-1,0,-1,0,21,27,-7
1537915443004662,-9,-3,-1,0,0,2,9,-11
1537915443004662,3,-18,-9,-4,1,11,17,16
1537915443025606,-2,8,3,1,2,-13,-48,-13
1537915443025606,0,8,1,0,1,4,3,0
1537915443026603,0,1,4,1,-4,-3,19,0
1537915443026603,-2,5,1,2,2,14,1,-1
1537915443039569,0,-4,-3,-2,-3,-8,17,-3
1537915443039569,0,-4,-3,1,-1,-20,-44,3
1537915443048545,0,0,-3,-1,0,-17,52,6
1537915443048545,-2,-5,-3,-3,-2,0,-4,-14
1537915443063505,1,-3,0,-1,-2,17,19,15
1537915443063505,-1,-5,0,2,0,12,-18,-1
1537915443065499,-4,2,-1,-4,-10,-25,-5,-3
1537915443065499,3,0,1,0,-2,-20,-9,6
1537915443085445,-8,1,-5,-1,5,15,21,-7
1537915443085445,9,-1,0,0,5,-9,1,14
1537915443087440,-2,0,0,0,-4,-4,-23,-8
1537915443087440,9,6,2,2,7,28,17,1
1537915443099408,-14,-4,-2,-2,0,13,4,-3
1537915443099408,-1,-10,-2,0,1,-7,2,-7
1537915443108384,-3,-8,0,0,3,11,-15,-15
1537915443108384,4,10,1,-4,-5,-16,20,5
1537915443123344,4,0,-4,-3,-9,-15,-29,1
1537915443123344,-7,-2,-2,-1,5,7,46,-1
1537915443124341,-2,-6,4,2,4,7,-4,7
1537915443124341,-7,6,0,-1,-4,-17,-44,-3
1537915443145286,3,-1,2,3,10,12,13,-5
1537915443145286,-4,0,-1,-3,-10,-7,38,4
1537915443147280,-1,-2,-8,-2,-3,14,-6,-3
1537915443147280,-4,-4,2,-1,-3,-11,-2,0
1537915443159248,2,4,1,1,3,-13,-4,-9
1537915443159248,6,-3,0,2,0,11,-14,19
1537915443168225,-4,4,2,-1,1,-4,11,7
1537915443168225,9,-2,-6,0,1,-10,-29,-4
1537915443183186,1,-8,-2,-1,-2,21,18,4
1537915443183186,-4,3,1,-2,-2,-17,-32,-7
1537915443184184,0,0,-3,1,2,15,31,3
1537915443184184,-5,-9,-1,-3,-11,-10,-26,2
1537915443206124,-4,0,0,-1,-4,-9,23,-13
1537915443206124,4,2,2,-1,-2,-16,-19,8
1537915443207122,3,1,-1,-1,0,7,-7,-8
1537915443207122,-17,-3,-1,0,8,-3,20,-7
1537915443219089,5,-2,-2,-1,-3,5,-14,1
1537915443219089,-1,-1,0,-2,-6,-9,-19,-6
1537915443228066,0,1,-1,0,3,8,22,0
1537915443228066,0,-2,-2,-1,2,0,29,-4
1537915443243025,-5,0,0,-1,-1,-6,-39,8
1537915443243025,-2,1,-1,-1,-2,3,3,-15
1537915443245020,0,3,-1,-1,4,23,-18,7
1537915443245020,-2,-3,-1,-1,-6,-3,-39,-10
1537915443265963,2,4,2,-1,-3,11,75,6
1537915443265963,-2,-2,-2,0,7,-6,-27,-6
1537915443266961,0,-2,-3,-2,-8,-10,-5,0
1537915443266961,-2,-6,-2,-2,-1,-4,-18,-2
1537915443278928,0,7,2,-1,2,-7,-18,-5
1537915443278928,-1,2,-1,1,3,12,8,0
1537915443287904,-2,0,1,0,1,-2,-7,5
1537915443287904,15,2,-1,1,1,11,12,11
1537915443302864,1,-2,-1,-3,-2,-10,-10,-3
1537915443302864,-4,-9,-2,-2,0,-11,4,-7
1537915443304859,-2,9,0,-3,-7,-3,4,-1
1537915443304859,-9,-7,-2,-1,1,16,22,-8
1537915443325803,4,4,-2,-2,-7,3,8,5
1537915443325803,3,2,-1,-1,1,-9,-43,4
1537915443326800,-2,-5,1,-2,-1,-27,-32,-4
1537915443326800,-5,-2,0,1,4,10,13,1
1537915443339766,-2,-7,-3,1,7,11,-14,-6
1537915443339766,-5,-1,-1,-1,-6,-1,13,-2
1537915443347745,2,-1,0,0,0,-19,-23,-2
1537915443347745,-2,1,-2,-3,-5,3,32,7
1537915443362705,-3,-2,-1,-1,1,-11,-26,0
1537915443362705,-3,1,0,-2,-2,-2,3,-5
1537915443364701,2,0,0,0,-1,-6,17,4
1537915443364701,1,2,1,2,5,-8,30,5
1537915443385644,-1,-3,-2,-3,1,15,-3,-2
1537915443385644,0,1,-2,-2,-15,-10,34,4
1537915443386642,1,2,-1,-1,3,28,-27,-6
1537915443386642,0,0,1,1,-2,-7,-28,1
1537915443399607,0,-3,-1,0,-1,-12,9,-1
1537915443399607,-4,-2,-2,-3,2,18,34,-5
1537915443408585,-3,-6,-2,-1,-1,0,32,9
1537915443408585,-3,-5,-1,-2,-3,3,-16,-4
1537915443423544,6,0,2,1,1,-6,7,-4
1537915443423544,-1,7,-1,0,2,-7,-22,-7
1537915443424542,14,4,2,1,2,8,29,7
1537915443424542,-5,-2,-2,-3,-4,-17,-9,-5
1537915443445484,-7,-7,-2,-1,-3,6,2,-1
1537915443445484,-1,-1,-1,-1,0,5,-3,2
1537915443447479,0,-5,-2,0,1,-3,-23,-12
1537915443447479,0,0,-1,-3,-6,-11,-25,5
1537915443468422,-2,3,0,-2,3,-2,-31,-2
1537915443468422,-1,-4,-3,0,-2,0,40,0
1537915443469419,-11,-4,-4,-3,-2,10,-5,-9
1537915443469419,3,-7,1,2,5,-12,-40,2
1537915443483382,-3,10,-2,1,1,2,1,-15
1537915443483382,5,-11,-1,-2,-2,1,0,5
1537915443484379,-13,6,1,-1,-3,-12,-2,5
1537915443484379,2,4,-2,-2,-2,-9,18,13
1537915443505323,2,-3,0,0,1,33,11,4
1537915443505323,-1,0,-1,0,3,8,29,2
1537915443507318,2,-5,-4,0,-1,-5,-7,-20
1537915443507318,-1,1,-1,-2,-4,-30,11,-1
1537915443528265,-6,-3,-1,1,3,45,-15,1
1537915443528265,6,2,-1,-2,-2,-6,-37,3
1537915443529262,2,-5,0,0,1,-11,12,3
1537915443529262,-5,11,1,1,0,27,-3,-5
1537915443543223,1,-4,-2,-2,-3,-31,9,-3
1537915443543223,-3,-3,-2,-3,-4,-4,-11,-5
1537915443544220,-4,-4,-1,1,3,-10,-23,8
1537915443544220,6,1,-1,-2,-1,32,10,-9
1537915443565164,3,-1,-2,-5,-14,-38,43,22
1537915443565164,6,1,4,7,17,41,-21,3
1537915443567160,-11,6,1,-1,0,-15,4,1
1537915443567160,1,-5,0,-1,3,10,-18,-9
1537915443588102,-8,-7,-2,-1,-4,-17,17,-2
1537915443588102,-3,-4,-1,-1,-3,-17,4,-5
1537915443590099,-1,1,-3,-1,1,12,28,0
1537915443590099,-4,-2,-1,-3,-11,-21,-26,-8
1537915443602066,6,2,1,0,2,2,-5,8
1537915443602066,-7,-3,-1,-2,-4,-1,-27,-8
1537915443609047,8,-4,-2,-3,-1,8,29,9
1537915443609047,-5,4,0,0,5,11,20,-11
1537915443626002,1,-1,-2,1,0,-17,-40,-9
1537915443626002,-3,0,-1,-1,-3,-9,13,6
1537915443627001,2,-2,0,0,-1,7,-29,-2
1537915443627001,1,-2,-3,-4,-4,-18,14,7
1537915443647944,-1,-2,2,3,10,40,22,-2
1537915443647944,-1,-3,-5,-1,-4,-8,-15,1
1537915443649939,-2,0,1,0,-1,1,-8,-5
1537915443649939,1,1,-1,-1,-3,-12,29,5
1537915443662904,-3,0,0,0,-3,-8,-18,-7
1537915443662904,-3,2,-2,-1,1,-1,-11,3
1537915443668888,1,-4,-1,-1,1,-7,13,-2
1537915443668888,-2,-4,-2,0,-8,-7,-14,0
1537915443685840,1,-4,0,-1,0,-1,22,-4
1537915443685840,-11,-3,2,-1,5,0,-29,-4
1537915443686838,8,11,1,1,2,-3,-22,1
1537915443686838,0,2,0,1,0,-3,48,4
1537915443707782,5,1,-2,0,-4,-8,-6,5
1537915443707782,-1,-5,0,-1,0,2,21,1
1537915443709777,-3,-5,-2,-1,-2,-17,-21,-5
1537915443709777,-5,-1,0,1,4,30,-19,-5
1537915443730721,0,-1,-2,-3,-6,-26,0,1
1537915443730721,3,4,-2,-1,-1,-1,17,4
1537915443731718,-6,-6,-2,-2,-10,14,22,-3
1537915443731718,2,5,1,-1,-1,-13,9,3
1537915443745681,-2,0,1,-3,1,-6,-18,-6
1537915443745681,-5,1,1,0,-2,-9,-39,-13
1537915443746678,5,-2,-2,-4,-1,8,28,-2
1537915443746678,0,-8,-2,-1,-1,-8,1,3
1537915443768620,0,7,3,-1,-1,20,47,-1
1537915443768620,0,-2,-1,-1,0,-14,-14,-3
1537915443769618,-2,2,0,1,8,4,-32,-1
1537915443769618,-1,-4,-2,-3,-7,19,13,-2
1537915443782583,-5,-3,-1,0,1,-2,-12,1
1537915443782583,0,0,0,-3,-11,-14,8,-2
1537915443789565,-5,1,-1,-1,-3,-3,-9,-3
1537915443789565,2,-1,0,3,5,6,16,5
1537915443805522,1,-3,-4,-2,1,-4,-21,-2
1537915443805522,-8,-1,1,0,0,1,21,0
1537915443807518,16,3,-2,-2,-1,0,-22,5
1537915443807518,-5,-2,0,2,2,1,6,-8
1537915443828462,-15,-6,-3,-1,-4,2,17,-6
1537915443828462,9,4,1,2,0,12,9,0
1537915443829459,-4,3,0,0,-2,-6,-22,0
1537915443829459,-1,-2,-1,-2,3,-4,1,-4
1537915443842424,0,3,-1,-2,-2,-3,-30,0
1537915443842424,2,-6,-1,0,2,0,25,1
1537915443849405,0,7,0,-1,-4,-3,15,9
1537915443849405,-3,-3,-1,0,0,6,-22,-5
1537915443865360,-3,-3,-1,-1,-1,-11,20,4
1537915443865360,2,1,-1,0,0,12,-18,-2
1537915443867355,-5,-5,0,0,0,3,-3,-5
1537915443867355,1,0,-1,-1,0,-9,-12,0
1537915443888299,4,1,1,-1,1,-14,-12,1
1537915443888299,-19,0,0,-2,0,-2,-21,-4
1537915443889297,-3,-8,-3,-1,-8,12,45,2
1537915443889297,6,4,-2,-2,-2,13,-18,-12
1537915443901265,8,-3,1,0,-5,0,-20,40
1537915443901265,-4,-2,-2,-1,-5,-22,-3,-12
1537915443910240,-5,-2,-1,0,6,16,11,1
1537915443910240,0,-7,-2,-2,-5,-19,-22,6
1537915443925201,-1,4,1,0,-1,-2,37,-5
1537915443925201,1,8,0,-1,-3,2,-9,4
1537915443927195,1,-3,0,2,5,1,-13,-7
1537915443927195,-1,-1,-2,-1,2,-1,-20,-3
1537915443948139,-3,-5,-3,-2,-4,-2,17,-1
1537915443948139,7,-2,-2,-2,-11,-21,-23,2
1537915443949137,0,1,-3,1,0,-2,44,-8
1537915443949137,-20,-3,-1,0,2,1,-8,0
1537915443962102,-2,-5,-1,-2,3,11,24,-8
1537915443962102,3,4,2,0,1,-2,-21,1
1537915443971078,1,-2,1,-1,0,2,-22,3
1537915443971078,2,1,0,2,-1,-15,15,2
1537915443986038,-4,-2,-3,1,0,6,14,-2
1537915443986038,-1,-5,-1,0,2,0,-14,8
1537915443987035,4,1,1,-3,-14,-21,-10,-2
1537915443987035,-4,2,-1,-4,-3,17,5,-1
1537915444007979,0,0,0,-3,-5,-7,-32,-11
1537915444007979,6,1,0,3,2,17,18,0
1537915444009974,-7,-7,0,1,6,-23,-13,-2
1537915444009974,-1,1,1,1,2,17,-13,-6
1537915444021942,0,2,-2,-2,-5,1,-1,7
1537915444021942,4,-3,0,3,6,8,-2,8
1537915444030918,-5,4,-2,-3,-13,-23,5,-6
1537915444030918,5,-3,-1,2,7,10,0,0
1537915444045878,-2,6,-1,0,2,1,20,-2
