timestamp,emg1,emg2,emg3,emg4,emg5,emg6,emg7,emg8
1537915250281833,2,-3,-2,0,1,-4,4,-6
1537915250281833,-2,17,3,-2,-7,-29,-2,10
1537915250283828,0,-21,-12,-9,-3,3,6,1
1537915250283828,9,35,20,4,2,23,-23,3
1537915250284825,-2,-10,-12,-9,-9,-9,2,0
1537915250284825,-2,2,0,5,0,5,9,-10
1537915250285822,-18,-12,-2,15,53,18,-6,-17
1537915250285822,7,-19,-12,-10,-25,1,-2,-2
1537915250286820,0,-9,-5,-1,2,-49,-3,0
1537915250286820,-10,-3,-7,-12,-30,57,-12,-12
1537915250301779,12,28,19,0,-10,-27,3,4
1537915250301779,-10,-32,-21,-7,4,30,7,-5
1537915250311753,-15,16,10,5,28,-6,3,-13
1537915250311753,22,-6,-2,0,9,14,9,17
1537915250317737,-13,-6,5,2,-2,-29,-9,-9
1537915250317737,12,17,-5,-3,-25,-24,2,9
1537915250332697,12,-7,-7,-7,-23,29,-10,10
1537915250332697,-15,10,8,5,31,-1,17,6
1537915250347657,24,15,10,-7,-22,-2,-30,19
1537915250347657,-20,-20,-12,4,28,-7,32,-6
1537915250347657,14,-8,-1,1,-17,-5,-36,14
1537915250347657,-5,-19,3,-3,0,29,17,-13
1537915250394532,-8,2,15,6,32,5,-8,-4
1537915250394532,9,-10,-26,-3,-22,-31,7,9
1537915250394532,-11,-6,-20,-16,-18,-39,-5,-5
1537915250394532,-10,-28,1,0,8,66,-23,-1
1537915250395529,5,21,-1,-4,-21,-16,9,6
1537915250395529,-6,3,9,1,4,-28,-4,-5
1537915250398521,2,91,44,12,12,19,-1,3
1537915250398521,23,19,0,-5,2,-1,3,0
1537915250406500,20,-15,10,6,11,2,-20,1
1537915250406500,1,-20,-8,-2,2,3,-13,-1
1537915250415476,-18,-37,-18,-9,-24,-55,-14,-8
1537915250415476,-3,14,3,7,23,75,81,14
1537915250421460,-4,-1,-10,2,3,-16,-28,2
1537915250421460,-4,-31,2,4,25,45,0,-5
1537915250438414,10,11,2,-2,-1,-41,-21,3
1537915250438414,-12,-11,-12,-6,-25,-87,-40,-8
1537915250444398,9,-14,-12,-14,-34,72,67,9
1537915250444398,-17,30,31,11,9,-5,-77,-17
1537915250467337,13,-15,-14,-5,37,50,73,15
1537915250467337,8,6,15,-2,-11,-26,-20,-2
1537915250467337,5,49,1,1,-2,-75,44,13
1537915250467337,-4,4,9,-6,-12,77,17,-3
1537915250482297,1,-13,-1,0,-9,21,-37,-2
1537915250482297,-14,-20,-18,-5,-11,-44,0,-5
1537915250483294,-14,-30,-2,0,13,-6,-26,-16
1537915250483294,2,13,-3,-1,-5,-13,21,-4
1537915250504239,14,-13,-3,6,-8,-3,-19,22
1537915250504239,-3,-7,-7,-2,21,3,-49,-4
1537915250505236,3,5,6,4,-22,28,58,2
1537915250505236,8,5,-3,-1,6,-18,18,3
1537915250527177,-15,-59,-28,-7,-11,30,1,-10
1537915250527177,-4,60,38,6,-2,-30,-7,-6
1537915250528175,4,5,-7,-9,0,26,8,0
1537915250528175,0,2,4,-2,-3,-45,5,10
1537915250542137,-4,-5,-5,9,16,-30,2,-5
1537915250542137,10,-18,-10,5,10,58,-12,0
1537915250543135,-15,-11,-6,-8,-13,-33,-44,-14
1537915250543135,0,-2,-8,-9,-11,10,7,0
1537915250565076,-5,-2,14,-2,3,12,-11,-5
1537915250565076,-4,-3,-3,0,-3,2,7,-2
1537915250565076,-2,-1,2,5,4,-4,-18,0
1537915250565076,0,0,7,1,6,-7,-19,0
1537915250587017,5,13,-9,1,-7,-6,4,2
1537915250587017,-1,-4,-1,5,25,-22,18,-1
1537915250594996,-2,-6,1,-2,-7,13,-24,-4
1537915250594996,7,-6,-11,-16,-44,-13,37,10
1537915250601977,-17,3,5,-1,-1,10,9,-11
1537915250601977,-3,5,4,-3,-14,-38,-25,-6
1537915250602974,-4,-22,8,6,24,8,5,0
1537915250602974,-13,-24,-31,-5,14,1,-63,-13
1537915250624916,23,50,34,10,1,7,31,9
1537915250624916,6,-27,-35,-4,1,22,18,6
1537915250624916,-3,18,10,1,4,-24,-11,-2
1537915250624916,-2,-6,5,7,9,20,6,1
1537915250646857,-7,-8,-3,-2,-11,9,-22,-11
1537915250646857,1,11,18,-3,-17,-19,-6,5
1537915250647854,0,-11,-13,-7,-4,3,-3,-5
1537915250647854,-4,-13,-8,1,0,-4,12,-2
1537915250661817,-1,24,24,5,7,2,-14,2
1537915250661817,-9,-15,-8,7,26,1,25,-5
1537915250662815,18,-3,-14,-6,-27,55,-6,16
1537915250662815,7,6,5,-5,-13,-30,4,7
1537915250684756,-4,-20,-6,-4,-4,-9,4,-8
1537915250684756,-2,43,28,8,-13,-11,-14,-10
1537915250685753,-11,-24,-15,-5,24,11,-35,-8
1537915250685753,3,13,16,13,19,9,25,4
1537915250706697,8,1,3,-5,-12,6,-5,-3
1537915250706697,-11,-11,-12,-3,0,-4,20,0
1537915250707695,-3,19,28,7,-3,-21,-39,-10
1537915250707695,1,-10,-28,-8,9,13,6,3
1537915250721657,-1,-17,-30,-5,18,-8,-3,2
1537915250721657,0,-13,0,-4,-33,-15,-4,5
1537915250722655,-3,3,0,-11,-39,18,29,-6
1537915250722655,-2,14,13,-4,-14,-8,-13,-4
1537915250744596,6,4,7,5,8,2,9,7
1537915250744596,0,-9,-7,-1,16,15,7,-1
1537915250745593,5,1,0,11,13,-14,3,7
1537915250745593,-7,5,9,4,7,-15,8,-8
1537915250767534,-2,12,-9,1,7,16,-14,-7
1537915250767534,0,-19,-5,-8,-9,-1,-2,1
1537915250767534,-16,-16,-12,-2,4,-25,20,-12
1537915250767534,6,16,4,1,-2,17,-8,0
1537915250782494,-4,-2,3,1,-2,2,-14,-6
1537915250782494,10,2,2,-1,-8,4,-6,3
1537915250782494,-8,-7,-7,0,7,-23,7,-2
1537915250782494,5,7,-3,-1,-3,3,13,1
1537915250804436,1,2,12,4,-7,6,0,-6
1537915250804436,-8,-3,-10,-11,-4,4,-4,0
1537915250805433,7,-2,-10,-3,5,-7,0,4
1537915250805433,1,-9,3,1,-4,-19,-3,1
1537915250827374,2,18,3,2,2,27,4,2
1537915250827374,-6,-10,-5,-8,-4,-4,0,1
1537915250827374,-5,2,1,0,4,-4,-5,-2
1537915250827374,-2,-8,-3,-1,-4,-1,-6,0
1537915250842335,-1,-6,1,1,-1,-13,-13,3
1537915250842335,4,2,-4,-1,3,11,45,1
1537915250843332,4,4,-1,-3,-2,3,-7,3
1537915250843332,-5,-4,-3,-4,-4,-17,17,-7
1537915250873252,-3,-11,-8,-3,1,11,-15,1
1537915250873252,6,7,6,6,5,17,-20,-8
1537915250873252,-1,-1,2,0,0,-9,-13,-1
1537915250873252,3,4,2,1,4,6,6,4
1537915250887215,-3,-14,-8,-7,-4,-13,22,-1
1537915250887215,5,8,3,0,-1,3,-15,-4
1537915250888213,-5,9,4,7,5,3,23,-13
1537915250888213,0,-5,-7,-6,-10,1,-27,6
1537915250902175,-6,-7,0,-1,5,-9,-25,-5
1537915250902175,0,-1,-2,-8,-38,-17,11,-2
1537915250903172,7,0,-1,-1,-2,-2,24,16
1537915250903172,-3,1,0,0,23,51,-11,-9
1537915250925114,1,-6,-2,-3,-3,-21,-2,-2
1537915250925114,-3,-2,-2,-1,2,-12,-40,-10
1537915250925114,-3,1,1,4,11,5,-26,-6
1537915250925114,14,0,-3,-8,-33,19,57,16
1537915250947054,-5,-3,0,8,36,-1,-8,-4
1537915250947054,4,0,-2,2,-8,81,14,19
1537915250948052,-3,-4,-3,-13,-31,-60,40,-5
1537915250948052,-9,-1,-2,7,20,-17,-75,-13
1537915250961018,4,-4,-3,-15,-27,-4,-10,8
1537915250961018,-7,1,5,14,54,-4,-32,0
1537915250968996,-6,0,-2,-6,-7,37,98,-7
1537915250968996,3,1,-2,-3,-7,-37,-82,2
1537915250984953,-2,0,1,-2,-18,-6,84,-14
1537915250984953,-6,-3,-2,-3,0,-25,-104,3
1537915250984953,2,5,2,7,24,17,12,-3
1537915250984953,-9,-3,2,0,1,-23,-42,-5
1537915251006895,0,-1,-2,-3,-7,-10,-10,-2
1537915251006895,10,2,-1,-2,9,11,46,11
1537915251007892,-1,0,3,-1,-12,-4,-43,-14
1537915251007892,1,0,-4,0,4,27,35,11
1537915251021855,6,1,1,3,9,-8,29,22
1537915251021855,-9,-3,2,-3,-10,-32,30,-23
1537915251028836,-5,-2,-2,-1,-16,-7,-46,3
1537915251028836,-1,1,-1,0,-10,10,20,-14
1537915251044793,-5,-4,-3,-3,-3,38,19,-3
1537915251044793,-5,-2,-1,1,3,-27,1,-9
1537915251045791,4,1,1,7,38,54,2,15
1537915251045791,0,-1,2,3,-3,-9,13,-10
1537915251066735,-5,-7,-3,-7,-28,-23,-47,-3
1537915251066735,1,0,-3,-6,-15,-7,20,6
1537915251067732,0,0,-3,-5,-2,-5,-4,6
1537915251067732,-2,-3,1,2,14,10,18,3
1537915251081695,3,0,1,1,6,-5,-15,1
1537915251081695,0,1,2,1,-3,4,10,-4
1537915251088676,-1,-3,-1,-2,3,-6,-18,-1
1537915251088676,-3,-2,0,0,2,-8,6,-1
1537915251104634,-2,2,-1,1,-4,-6,-6,-4
1537915251104634,1,-2,-4,-4,-7,3,3,-3
1537915251105631,-3,-3,2,7,19,-2,-36,9
1537915251105631,3,2,-3,-4,12,-32,27,-10
1537915251127572,1,-2,-7,-14,-65,17,27,3
1537915251127572,-14,-1,3,17,3,32,21,15
1537915251127572,18,-1,0,-1,7,-15,-36,-13
1537915251127572,-5,-2,-7,-14,-17,-27,3,3
1537915251141535,-13,-6,-6,-10,27,-13,-4,-5
1537915251141535,11,1,-1,-2,21,13,-10,3
1537915251148516,-11,2,1,4,0,-28,-5,-3
1537915251148516,-11,-1,1,-10,-25,42,38,-4
1537915251164473,15,0,3,5,8,13,-16,1
1537915251164473,-11,2,1,0,-36,-9,25,-17
1537915251165471,23,1,-1,0,8,-25,-4,16
1537915251165471,-1,-2,2,8,3,-27,-13,-4
1537915251187412,-11,-2,-2,1,10,38,-13,-3
1537915251187412,0,1,3,12,31,10,-14,-11
1537915251187412,-8,-2,-4,-7,-21,10,18,-7
1537915251187412,3,-2,-3,-5,-11,-19,8,12
1537915251201375,1,1,1,5,14,-16,-8,-6
1537915251201375,8,-1,0,-3,2,5,-4,9
1537915251209353,-11,-3,1,5,11,-21,-1,-6
1537915251209353,2,0,0,0,21,83,-5,5
1537915251224313,4,4,5,17,-9,-25,16,2
1537915251224313,-2,-3,1,18,99,17,1,-6
1537915251225311,-5,-8,-19,-54,-110,-87,-14,-1
1537915251225311,-3,2,4,14,81,45,-59,-21
1537915251247252,-7,-2,-3,-24,-81,-43,24,0
1537915251247252,-7,-8,-2,10,24,-43,-6,-1
1537915251248250,-14,-6,-15,-42,-84,62,45,3
1537915251248250,17,3,6,29,114,55,-9,3
1537915251261215,7,14,17,16,33,-20,-71,0
1537915251261215,6,-6,-19,-50,-128,-58,41,2
1537915251269193,0,6,15,44,127,-27,-86,-2
1537915251269193,-8,-3,0,6,12,88,54,1
1537915251284153,-13,-11,-3,7,91,23,61,-8
1537915251284153,14,12,1,-5,-40,-23,37,11
1537915251285151,1,-10,-18,-45,-35,86,-56,-5
1537915251285151,-24,3,6,24,70,46,42,-31
1537915251307092,28,-2,-17,-56,-107,-51,2,19
1537915251307092,-7,0,13,35,116,68,-53,0
1537915251308089,-4,7,16,44,37,90,51,-9
1537915251308089,10,4,2,6,11,-128,-34,17
1537915251330031,-26,-3,5,-8,-50,-61,7,-24
1537915251330031,7,-9,-24,-47,-3,99,35,-27
1537915251331028,-6,-13,-20,-78,-83,-92,-7,22
1537915251331028,5,9,19,52,78,5,-28,-10
1537915251344991,-11,-5,-4,-8,-26,59,77,-21
1537915251344991,32,22,30,68,20,-119,-39,32
1537915251344991,-14,-16,-11,-19,63,126,-32,-11
1537915251344991,26,17,32,84,48,-54,3,43
1537915251366932,2,-18,-50,-50,-98,-128,-28,-10
1537915251366932,-46,-3,2,-33,127,114,-27,-16
1537915251374911,19,0,-10,-35,-30,-76,13,-2
1537915251374911,-10,-15,-28,-125,-128,61,23,-17
1537915251391866,0,11,31,110,127,90,-70,13
1537915251391866,7,8,24,67,61,98,25,7
1537915251392863,-11,-5,-5,27,74,69,46,-13
1537915251392863,-17,-20,-29,-127,-128,-24,-43,-7
1537915251412810,12,13,9,27,86,49,-33,4
1537915251412810,-9,-10,-9,-11,64,1,23,-23
1537915251413807,6,11,22,52,-91,32,-15,7
1537915251413807,21,4,0,78,-28,-124,26,18
1537915251426772,-6,-9,-15,-94,46,110,-13,-8
1537915251426772,-10,-14,-13,-29,-102,4,-17,6
1537915251427770,10,4,2,15,6,-4,-9,10
1537915251427770,-12,-6,-3,-17,-45,-11,8,-7
1537915251450708,0,9,16,55,112,-68,-24,7
1537915251450708,13,3,6,12,43,-23,3,-1
1537915251450708,-6,-6,-19,-38,-42,-8,2,-12
1537915251450708,-5,-2,-5,-61,-32,85,33,9
1537915251472650,2,6,29,91,2,90,-10,11
1537915251472650,10,-9,-29,-109,-95,-113,-38,-4
1537915251474644,-7,-5,-16,14,-36,-52,29,0
1537915251474644,-9,6,21,78,127,94,-16,-6
1537915251486612,3,-8,-14,-111,-128,-22,22,-2
1537915251486612,2,13,25,127,79,-47,-14,7
1537915251494591,-4,9,14,-58,86,27,-25,-7
1537915251494591,-17,-13,-24,-91,-76,69,8,-25
1537915251510548,0,-2,-4,-23,-42,-49,12,-7
1537915251510548,5,6,10,61,-3,81,12,8
1537915251510548,-1,5,15,90,57,-16,-26,8
1537915251510548,-3,12,26,107,127,68,73,3
1537915251532490,-5,-20,-43,-80,-68,-93,-57,-11
1537915251532490,-15,-19,-37,-128,-128,28,26,-10
1537915251533487,6,9,8,24,-21,25,-12,8
1537915251533487,9,5,23,40,113,86,-22,14
1537915251546453,-5,-2,-6,46,5,39,46,8
1537915251546453,-8,-7,-10,-47,-67,49,-53,-4
1537915251554431,0,5,13,7,17,-44,83,-4
1537915251554431,9,12,26,101,75,-67,15,0
1537915251570389,-6,-15,-33,-80,-72,-95,-81,-2
1537915251570389,-6,-5,-9,-19,-32,6,-21,-4
1537915251571386,6,0,-2,1,62,40,26,2
1537915251571386,16,0,-1,12,23,7,-63,15
1537915251592330,-1,1,21,127,127,108,96,8
1537915251592330,-10,-16,-43,-56,-53,-57,-66,1
1537915251593327,-2,-11,-14,35,37,14,-14,-7
1537915251593327,-9,-1,-8,6,13,-105,-8,-26
1537915251606293,9,9,11,56,-53,3,8,23
1537915251606293,1,-4,-12,-48,-53,-77,-39,-5
1537915251615268,4,5,9,0,64,17,8,11
1537915251615268,-17,-6,-7,-36,9,-4,-6,-5
1537915251629231,22,10,28,57,53,66,2,11
1537915251629231,4,4,10,15,-9,-69,9,-4
1537915251638207,-6,-6,-14,36,-11,44,23,-1
1537915251638207,-2,-10,-27,-115,-30,-60,-4,-2
1537915251653167,-9,9,19,6,47,31,7,3
1537915251653167,14,12,24,115,106,-15,36,6
1537915251654165,-3,-5,-20,-80,-62,65,4,1
1537915251654165,-5,-8,-18,-42,-70,48,-34,-3
1537915251666133,-5,-6,-14,-17,-64,-92,4,-9
1537915251666133,-8,9,24,47,105,108,4,-6
1537915251675109,14,14,35,105,-4,-107,6,18
1537915251675109,0,-6,-17,-75,42,78,36,-5
1537915251690069,6,11,16,29,74,-13,14,23
1537915251690069,-12,-12,-12,-61,-56,117,-12,-11
1537915251692063,2,2,7,5,98,10,2,-6
1537915251692063,18,11,21,98,-41,-79,19,26
1537915251715002,-27,-24,-46,-87,-26,-48,7,-26
1537915251715002,12,3,2,47,17,-58,41,13
1537915251716997,-5,-3,-1,33,43,44,-48,-13
1537915251716997,0,2,6,28,21,51,21,-11
1537915251719988,4,14,30,80,52,1,-1,13
1537915251719988,23,9,7,45,7,77,5,6
1537915251728964,-21,-18,-28,-101,-110,78,-47,-25
1537915251728964,5,3,6,32,61,-44,69,15
1537915251741930,-6,-6,-9,-103,-40,125,-30,-16
1537915251741930,-1,2,0,-40,68,77,18,11
1537915251749908,9,13,29,77,96,-11,-46,4
1537915251749908,-12,-6,-12,-53,0,-29,-41,-13
1537915251764868,1,-10,-23,-53,-72,-68,-8,-3
1537915251764868,-10,-3,6,12,-90,-48,22,-5
1537915251771850,17,15,28,93,127,34,51,14
1537915251771850,-3,-6,-10,-27,-55,-26,-41,-7
1537915251778831,-5,-6,4,27,-26,41,-31,-13
1537915251778831,-4,3,14,71,108,-38,21,2
1537915251786810,-9,-7,-25,-128,-128,-34,-10,-1
1537915251786810,8,-1,-7,-1,63,43,-15,3
1537915251801770,5,10,29,112,57,98,35,13
1537915251801770,8,-2,-15,-88,-19,-69,-2,4
1537915251809748,-8,-13,-23,7,-120,-120,-22,-13
1537915251809748,-10,-11,-25,-119,-26,0,-26,-14
1537915251824708,4,7,12,20,33,92,13,4
1537915251824708,4,5,13,79,35,-55,-24,11
1537915251825706,3,2,4,4,38,34,33,4
1537915251825706,1,5,14,25,-10,-74,-17,-6
1537915251838671,-1,-4,-8,-23,121,-117,-5,-8
1537915251838671,-7,-9,-18,-55,-121,-1,-13,-2
1537915251846650,0,3,12,-4,110,-42,-1,3
1537915251846650,8,-1,2,115,-51,-6,-22,12
1537915251861610,-10,0,-1,-51,56,-6,0,-15
1537915251861610,-5,-4,-8,-25,-75,-50,11,-5
1537915251869589,10,7,23,93,92,-19,-21,11
1537915251869589,-13,-15,-25,-88,-83,63,-18,-8
1537915251883551,1,-4,-12,24,-4,-15,2,11
1537915251883551,-2,-1,-1,-2,10,36,-17,-23
1537915251892527,-19,-2,1,-20,-58,0,-6,-13
1537915251892527,15,4,2,19,17,34,14,13
1537915251898511,6,4,18,58,-3,-25,3,8
1537915251898511,-1,-2,-6,-52,88,51,-7,-1
1537915251906490,-4,-7,-13,-5,-56,-27,37,-1
1537915251906490,-2,5,14,99,65,76,-44,0
1537915251921450,1,-2,-9,-92,-32,52,41,-2
1537915251921450,-1,4,15,63,-30,-39,7,8
1537915251929429,0,0,0,5,51,-18,-16,-10
1537915251929429,-1,-2,-12,-17,-128,-66,20,7
1537915251944389,2,-1,-5,-58,81,26,-62,-8
1537915251944389,-10,-3,1,20,-68,4,47,-4
1537915251952367,5,1,-6,-41,25,-13,-3,6
1537915251952367,-3,-4,-2,36,-32,-43,15,-1
1537915251959348,1,2,1,3,-24,19,-34,1
1537915251959348,1,3,10,45,57,20,8,2
1537915251966330,-2,-4,-2,-40,25,45,-16,8
1537915251966330,-7,-4,-9,-68,-11,-16,10,-22
1537915251981290,2,-3,-5,6,-65,-24,-5,5
1537915251981290,0,0,-6,-20,-8,6,-8,3
1537915251989268,3,5,13,65,15,18,26,-3
1537915251989268,-1,1,3,28,-1,18,-8,-1
1537915252004229,-5,-5,-14,-44,-67,-30,9,-8
1537915252004229,2,2,1,18,15,-24,-12,1
1537915252012207,0,-5,-3,-1,-21,18,11,-1
1537915252012207,-3,-3,-6,-56,-30,-10,4,1
1537915252019189,-3,1,6,30,12,21,4,-8
1537915252019189,3,-1,-1,25,26,20,7,6
1537915252026170,-2,-2,-9,-23,-31,-26,-21,-7
1537915252026170,0,2,-1,-20,-8,-44,56,3
1537915252041130,3,5,9,59,19,48,-25,-6
1537915252041130,-2,-3,-3,-23,12,1,11,-3
1537915252049109,0,-4,-9,-30,-49,-12,3,-2
1537915252049109,2,2,8,21,17,3,-8,0
1537915252064069,0,1,0,15,7,-5,8,1
1537915252064069,-1,-2,-5,-15,-9,7,-7,-1
1537915252072047,-1,-2,-4,-16,-19,7,4,-2
1537915252072047,0,1,6,21,16,-1,-5,1
1537915252087007,-1,-1,-3,-2,-1,-4,7,-2
1537915252087007,-3,-2,-3,-18,0,-3,-9,-4
1537915252088005,0,-1,3,9,-6,4,5,0
1537915252088005,0,0,1,12,15,-1,-13,-1
1537915252102965,-1,-3,-7,-14,-17,-5,7,0
1537915252102965,1,-1,0,-1,3,4,-4,0
1537915252109946,-1,0,0,6,-1,4,0,-1
1537915252109946,-1,-2,-1,-2,-3,0,-1,1
1537915252123909,-2,0,-2,-3,-3,-4,2,-1
1537915252123909,-9,-1,1,3,7,-1,-1,-6
1537915252132884,4,-3,-1,-5,-7,0,0,1
1537915252132884,-1,1,-2,-4,0,-4,-5,2
1537915252146848,3,0,0,3,0,-1,5,4
1537915252146848,0,1,-1,2,1,0,-6,-1
1537915252147846,-2,-1,-2,-4,-10,0,2,-2
1537915252147846,0,0,-1,-1,0,0,-2,-1
1537915252161808,-2,-2,0,4,1,-1,1,-3
1537915252161808,0,-1,-1,-3,-2,1,-2,-1
1537915252169786,-1,-1,-3,-2,-4,-1,-1,2
1537915252169786,-2,-1,0,3,2,-1,-1,0
1537915252183749,-3,-3,-1,-1,-1,-3,1,-2
1537915252183749,-1,-2,-1,-7,-2,-2,-2,-1
1537915252191728,-1,1,0,1,-3,-1,4,2
1537915252191728,0,-1,-1,4,3,0,-6,0
1537915252206688,-1,0,-1,-3,-5,1,1,-1
1537915252206688,-1,-1,-2,-2,0,1,2,2
1537915252207685,-3,-2,-1,0,1,3,-5,-1
1537915252207685,0,-2,0,0,-4,-25,2,0
1537915252221648,1,1,-3,-5,-6,12,-1,0
1537915252221648,0,-1,0,-1,2,-1,-4,-1
1537915252229626,-4,-1,-1,-3,0,6,13,3
1537915252229626,0,-1,1,2,6,5,-7,-12
1537915252243589,1,-1,4,5,-2,1,5,2
1537915252243589,-2,-2,-3,-8,-25,-27,-21,-5
1537915252251567,2,2,0,1,-4,2,24,6
1537915252251567,-3,-1,-4,0,12,19,-2,-1
1537915252267525,1,-4,-3,-1,-18,-26,-2,0
1537915252267525,-3,-2,-1,1,10,15,-3,-3
1537915252267525,-3,-2,0,-3,-4,-7,-11,-4
1537915252267525,-1,-1,3,3,8,-4,1,3
1537915252281487,0,-1,1,2,12,26,3,-2
1537915252281487,0,-2,-3,-4,-7,-12,3,3
1537915252289466,-4,-3,-2,-3,-1,-3,-9,-6
1537915252289466,2,1,0,0,2,2,3,0
1537915252304426,0,-1,-1,4,10,5,-7,-1
1537915252304426,-1,-3,0,0,-1,0,5,0
1537915252312405,-4,-1,0,-2,0,7,1,-8
1537915252312405,1,-1,-3,-1,-2,-10,-4,6
1537915252327365,0,1,2,1,19,-2,0,1
1537915252327365,-1,-2,-3,-4,-21,-9,3,-3
1537915252327365,-1,-2,-2,-2,-11,-24,-7,-5
1537915252327365,-7,-2,-1,-3,-4,15,1,-2
1537915252341327,-4,-1,0,2,10,-13,0,-3
1537915252341327,3,0,-1,1,5,8,4,0
1537915252349307,2,0,0,-3,-2,3,-7,2
1537915252349307,0,-2,-1,-4,-10,-7,5,4
1537915252364266,-1,-1,-1,0,2,13,-2,-1
1537915252364266,-1,2,1,4,11,-3,-6,0
1537915252372245,0,-1,-2,-1,-3,-1,0,0
1537915252372245,-1,-2,1,1,3,9,-2,-4
1537915252387205,-2,0,-2,-5,-11,-16,-2,1
1537915252387205,-2,0,0,-1,3,9,5,0
1537915252388202,0,0,-2,2,1,1,-2,0
1537915252388202,0,-1,1,-2,-2,3,0,0
1537915252401167,-3,-1,-2,-3,-5,-11,-2,-2
1537915252401167,0,-1,1,0,4,6,2,0
1537915252409146,-1,-2,-1,-3,-4,5,-6,-1
1537915252409146,1,0,-3,-2,-7,-4,1,-2
1537915252424106,0,-2,-1,-1,-8,0,1,-1
1537915252424106,-4,-2,0,2,11,-5,-5,-6
1537915252432085,2,-1,0,-1,3,-1,-2,8
1537915252432085,-1,-1,0,-1,-6,-3,-1,0
1537915252447045,-1,1,-1,-1,-4,-12,0,-3
1537915252447045,0,0,-1,3,6,11,3,1
1537915252448042,-1,1,1,-1,1,12,-2,-4
1537915252448042,-3,0,-4,-4,-14,-20,-5,0
1537915252461008,-1,-3,-2,0,-2,1,1,3
1537915252461008,0,0,0,1,2,-1,0,1
1537915252469984,-5,-2,1,1,-1,0,-1,-15
1537915252469984,2,1,-1,-1,-1,0,-1,4
1537915252483946,-1,-1,-1,-2,1,8,1,-3
1537915252483946,0,-1,-2,-3,-6,-3,-1,3
1537915252492923,-2,-3,-2,4,2,-6,-3,-3
1537915252492923,-4,-3,-1,1,6,6,7,-2
1537915252506885,2,-2,0,-3,-5,-3,-1,6
1537915252506885,-1,0,-1,-4,-4,-2,-2,-5
1537915252515861,3,1,-2,-2,2,4,2,10
1537915252515861,-4,-3,1,3,-1,-10,-10,-6
1537915252521845,-2,-2,-1,-1,-4,1,-1,-4
1537915252521845,3,-1,-1,0,3,2,-2,5
1537915252537802,-3,0,-2,-1,-1,-5,0,-3
1537915252537802,1,1,-1,-3,0,5,6,0
1537915252543786,-6,-2,2,3,0,-8,-14,-3
1537915252543786,3,-1,-1,-1,-4,0,6,2
1537915252552762,0,-1,-1,-2,-4,-7,-11,-5
1537915252552762,-2,-1,-1,-1,2,0,7,-2
1537915252566725,4,-2,-2,-2,-2,3,-7,-4
1537915252566725,-4,-1,1,0,-2,-1,46,3
1537915252575701,1,0,2,6,14,12,-2,2
1537915252575701,-1,-1,3,15,3,-4,8,-2
1537915252581685,-3,-2,-1,1,22,-14,-39,-8
1537915252581685,-1,-1,-5,-15,-40,31,-11,1
1537915252590661,-4,-4,-5,-14,-24,-49,43,-1
1537915252590661,5,0,-1,-1,-15,-6,-15,3
1537915252612602,-5,1,2,10,43,19,4,-4
1537915252612602,11,-2,-1,14,13,67,8,14
1537915252614597,-1,3,-3,-3,21,-1,22,-1
1537915252614597,0,2,-8,-55,-87,-36,-17,-14
1537915252635541,7,0,-2,-17,-17,-86,20,13
1537915252635541,-13,3,6,15,-51,-28,-50,-11
1537915252636539,21,4,12,24,-12,22,67,3
1537915252636539,2,-6,-2,33,59,66,-81,8
1537915252648506,-13,-10,-23,-69,-37,16,33,-13
1537915252648506,-7,2,5,-5,75,-29,41,-19
1537915252657482,7,0,-2,-10,-86,-75,-21,9
1537915252657482,-15,-10,-7,-16,-36,-34,27,-13
1537915252672442,7,0,3,44,81,77,-84,-4
1537915252672442,-8,3,-6,-46,-19,34,-46,-15
1537915252679424,-10,-10,-16,-27,-6,-18,-33,-11
1537915252679424,8,9,28,54,115,72,37,4
1537915252695381,-7,-2,-3,11,-103,-82,-13,-9
1537915252695381,-4,-9,-5,-17,94,40,32,-7
1537915252696379,14,7,11,28,82,127,-23,26
1537915252696379,9,6,1,10,58,80,-15,5
1537915252709344,-7,-6,-9,-16,-54,-34,-30,-7
1537915252709344,0,1,-2,-1,25,-73,19,18
1537915252718320,-14,-16,-23,-89,-97,-13,-43,3
1537915252718320,-17,-5,-2,14,-66,-3,119,7
1537915252732282,39,17,22,57,76,49,-22,3
1537915252732282,1,0,5,48,89,38,12,9
1537915252739263,-2,5,10,33,-11,-38,50,-3
1537915252739263,9,1,0,15,62,-93,-84,9
1537915252755221,-19,-8,-25,-70,-123,-91,-12,-10
1537915252755221,-4,-5,-4,-28,-42,53,-15,0
1537915252756219,8,-4,-2,13,62,-19,-21,-13
1537915252756219,-22,2,4,-17,-29,31,35,1
1537915252778161,2,6,15,37,39,-89,28,-5
1537915252778161,9,9,19,31,36,79,3,2
1537915252779157,4,8,8,42,1,-44,-8,1
1537915252779157,-8,-7,-15,-35,23,-35,-1,-7
1537915252792122,-7,-9,-12,-61,66,127,16,-4
1537915252792122,2,-4,-11,7,-123,-31,3,3
1537915252799104,-8,-4,-2,-44,11,-18,-12,-7
1537915252799104,4,4,10,45,-47,34,-14,-13
1537915252817056,13,9,4,18,88,67,13,40
1537915252817056,-3,-10,-15,-46,-90,-77,16,-20
1537915252819050,-2,1,7,37,3,76,19,8
1537915252819050,8,2,4,22,100,-62,-29,-5
1537915252838000,-13,-10,-5,19,-98,-36,-4,0
1537915252838000,23,1,-11,-55,-47,52,16,24
1537915252838997,-19,-5,-14,-52,-49,-58,-29,-20
1537915252838997,14,-1,0,-11,-48,-76,37,30
1537915252851963,3,4,13,50,83,99,21,-6
1537915252851963,-11,1,8,53,4,-48,-59,-11
1537915252858944,-2,-7,-16,-38,-47,-95,8,1
1537915252858944,4,-5,-8,-52,-73,102,-29,-11
1537915252874902,2,4,5,-3,-25,-22,37,19
1537915252874902,2,0,6,57,17,-15,-13,-9
1537915252876896,1,5,14,30,115,127,24,26
1537915252876896,-2,-3,-13,-2,8,-56,-27,-12
1537915252897840,-4,-1,-5,-49,-21,-24,4,-11
1537915252897840,-4,-4,-1,-13,6,4,-7,-7
1537915252898838,16,14,21,61,85,24,-38,16
1537915252898838,3,2,12,101,97,60,24,10
1537915252911802,-9,-9,-21,-103,69,-22,-3,-13
1537915252911802,-6,-8,-23,2,-77,-19,-27,9
1537915252918784,-2,-8,-12,-26,-89,-34,-15,-14
1537915252918784,4,1,6,0,-24,-90,22,-5
1537915252935743,1,9,27,113,73,101,9,-1
1537915252935743,-1,5,12,32,127,7,9,-7
1537915252936736,-8,-7,-14,-61,-104,-10,27,-15
1537915252936736,2,-1,-2,-24,-31,-26,-28,11
1537915252957680,10,2,5,16,-67,-6,5,4
1537915252957680,-2,0,-1,-25,29,-96,-12,8
1537915252959675,-8,3,9,36,38,-8,-14,-19
1537915252959675,1,-5,-9,17,47,32,11,6
1537915252971643,-9,-5,-19,-95,-102,-92,-13,-3
1537915252971643,-7,-4,-2,2,-47,-1,14,-20
1537915252978625,2,8,16,60,99,18,-35,15
1537915252978625,1,-1,-3,-32,-4,-47,1,-19
1537915252995579,-9,-5,-2,34,-14,31,-12,-2
1537915252995579,-10,-1,2,-30,-28,-34,37,-3
1537915252996577,8,3,-1,29,-13,-7,-18,-8
1537915252996577,-11,-1,-4,-40,-36,-1,-3,-11
1537915253017520,8,6,9,73,100,-9,38,24
1537915253017520,-1,-4,-9,-65,-44,-38,-12,3
1537915253019515,-8,-4,-7,-1,-103,50,14,-14
1537915253019515,0,6,5,2,87,25,2,1
1537915253032480,-2,-13,-17,-52,-120,-31,-18,6
1537915253032480,1,0,5,2,-3,22,-26,-11
1537915253038464,4,0,5,14,57,-92,20,13
1537915253038464,-7,-6,-11,-20,-1,13,-3,-7
1537915253055419,0,2,10,48,13,39,0,2
1537915253055419,4,7,10,25,126,-14,-7,0
1537915253056416,-11,-8,-13,-33,-128,17,11,-13
1537915253056416,10,0,1,-8,-12,-29,-10,15
1537915253077360,1,1,2,30,38,34,3,-13
1537915253077360,7,-5,-13,-27,-46,-37,4,24
1537915253079355,-6,-1,0,-41,15,39,-1,-21
1537915253079355,3,1,6,47,-2,-18,-9,-1
1537915253092320,-1,0,1,-25,-31,34,53,-7
1537915253092320,-1,1,4,33,11,38,-15,5
1537915253099302,-2,0,-3,0,85,-9,2,7
1537915253099302,3,2,9,20,-39,32,30,4
1537915253115260,-5,0,0,47,47,-22,-40,-13
1537915253115260,-8,-9,-22,-85,-62,-21,-2,-19
1537915253117254,-1,-3,-5,12,-17,35,12,8
1537915253117254,-3,5,9,35,35,47,7,1
1537915253138198,5,5,8,-13,23,15,-13,0
1537915253138198,-18,-6,-7,14,86,21,26,-21
1537915253139195,4,-6,-9,-50,-39,-9,-23,-6
1537915253139195,5,5,10,50,-26,-26,-10,6
1537915253152160,-3,-3,-6,0,113,-9,3,1
1537915253152160,-14,-4,-7,-34,-98,-3,-2,11
1537915253159142,4,-1,0,-31,-23,10,-29,-17
1537915253159142,-2,-4,-4,-7,-12,-18,32,2
1537915253175099,-1,1,7,14,11,-13,-1,0
1537915253175099,6,4,9,41,25,69,6,2
1537915253177094,-4,-3,-5,26,51,-1,22,1
1537915253177094,-5,-6,-15,-63,-58,51,-35,-6
1537915253198038,-15,-6,-8,-2,-41,-113,12,7
1537915253198038,31,3,0,-26,-26,-2,-26,8
1537915253199035,4,5,16,77,47,18,47,13
1537915253199035,-4,-5,-14,-6,52,2,-18,-7
1537915253212001,-9,-8,-20,-105,-88,14,-2,-8
1537915253212001,-8,2,9,41,-31,-2,-4,-1
1537915253218981,6,4,8,15,28,-20,-2,9
1537915253218981,1,0,0,20,34,-11,-1,3
1537915253234939,7,3,6,18,8,13,-19,0
1537915253234939,-2,0,3,12,17,20,11,4
1537915253236934,-5,-5,-9,-16,-33,13,-7,-6
1537915253236934,-7,-4,-6,-42,-14,0,-6,-5
1537915253257877,7,0,3,13,-25,-4,23,3
1537915253257877,5,3,9,56,37,7,-6,-1
1537915253258875,-4,-2,-4,-26,65,18,-16,1
1537915253258875,-7,-7,-9,-48,-71,-8,-17,-9
1537915253271840,-1,-2,0,-2,-2,30,34,14
1537915253271840,0,0,-1,11,-3,-16,1,-17
1537915253280816,4,2,2,11,15,-13,6,7
1537915253280816,3,0,0,-5,-15,-1,18,0
1537915253294779,1,0,2,7,14,2,-12,-3
1537915253294779,-3,-1,-4,4,-9,-6,2,4
1537915253296774,-4,-1,-4,-12,-12,-17,-15,-5
1537915253296774,-5,-1,-2,-12,-1,10,0,-8
1537915253317718,4,1,8,23,0,7,-16,1
1537915253317718,3,1,2,22,48,-8,-4,5
1537915253319712,-6,-5,-10,-31,-53,-58,-17,-5
1537915253319712,1,-4,-6,-16,-14,18,28,8
1537915253331680,-1,0,-7,-22,-26,-6,-4,-6
1537915253331680,-2,-1,2,1,-1,4,10,-5
1537915253340656,0,1,5,17,20,-6,-7,6
1537915253340656,0,1,6,22,12,-6,-8,2
1537915253355616,-2,0,0,2,2,0,-4,-6
1537915253355616,-3,-2,-1,-7,0,4,-16,-4
1537915253372571,-2,-2,-6,-21,4,8,12,2
1537915253372571,-3,-1,-4,-12,-37,-10,-9,-5
1537915253373569,4,3,2,-1,8,9,9,-3
1537915253373569,2,3,4,4,-7,-3,-9,-3
1537915253376560,-4,-3,7,31,25,2,-23,14
1537915253376560,5,1,4,24,15,16,61,11
1537915253383541,-5,-4,-12,-34,19,-6,-1,-2
1537915253383541,-3,-3,-10,-30,-39,-5,9,1
1537915253392517,4,-17,0,-10,-23,-1,-11,4
1537915253392517,10,16,-1,-5,0,-7,-21,-15
1537915253407477,-1,5,23,48,16,9,-6,1
1537915253407477,0,1,-5,29,36,4,-5,6
1537915253413462,-6,0,-2,-27,-8,11,-2,-16
1537915253413462,-7,-8,-2,24,-1,-11,-30,-7
1537915253430416,2,1,-13,-63,20,5,19,2
1537915253430416,-8,-14,-4,-17,-89,-21,-8,1
1537915253431414,7,4,-4,-6,-11,-6,-23,0
1537915253431414,-1,17,4,-4,4,1,4,7
1537915253444379,-4,-11,7,30,-4,7,31,5
1537915253444379,-4,-2,12,9,38,8,6,-2
1537915253452358,7,4,-7,13,9,11,-5,1
1537915253452358,-6,14,21,-6,0,-11,4,-5
1537915253467318,-6,-4,-16,3,-14,-11,-11,0
1537915253467318,10,-20,-29,-8,15,20,-8,8
1537915253474299,-23,21,4,9,3,10,24,-31
1537915253474299,3,-19,-7,-13,5,3,-32,-3
1537915253490256,-4,8,11,1,-27,-51,-41,-2
1537915253490256,14,-2,17,-8,4,21,42,9
1537915253491254,-9,-16,-2,10,8,-4,46,8
1537915253491254,-10,-30,-24,-10,3,44,44,-13
1537915253504220,-21,-4,4,7,-8,-11,-63,2
1537915253504220,19,16,1,-5,-3,14,20,-5
1537915253513196,15,35,-21,-1,9,-12,-22,9
1537915253513196,-36,2,13,-5,-5,-21,-17,4
1537915253527158,18,-19,-18,-2,-14,-10,11,1
1537915253527158,-10,39,36,12,15,10,38,6
1537915253534139,7,-35,-7,-7,-4,-11,-9,-9
1537915253534139,5,22,-3,-7,-9,-18,-6,12
1537915253550097,-22,-37,-20,2,3,23,-38,-12
1537915253550097,-8,-29,-3,-2,4,-52,-55,-28
1537915253552093,14,14,34,11,1,62,48,23
1537915253552093,-17,-31,-16,-6,4,19,69,3
1537915253564061,17,28,-3,1,-5,-31,-68,-11
1537915253564061,-6,24,3,-1,5,22,31,30
1537915253573036,-17,-31,10,8,3,-5,40,-10
1537915253573036,15,14,-14,-12,-11,-50,-128,-25
1537915253586999,8,1,12,1,-3,50,127,14
1537915253586999,-2,-13,-17,-6,3,-9,-20,-6
1537915253593981,-9,13,2,3,-1,-17,-36,17
1537915253593981,17,-1,9,1,-1,10,7,-24
1537915253609937,-5,10,0,1,-4,-20,-40,15
1537915253609937,13,-3,2,-5,0,38,27,46
1537915253611932,-2,-7,-18,-6,-14,-60,12,-21
1537915253611932,0,-5,4,5,11,64,-12,7
1537915253623899,8,2,-1,-8,-6,24,6,10
1537915253623899,-3,-3,-1,0,2,-27,13,-6
1537915253632875,2,2,2,0,1,-6,-32,0
1537915253632875,1,-5,-7,-4,-2,15,-3,6
1537915253647835,-1,14,2,-2,-9,-7,-6,-19
1537915253647835,-30,-38,-3,0,9,15,-31,-54
1537915253653819,11,8,-1,2,1,-38,-11,-35
1537915253653819,2,11,1,4,6,2,-3,-5
1537915253669776,5,2,7,5,16,-1,9,11
1537915253669776,-22,-4,-7,-8,-16,4,-13,-36
1537915253671771,-3,-10,-7,-12,-15,0,-6,7
1537915253671771,-2,-1,6,6,-3,-8,15,10
1537915253683739,-20,-7,6,12,32,39,-27,-59
1537915253683739,6,7,-9,-9,-13,-52,-37,9
1537915253692715,-4,1,2,-5,-22,37,25,5
1537915253692715,2,0,0,-7,-8,-12,25,28
1537915253706678,-8,7,0,2,-2,-16,-23,-26
1537915253706678,7,-2,2,11,21,13,16,0
1537915253713659,-8,21,2,4,11,11,-3,-10
1537915253713659,3,-10,0,-8,-10,-16,40,12
1537915253729617,-1,3,-5,-7,-9,-9,-12,-3
1537915253729617,3,5,0,2,3,8,-9,-8
1537915253736599,-3,-14,-3,-1,4,0,-14,16
1537915253736599,-7,-6,-1,5,5,-1,-5,-22
1537915253754551,2,1,-2,-3,-7,-26,1,-9
1537915253754551,10,17,11,-1,-6,11,17,3
1537915253755548,-1,-7,-12,1,11,21,-21,-7
1537915253755548,-1,10,10,0,0,-16,-7,-13
1537915253768514,16,-18,-7,-5,-9,-4,27,39
1537915253768514,-11,5,-5,4,11,5,0,-15
1537915253774497,8,-2,2,-2,-1,-32,-16,1
1537915253774497,-9,-12,-6,-12,-21,16,-14,5
1537915253789459,2,6,3,-6,-10,-10,6,-1
1537915253789459,-2,-5,-2,0,-6,-13,21,14
1537915253796439,5,4,5,6,18,40,36,11
1537915253796439,-2,-4,-1,4,2,-26,-19,-13
1537915253804417,0,0,2,-3,-7,11,25,14
1537915253804417,5,-21,-6,1,2,5,-7,22
1537915253812396,-3,21,3,1,-3,-13,-40,-13
1537915253812396,3,7,-1,-1,-2,0,0,-29
1537915253827355,-10,-17,-6,2,1,11,15,1
1537915253827355,3,3,-3,-3,-2,-17,-37,-1
1537915253834336,-12,-14,0,-3,-5,-5,13,-2
1537915253834336,25,9,1,0,6,8,8,14
1537915253849297,5,9,1,-1,0,8,-22,16
1537915253849297,-4,1,-1,0,-1,-19,-12,-14
1537915253856278,-4,-9,-4,-7,-4,-13,20,18
1537915253856278,0,-2,-4,-3,2,-3,-19,6
1537915253864256,-8,-4,1,0,-8,9,-45,-37
1537915253864256,5,1,-1,-2,-9,-2,51,15
1537915253873233,-1,-1,1,5,3,-10,-10,-7
1537915253873233,1,-3,2,0,3,-10,-5,1
1537915253887195,0,-10,-13,-2,-2,-2,11,7
1537915253887195,-1,18,27,0,-2,0,-29,-1
1537915253894177,5,2,-6,-2,-1,5,-8,7
1537915253894177,-11,-10,-3,0,1,-4,14,-9
1537915253909137,-3,-4,7,0,-1,1,11,-13
1537915253909137,7,-10,0,-1,0,-1,10,3
1537915253916118,-3,-14,-16,-3,1,5,4,2
1537915253916118,-16,-10,4,1,-2,-4,-17,6
1537915253933073,2,-6,-6,-5,-3,2,11,9
1537915253933073,10,14,2,2,-2,-10,-9,-6
1537915253934070,-1,1,5,-1,-1,9,-2,-1
1537915253934070,-2,0,-9,0,-1,-1,-6,-14
1537915253947036,2,2,2,-1,-5,-31,17,11
1537915253947036,-2,-3,-8,0,4,26,-24,6
1537915253954017,-5,-3,5,1,2,5,3,5
1537915253954017,3,1,-2,-4,-7,1,11,3
1537915253969974,2,5,4,4,5,-6,-10,6
1537915253969974,0,-5,-8,-4,-3,0,-16,16
1537915253975958,-15,-4,0,-2,0,14,-67,-27
1537915253975958,12,5,3,4,4,35,97,30
1537915253992914,6,4,4,1,2,-32,4,26
1537915253992914,-9,-3,-9,2,7,-25,-2,3
1537915253993912,-1,1,-2,-3,-15,42,-18,-16
1537915253993912,-6,-1,-2,-4,-8,-33,-3,6
1537915254006877,-4,0,-1,-2,-6,6,5,-12
1537915254006877,-6,-2,-3,0,2,13,8,-20
1537915254013858,3,3,3,1,6,-36,10,5
1537915254013858,-3,-5,-3,-1,1,-10,-14,-1
1537915254029815,3,18,0,0,-1,15,-16,-28
1537915254029815,-6,13,-3,0,-1,-9,14,6
1537915254036796,18,-10,-3,-2,0,-5,-4,-2
1537915254036796,6,1,-3,-2,-2,3,-17,2
1537915254052754,1,-4,-2,-2,3,7,-5,0
1537915254052754,-6,-3,-5,-3,-6,-3,-14,-13
1537915254053751,3,10,6,3,-2,6,22,11
1537915254053751,1,-11,-7,-3,2,2,-12,5
1537915254066716,-7,-8,-2,1,1,4,3,-5
1537915254066716,-1,-1,1,-1,-2,-19,-11,-4
1537915254073698,-2,2,2,1,6,18,19,-5
1537915254073698,2,1,3,2,2,-16,-33,0
1537915254089655,2,3,3,-1,-1,20,33,4
1537915254089655,0,-1,-1,1,-1,6,6,2
1537915254096637,-5,-1,0,1,13,-25,-4,3
1537915254096637,1,0,-3,-4,-3,-41,-39,10
1537915254112594,-5,-3,-1,1,12,66,-40,-20
1537915254112594,12,-3,-4,-9,-31,21,88,15
1537915254114588,-5,-4,1,0,-1,-11,0,-7
1537915254114588,-7,-2,1,4,2,-1,8,-13
1537915254127553,-4,-4,-1,0,11,-59,11,15
1537915254127553,6,-2,-2,0,6,66,-24,4
1537915254133538,-3,1,1,1,-1,-19,6,-7
1537915254133538,-14,0,-2,-2,3,28,-17,-23
1537915254149494,6,0,2,2,-6,-10,49,45
1537915254149494,-4,-2,0,0,3,-15,-20,-13
1537915254156475,2,-2,-5,-4,-7,4,12,10
1537915254156475,-13,0,2,3,4,13,-7,-13
1537915254172433,9,-1,-1,0,-8,-13,-5,-22
1537915254172433,7,-1,2,0,2,-29,7,18
1537915254174428,2,-3,-6,2,21,35,-6,7
1537915254174428,5,4,0,-6,-31,-25,-3,-6
1537915254187392,3,-14,4,-4,-12,10,-5,-3
1537915254187392,-32,-6,-18,-8,6,-12,-33,-17
1537915254194375,3,5,2,1,3,-4,11,-9
1537915254194375,-5,-4,-2,-2,2,7,8,8
1537915254209334,0,7,10,-2,-6,-1,-39,-5
1537915254209334,20,14,-18,-2,-5,-24,-19,5
1537915254216315,-23,0,5,-1,-6,6,36,-23
1537915254216315,-11,-1,-15,1,15,14,1,-5
1537915254232273,8,-1,1,-5,-4,-11,-7,-17
1537915254232273,28,22,22,8,6,6,11,32
1537915254234268,-9,-30,-7,-2,-10,-70,-22,-22
1537915254234268,-27,-14,5,1,4,48,-23,44
1537915254254214,14,14,-4,-7,-10,40,24,23
1537915254254214,-17,-9,3,3,9,37,27,-20
1537915254263190,15,19,3,0,-7,-44,-11,4
1537915254263190,16,8,5,2,3,-22,15,0
1537915254278151,-13,-16,-8,-1,-4,-7,10,-6
1537915254278151,-3,-6,-1,0,1,-28,-3,5
1537915254279148,1,4,3,1,1,85,-22,17
1537915254279148,5,-9,-1,3,18,3,37,-22
1537915254300091,-4,9,-8,-4,-3,-3,-61,-5
1537915254300091,2,-2,4,-1,-9,-73,50,13
1537915254302086,-2,-7,-4,-5,-11,-23,-46,-15
1537915254302086,12,8,0,-2,-4,1,39,6
1537915254314054,-8,-1,0,5,6,4,-6,-2
1537915254314054,-13,-12,1,-3,-3,7,-27,-11
1537915254323030,1,-3,-3,-3,-1,4,-8,0
1537915254323030,9,6,0,0,-2,14,-29,-3
1537915254337990,-9,-3,-2,0,-1,-21,21,-2
1537915254337990,-1,-8,-1,-2,-5,-7,-36,-8
1537915254338987,-1,4,0,0,8,43,46,10
1537915254338987,4,5,4,6,16,-31,-3,-13
1537915254359932,-3,-7,-6,-11,-16,12,11,1
1537915254359932,-5,-3,-2,-1,-16,-10,-39,-7
1537915254361926,6,2,-2,-6,-11,-18,-21,-1
1537915254361926,1,-4,-1,-3,-14,11,21,4
1537915254373894,-4,-3,-2,4,10,-19,11,-1
1537915254373894,0,1,1,3,7,15,-9,-12
1537915254382870,2,1,-2,-2,3,5,7,7
1537915254382870,3,-2,-1,1,5,-22,-18,-5
1537915254397830,-4,2,0,2,6,31,3,6
1537915254397830,3,0,-1,-3,-2,-5,-10,-1
1537915254398827,0,1,0,3,4,-6,15,0
1537915254398827,-6,-7,-3,-3,-4,-5,12,-14
1537915254419771,3,3,3,3,2,-9,3,-10
1537915254419771,-3,-2,-1,0,0,10,5,2
1537915254421766,2,3,-1,-1,-2,-1,-4,5
1537915254421766,4,-1,-1,-3,-9,-32,-24,5
1537915254433734,-5,-7,-4,-2,-1,22,34,8
1537915254433734,-3,-2,-3,0,4,15,17,-13
1537915254442710,0,-2,0,3,0,-1,2,12
1537915254442710,1,9,0,1,-2,15,4,-3
1537915254457670,-4,0,-1,4,4,-49,-41,-6
1537915254457670,7,-3,-1,-4,-4,9,23,2
1537915254459665,2,0,1,-3,-2,5,2,9
1537915254459665,-8,-3,-2,-1,-7,-30,-16,-12
1537915254480609,6,-2,2,4,9,27,10,27
1537915254480609,-13,3,0,2,-4,-13,0,-7
1537915254481607,6,3,-2,0,7,10,0,-8
1537915254481607,1,-2,-2,-4,-22,-17,-21,-9
1537915254493574,0,2,0,-4,0,-6,-8,-1
1537915254493574,-7,-9,1,1,2,-11,7,-1
1537915254502550,2,1,0,2,2,-22,2,4
1537915254502550,1,2,-1,0,8,40,-7,-7
1537915254517510,-7,-1,-2,-2,1,-10,-8,-3
1537915254517510,4,-3,0,-1,-3,5,7,8
1537915254519505,-8,-4,-1,-2,-7,-9,-3,-11
1537915254519505,1,-1,-1,-1,4,8,7,6
1537915254540449,10,1,-3,-3,-9,-4,-4,2
1537915254540449,-2,-3,-1,2,12,-9,-10,-8
1537915254541446,-1,-3,-1,0,-3,15,5,-1
1537915254541446,-4,3,0,-3,-10,-39,10,4
1537915254553414,-6,-3,-3,-2,-4,39,-8,-6
1537915254553414,2,2,0,0,4,-16,-24,4
1537915254562390,-1,-4,-1,3,5,7,10,-5
1537915254562390,2,-3,-3,-5,-9,-16,-4,3
1537915254577350,0,3,-2,-1,-3,-16,22,0
1537915254577350,0,1,-1,-1,2,29,17,-12
1537915254579345,1,0,-1,0,-3,-3,0,13
1537915254579345,6,-1,0,1,9,-1,-3,9
1537915254600289,-15,-2,-2,-2,-3,1,-8,-15
1537915254600289,1,-5,-1,-3,-1,-3,-6,7
1537915254601286,-4,1,1,1,-1,9,-9,-7
1537915254601286,4,3,1,1,1,14,5,7
1537915254614252,-1,-2,0,2,0,-9,5,-3
1537915254614252,-7,1,-1,1,-1,5,19,0
1537915254623228,2,-2,-1,-1,-1,-8,-6,-4
1537915254623228,0,-1,-2,-1,1,11,0,4
1537915254638187,-1,1,-1,-1,-2,-21,-22,-8
1537915254638187,1,0,-2,-2,3,13,28,14
1537915254639185,-1,-5,-3,-3,-4,-16,-51,-9
1537915254639185,-5,2,-1,1,-1,16,24,-3
1537915254660129,3,-2,2,-2,1,-23,-13,4
1537915254660129,-1,1,0,-3,-4,-2,12,-2
1537915254662124,1,-1,-1,-1,1,15,10,1
1537915254662124,1,-1,-1,-2,1,-8,-15,7
1537915254683068,4,-1,-2,-1,3,26,26,4
1537915254683068,0,0,-1,-1,-7,-23,-47,-10
1537915254684065,-6,-2,-2,-2,-5,16,40,0
1537915254684065,-5,-2,-1,0,4,-3,-15,-5
1537915254698028,3,1,1,3,5,-17,-2,3
1537915254698028,-5,-3,-3,-7,-10,-13,-18,-16
1537915254699025,-2,0,1,6,6,39,32,7
1537915254699025,0,-3,-2,-2,-1,4,-15,-12
1537915254719969,-1,-1,0,0,3,4,5,-4
1537915254719969,4,2,1,1,2,-5,3,9
1537915254721964,-5,-2,-2,-5,-7,-19,-26,-3
1537915254721964,4,0,0,0,1,0,16,8
1537915254742908,-1,-1,-1,-1,-3,-5,2,1
1537915254742908,-4,0,0,-1,2,9,12,-4
1537915254743905,-2,-3,-3,-2,-5,-23,-12,-5
1537915254743905,0,-1,1,1,2,21,-5,3
1537915254757868,0,1,-1,1,5,-12,1,-6
1537915254757868,-4,0,0,0,-16,-2,8,5
1537915254758865,3,0,-1,-1,4,0,6,-4
1537915254758865,2,-5,-2,1,-3,-1,-13,-3
1537915254779809,-2,-1,0,-2,-6,-20,3,2
1537915254779809,-16,-2,-3,-2,4,25,-7,-16
1537915254781804,10,2,-1,-2,-2,35,-4,-1
1537915254781804,-4,1,0,1,1,-41,17,-6
1537915254802748,2,-7,-1,0,2,29,-3,-5
1537915254802748,-1,4,-2,1,1,-10,-2,8
1537915254803745,-2,1,-1,-2,-6,-28,7,-4
1537915254803745,-3,-2,-2,-3,-4,-15,-8,-10
1537915254816711,-4,-1,-3,-4,-11,-38,-3,-3
1537915254816711,14,-1,-2,1,6,44,-20,-11
1537915254823691,-6,1,0,0,1,-10,7,0
1537915254823691,0,-1,1,-1,-1,8,-2,6
1537915254840646,2,-3,-1,-1,-3,-17,-21,-10
1537915254840646,-6,-5,0,0,-1,1,10,1
1537915254841644,8,6,-1,0,3,-6,-7,11
1537915254841644,-3,-1,0,0,-1,1,-18,-5
1537915254862588,2,-1,-2,-2,-9,4,-37,10
1537915254862588,0,0,7,1,4,11,90,6
1537915254864582,-3,-3,-2,-2,-3,-10,-11,21
1537915254864582,-2,0,-1,1,-1,12,17,1
1537915254877547,-5,-1,3,-1,-1,5,-22,1
1537915254877547,8,3,-11,-3,-3,-15,-22,-15
1537915254883532,-22,-25,-6,-5,-3,-8,-11,-28
1537915254883532,23,15,7,4,1,11,30,27
1537915254900487,-4,-8,-27,-10,-2,10,-5,-7
1537915254900487,-5,7,10,1,-1,-10,-12,3
1537915254901484,-11,-10,3,1,-3,1,-4,-24
1537915254901484,7,-3,-2,-4,-7,-47,-10,1
1537915254922429,-3,5,7,6,12,76,5,-9
1537915254922429,2,-4,-7,-4,-1,13,-3,13
1537915254924425,6,7,1,-1,-5,-43,9,2
1537915254924425,-3,-3,1,3,13,54,-20,2
1537915254936390,-1,0,2,-4,-16,-15,29,13
1537915254936390,3,-1,0,6,12,-32,-61,2
1537915254944369,2,4,0,-1,-2,44,-19,9
1537915254944369,-14,-5,-4,-5,-6,-62,36,-8
1537915254959329,2,-2,1,3,7,38,-6,10
1537915254959329,1,-3,-1,-1,-3,4,-38,-9
1537915254960326,-2,3,-2,-2,0,-22,50,-3
1537915254960326,-9,-4,-5,-2,9,34,-35,-14
1537915254982268,1,-1,-1,-6,-34,-38,42,-7
1537915254982268,1,-6,0,-1,-8,-33,19,19
1537915254983265,-4,10,2,3,3,10,-27,-3
1537915254983265,-6,-3,-2,-2,7,10,-12,1
1537915254996231,15,2,2,1,10,-19,6,13
1537915254996231,-5,-1,2,1,0,22,-10,-8
1537915255004210,2,-3,-4,-2,0,-8,1,5
1537915255004210,-9,-5,0,-1,-3,16,10,10
1537915255019171,6,17,7,3,6,-5,-8,-16
1537915255019171,-2,-11,-13,-7,-7,-11,-7,-3
1537915255020169,-1,1,-2,0,2,9,-3,-4
1537915255020169,1,0,-2,-2,-7,-10,5,3
1537915255042109,-7,3,5,0,2,-2,-7,-5
1537915255042109,-1,-5,0,-2,1,1,-5,-12
1537915255043106,-3,-1,-2,-2,-3,-3,13,13
1537915255043106,-5,4,-3,-2,-6,3,-20,-17
1537915255056071,-8,-5,-3,0,0,-32,17,10
1537915255056071,-3,5,2,2,8,56,27,-10
1537915255065047,3,-1,0,2,3,11,-36,4
1537915255065047,3,-1,-1,-1,-3,-4,-3,0
1537915255080007,-4,-6,-2,0,0,-61,-5,0
1537915255080007,0,1,0,2,7,51,5,2
1537915255080007,2,0,-1,-1,-3,-3,16,-1
1537915255080007,0,-1,-1,-2,-4,8,4,-2
1537915255102945,-4,-1,-2,1,1,-4,10,-9
1537915255102945,-5,-3,0,-2,-5,-48,-11,1
1537915255103943,5,-3,-1,-1,0,34,5,-3
1537915255103943,1,-1,1,0,0,-7,0,-1
1537915255115910,-3,-5,-3,0,2,21,3,-7
1537915255115910,-4,3,2,1,-5,-14,5,3
1537915255124887,0,0,-1,-3,-1,-9,-4,3
1537915255124887,0,-2,-4,-1,-6,-26,13,0
1537915255139847,-2,-3,-1,1,5,38,-13,0
1537915255139847,5,-1,-1,1,4,-24,-23,-3
1537915255139847,-5,6,1,2,1,0,-3,-24
1537915255139847,4,1,-2,-3,0,12,0,21
1537915255161789,-3,-4,-3,-3,-4,7,3,-18
1537915255161789,0,-3,-2,-1,-7,-25,-7,3
1537915255162786,2,-8,-3,-3,-5,-16,-2,12
1537915255162786,-5,-5,1,0,-2,5,-3,-11
1537915255177746,-4,4,-1,1,2,6,-4,0
1537915255177746,3,3,-2,-3,-4,-1,6,3
1537915255184727,2,4,3,0,1,-8,2,10
1537915255184727,3,3,5,3,0,11,5,-3
1537915255199687,-3,-8,-4,-7,-2,-2,-3,4
1537915255199687,-7,-5,-1,2,-1,1,4,1
1537915255200684,-1,-1,-4,-1,-2,-8,1,-8
1537915255200684,0,-1,1,-4,-7,-64,-10,4
1537915255222625,1,-1,1,4,15,94,3,-9
1537915255222625,-4,0,-3,-6,-6,-28,-8,-4
1537915255223623,0,3,2,1,-1,8,7,-4
1537915255223623,-3,-10,-6,-2,-3,7,13,5
1537915255236588,7,0,-1,-4,-10,-76,-32,4
1537915255236588,-1,1,3,6,17,83,10,-6
1537915255244567,3,0,-1,0,0,-25,-10,8
1537915255244567,0,0,-3,-1,-2,-10,-1,-4
1537915255259527,-7,-3,-2,-4,-11,-36,28,3
1537915255259527,0,1,0,-5,-14,-25,7,-15
1537915255260524,3,-2,2,7,22,67,-12,2
1537915255260524,-4,-1,-1,-1,2,5,-6,-8
1537915255282465,4,2,1,0,-5,0,-7,-7
1537915255282465,-2,-3,-3,-2,-5,-27,-27,1
1537915255282465,-16,-13,-5,-5,-7,-14,1,-7
1537915255282465,3,-6,-3,-5,-2,25,4,-1
1537915255296428,4,11,1,1,0,-17,-28,-4
1537915255296428,4,4,-1,0,4,33,68,22
1537915255304407,-3,-2,-1,-1,-6,-15,21,-16
1537915255304407,-3,0,0,1,4,19,7,2
1537915255319366,1,-4,0,-1,-3,-28,-44,4
1537915255319366,-2,-3,-1,1,-7,-28,-62,-11
1537915255320364,5,3,0,-1,4,13,70,20
1537915255320364,-4,-1,0,0,-3,-15,-20,-14
1537915255342305,-1,-2,-2,0,1,8,-21,-5
1537915255342305,2,-2,1,1,0,13,56,22
1537915255342305,-1,-3,-2,-2,-7,-18,-42,4
1537915255342305,0,1,0,3,11,0,22,-8
1537915255356268,-5,-4,-2,0,-5,1,-25,2
1537915255356268,-4,1,-1,-3,-2,-7,-50,-11
1537915255364248,-2,-1,-3,-4,-2,-11,34,-8
1537915255364248,8,1,0,0,-3,29,42,14
1537915255379207,-7,1,3,3,7,-6,-17,-12
1537915255379207,-7,-1,-2,-3,-1,9,9,-15
1537915255380204,9,1,-1,-2,-5,-28,-27,9
1537915255380204,-3,2,0,-1,0,-11,-43,-5
1537915255402146,0,4,0,1,2,16,55,1
1537915255402146,-4,-11,-2,0,-2,-7,11,-7
1537915255403143,-3,-4,-2,-1,-1,-3,-27,-4
1537915255403143,-1,0,0,0,-1,3,7,-4
1537915255416108,0,0,-2,-3,-2,-2,1,4
1537915255416108,6,4,0,-1,0,-10,-5,7
1537915255425084,0,2,1,0,1,-1,-6,-4
1537915255425084,-2,-1,-2,0,-7,-15,-6,-1
1537915255439046,2,-4,-1,1,4,-5,11,2
1537915255439046,6,1,-2,0,7,9,0,4
1537915255440044,-6,-2,-1,-1,-5,0,-5,-5
1537915255440044,-2,1,0,0,3,-1,17,-1
1537915255461986,-3,-3,0,0,-1,-8,14,5
1537915255461986,0,1,-1,1,6,-11,-9,-4
1537915255462983,-4,-1,-2,-4,-13,13,1,3
1537915255462983,4,-2,-3,-4,-12,-16,-33,-17
1537915255475948,6,1,-1,1,3,14,12,18
1537915255475948,7,1,0,-1,3,-17,4,1
1537915255484924,0,-2,0,0,-2,-7,-4,-3
1537915255484924,-10,-3,-1,1,3,7,-6,-7
1537915255499884,-5,2,0,-1,-1,11,-4,-7
1537915255499884,-7,-1,1,2,-3,4,10,-10
1537915255499884,3,1,0,2,5,-9,-8,0
1537915255499884,5,-4,-2,-4,-4,11,15,11
1537915255521826,0,-2,0,-1,-7,-2,2,4
1537915255521826,-5,0,-1,-4,-6,-12,-10,-2
1537915255522824,-5,-1,-2,0,1,-18,-9,-6
1537915255522824,-4,-2,-1,3,8,29,-4,-8
1537915255536787,14,-8,-4,-2,-3,-2,-1,12
1537915255536787,7,11,0,-2,-8,-1,-5,4
1537915255544766,-5,-1,0,-1,0,-17,9,7
1537915255544766,1,-2,-1,-4,-4,-3,-12,-10
1537915255559725,-6,3,2,0,-1,6,5,-5
1537915255559725,-3,-3,-2,-2,-3,-22,0,-2
1537915255560723,2,-2,0,0,3,20,-10,-1
1537915255560723,-8,0,0,2,6,0,-2,-11
1537915255581667,0,-2,-1,-3,-4,0,-10,-3
1537915255581667,4,-1,-1,-1,-5,3,22,14
1537915255582665,0,0,-2,-2,-2,-8,-1,-4
1537915255582665,-1,1,0,-1,-3,1,-3,5
1537915255605603,-1,0,-1,-1,1,-4,15,2
1537915255605603,-1,-4,-3,-5,-6,1,-15,4
1537915255605603,-1,0,0,1,5,8,12,-6
1537915255605603,-6,0,-1,0,-1,-5,0,4
1537915255619565,-2,-1,-1,1,6,9,0,-7
1537915255619565,1,0,0,0,-3,-2,-3,5
1537915255620564,10,-5,-5,-5,-4,3,-2,12
1537915255620564,1,4,2,1,1,-3,5,-4
1537915255642503,-2,0,1,2,2,-3,1,5
1537915255642503,-7,-1,-1,1,3,6,5,-6
1537915255642503,-1,2,0,-1,-3,3,4,-3
1537915255642503,4,-6,-5,-5,-6,-9,-10,3
1537915255665443,-5,-4,-3,-2,0,-6,-20,-6
1537915255665443,1,-3,-2,-2,2,11,15,13
1537915255666439,-2,-1,2,0,-1,-10,-12,-10
1537915255666439,-1,-1,-1,-2,-5,-4,4,2
1537915255679405,2,-3,2,0,-3,14,14,3
1537915255679405,-9,-3,-1,0,3,-11,-9,-6
1537915255680402,3,3,0,0,-1,2,-4,-5
1537915255680402,3,2,0,0,1,0,2,4
1537915255702343,0,-1,-3,-3,-4,-3,0,-7
1537915255702343,-3,-1,-1,0,-1,-5,-10,-7
1537915255702343,1,-1,-1,-1,-1,19,14,4
1537915255702343,-7,-2,0,-1,-2,-10,-11,0
1537915255725281,0,-2,-2,-1,2,-2,-1,-7
1537915255725281,12,0,-4,-4,-6,-3,17,5
1537915255726279,-3,-2,0,0,1,-6,-12,-6
1537915255726279,-8,0,-1,3,2,22,1,11
1537915255739244,-2,0,0,0,1,-3,1,-9
1537915255739244,0,-1,0,0,-1,-8,0,3
1537915255740242,-6,-3,-1,-2,-4,-15,-1,-5
1537915255740242,1,1,-1,-3,-3,6,1,-6
1537915255762183,-4,-2,-2,-2,-3,-1,6,0
1537915255762183,7,-2,0,1,0,11,-11,1
1537915255763180,-4,1,0,2,2,-8,0,0
1537915255763180,5,0,-1,-1,0,-3,4,16
1537915255785122,-2,-4,-1,-2,-1,-3,-5,4
1537915255785122,-3,1,0,0,3,10,-6,-9
1537915255786119,-1,2,0,-2,1,10,-10,2
1537915255786119,1,-1,-1,0,-2,-12,-4,-7
1537915255799084,-7,2,0,0,1,-1,4,-3
1537915255799084,1,-1,0,2,6,23,4,4
1537915255800082,-6,-4,-3,-3,-12,-13,3,-8
1537915255800082,17,-1,-2,-1,1,3,-3,2
1537915255822023,4,0,-1,-1,-7,-10,-2,17
1537915255822023,-4,0,0,-1,0,-8,-13,-10
1537915255823020,-4,2,-1,1,0,5,4,7
1537915255823020,-12,-3,0,0,-2,-9,12,-1
1537915255844962,2,-2,-2,-2,0,7,1,-2
1537915255844962,2,2,-2,-3,-3,-5,-8,-7
1537915255845959,-1,0,0,-1,1,3,7,3
1537915255845959,-2,-3,-2,0,0,-2,-1,3
1537915255867901,1,-2,0,0,3,3,-6,-8
1537915255867901,-14,-1,-1,-1,-1,-4,0,-3
1537915255868898,10,-6,-2,0,1,-2,-2,0
1537915255868898,3,7,2,0,1,-5,1,-5
1537915255881863,-8,-1,-1,-2,-2,9,-10,-2
1537915255881863,5,-3,-1,0,0,-9,-3,-3
1537915255882861,7,-2,-2,-2,0,-15,-4,7
1537915255882861,4,-3,-2,-3,-10,-16,-13,0
1537915255904802,-5,0,0,3,3,47,18,-1
1537915255904802,-6,-1,-1,-1,-3,-16,9,-1
1537915255905799,-3,1,1,-1,1,20,-3,-5
1537915255905799,1,-1,0,1,4,-4,-5,3
1537915255919762,-3,0,1,0,-7,-27,-2,-1
1537915255919762,3,-1,-1,-2,0,11,-13,-1
1537915255919762,1,2,0,0,2,-10,9,-4
1537915255919762,-5,-2,-1,0,2,4,3,-4
1537915255941703,-6,0,-1,-1,-2,1,4,-3
1537915255941703,5,0,-1,1,1,-2,-6,-12
1537915255942700,-4,-2,-1,-3,-5,-4,-6,1
1537915255942700,8,-1,-2,-3,0,2,-5,2
1537915255965639,1,0,-2,-1,-3,2,2,1
1537915255965639,-9,-2,-1,-1,-5,-10,-1,3
1537915255965639,-1,-1,-1,-1,3,0,6,-2
1537915255965639,-8,-2,0,1,-4,5,-8,-6
1537915255979602,3,-1,-3,0,4,-6,4,2
1537915255979602,5,-3,-3,-1,-2,-21,6,1
1537915255980599,-3,5,2,0,4,17,5,2
1537915255980599,-1,1,-2,-4,-15,-23,-10,-1
1537915256001543,2,-2,1,0,-4,13,-17,-6
1537915256001543,-3,0,1,2,5,23,12,6
1537915256002540,0,-3,-3,-3,-6,-14,4,-7
1537915256002540,-8,-5,2,0,8,2,-4,-5
1537915256025479,10,5,-2,-3,-4,-19,-8,-1
1537915256025479,-4,-1,-1,-1,-4,-3,-5,3
1537915256025479,-4,-2,-1,1,5,9,-2,-11
1537915256025479,-1,-2,-2,0,0,-7,5,-1
1537915256039442,-18,-5,-1,1,3,3,1,-6
1537915256039442,8,6,2,0,-1,-16,-5,1
1537915256040439,-1,-2,-1,0,-2,2,-19,0
1537915256040439,-4,-1,-1,1,3,7,25,1
1537915256062381,7,-2,-3,-3,-5,-24,-5,0
1537915256062381,3,-3,0,-2,-3,29,4,1
1537915256062381,-1,-3,-2,-4,-7,-21,-15,2
1537915256062381,1,1,-1,0,-2,7,20,2
1537915256085319,-1,2,2,2,-2,-4,-6,0
1537915256085319,-2,-3,-1,1,1,-15,-6,-4
1537915256086317,1,-1,-2,-1,2,32,-9,6
1537915256086317,0,-2,-1,-1,-2,3,2,1
1537915256099282,-2,-4,-2,-1,5,-29,12,2
1537915256099282,4,5,-3,-6,-10,47,-10,-4
1537915256100279,-22,-3,0,1,3,-11,12,-11
1537915256100279,25,7,-1,0,7,3,-10,-2
1537915256122220,-16,-5,0,1,2,22,-3,-1
1537915256122220,-8,0,0,0,-3,-23,0,1
1537915256123218,4,-2,-1,1,1,-1,-1,0
1537915256123218,-3,-2,0,1,4,-6,7,14
1537915256145159,6,0,0,-2,-2,9,-16,-4
1537915256145159,-1,-4,-3,-2,-4,5,4,0
1537915256146156,-1,-4,-5,-2,-6,-9,8,2
1537915256146156,-7,7,2,3,8,-2,-17,-8
1537915256159122,5,3,0,0,1,4,12,-11
1537915256159122,1,-3,1,3,1,-21,5,22
1537915256167101,3,0,0,0,2,-2,-16,12
1537915256167101,-10,-4,-1,-3,-5,17,10,-10
1537915256183058,3,1,-1,-1,-3,-2,1,11
1537915256183058,7,0,-1,-2,1,-6,-7,-18
1537915256183058,-5,-2,-1,0,-5,-13,9,-5
1537915256183058,3,-2,-1,-3,-3,0,-12,2
1537915256204999,-1,1,0,-1,-2,19,-7,0
1537915256204999,-6,-4,-1,0,7,-11,2,-2
1537915256205996,1,0,-1,0,-7,2,-5,1
1537915256205996,-3,-1,-1,0,-4,-3,-3,1
1537915256218962,1,0,-1,0,-1,-15,-2,-5
1537915256218962,-4,-1,-2,0,-2,9,9,1
1537915256226940,1,1,1,1,0,-3,14,-6
1537915256226940,-2,-3,-3,-4,-4,0,-20,-2
1537915256242898,-2,-1,-2,-3,-2,-31,-16,-4
1537915256242898,9,0,-1,-4,2,52,-6,18
1537915256243895,2,1,1,2,7,-14,29,5
1537915256243895,-4,-2,-1,-1,-4,19,13,-1
1537915256264839,1,1,3,4,9,-14,-24,3
1537915256264839,-3,-2,-3,-4,-15,-6,37,-10
1537915256265837,1,-4,-4,-4,-10,-12,-29,15
1537915256265837,-2,7,-1,0,-5,20,28,6
1537915256278802,-4,-1,-2,-2,-1,-11,-13,-19
1537915256278802,-3,2,2,2,4,14,5,6
1537915256286781,-1,-2,-2,2,5,-8,-12,-6
1537915256286781,-6,-6,0,0,2,-13,3,-2
1537915256302738,1,-4,-1,-5,-7,29,28,11
1537915256302738,-10,3,1,3,9,-32,-33,4
1537915256303735,11,-1,1,0,-5,3,7,-6
1537915256303735,0,4,-1,-1,1,7,15,-14
1537915256325676,6,-7,-4,-2,-7,-10,26,10
1537915256325676,-3,4,2,0,4,-1,-19,2
1537915256325676,-12,1,1,0,4,3,-2,-10
1537915256325676,0,-7,-4,-7,-23,-90,-24,0
1537915256347618,-16,-5,-1,0,14,98,-10,-14
1537915256347618,3,-3,-2,-3,-17,-60,-24,-16
1537915256348616,13,1,-1,-2,2,36,-15,6
1537915256348616,-3,4,1,1,6,9,29,-6
1537915256362578,2,-1,-1,-1,-5,-22,20,14
1537915256362578,-4,-7,-4,-2,5,5,-15,-10
1537915256363575,-4,8,4,3,5,1,-2,-12
1537915256363575,-8,-3,-3,-1,-4,-2,-57,-5
1537915256384519,16,-1,1,0,0,-18,34,6
1537915256384519,-10,-2,1,1,5,33,20,-2
1537915256392498,21,0,0,-2,-8,-17,9,17
1537915256392498,-2,-2,-2,-3,-3,-7,-36,-1
1537915256398482,-11,-2,-2,-1,-3,-12,-3,-15
1537915256398482,17,-1,-4,-2,-1,11,23,37
1537915256407458,-7,-7,0,-2,-2,-1,6,-24
1537915256407458,-8,-2,1,1,3,2,-31,-9
1537915256422418,7,2,-1,2,0,-10,4,-1
1537915256422418,1,2,0,0,-3,-25,4,4
1537915256423415,-6,-7,-2,-3,-4,6,10,-7
1537915256423415,1,8,1,2,11,30,27,5
1537915256445357,-1,-2,-3,-3,-8,10,13,25
1537915256445357,-1,0,1,0,1,-6,-23,-2
1537915256446354,-5,-5,-5,-5,-7,-19,-51,-29
1537915256446354,17,-3,0,-1,-2,4,33,20
1537915256459320,3,3,2,1,1,-9,3,-3
1537915256459320,-10,-4,-2,-2,-2,-2,-2,-9
1537915256467298,2,-6,-9,-2,9,15,19,8
1537915256467298,-3,-17,-3,-1,1,-11,-31,-12
1537915256482259,-3,39,14,1,-3,1,-5,-1
1537915256482259,-8,-2,2,-1,-2,8,3,16
1537915256483256,-8,4,2,2,0,-6,21,-7
1537915256483256,-5,-5,-4,0,-1,28,-8,-6
1537915256505196,3,-15,-6,-2,2,-14,-9,8
1537915256505196,-10,-2,-2,0,6,13,-13,-25
1537915256506194,-2,8,3,3,4,1,20,31
1537915256506194,5,-4,-2,-5,-20,-26,13,-2
1537915256528135,0,-7,-2,0,2,-14,-22,-2
1537915256528135,-10,2,-1,-4,-3,-10,3,-40
1537915256529133,9,-4,-3,-3,2,30,6,38
1537915256529133,6,5,2,3,7,-16,-9,-10
1537915256541101,-6,-3,-1,-3,-3,5,-16,-6
1537915256541101,2,-1,-4,-4,-3,5,31,2
1537915256550077,-3,3,7,1,-7,-23,26,-3
1537915256550077,-5,14,19,1,7,26,5,3
1537915256565037,3,-15,9,4,3,-4,-34,-2
1537915256565037,5,-1,-14,0,-3,-3,-36,-6
1537915256567031,0,-9,14,2,3,2,48,2
1537915256567031,-28,-15,-33,-2,-1,-10,7,-4
1537915256587976,8,10,-2,-2,-1,0,-13,-2
1537915256587976,8,16,34,-2,-2,4,3,5
1537915256588973,-7,-18,-25,-2,-7,-21,-34,-8
1537915256588973,1,19,34,2,0,23,40,7
1537915256602936,-9,-21,-27,-2,2,16,-16,-9
1537915256602936,-4,-5,-20,-2,-1,-7,-1,-2
1537915256609917,-1,16,15,3,9,1,-25,-3
1537915256609917,8,-9,-2,-8,-15,-20,27,0
1537915256624877,-2,6,3,-3,-4,34,4,-6
1537915256624877,6,-7,14,3,1,-22,1,-3
1537915256626871,-1,-3,-5,-4,-7,9,22,6
1537915256626871,-7,-4,-5,1,6,-21,-16,-18
1537915256647815,10,3,3,-6,-20,-16,32,41
1537915256647815,12,2,-9,1,-2,4,7,0
1537915256648813,1,2,-1,-1,1,27,4,-8
1537915256648813,-3,-4,-9,0,4,-3,-41,2
1537915256661779,-7,-3,-2,-3,-4,-35,25,-10
1537915256661779,-14,-1,1,3,10,49,-15,-5
1537915256668759,2,2,-2,0,-1,-15,-58,-11
1537915256668759,-9,-4,0,1,10,19,11,11
1537915256684717,-13,-11,-8,-8,-5,-37,-32,-47
1537915256684717,14,3,4,5,-5,0,9,32
1537915256686712,15,14,5,0,-5,-6,0,-19
1537915256686712,-6,-15,-11,-3,10,12,-38,-26
1537915256707655,3,9,6,-1,-26,-33,23,22
1537915256707655,-26,-12,-11,-10,-15,-37,-27,-21
1537915256709650,26,-5,1,3,6,28,37,22
1537915256709650,3,1,-2,-1,-6,-61,-7,-14
1537915256721618,-4,-3,-2,8,30,91,-5,48
1537915256721618,20,6,2,0,3,17,2,-22
1537915256728599,-23,-5,-1,-4,-11,-25,-38,-6
1537915256728599,-2,17,7,1,3,14,15,13
1537915256745554,15,-11,-2,0,5,-16,-6,-17
1537915256745554,-9,-2,-4,-2,-5,21,15,-2
1537915256746552,-2,-6,-4,-1,3,-16,-37,8
1537915256746552,2,-3,-5,-1,-7,3,18,9
1537915256767496,1,-4,5,2,1,8,-18,-7
1537915256767496,-13,10,-2,2,3,-6,2,-1
1537915256769490,12,-2,-1,-5,-5,14,18,-5
1537915256769490,12,7,0,0,-4,-8,3,18
1537915256782456,2,0,1,1,5,-14,-10,-7
1537915256782456,0,-2,0,-3,0,6,36,5
1537915256788440,-21,-7,-6,-2,-10,-56,-9,-25
1537915256788440,2,0,4,1,4,48,-1,7
1537915256805394,-5,-2,0,0,1,25,21,-11
1537915256805394,1,-4,1,2,6,-22,-35,3
1537915256806392,-11,-1,-5,-3,-12,-8,-12,12
1537915256806392,2,4,-2,-4,-3,11,6,-9
1537915256827335,-12,1,-2,0,0,-31,11,-15
1537915256827335,-7,-7,-3,3,5,-5,-33,-11
1537915256829330,-11,9,-1,0,-13,-3,24,6
1537915256829330,15,-4,5,2,3,11,37,10
1537915256842296,-5,0,-5,-5,-4,5,-9,-15
1537915256842296,10,2,3,4,5,10,28,-7
1537915256849277,1,-7,-3,-1,11,10,-23,1
1537915256849277,-13,2,2,0,-7,-29,-34,-6
1537915256865235,6,7,1,1,0,-33,1,28
1537915256865235,2,6,5,-2,2,11,36,-3
1537915256866232,-8,-19,-10,2,2,51,17,0
1537915256866232,9,-4,-4,-4,-7,-7,-2,-4
1537915256887176,4,4,1,-1,1,-1,2,1
1537915256887176,10,-4,-4,-2,-5,-41,-15,14
1537915256889170,-3,1,5,-3,1,31,7,1
1537915256889170,-12,-2,-5,-2,-6,-29,11,4
1537915256902136,-6,-2,-7,0,-5,18,-36,-12
1537915256902136,-15,0,9,0,-6,-31,18,1
1537915256909117,4,-1,-7,0,6,31,1,-23
1537915256909117,-3,-8,-5,0,0,0,-16,16
1537915256925074,4,2,-2,-4,-7,-34,-10,-18
1537915256925074,16,-3,-4,0,-1,48,34,21
1537915256927069,-10,2,5,5,11,-17,6,-1
1537915256927069,-24,2,-3,-4,-10,-3,-37,-12
1537915256948013,27,4,2,1,6,19,30,22
1537915256948013,-4,-10,-9,-5,-3,-4,-11,-5
1537915256949011,6,-9,-3,-9,-23,-26,-25,-5
1537915256949011,0,8,4,4,8,28,12,12
1537915256961976,-9,-4,0,-1,4,8,-3,-14
1537915256961976,0,-4,-5,-4,-5,-57,-44,-11
1537915256975938,-11,5,4,5,10,37,42,0
1537915256975938,11,-4,-3,-2,-7,8,-11,-13
1537915256984914,0,2,-1,-1,-3,-14,4,12
1537915256984914,-14,-4,-3,1,4,44,1,-15
1537915256986909,14,9,-1,0,-1,-39,-18,9
1537915256986909,3,-14,-1,-5,-5,-7,12,6
1537915257007853,-5,-4,4,3,4,19,23,-17
1537915257007853,4,14,-9,-3,-4,-15,-19,11
1537915257008850,-5,2,0,-2,0,-25,-13,-6
1537915257008850,1,2,2,2,5,28,-9,-9
1537915257021815,-3,-12,0,10,3,19,42,-3
1537915257021815,-7,-9,-17,-16,-5,-18,-15,11
1537915257029794,6,3,-1,-1,6,38,26,9
1537915257029794,9,-2,-6,-1,1,-9,-40,-4
1537915257044754,-1,10,8,-2,-4,-21,15,10
1537915257044754,-1,-8,2,4,-2,19,-26,-19
1537915257046749,6,3,1,1,7,-19,12,23
1537915257046749,-21,5,1,-4,-9,-7,14,-16
1537915257067693,13,2,-2,-2,-2,-3,-21,4
1537915257067693,20,-4,2,1,-1,20,17,13
1537915257068691,-5,7,3,-3,-2,-18,-30,-10
1537915257068691,-5,-8,-4,1,3,4,12,-1
1537915257081656,-15,4,-2,-2,0,-8,-33,-3
1537915257081656,-3,-3,-1,-1,-3,0,43,5
1537915257090632,4,-7,-1,1,-3,-10,-1,1
1537915257090632,5,1,-7,-2,2,2,18,-2
1537915257105592,-1,0,-5,-1,1,-2,-21,3
1537915257105592,-8,0,4,2,-2,6,5,6
1537915257106589,-7,-5,-3,0,-6,-21,-34,-10
1537915257106589,-4,-1,-1,0,2,21,38,-2
1537915257127533,-14,3,-6,-6,-6,-13,4,-4
1537915257127533,6,3,3,-1,4,-22,-12,-5
1537915257129528,9,2,0,1,-3,32,-5,13
1537915257129528,3,-4,1,2,8,0,-11,-1
1537915257141496,-15,-12,-6,-9,-15,-12,0,-17
1537915257141496,-1,10,7,6,7,27,1,-4
1537915257150472,1,0,-5,-4,-3,8,12,-18
1537915257150472,0,-9,1,-1,-14,-47,-30,11
1537915257165432,-6,5,-3,-5,1,26,23,-1
1537915257165432,-4,-3,3,1,-3,-15,-6,-7
1537915257166429,0,9,-1,-3,0,6,-7,-8
1537915257166429,-16,1,-1,2,1,-23,-11,0
1537915257187373,5,-2,4,2,4,15,-8,-8
1537915257187373,12,-7,-8,-5,-10,-34,-19,2
1537915257189368,-9,-2,11,3,5,25,12,-3
1537915257189368,15,1,2,0,0,10,9,14
1537915257201336,-14,-2,2,-1,-5,-15,15,-3
1537915257201336,16,3,1,2,12,32,0,9
1537915257210312,-1,-2,-3,-1,-2,-32,-17,6
1537915257210312,7,-3,-2,-1,2,30,42,-4
1537915257225272,5,1,-1,-2,-1,-1,-4,18
1537915257225272,-14,-8,-4,-3,-8,-2,-1,-12
1537915257226269,9,17,6,2,0,-27,-13,3
1537915257226269,-4,2,1,1,-1,-11,28,-3
1537915257247213,13,0,2,2,4,16,-13,-8
1537915257247213,-19,-6,-5,-4,-6,-10,-6,-10
1537915257249208,0,-11,-6,-2,1,12,1,-2
1537915257249208,6,-1,3,0,3,-22,-36,-1
1537915257261176,-9,-2,-2,-3,-1,-3,43,22
1537915257261176,-2,-7,1,1,-1,2,-3,-30
1537915257270152,-7,7,5,1,4,3,13,5
1537915257270152,24,4,-4,-5,-13,-6,-34,-1
1537915257285112,-2,-3,2,7,4,-39,-36,3
1537915257285112,8,1,0,-1,7,81,19,8
1537915257287107,0,-3,-5,-5,-8,-9,10,-15
1537915257287107,-7,-3,-10,-3,-3,-5,-13,-9
1537915257308050,-4,0,8,0,-1,26,6,-15
1537915257308050,6,0,2,4,1,-36,0,10
1537915257309048,-10,-6,1,2,3,8,-2,-14
1537915257309048,-5,-1,0,1,2,7,14,31
1537915257321016,16,3,-1,3,-1,-8,-18,-22
1537915257321016,-17,1,-7,-9,-5,-17,19,5
1537915257329992,1,-3,-3,-1,-5,-5,-12,5
1537915257329992,4,0,0,-1,0,24,-3,-6
1537915257344952,1,-2,-1,1,2,2,23,9
