timestamp,emg1,emg2,emg3,emg4,emg5,emg6,emg7,emg8
1537918844982988,2,1,3,2,4,1,10,18
1537918844982988,-6,-3,-4,-3,-3,0,-14,1
1537918844982988,2,0,-1,-2,-9,-7,3,-3
1537918844982988,-2,-2,-2,-2,-1,1,7,6
1537918844983986,1,1,-1,-1,0,-1,-18,-9
1537918844983986,-1,1,1,4,19,21,30,2
1537918844987975,-1,-2,-1,-2,-20,-24,-21,0
1537918844987975,-1,1,1,0,-1,1,21,-2
1537918844993960,-2,-2,-3,-6,-13,-6,-4,-1
1537918844993960,-1,-1,3,8,23,5,-25,-6
1537918845004930,1,-1,0,-8,-37,-6,7,1
1537918845004930,0,0,0,1,-7,-8,17,-2
1537918845008920,-3,-4,-3,-6,-8,-12,-10,-3
1537918845008920,1,0,2,0,2,24,11,2
1537918845024877,-1,0,0,4,20,4,-15,-1
1537918845024877,-2,-2,-2,-1,-3,-1,-6,-1
1537918845033852,-1,-1,-1,0,5,-8,-18,-4
1537918845033852,0,1,1,2,-4,0,32,-1
1537918845048812,-1,0,2,5,18,9,7,1
1537918845048812,0,-1,-4,-11,-10,-7,-13,-5
1537918845055794,-3,-2,0,3,0,11,6,-6
1537918845055794,1,0,0,6,0,-24,-19,-4
1537918845068759,2,1,-2,-3,23,13,33,4
1537918845068759,-3,-4,-6,-14,-16,-6,-11,-3
1537918845111644,-1,0,0,6,17,8,0,-1
1537918845111644,-1,1,1,3,-10,-2,-9,10
1537918845115634,-2,0,1,0,16,13,11,-9
1537918845115634,1,1,-1,3,2,-12,22,10
1537918845116631,-1,0,6,22,45,-38,8,-3
1537918845116631,1,-2,-2,-8,-52,75,-11,-1
1537918845116631,-6,-5,-7,-18,-20,-60,-56,31
1537918845116631,5,6,7,25,41,34,16,-9
1537918845122615,-1,-4,-15,-43,-104,-70,27,17
1537918845122615,-1,-1,3,18,96,-2,22,-3
1537918845129596,1,5,10,37,76,119,8,-8
1537918845129596,-5,-10,-27,-86,-106,-102,-67,-20
1537918845136578,-2,2,11,35,123,30,95,25
1537918845136578,2,2,1,-10,-37,-22,4,-29
1537918845151538,-2,-7,-16,-42,-94,-108,-12,-7
1537918845151538,1,2,15,52,124,67,-20,36
1537918845159517,-5,-1,-4,-21,-70,-28,-60,-23
1537918845159517,7,1,3,10,25,65,29,-4
1537918845183452,6,6,3,13,22,-12,-37,-7
1537918845183452,-18,-3,12,36,21,-121,28,-18
1537918845183452,13,-7,-23,-56,-105,74,32,8
1537918845183452,-18,-10,-11,-17,63,-57,-48,-12
1537918845197415,6,4,15,43,27,41,29,12
1537918845197415,-10,-11,-21,-85,-110,-55,-34,-14
1537918845198413,1,9,20,50,127,127,-39,-5
1537918845198413,13,3,-3,-6,16,-83,-10,11
1537918845219356,-9,-2,-5,-15,-23,127,-57,-45
1537918845219356,10,10,16,57,105,110,56,20
1537918845220354,-7,-1,0,3,-12,-60,21,31
1537918845220354,9,8,13,38,110,23,11,24
1537918845243293,-13,-9,-18,-55,-93,-128,-5,-20
1537918845243293,-7,-7,-1,5,65,44,-8,-4
1537918845243293,24,5,-8,-30,-75,127,22,40
1537918845243293,-7,-3,3,13,-10,-89,-32,-4
1537918845257255,-1,-1,6,5,-5,-63,50,47
1537918845257255,9,7,-1,22,-5,106,2,-7
1537918845258253,-15,-15,-19,-55,-76,-128,-32,-30
1537918845258253,1,5,10,23,-9,22,-23,2
1537918845280194,7,3,7,29,67,108,-30,-9
1537918845280194,5,0,-7,-24,-63,33,12,5
1537918845280194,-10,-2,10,35,98,40,-85,-28
1537918845280194,6,-5,-14,-32,-62,-49,102,59
1537918845303132,-2,6,6,13,53,-45,9,-33
1537918845303132,1,-4,-2,-6,-45,-37,-28,-6
1537918845303132,-7,0,9,24,-3,-71,-6,-23
1537918845303132,-5,-1,-14,-36,-45,-99,-24,-5
1537918845325074,-24,-14,-23,-53,-44,105,15,-1
1537918845325074,7,0,4,15,99,-21,5,-16
1537918845326071,-10,0,-7,-15,-13,82,50,1
1537918845326071,-2,0,5,18,31,-13,-106,-29
1537918845340034,15,2,7,19,-15,-35,62,72
1537918845340034,13,9,13,35,73,16,22,5
1537918845340034,2,-8,-19,-54,-95,-75,-65,-10
1537918845340034,-1,1,6,9,29,107,48,-12
1537918845362973,6,8,20,75,127,-35,-19,-16
1537918845362973,-22,-19,-35,-95,-128,-72,-30,-11
1537918845363970,9,10,17,47,127,-7,1,-3
1537918845363970,-12,-3,7,24,57,-13,34,-7
1537918845376935,-2,-15,-30,-74,-128,78,-95,-41
1537918845376935,-2,-4,-7,-18,-39,34,44,56
1537918845377933,6,3,2,8,1,-22,12,-2
1537918845377933,-24,-4,0,-9,-25,23,53,-11
1537918845399874,11,5,8,20,88,17,18,22
1537918845399874,3,4,10,26,27,-28,-40,-27
1537918845400873,-6,-1,0,13,49,81,-6,7
1537918845400873,-1,-4,-4,-12,-55,21,-39,-1
1537918845422813,4,1,3,3,0,40,28,-14
1537918845422813,6,2,2,5,-13,-45,3,34
1537918845423810,-8,-4,-7,-8,-50,90,-20,-21
1537918845423810,13,3,-6,-15,-54,1,3,18
1537918845436775,-15,-2,-2,-15,-9,-51,-24,-55
1537918845436775,2,0,2,8,12,-15,60,4
1537918845437773,-5,1,8,27,48,66,18,-6
1537918845437773,0,-2,-2,7,72,113,-34,22
1537918845459714,-4,-9,-22,-65,-128,-1,-3,2
1537918845459714,-7,0,3,6,70,21,-45,-32
1537918845460711,1,2,8,17,-2,-64,-36,-1
1537918845460711,14,-1,-11,-21,-39,-16,5,3
1537918845482653,3,2,7,26,51,-53,20,26
1537918845482653,5,1,6,8,-11,39,-21,-10
1537918845483650,0,-4,-10,-17,-15,-17,21,4
1537918845483650,-5,-1,3,3,-13,73,-24,-13
1537918845496615,0,2,-1,-10,-32,-114,17,5
1537918845496615,14,4,3,15,47,96,13,4
1537918845504594,-2,1,1,2,-28,-33,-47,-43
1537918845504594,-7,-5,-7,-18,-6,-26,78,28
1537918845519554,9,-2,1,1,12,0,1,31
1537918845519554,-15,-3,1,12,50,-1,4,-13
1537918845520552,-3,3,5,13,43,-13,15,-8
1537918845520552,5,0,-2,-6,-11,-30,-45,-20
1537918845542493,-1,2,2,6,-5,41,31,2
1537918845542493,-2,3,7,10,51,-87,-2,4
1537918845543490,18,-5,-16,-38,-72,-43,-2,33
1537918845543490,-2,-2,-4,-9,-4,-36,10,-20
1537918845556455,5,1,0,5,44,35,-12,31
1537918845556455,-9,-3,-6,-15,-79,-50,-23,-16
1537918845564434,-5,1,5,14,26,-1,-6,-9
1537918845564434,9,3,-1,-5,-73,1,-13,9
1537918845580391,5,1,5,18,-3,-14,5,-16
1537918845580391,-8,2,1,-3,4,-4,86,23
1537918845581389,-1,-5,-3,-11,24,50,-21,-8
1537918845581389,-5,-2,-1,8,-22,0,-4,-12
1537918845603330,-2,2,8,12,108,30,-3,1
1537918845603330,-2,-4,-13,-31,-88,-25,-26,-9
1537918845603330,-15,0,6,9,-9,0,32,-7
1537918845603330,4,3,6,23,46,31,-34,1
1537918845616295,-2,2,2,8,46,-25,34,-13
1537918845616295,-4,-4,-1,10,-10,51,-9,-21
1537918845625271,5,0,-4,-18,4,-45,48,23
1537918845625271,-6,-1,0,5,-1,-4,-19,-22
1537918845641229,-3,0,2,8,5,18,-3,5
1537918845641229,2,-1,-4,-6,-28,7,-28,2
1537918845642226,-5,-2,4,22,48,48,-3,-4
1537918845642226,1,2,0,0,0,-43,19,4
1537918845663170,-4,-4,-4,-1,32,-16,0,-2
1537918845663170,0,-3,-4,-17,-55,15,-14,-11
1537918845663170,1,2,1,9,-14,-12,-13,45
1537918845663170,-4,-1,-6,-11,21,20,-10,-7
1537918845676136,-1,-1,1,-2,-17,-33,7,-10
1537918845676136,-1,1,3,10,28,-13,-1,5
1537918845685112,2,-2,-3,-1,-2,7,4,-4
1537918845685112,-1,-3,-4,-16,-28,6,7,-1
1537918845700072,-2,-1,0,3,-9,-5,-32,-2
1537918845700072,-2,-3,-5,-4,2,6,7,2
1537918845702067,2,0,-2,-7,-20,-13,-1,-9
1537918845702067,0,0,4,7,26,21,12,-4
1537918845723011,-3,1,0,1,-26,-11,-13,-3
1537918845723011,1,-1,3,9,19,7,-5,-1
1537918845724010,-3,-1,-5,-16,-12,-26,-6,-6
1537918845724010,-1,-2,-1,2,-5,-7,3,-3
1537918845736974,0,-1,-4,-10,-16,3,3,1
1537918845736974,0,0,0,1,4,-9,-9,-1
1537918845745951,1,0,2,6,9,6,10,-3
1537918845745951,-3,-2,-1,0,-1,-13,0,-1
1537918845758916,2,0,-3,-4,-15,17,-7,-6
1537918845758916,0,-1,1,3,20,8,2,0
1537918845767891,1,0,-1,-1,-11,-20,-4,-6
1537918845767891,0,-1,-1,-3,5,6,-1,4
1537918845782851,-2,-2,-2,1,-9,2,1,0
1537918845782851,1,-1,-4,-6,-1,-8,-2,5
1537918845784846,0,-2,-3,-3,-10,-12,-3,3
1537918845784846,-2,-1,1,0,1,-3,-4,-1
1537918845806788,-2,0,-1,2,2,11,5,2
1537918845806788,1,0,0,-4,0,-8,-1,1
1537918845808782,0,1,0,0,-3,-2,-2,-3
1537918845808782,-1,0,-1,-1,7,3,2,-2
1537918845818755,-1,-2,1,0,-5,-5,-2,-2
1537918845818755,-1,-1,-2,-7,-1,-1,-5,1
1537918845827731,-2,-1,-1,1,-4,-5,-2,-3
1537918845827731,0,0,1,2,3,0,2,-2
1537918845842691,-1,-1,-1,-3,-5,-3,0,0
1537918845842691,-1,-1,0,3,0,-2,-4,0
1537918845844685,0,0,1,2,2,0,6,2
1537918845844685,-4,-2,-2,-3,-1,-9,-9,-8
1537918845865629,1,0,0,0,0,13,19,6
1537918845865629,0,-1,2,3,13,11,-7,-9
1537918845867624,-2,-3,-5,-9,-23,-17,-5,-2
1537918845867624,5,0,2,0,5,8,-1,5
1537918845881586,-4,-1,-2,2,1,-10,-3,1
1537918845881586,-3,-1,-1,-1,9,0,-3,-3
1537918845888568,1,2,3,1,-13,-11,10,1
1537918845888568,-4,-2,-1,-4,-3,3,1,4
1537918845895549,0,-2,-4,-4,-7,-1,-8,-4
1537918845895549,-2,0,1,6,8,-1,1,2
1537918845903528,-1,0,-2,-3,6,24,-3,-3
1537918845903528,-1,0,-2,-1,-4,-5,1,-3
1537918845909512,-1,-1,-1,-3,-1,7,-3,-1
1537918845909512,0,-1,2,3,-3,-10,-6,1
1537918845925469,1,-1,0,0,-5,-8,5,-1
1537918845925469,-2,0,1,3,20,-8,-20,-2
1537918845931453,2,1,1,3,-2,-4,1,2
1537918845931453,-1,-2,-2,-11,-36,37,14,0
1537918845948408,0,-1,-1,-8,-25,-42,-20,2
1537918845948408,1,-2,-3,-6,-7,-3,1,-10
1537918845954391,0,0,1,0,14,-4,-10,6
1537918845954391,1,0,-1,3,16,5,11,0
1537918845963367,-3,-1,2,1,14,14,4,-2
1537918845963367,-2,-2,-1,-1,1,10,-4,-1
1537918845969352,-1,-1,-2,-7,-19,-19,-2,-6
1537918845969352,-1,-2,-2,0,-3,-14,-7,-4
1537918845985309,-2,-2,0,5,10,23,-3,-4
1537918845985309,-3,-3,-2,-3,-5,-12,3,2
1537918845991293,-1,-1,-1,0,0,7,1,-26
1537918845991293,0,-1,-4,-2,-3,-10,2,14
1537918846008248,-1,-3,-1,2,6,-1,-6,-2
1537918846008248,-1,-1,-1,-1,-5,2,1,-1
1537918846014232,-2,-3,-1,-3,-5,1,4,3
1537918846014232,-3,0,0,1,3,-2,-8,-6
1537918846023208,-3,-1,-1,1,4,-7,-3,-3
1537918846023208,0,0,0,0,-4,8,8,4
1537918846029191,-2,-2,-2,0,4,-3,-2,1
1537918846029191,0,1,0,1,10,-6,-6,-4
1537918846045150,0,-1,-1,-3,7,-5,1,3
1537918846045150,-2,-2,-3,-4,-16,12,-2,-2
1537918846051133,-1,0,0,-1,-5,7,-4,1
1537918846051133,-3,-1,0,1,3,-12,7,-2
1537918846068089,-2,-1,1,2,8,9,6,-1
1537918846068089,-1,1,-1,1,2,-4,0,-1
1537918846074073,-3,-1,0,0,3,-3,-12,-3
1537918846074073,2,0,-2,-1,-1,9,-4,2
1537918846083049,3,-1,-2,-2,-5,-13,4,1
1537918846083049,-2,-2,2,3,1,-6,-9,-3
1537918846097011,-4,-1,-4,-4,-4,6,13,2
1537918846097011,-2,1,0,0,-1,-13,-2,-3
1537918846105988,-3,-1,-2,-2,-2,17,2,-1
1537918846105988,0,-2,0,-1,-4,-3,-3,-1
1537918846118953,0,1,0,-1,-3,-9,-1,0
1537918846118953,0,-2,-1,-3,-7,1,1,-1
1537918846127929,-4,-2,-3,-1,-3,0,-6,-2
1537918846127929,2,-1,0,1,15,9,5,1
1537918846133913,-1,-1,-3,1,18,13,-3,1
1537918846133913,1,-2,-4,-10,-48,-29,-2,-1
1537918846142889,-1,-3,-4,-10,-38,-13,-3,1
1537918846142889,0,0,-1,2,4,-17,1,-3
1537918846156852,0,0,1,0,0,4,-3,0
1537918846156852,-1,-1,0,4,18,4,-15,-2
1537918846165828,-2,1,-1,3,11,9,21,0
1537918846165828,0,0,-1,-2,-6,-8,-2,0
1537918846179790,1,-1,0,-1,3,4,2,2
1537918846179790,-2,-1,0,3,11,-1,-17,0
1537918846186771,0,0,0,0,1,-2,-6,-2
1537918846186771,-2,0,-2,-4,2,6,3,0
1537918846193753,1,0,-2,-1,-4,-2,-2,-2
1537918846193753,0,1,-1,-2,-3,3,7,0
1537918846202729,-1,-2,-1,-1,4,0,-3,-2
1537918846202729,-1,-2,1,-1,-2,-1,3,2
1537918846216691,1,-1,-1,-2,-11,-3,-4,2
1537918846216691,-1,-3,-2,-2,-3,-1,4,-1
1537918846225667,1,2,-1,2,9,4,0,-1
1537918846225667,-2,-2,-2,-2,-5,-4,-6,0
1537918846239629,-1,-1,1,-5,-10,-2,2,2
1537918846239629,1,0,1,3,11,12,5,2
1537918846246610,-1,0,0,5,7,-16,-6,-1
1537918846246610,-1,0,-3,-6,-17,7,3,-1
1537918846262568,-2,-1,-2,1,-4,-8,0,-3
1537918846262568,-1,-1,0,-1,-1,0,2,0
1537918846264563,-1,-1,-1,1,3,6,-3,1
1537918846264563,1,0,-3,-2,0,-5,2,-1
1537918846277528,-1,0,-1,1,1,-3,0,0
1537918846277528,0,-2,-1,1,3,4,-1,1
1537918846285507,-2,0,0,0,-1,-3,-3,-2
1537918846285507,-1,0,-1,2,8,-2,1,-1
1537918846300467,-1,-1,-1,1,-6,3,-1,0
1537918846300467,0,0,3,6,6,-3,0,-1
1537918846301464,-13,-12,-6,-15,-1,-4,-3,-4
1537918846301464,14,2,-4,-15,-42,-3,-2,-2
1537918846314431,0,-2,-2,-3,3,0,0,-2
1537918846314431,2,0,1,2,8,1,1,1
1537918846323406,0,-1,2,7,19,-1,2,-2
1537918846323406,-9,-2,1,3,-5,4,0,-5
1537918846336371,0,-2,0,-1,-4,-3,1,-3
1537918846336371,4,-1,-4,-4,-8,-4,-2,13
1537918846345348,2,1,0,0,3,0,-1,3
1537918846345348,-5,0,2,4,11,1,0,-5
1537918846360307,1,2,0,2,-1,1,-2,-1
1537918846360307,-4,-2,-2,-2,-1,-4,2,-6
1537918846362303,0,0,-3,-3,-9,-3,-12,-2
1537918846362303,0,-1,0,3,8,-5,0,1
1537918846374270,-2,-3,-2,1,7,-3,4,0
1537918846374270,-3,0,0,1,16,34,0,-6
1537918846389230,-1,0,-1,1,-8,23,5,-6
1537918846389230,3,0,4,5,-6,-68,-2,13
1537918846396211,-3,-1,5,15,42,21,-2,-12
1537918846396211,6,4,3,8,18,3,22,36
1537918846405188,-13,-10,-18,-38,-7,17,-97,-73
1537918846405188,-4,-3,-6,-16,-33,-42,62,36
1537918846420148,-1,-2,-4,-6,10,-13,62,7
1537918846420148,-8,0,7,29,27,73,-64,-17
1537918846426132,1,9,11,40,76,-86,-36,-1
1537918846426132,3,-7,-22,-62,-65,107,26,16
1537918846434109,-19,-11,-19,-38,-39,49,-65,-73
1537918846434109,2,1,-2,-22,-100,-94,93,42
1537918846443086,-6,-1,3,23,91,-58,-17,16
1537918846443086,8,13,22,37,-14,-72,-12,-49
1537918846457048,10,-9,-17,-35,-80,-103,-23,19
1537918846457048,-5,3,12,29,106,101,-30,-32
1537918846466024,-13,-5,-8,-20,-28,4,28,-10
1537918846466024,14,-1,13,43,127,14,-20,6
1537918846479987,0,2,7,13,23,30,42,29
1537918846479987,-1,-10,-16,-41,-42,-120,-37,-11
1537918846486968,1,-4,-3,-9,-59,21,36,-2
1537918846486968,-8,-9,-1,2,37,39,3,43
1537918846493950,8,11,15,31,-51,-106,-28,3
1537918846493950,-13,3,4,30,124,63,-21,-36
1537918846502926,19,10,-5,-24,-104,80,38,40
1537918846502926,-14,-1,-9,-10,-4,-35,2,-36
1537918846516888,0,-6,0,2,20,33,-21,10
1537918846516888,-1,1,1,4,-17,19,22,-9
1537918846525865,6,-1,1,-10,-52,-80,-1,23
1537918846525865,-5,0,3,14,-11,-66,-11,-33
1537918846539828,-7,-7,-8,-21,-11,-28,32,52
1537918846539828,7,2,-3,-19,-30,-46,27,-8
1537918846546808,8,0,4,5,-5,-27,-14,-9
1537918846546808,-6,-4,-6,-12,-50,-47,-13,14
1537918846553790,6,12,23,62,127,76,-6,-21
1537918846553790,-7,-12,-21,-54,-95,-41,-27,-14
1537918846562766,0,0,4,5,14,41,32,12
1537918846562766,1,3,-1,-1,25,67,-3,10
1537918846576729,-2,0,5,17,74,90,18,-13
1537918846576729,7,3,5,24,46,46,1,13
1537918846585705,-3,-5,-11,-21,-45,-33,8,-5
1537918846585705,1,1,-5,-5,30,118,-18,-13
1537918846599667,-5,0,-2,3,73,32,-17,-18
1537918846599667,0,-2,0,-5,-30,-67,9,-10
1537918846606649,8,3,2,7,20,42,20,57
1537918846606649,-8,-1,4,17,39,-51,-40,4
1537918846622607,0,-3,-11,-29,-73,82,19,-16
1537918846622607,-6,-7,-7,-17,-9,-66,21,-18
1537918846624602,5,0,0,-4,-44,72,22,-9
1537918846624602,-1,-1,1,4,-14,-17,-43,-6
1537918846636569,2,1,1,0,-27,-59,-2,21
1537918846636569,1,-2,-2,-2,-21,-11,-13,8
1537918846645545,-3,0,5,16,64,18,-11,-12
1537918846645545,-2,-3,-3,-5,-1,38,27,8
1537918846659507,-1,-1,-5,-18,-57,-79,-10,-2
1537918846659507,4,3,3,10,17,21,-14,2
1537918846666489,-7,-2,1,6,22,-17,-10,-5
1537918846666489,3,0,-1,-8,-27,10,3,1
1537918846682446,2,-1,-2,2,-1,-13,-7,-4
1537918846682446,-4,-2,-1,-2,2,13,8,3
1537918846684441,0,0,-1,3,8,-13,0,-2
1537918846684441,-3,-2,-4,-6,-10,0,4,-12
1537918846696409,-4,-2,0,-7,-13,-12,9,2
1537918846696409,2,1,0,1,-7,14,-4,12
1537918846705385,-3,0,0,1,6,3,0,-15
1537918846705385,3,-1,-3,-7,-10,-7,3,-5
1537918846719347,-4,-4,0,-1,-7,-6,-10,0
1537918846719347,3,-1,-1,-2,-10,12,-2,5
1537918846726330,-1,-1,1,6,17,-12,-3,-8
1537918846726330,1,1,-4,-5,-6,-4,7,1
1537918846743284,-3,-1,-1,-5,-13,-7,-6,4
1537918846743284,-12,-1,0,-1,1,8,2,-10
1537918846744281,4,0,-1,1,9,-4,0,-1
1537918846744281,3,1,0,1,-4,0,2,3
1537918846765225,1,-1,-4,-3,-9,1,-2,-1
1537918846765225,-1,-4,-2,-5,-5,1,-3,-1
1537918846767219,-13,-3,-1,-1,6,-7,-5,-6
1537918846767219,22,3,1,4,-4,3,2,7
1537918846803123,0,-1,-1,0,-1,-4,-6,-3
1537918846803123,0,1,0,-1,2,2,7,-2
1537918846804120,2,1,-2,-4,-3,-4,-1,7
1537918846804120,-11,-4,-1,1,-1,0,8,-6
1537918846809107,-4,-2,-2,0,-2,-2,-3,-8
1537918846809107,2,-1,-2,-2,-5,3,-5,1
1537918846818083,-2,-3,0,1,3,1,-3,-2
1537918846818083,-4,1,0,-1,0,-8,-3,-2
1537918846833043,3,1,0,-5,-8,4,0,1
1537918846833043,-3,0,0,1,0,0,-2,3
1537918846834040,2,-1,0,0,1,-5,-2,-4
1537918846834040,-5,-2,0,0,1,0,0,-3
1537918846848003,-1,0,-1,-2,-3,-1,0,-2
1537918846848003,2,-2,-1,1,-2,-10,-2,4
1537918846849000,0,-1,1,-1,-2,0,1,0
1537918846849000,-4,-2,-1,-2,-1,2,-2,-5
1537918846869944,-2,-1,1,0,2,-1,1,1
1537918846869944,0,0,1,6,8,17,0,-1
1537918846871939,1,0,-1,-5,-10,-21,-3,0
1537918846871939,-4,-3,-1,-4,-7,-3,2,1
1537918846883907,-2,1,0,1,2,1,0,-5
1537918846883907,-5,-2,0,1,13,8,0,-2
1537918846892883,-1,-1,-3,-5,-25,-15,-1,-2
1537918846892883,4,-1,-3,-5,-8,-5,-4,3
1537918846915821,7,-1,0,8,34,6,-3,6
1537918846915821,6,2,-1,-6,-53,-28,4,8
1537918846916819,-6,-4,-3,0,5,8,-1,-6
1537918846916819,-5,0,-3,-4,-5,-4,-5,-6
1537918846930782,-6,-2,-1,-2,-3,4,5,-4
1537918846930782,1,1,1,5,26,6,3,-4
1537918846931779,3,0,-1,0,2,2,-1,12
1537918846931779,-2,-2,-1,0,-5,4,-5,-19
1537918846943747,0,1,-1,1,8,-1,-8,-1
1537918846943747,-2,-1,-1,-2,-1,0,3,2
1537918846952723,0,-1,2,3,1,0,2,-4
1537918846952723,-2,0,0,0,7,3,-1,3
1537918846967683,-3,-2,-3,-6,-15,-5,-2,0
1537918846967683,-2,-3,-1,-3,-7,-7,-5,-3
1537918846969678,3,-2,-1,0,6,8,1,0
1537918846969678,0,-2,1,4,2,1,2,2
1537918846990622,0,0,0,-1,-8,-5,2,5
1537918846990622,1,-2,-3,-5,-3,1,-5,-7
1537918846991619,-1,1,-1,1,12,3,-2,-4
1537918846991619,-1,-1,-2,-1,-3,1,2,1
1537918847003587,-2,0,0,-2,-9,-7,-5,-7
1537918847003587,-2,-3,-2,-2,2,2,1,3
1537918847012563,-2,-1,1,2,4,1,0,1
1537918847012563,-3,-1,2,2,7,-10,-11,-15
1537918847027523,2,1,-1,-2,-9,13,6,3
1537918847027523,0,0,1,-3,-4,-3,-4,0
1537918847029518,-3,-2,-1,-1,-1,1,-2,-1
1537918847029518,4,0,0,1,12,10,7,9
1537918847050462,-1,-1,-2,-5,-15,-14,-6,-10
1537918847050462,-3,-2,-3,-1,-2,-8,-6,-6
1537918847051459,3,2,-2,-5,-13,-11,0,-5
1537918847051459,-2,-1,1,1,5,7,3,15
1537918847064424,-2,-3,1,4,11,4,2,-1
1537918847064424,1,-1,-1,-1,6,-7,-2,2
1537918847073400,-4,-1,-1,-2,-7,9,1,-5
1537918847073400,-1,0,-1,0,-1,-2,-1,-1
1537918847087363,1,-1,-1,-3,-2,-5,2,2
1537918847087363,-1,-2,-1,0,1,5,-4,2
1537918847094344,-1,0,1,4,9,-1,-2,-1
1537918847094344,-1,-3,-4,-3,-6,-6,-2,-2
1537918847110302,0,0,-2,-1,-3,-2,1,1
1537918847110302,-2,0,1,4,2,9,-2,-3
1537918847112297,1,-1,-3,-3,0,-3,5,1
1537918847112297,1,-1,-1,-4,-6,10,5,2
1537918847124266,-2,0,0,2,2,-25,-4,2
1537918847124266,1,1,0,2,7,17,-1,1
1537918847133243,-1,-1,-1,-2,-9,-5,2,0
1537918847133243,-3,-1,-1,-2,1,8,-5,-5
1537918847147206,-2,-2,-1,-3,-6,-1,0,-2
1537918847147206,-2,-1,0,0,4,6,1,-1
1537918847154186,-2,-1,0,3,-1,-9,-4,0
1537918847154186,0,0,-2,0,-5,-5,-2,-2
1537918847170142,-2,0,0,1,8,11,1,0
1537918847170142,-2,-1,-1,0,-5,-10,1,0
1537918847172137,-1,0,-1,-2,2,6,-2,-3
1537918847172137,-2,0,-1,-2,-2,-13,0,-1
1537918847184105,-1,-2,1,3,7,-4,-3,-4
1537918847184105,0,0,-2,-4,-12,-3,-1,-2
1537918847193082,1,-1,0,3,10,-1,7,6
1537918847193082,0,-1,0,-3,-10,-13,0,-3
1537918847208040,-2,-1,-2,-3,3,14,-3,-3
1537918847208040,-1,0,0,3,14,-5,-1,5
1537918847209038,0,-1,1,2,-6,17,3,-2
1537918847209038,-3,-2,-4,-8,-7,-7,-11,0
1537918847229982,-1,-3,-2,-5,-11,-1,-1,-3
1537918847229982,1,-2,-1,-1,9,-1,-8,-3
1537918847231977,1,0,0,3,3,-6,-14,-2
1537918847231977,-6,0,1,2,14,38,18,-4
1537918847252920,-1,-1,-3,-1,-10,-2,7,3
1537918847252920,-2,-1,-1,-4,-17,-10,1,-1
1537918847253918,0,-1,-1,-4,6,-5,-4,-3
1537918847253918,3,1,2,0,-5,-3,-10,-3
1537918847267880,0,0,-1,0,8,11,-2,-1
1537918847267880,0,0,1,1,5,-7,3,1
1537918847268878,-2,-2,-2,-3,-6,5,1,-3
1537918847268878,0,1,0,0,-4,-13,-9,-2
1537918847290819,0,0,-1,-2,-1,-4,-2,3
1537918847290819,4,0,0,-2,-6,-4,12,4
1537918847291817,-1,0,0,1,1,8,26,0
1537918847291817,-4,-2,-1,2,3,1,8,0
1537918847312760,0,1,0,-1,-2,-6,-5,2
1537918847312760,-1,0,-1,0,-2,-2,-14,-7
1537918847314755,-4,-2,-3,-5,-6,-6,-1,-2
1537918847314755,0,0,-2,0,6,6,1,1
1537918847327720,-1,-1,-1,-4,-7,-3,-3,-1
1537918847327720,-1,0,-1,-3,-9,-9,-2,-2
1537918847329715,2,-1,1,3,12,24,0,-4
1537918847329715,-3,-2,-2,-3,-4,-9,-4,0
1537918847350659,-8,-2,0,0,6,6,0,-2
1537918847350659,6,0,0,-1,-20,-32,1,3
1537918847351657,-1,-1,0,0,6,11,-6,-2
1537918847351657,1,-1,-2,-2,-8,-7,-2,0
1537918847372600,0,-2,-1,0,6,11,2,-2
1537918847372600,-2,-1,-2,0,9,6,1,-2
1537918847374595,0,-1,-1,0,-1,-4,-6,1
1537918847374595,0,-1,1,2,4,-3,-2,1
1537918847387561,2,0,-3,-4,-11,-2,0,-2
1537918847387561,-4,-1,-1,0,2,4,2,-3
1537918847389555,-4,-3,-2,-3,-10,-21,-4,-1
1537918847389555,0,-1,0,1,4,0,6,-5
1537918847410499,2,1,2,3,0,-22,-17,5
1537918847410499,-1,-1,-1,1,3,40,0,0
1537918847411496,-2,0,-2,1,2,6,21,0
1537918847411496,0,-1,-1,-1,-5,-11,-17,0
1537918847432440,0,-2,0,1,-1,-4,23,-3
1537918847432440,-1,-2,0,0,3,-8,-7,0
1537918847434435,0,1,-1,-1,1,-9,-18,-4
1537918847434435,0,1,-2,-1,-5,-7,-9,1
1537918847447400,-1,-3,-1,1,2,3,-1,2
1537918847447400,-4,-4,-3,-5,2,6,-3,-1
1537918847454382,-1,-1,-1,-3,-4,-6,-5,-2
1537918847454382,1,2,1,0,-5,-20,6,-2
1537918847470339,1,-1,-3,-4,-18,12,2,1
1537918847470339,0,-2,0,1,4,-2,6,-2
1537918847472334,0,0,-2,-1,2,0,-5,1
1537918847472334,-6,-1,0,-2,1,4,-1,-3
1537918847493278,7,1,0,3,7,-3,-3,4
1537918847493278,0,0,-2,-1,-7,-2,0,0
1537918847494275,1,-2,-2,-5,-5,11,-19,-2
1537918847494275,-1,-2,0,2,-1,-20,15,1
1537918847507241,-2,-2,0,-2,0,38,20,-2
1537918847507241,3,0,1,-2,8,-27,-14,2
1537918847514222,-1,1,3,4,-14,1,-14,1
1537918847514222,0,-2,-3,-3,-9,2,-27,-1
1537918847530179,-5,-3,-3,-4,-1,-17,15,-7
1537918847530179,4,-1,-2,-2,0,11,9,1
1537918847532174,-5,-1,0,0,5,-14,-12,-1
1537918847532174,3,1,0,0,0,21,10,3
1537918847553118,-2,-1,-1,-3,-3,-15,-4,1
1537918847553118,-1,0,0,2,2,-1,-14,-1
1537918847554115,-4,-3,-1,-1,1,-5,-1,0
1537918847554115,0,-1,1,0,1,13,13,-3
1537918847567080,-6,-3,-3,-4,1,-10,-14,-2
1537918847567080,2,3,-1,-1,-5,4,7,2
1537918847574062,0,0,-1,-4,-7,-21,-18,-5
1537918847574062,2,1,2,2,7,32,0,2
1537918847590019,1,2,1,6,1,-1,-2,10
1537918847590019,-1,1,-1,1,-2,-22,7,-6
1537918847592014,1,1,-1,1,1,38,12,1
1537918847592014,-6,-3,-3,-5,-2,-14,4,-5
1537918847612958,11,0,0,-4,-3,-6,-9,0
1537918847612958,-1,-3,-1,-3,-4,3,7,-2
1537918847613956,4,0,-1,1,15,-3,0,4
1537918847613956,-2,-1,-1,1,5,-8,-21,-4
1537918847626921,-6,-4,-3,-7,-25,-32,0,-1
1537918847626921,-11,-4,-3,-3,-4,5,13,-5
1537918847635897,11,2,0,-2,-6,14,7,5
1537918847635897,-15,-1,0,0,8,16,-11,-2
1537918847650857,7,2,1,3,7,-5,-19,-3
1537918847650857,-2,-2,-2,-1,3,4,-4,-3
1537918847651855,-4,-2,-3,-4,0,-1,12,-1
1537918847651855,-1,-2,1,2,-4,-13,3,0
1537918847672798,-4,2,0,1,4,-15,0,-5
1537918847672798,-4,-2,-3,-4,-3,33,4,2
1537918847674794,-1,0,1,3,6,-25,-2,-5
1537918847674794,8,-1,1,0,-10,8,9,7
1537918847686761,-4,-1,-3,-2,-1,4,0,-4
1537918847686761,4,1,-1,-1,1,-4,-21,-1
1537918847693742,-4,0,0,-1,-4,-9,-1,1
1537918847693742,-1,0,0,0,-3,-19,18,0
1537918847710697,-2,-1,-1,-1,8,19,10,0
1537918847710697,-3,0,-2,-2,-12,-2,-2,-2
1537918847711694,-9,-2,0,0,2,4,-8,-6
1537918847711694,26,2,-1,-2,-3,8,0,4
1537918847732638,-1,0,0,0,3,-1,-34,-3
1537918847732638,-3,-1,-2,-1,2,15,83,4
1537918847734633,10,-2,-2,-6,-8,-20,-2,2
1537918847734633,-7,0,-2,-3,1,0,-4,1
1537918847747598,-4,-1,-3,-1,-2,5,0,-4
1537918847747598,-4,-2,-1,-1,-2,-12,-41,-4
1537918847753582,10,1,1,3,2,-4,17,4
1537918847753582,3,-2,-1,1,2,15,14,-3
1537918847770537,14,3,-1,-5,-6,-13,-36,-1
1537918847770537,-34,-9,3,8,39,16,-25,-3
1537918847771534,19,8,5,17,51,-38,12,7
1537918847771534,-3,-10,-6,-11,-47,29,-19,-7
1537918847792479,-7,-3,5,20,101,72,94,9
1537918847792479,-9,-3,-4,-14,-81,-11,-34,-1
1537918847794473,19,9,14,44,113,47,-35,4
1537918847794473,27,8,3,-11,-46,24,-2,1
1537918847806441,-2,-14,-30,-86,-101,-36,33,-6
1537918847806441,3,-3,-5,3,84,82,-23,4
1537918847815417,-18,0,-8,-50,-128,61,51,7
1537918847815417,0,-9,-21,-44,-32,1,-43,0
1537918847830377,24,16,27,58,88,103,-17,18
1537918847830377,-23,-9,-1,13,101,-57,32,-28
1537918847831375,-17,-5,7,46,127,-93,-68,1
1537918847831375,-16,-2,-15,-50,-59,-17,-1,4
1537918847853316,-6,0,-4,-9,9,-43,-34,-7
1537918847853316,17,-11,21,73,85,117,7,-20
1537918847854313,-11,-7,-41,-93,-103,-109,-33,-13
1537918847854313,-16,5,14,27,112,49,-1,-16
1537918847866281,5,6,-2,1,48,48,23,7
1537918847866281,-8,7,3,-4,-29,-64,-34,-3
1537918847875257,9,-6,5,15,-4,86,67,4
1537918847875257,2,-4,-1,11,1,-33,-14,5
1537918847889220,-23,-8,-9,-4,-45,-32,-24,-13
1537918847889220,15,3,-1,-5,-24,-6,6,24
1537918847896201,16,-3,1,-8,-41,5,-3,-2
1537918847896201,-5,-2,-3,4,-3,-41,26,7
1537918847913156,-4,-3,8,29,21,-15,-21,-11
1537918847913156,8,0,-9,-30,-60,-35,3,-1
1537918847914153,-9,2,-1,-5,-12,3,17,2
1537918847914153,0,4,9,27,51,-1,-6,-7
1537918847926121,-1,-4,-2,-1,-22,-7,0,2
1537918847926121,5,1,-3,-17,-25,1,12,8
1537918847935097,-7,-1,-1,-1,6,20,-6,-10
1537918847935097,5,0,4,19,33,8,7,5
1537918847950057,-29,-5,0,-6,-20,-14,-6,-11
1537918847950057,15,8,-3,-12,-14,-12,8,13
1537918847952052,-10,-2,3,15,27,15,-16,-6
1537918847952052,-6,-4,-1,1,1,-8,22,-4
1537918847972996,-1,-2,-2,-5,-12,-14,6,1
1537918847972996,4,5,-2,-1,6,-4,-7,-4
1537918847973994,-8,-3,1,3,3,16,7,-3
1537918847973994,-2,-3,-1,1,4,-4,-3,3
1537918847986959,1,1,-1,-2,-3,-4,-6,-2
1537918847986959,-1,0,1,2,1,2,-1,3
1537918847995936,-7,-5,-2,-2,-1,6,-3,-1
1537918847995936,7,2,0,3,5,-9,-2,-2
1537918848010896,3,1,1,7,10,-14,8,5
1537918848010896,2,-1,-1,-7,-24,-10,-4,-2
1537918848011894,-11,-4,-2,-2,-4,5,5,-3
1537918848011894,-4,1,1,7,20,-4,-8,-2
1537918848032836,3,-1,-3,-5,-24,-8,-6,-1
1537918848032836,0,-1,-4,-6,3,10,7,0
1537918848034831,1,0,0,2,3,-10,1,-1
1537918848034831,-3,-2,-1,2,6,-23,0,3
1537918848046799,5,0,1,0,2,41,2,-1
1537918848046799,-2,0,-2,-4,-6,-6,1,-2
1537918848055775,1,1,0,2,5,9,-1,-2
1537918848055775,-3,-1,1,1,2,2,1,-2
1537918848069737,-2,-3,-3,-1,-5,-12,1,2
1537918848069737,2,1,0,1,7,-2,-6,0
1537918848076719,0,-2,-2,1,1,8,1,-1
1537918848076719,-4,-1,-2,-1,-5,5,6,0
1537918848092676,0,0,-1,0,0,-9,-5,-2
1537918848092676,-1,0,0,-3,-3,3,-1,-1
1537918848094670,1,0,1,1,0,-2,2,0
1537918848094670,-3,-2,-2,-3,-6,6,3,-2
1537918848106638,1,0,-2,-1,0,-3,-14,-3
1537918848106638,1,-1,-1,-2,1,-7,0,2
1537918848115614,-1,-1,-1,-1,-3,10,38,2
1537918848115614,2,1,3,4,6,-1,-7,0
1537918848129577,-5,0,-3,0,3,1,-19,-4
1537918848129577,13,2,2,10,44,56,26,1
1537918848137556,2,0,0,3,17,-55,-4,7
1537918848137556,-13,-6,-3,-1,-2,-2,-33,-9
1537918848152516,-3,3,5,6,19,46,50,6
1537918848152516,12,4,-5,-18,-80,-123,-50,11
1537918848152516,0,1,1,19,90,127,12,-9
1537918848152516,-1,8,10,16,17,-52,7,3
1537918848174458,1,-12,-30,-62,-45,-108,-25,-12
1537918848174458,-20,-4,-11,-27,-55,22,-4,3
1537918848175456,23,2,5,-13,3,74,-11,-2
1537918848175456,-4,6,11,26,86,111,34,3
1537918848189418,22,-8,13,38,36,-30,15,33
1537918848189418,10,13,12,36,84,78,3,14
1537918848197396,3,30,10,35,82,-62,-22,-6
1537918848197396,23,-12,-15,-33,-116,-4,47,31
1537918848212356,-22,-27,-35,-68,26,62,-19,-39
1537918848212356,-8,-8,7,3,65,64,19,-14
1537918848213353,-3,14,7,-16,-92,-18,-4,3
1537918848213353,-4,15,14,41,110,90,-11,-2
1537918848234297,1,17,34,96,54,80,25,17
1537918848234297,11,-25,-42,-99,-95,-91,-25,-2
1537918848235295,-8,-7,-5,11,122,-19,-9,-8
1537918848235295,-4,-3,-3,-16,-1,-23,9,-9
1537918848249257,-5,-2,4,8,25,22,-21,-13
1537918848249257,-5,7,16,61,127,28,-6,-1
1537918848257236,-4,-10,-9,-28,-128,56,11,8
1537918848257236,-12,-14,-16,-38,-113,-95,-24,1
1537918848272196,8,12,13,18,28,60,8,7
1537918848272196,-19,8,12,26,-5,-13,20,-15
1537918848273193,-3,-13,-8,-14,10,65,0,1
1537918848273193,5,-2,-5,-9,-48,-95,-15,-6
1537918848295134,-5,3,-5,-13,-57,34,-4,-4
1537918848295134,-1,0,1,3,-1,-8,9,2
1537918848295134,-5,-10,-5,0,-5,-17,-10,-4
1537918848295134,-2,1,2,9,61,54,-3,-11
1537918848309097,-3,5,4,0,-1,-117,2,-2
1537918848309097,-3,-2,-5,-13,-52,-17,-1,-3
1537918848317076,1,-2,2,6,3,-42,0,-2
1537918848317076,-1,2,2,10,43,30,-1,-4
1537918848332036,4,-2,-8,-21,-56,31,1,8
1537918848332036,-4,-6,-3,-2,9,17,-5,-4
1537918848333033,-27,-3,-4,-4,-29,-16,-3,-5
1537918848333033,21,3,-1,-5,0,-7,-2,6
1537918848355972,-4,-2,0,-4,4,-11,-7,-5
1537918848355972,-1,1,3,9,4,2,2,-2
1537918848361958,-9,-4,-4,-4,-12,-14,0,-2
1537918848361958,-2,-2,-5,-8,-12,3,-5,-7
1537918848368938,4,2,1,4,11,-14,-4,-1
1537918848368938,1,1,0,1,-6,4,2,1
1537918848376918,4,-3,-2,-4,-7,-39,-1,4
1537918848376918,-5,-1,3,3,9,20,-1,-4
1537918848391878,0,-1,-2,-5,-7,-6,-4,0
1537918848391878,-7,-1,-3,-1,-7,-9,5,-5
1537918848392875,5,-1,-1,1,-2,-5,-5,9
1537918848392875,0,-1,-2,-5,-1,3,5,-3
1537918848414816,2,3,0,-2,-1,-4,-1,-6
1537918848414816,-2,-2,0,1,-4,-5,-15,-4
1537918848415814,0,0,1,1,0,-5,8,-6
1537918848415814,-9,-2,-2,-1,-1,3,2,2
1537918848428778,27,3,0,-3,-2,-19,4,15
1537918848428778,-7,-1,-2,-1,2,1,-7,-11
1537918848437754,-5,-6,-2,-1,-8,-4,-5,30
1537918848437754,-6,-4,-2,-2,-2,-8,-8,-14
1537918848452714,-8,0,-1,2,0,3,-25,-15
1537918848452714,8,2,-1,-1,1,6,33,25
1537918848452714,1,0,0,1,3,-10,-15,-15
1537918848452714,-8,-5,-6,-9,-21,-2,16,-17
1537918848474655,-5,0,0,2,5,-1,-18,-5
1537918848474655,1,1,1,6,11,0,7,-3
1537918848475653,2,-1,-3,-5,4,24,4,-3
1537918848475653,1,-1,0,2,11,-26,-13,-7
1537918848489615,-2,-1,-1,-2,-33,-2,11,3
1537918848489615,2,-4,-4,-11,-23,-20,-4,4
1537918848490613,2,-1,3,5,10,1,3,-9
1537918848490613,0,1,3,3,8,22,-4,12
1537918848512554,-3,-1,-5,-4,16,6,4,2
1537918848512554,-3,0,0,1,6,2,-9,-3
1537918848512554,2,1,-3,-7,-15,-8,0,-3
1537918848512554,-1,0,-1,0,8,8,-1,1
1537918848534495,-7,-2,0,-1,0,-11,1,-1
1537918848534495,1,-1,1,1,-2,8,-6,-7
1537918848535493,2,-1,-1,-4,-7,-9,0,-2
1537918848535493,1,-1,1,-1,-6,-1,-3,6
1537918848549455,-7,-3,1,0,5,-1,6,-2
1537918848549455,7,0,-3,-3,-3,3,-2,1
1537918848550453,3,0,1,1,0,-4,2,0
1537918848550453,0,0,-1,1,0,4,-3,5
1537918848572394,-9,-3,-3,-5,-4,-2,-1,-3
1537918848572394,8,0,2,3,13,16,-1,-3
1537918848573391,2,1,0,3,-4,-25,-1,1
1537918848573391,0,-2,-2,-5,-4,1,-4,-4
1537918848594336,1,0,-2,-2,0,3,3,0
1537918848594336,-5,-1,0,1,0,11,-3,-3
1537918848595334,-1,1,1,6,19,13,2,-2
1537918848595334,-1,-1,-3,-5,-19,-14,-4,0
1537918848610294,0,-2,-1,-2,-17,-20,-1,-1
1537918848610294,-4,-2,-3,-6,-4,-5,-2,-2
1537918848610294,-2,-3,-1,0,1,11,-2,0
1537918848610294,-3,1,3,4,17,9,1,-1
1537918848640214,-1,0,0,-1,0,-5,0,0
1537918848640214,-2,0,-1,0,-4,-5,1,-2
1537918848641212,-1,-1,-4,-5,-9,-4,0,-3
1537918848641212,1,-2,-1,-1,-2,-1,0,3
1537918848655174,1,-1,0,3,4,3,0,0
1537918848655174,0,0,0,1,-2,-2,-1,0
1537918848655174,-2,-2,-2,-3,-3,-7,-2,-2
1537918848655174,-4,0,0,-1,-3,0,-1,-3
1537918848670132,1,0,0,-1,5,6,1,-1
1537918848670132,-5,-3,1,-1,0,-5,-2,0
1537918848670132,-2,-2,0,-1,-6,-5,-2,-2
1537918848670132,2,0,-1,0,-2,2,0,1
1537918848692074,1,-1,-3,-3,3,1,0,0
1537918848692074,1,0,-3,-2,-4,-6,-3,1
1537918848693072,-4,0,0,0,-3,0,-1,-2
1537918848693072,0,0,-1,-2,-2,11,-1,-1
1537918848716009,-2,-1,-1,-1,1,-12,-1,-1
1537918848716009,-4,-1,-1,1,1,1,3,-1
1537918848717007,-2,-2,-4,-3,-6,-2,-4,1
1537918848717007,4,2,1,2,6,12,1,1
1537918848729972,-1,-2,-1,2,17,8,2,-2
1537918848729972,-4,-2,-6,-11,-52,-40,-5,-2
1537918848729972,5,-1,0,0,1,5,0,1
1537918848729972,-11,-2,9,25,91,13,-9,-5
1537918848751913,21,7,2,5,-11,9,13,11
1537918848751913,-10,-8,-11,-13,-8,76,12,-2
1537918848752911,-7,-3,-3,-3,-28,-110,-25,-10
1537918848752911,4,-3,-3,-3,21,48,5,-1
1537918848774852,0,2,5,12,6,-27,11,7
1537918848774852,-2,-7,-10,-22,23,-122,-37,-9
1537918848775849,3,2,0,-1,64,127,40,13
1537918848775849,-4,1,4,24,78,12,-33,-14
1537918848789812,-11,-1,4,1,-47,-25,39,10
1537918848789812,24,-3,-13,-36,-75,-38,6,10
1537918848790810,0,-2,-6,-15,-23,-22,-26,-3
1537918848790810,-1,2,12,26,76,75,0,-2
1537918848814747,-7,-1,14,41,111,104,-21,-6
1537918848814747,23,8,15,28,-31,-96,49,37
1537918848815745,-11,-2,-15,-39,-26,87,6,-11
1537918848815745,3,-2,2,16,43,62,-1,2
1537918848828709,-7,-11,-12,-32,-46,-76,-17,-8
1537918848828709,-23,-1,6,16,113,105,-24,-26
1537918848830704,9,-1,-4,-11,-91,-90,-16,-6
1537918848830704,0,-1,-13,-33,-90,-11,20,10
1537918848842673,1,0,7,19,80,18,-2,-4
1537918848842673,-2,-3,-2,12,17,-22,-21,-4
1537918848848657,-2,-2,-1,3,-16,-12,6,1
1537918848848657,-5,-2,-2,-10,-28,-35,-2,-1
1537918848863615,0,-3,-6,-17,-45,-8,-8,-7
1537918848863615,-1,6,7,10,6,14,4,-1
1537918848871594,-1,1,5,13,41,1,-5,-3
1537918848871594,2,-1,-5,-16,-75,-83,11,1
1537918848887551,1,-1,-3,-4,5,-9,-14,-8
1537918848887551,0,1,2,1,9,27,2,6
1537918848887551,-9,0,2,8,22,-7,6,2
1537918848887551,16,-2,-3,-11,-22,-22,1,10
1537918848902511,13,4,-2,-10,-17,1,1,-9
1537918848902511,5,-2,-2,1,10,34,13,12
1537918848909492,2,1,5,9,11,7,-39,-31
1537918848909492,-10,-1,-3,-8,-23,-24,21,3
1537918848924452,-4,1,-3,-7,3,15,9,-22
1537918848924452,-9,-2,-1,-3,-17,-5,-13,-32
1537918848931434,-14,-3,3,13,25,-2,-19,-55
1537918848931434,31,9,0,-5,-9,-5,25,74
1537918848947391,-3,-3,-3,-4,-4,-2,15,-16
1537918848947391,-9,1,1,2,6,18,21,28
1537918848948389,18,0,-1,-2,1,-5,-16,-18
1537918848948389,-23,-9,-5,-6,-11,-9,-51,-55
1537918848963348,7,3,-2,-6,-11,4,92,61
1537918848963348,-4,0,0,1,3,6,-29,20
1537918848969332,22,4,1,2,11,5,51,81
1537918848969332,-3,-2,-3,-2,-16,-18,-13,-12
1537918848984293,-5,-2,-1,1,-1,-5,-19,35
1537918848984293,10,-6,-1,3,1,6,-2,-34
1537918848991274,-21,2,-1,-1,0,-6,13,11
1537918848991274,16,3,1,-4,-6,-4,7,7
1537918849007232,-17,-2,-2,-3,-6,-9,-21,-20
1537918849007232,13,2,0,-1,3,9,-25,-18
1537918849008229,-3,-7,1,3,5,13,37,18
1537918849008229,-2,0,-1,-3,-5,-10,-12,-23
1537918849023190,-8,-2,-3,2,28,18,-29,-14
1537918849023190,-6,-1,0,2,16,-3,25,17
1537918849029173,2,2,1,-6,-66,-38,-11,-6
1537918849029173,-6,0,2,7,45,18,13,-5
1537918849044134,6,-1,-3,-5,-37,-88,-6,5
1537918849044134,-7,-3,-8,-22,-86,-5,15,6
1537918849051115,1,3,8,27,93,76,-18,-9
1537918849051115,-3,5,18,42,53,55,46,14
1537918849067072,6,4,-8,-27,-84,-65,-40,-5
1537918849067072,-4,-5,-17,-35,-53,32,-7,-11
1537918849068070,-8,-1,4,3,47,-55,-8,-9
1537918849068070,-17,-6,-6,-16,-37,50,-2,-18
1537918849083030,22,7,13,26,14,-25,-29,21
1537918849083030,-10,1,9,42,78,58,22,-22
1537918849089013,18,3,-8,-24,-64,-59,-13,30
1537918849089013,-2,-12,-18,-42,20,-50,-29,7
1537918849103973,6,7,22,46,107,65,59,-1
1537918849103973,-8,-3,-15,-32,-36,60,-38,-6
1537918849111951,2,-2,4,19,-15,127,35,17
1537918849111951,31,10,11,32,69,-18,18,23
1537918849126911,-28,-15,-29,-72,-98,-79,-35,-33
1537918849126911,-1,-3,16,35,127,91,22,0
1537918849127908,7,14,8,6,-43,-18,41,9
1537918849127908,-15,-4,-9,-24,-92,-67,-28,-23
1537918849142869,0,1,10,45,119,127,-1,7
1537918849142869,1,2,4,12,22,-128,-13,-3
1537918849148852,-12,-17,-20,-51,-65,82,-15,-23
1537918849148852,-9,0,4,18,73,78,7,-1
1537918849163812,4,-4,-9,-21,-37,-4,-10,1
1537918849163812,0,3,4,9,3,-18,-14,-2
1537918849171791,0,1,4,16,49,12,-1,-7
1537918849171791,-1,4,4,18,26,66,4,-5
1537918849186751,-3,-2,-3,-10,-22,-19,5,-3
1537918849186751,3,3,3,8,-1,57,2,8
1537918849187748,-5,-4,-2,-3,-16,-38,-16,-9
1537918849187748,7,2,0,-8,-43,-16,6,3
1537918849210687,-10,-8,-5,-6,-7,-2,-13,-10
1537918849210687,-1,0,-1,-8,-3,-78,0,0
1537918849211685,4,-2,-2,-1,-15,-128,1,2
1537918849211685,-25,-2,1,11,26,-10,-7,-8
1537918849223652,8,1,-2,-3,0,32,1,-1
1537918849223652,1,1,-1,-9,-42,16,1,1
1537918849231631,-4,-1,-2,3,35,12,-8,-7
1537918849231631,-3,-2,-1,-3,-29,-28,-5,-2
1537918849246591,-2,-2,-3,-6,-21,-16,-2,-3
1537918849246591,0,-2,-6,-13,-28,-20,5,0
1537918849253572,-3,-1,4,15,40,7,-7,-6
1537918849253572,0,-4,-6,-16,-37,-28,-7,3
1537918849262548,-3,1,-1,0,6,7,0,-4
1537918849262548,2,2,1,4,5,13,-2,-10
1537918849268533,0,-1,3,2,13,16,13,10
1537918849268533,3,-3,-5,-14,-33,-12,-4,2
1537918849284490,-4,-2,0,3,8,6,-11,-3
1537918849284490,1,0,2,4,-5,5,-8,-8
1537918849291472,-5,-4,-6,-7,-6,-9,13,8
1537918849291472,-6,-3,-2,-6,-14,-18,5,-29
1537918849315408,5,1,2,6,13,3,-2,57
1537918849315408,-24,-4,-2,-3,-10,1,5,-77
1537918849316405,20,7,1,0,8,4,-33,17
1537918849316405,6,2,0,2,3,-3,18,16
1537918849321391,-5,-1,1,0,0,8,15,0
1537918849321391,-1,-2,-3,-5,-12,1,6,-17
1537918849329370,-8,-1,1,4,10,6,-11,28
1537918849329370,-4,-2,-4,-5,-13,-11,-14,-46
1537918849344330,3,-2,-2,-2,-5,0,2,-17
1537918849344330,1,-1,3,1,-1,-11,-17,8
1537918849351312,-2,0,3,11,27,-10,15,-11
1537918849351312,3,-1,-5,-7,-18,11,-23,5
1537918849366272,-3,-1,0,-1,17,27,14,-1
1537918849366272,0,-2,-3,-9,-53,-40,-2,27
1537918849374251,-1,-2,-1,-2,-7,-15,14,-11
1537918849374251,-4,-1,0,3,9,-16,-1,8
1537918849381233,-1,1,4,6,23,60,-10,-23
1537918849381233,0,0,-1,-5,-3,-1,7,22
1537918849389211,3,-1,-1,-4,-3,2,-6,-5
1537918849389211,0,-2,-2,-5,-12,-4,2,14
1537918849404171,-10,-1,2,6,6,-13,-5,-7
1537918849404171,9,1,1,1,13,11,0,12
1537918849411152,-6,-3,-3,-4,-10,7,-3,-16
1537918849411152,1,-1,-1,-2,3,3,-2,1
1537918849426113,-2,-1,-2,0,-6,-22,-4,6
1537918849426113,1,0,1,2,3,8,-2,5
1537918849435088,-2,-2,-2,-4,-3,6,-5,-10
1537918849435088,0,0,3,2,4,-4,7,7
1537918849450048,2,-2,-3,-4,-14,-17,-4,-6
1537918849450048,2,-1,-2,0,1,8,3,8
1537918849450048,-2,-1,-2,0,4,3,-10,-7
1537918849450048,3,1,1,0,5,-6,-1,2
1537918849471989,1,0,2,-1,-8,-10,1,-6
1537918849471989,2,-2,-4,-8,-2,11,0,2
1537918849472987,-8,-4,1,1,3,-2,-8,-8
1537918849472987,1,-2,-1,-4,-12,-6,-1,0
1537918849486949,2,0,-2,-2,1,-8,-5,-7
1537918849486949,-3,0,1,5,11,4,1,0
1537918849494927,-7,0,-3,-3,-2,4,1,-2
1537918849494927,0,-2,-1,-2,-2,4,-3,-1
1537918849509888,4,-1,-2,-1,-5,-13,4,14
1537918849509888,1,0,1,1,4,-1,-1,-5
1537918849509888,-2,0,-1,-1,-2,4,0,-4
1537918849509888,-2,-2,-3,-2,-3,-2,-21,-8
1537918849523850,-3,-1,0,1,7,9,11,1
1537918849523850,-1,0,0,4,25,23,2,9
1537918849531828,3,-2,1,-2,-9,-71,-3,-2
1537918849531828,-5,-1,1,3,-23,-25,-3,4
1537918849546789,0,0,1,9,90,82,3,-8
1537918849546789,4,1,-3,-24,-88,-105,2,10
1537918849554767,0,-2,0,14,83,127,39,4
1537918849554767,-10,-7,-9,-13,14,-94,-46,-10
1537918849569727,4,6,13,35,61,64,-15,-9
1537918849569727,-20,-4,-16,-44,-61,29,10,-3
1537918849570724,12,6,5,9,56,4,-23,3
1537918849570724,-12,-15,-28,-67,-103,11,33,-9
1537918849583690,1,8,15,44,99,1,-12,-8
1537918849583690,0,-2,-3,-8,-34,-64,-7,5
1537918849591668,-11,1,18,73,78,96,-2,-14
1537918849591668,10,-2,-3,-33,-64,-68,46,39
1537918849606629,25,-4,-26,-54,-17,-44,-25,37
1537918849606629,10,5,18,57,127,46,0,-2
1537918849614607,-13,-1,-10,-47,-93,56,-31,-25
1537918849614607,5,8,23,55,108,35,3,-1
1537918849629568,-14,-20,-26,-78,-128,-128,13,-17
1537918849629568,-3,-3,3,11,125,43,1,-6
1537918849630566,-2,-8,-7,-13,0,-28,9,9
1537918849630566,-2,6,12,32,60,68,-16,-37
1537918849643531,0,4,4,4,-52,-13,12,29
1537918849643531,3,1,-1,5,-26,-5,-4,-24
1537918849651509,-10,-3,-4,-11,-38,-45,-15,-39
1537918849651509,6,2,0,6,-13,17,7,40
1537918849666469,-7,-2,-2,2,-9,-25,-1,-8
1537918849666469,5,0,2,4,-20,6,-5,1
1537918849674448,-8,-3,-3,-5,-18,-39,18,8
1537918849674448,24,4,0,-1,11,-4,6,8
1537918849689408,9,2,6,8,-2,14,-6,-9
1537918849689408,-8,-2,-2,-1,-4,20,-5,9
1537918849690407,4,0,-4,-14,-19,-35,-4,3
1537918849690407,-8,-3,-4,-1,5,9,-8,-11
1537918849711350,-13,-1,6,9,4,18,3,-24
1537918849711350,8,-1,-1,-4,-12,8,21,20
1537918849720325,4,6,-3,-11,-5,-36,-5,2
1537918849720325,-8,1,4,8,13,13,-16,-2
1537918849734287,-2,0,0,3,4,10,15,-12
1537918849734287,-11,1,0,-1,-2,-2,4,-33
1537918849741269,-2,-1,-4,-4,-6,-11,-8,46
1537918849741269,13,-1,-3,2,6,11,22,-3
1537918849758223,-10,0,0,-2,-3,3,-10,-20
1537918849758223,5,1,-1,3,5,5,-3,18
1537918849759221,4,-2,-1,3,-2,-9,9,2
1537918849759221,1,4,-4,-4,-4,9,14,0
1537918849771188,5,-1,-2,-1,-3,-6,6,22
1537918849771188,-12,-10,-5,-5,-9,-5,-25,-10
1537918849780165,-7,-6,4,3,3,-4,14,-31
1537918849780165,13,9,1,2,5,1,1,33
1537918849795124,-11,-3,2,4,-1,1,-20,-36
1537918849795124,8,3,1,-3,-3,0,0,15
1537918849797119,11,-2,-1,-3,-10,-2,-13,-4
1537918849797119,-4,-5,0,3,19,-2,-6,-19
1537918849818063,4,0,2,10,50,-2,-2,8
1537918849818063,-12,3,4,2,-8,42,15,-5
1537918849819061,-2,-4,-4,-8,-39,-97,8,14
1537918849819061,-10,-5,-5,-7,0,58,-2,-12
1537918849831029,-8,4,8,30,91,-78,-2,-2
1537918849831029,-4,-9,-12,-49,-92,-96,-13,10
1537918849840005,12,7,7,15,13,111,-44,-4
1537918849840005,-15,-11,-16,-41,-24,8,12,-9
1537918849854965,-9,-6,-11,-31,-123,-54,13,-1
1537918849854965,7,7,17,65,127,2,-14,-11
1537918849861947,1,2,-5,-7,-86,-113,-29,2
1537918849861947,-12,-10,-13,-20,-37,-37,-31,-13
1537918849877904,-15,-9,-10,-40,-99,51,6,-6
1537918849877904,-11,-9,-7,-11,-11,-13,13,-9
1537918849878902,24,-4,2,10,67,66,7,45
1537918849878902,2,13,22,63,127,38,15,-1
1537918849891866,12,-1,-6,-19,-5,-14,15,8
1537918849891866,-1,-4,-5,-17,-37,13,0,0
1537918849900842,-19,3,4,14,86,-95,6,-27
1537918849900842,0,-9,-6,-25,-104,55,-2,2
1537918849914805,27,13,11,29,61,44,-5,-3
1537918849914805,0,6,6,14,22,9,6,8
1537918849921786,-6,-2,-7,-19,-52,4,7,-14
1537918849921786,2,1,7,18,25,-46,3,-14
1537918849937743,-6,-5,0,2,-14,52,-4,15
1537918849937743,8,-3,-4,-9,-42,-47,16,8
1537918849945723,-3,-5,-7,-15,-6,11,7,-4
1537918849945723,-11,2,0,1,-22,73,1,7
1537918849951707,1,-2,0,-1,2,5,-13,-10
1537918849951707,1,0,-4,-11,0,21,-7,1
1537918849960683,0,0,1,2,12,21,12,13
1537918849960683,0,1,1,-2,-15,-24,-11,-15
1537918849974645,0,4,5,14,78,-51,-7,6
1537918849974645,0,-2,-6,-11,-30,20,-3,-1
1537918849981626,-2,1,4,1,-2,18,7,-1
1537918849981626,1,-1,-3,-5,6,-31,-7,0
1537918849997583,-3,2,2,7,28,23,2,1
1537918849997583,1,1,1,6,21,7,2,3
1537918849999578,2,0,-4,-11,-22,-5,-8,-11
1537918849999578,-13,-2,2,8,19,-10,-3,-4
1537918850020523,12,0,-4,-5,-16,10,6,6
1537918850020523,2,0,2,4,2,10,-18,-8
1537918850021520,-5,0,2,4,3,22,16,0
1537918850021520,7,0,0,0,5,-16,-11,0
1537918850034486,-6,-4,-3,-4,-25,-2,11,-11
1537918850034486,-8,-1,0,3,10,15,-22,-18
1537918850041467,-4,-1,1,3,17,7,14,43
1537918850041467,5,-6,-2,-3,-4,-24,-8,-18
1537918850057424,6,8,0,-2,-8,9,-3,27
1537918850057424,-2,0,-2,-3,4,-2,-22,-10
1537918850059420,-9,-3,0,2,7,8,1,-15
1537918850059420,-1,-5,-1,1,2,-13,11,5
1537918850071387,-26,-4,-2,-2,-28,9,-10,-23
1537918850071387,-15,-4,0,3,7,-16,-11,-16
1537918850080363,23,7,2,0,6,-45,-12,26
1537918850080363,2,1,-3,-8,-29,8,-3,-9
1537918850094326,1,-4,0,4,17,33,-2,-1
1537918850094326,-7,-1,4,16,60,39,10,0
1537918850101307,-8,-8,-11,-28,-82,-46,-1,-23
1537918850101307,0,-1,2,2,19,-9,0,7
1537918850118263,-6,-4,-1,-5,-3,-3,0,4
1537918850118263,6,0,1,4,10,18,12,-3
1537918850119260,5,-2,1,6,28,35,-2,0
1537918850119260,0,4,-1,2,-2,-7,2,11
1537918850139205,-2,-3,-2,-3,-4,1,-4,-10
1537918850139205,8,0,-2,-4,-10,-7,5,16
1537918850148182,2,0,0,3,9,11,1,-11
1537918850148182,-5,0,-2,-4,-9,-9,-1,2
1537918850155163,2,-2,-1,1,5,-15,1,0
1537918850155163,6,-1,0,-3,-11,-5,4,7
1537918850161146,-4,0,-3,-4,1,11,-1,-6
1537918850161146,-2,-1,2,4,9,3,-1,-5
1537918850178101,5,-2,1,-1,-1,-2,-3,4
1537918850178101,2,0,-3,-4,-11,-6,4,6
1537918850179098,-1,-3,1,2,3,9,-3,-11
1537918850179098,-7,-1,1,0,4,-4,-2,3
1537918850200042,14,1,1,-1,0,-1,0,2
1537918850200042,0,-2,-2,-5,-17,-12,3,3
1537918850202037,-4,-3,2,5,12,10,-1,-7
1537918850202037,2,0,0,2,3,-20,-4,0
1537918850215002,-1,-2,-4,-4,-12,23,5,6
1537918850215002,-2,-1,-1,3,3,7,3,-3
1537918850221983,2,-2,-3,-3,3,3,-1,0
1537918850221983,0,1,-1,1,3,3,0,2
1537918850237941,-4,0,-2,0,1,-9,-3,-7
1537918850237941,6,2,-2,-2,-2,-2,3,4
1537918850238938,-9,0,-2,-1,-1,6,-1,-4
1537918850238938,-1,0,-1,-1,0,-1,-1,0
1537918850261877,-3,0,0,1,1,-8,-6,-2
1537918850261877,1,1,-1,-2,-6,0,5,3
1537918850262875,3,1,0,3,2,-2,-1,-3
1537918850262875,-2,-2,0,-1,-1,3,0,-1
1537918850266864,-3,-5,-1,3,28,20,-2,-1
1537918850266864,-2,-3,3,9,24,19,5,3
1537918850274842,10,2,-1,5,25,-82,-6,-1
1537918850274842,-3,-2,0,-4,-21,100,21,-6
1537918850288805,-6,-3,-2,13,64,-20,6,3
1537918850288805,7,7,8,9,58,81,-4,3
1537918850296784,-16,-10,-13,-25,-67,-92,-22,-13
1537918850296784,-4,5,3,5,71,61,61,12
1537918850303766,6,-8,-18,-57,-124,-75,-84,-11
1537918850303766,-9,-11,-16,-41,-89,79,19,-10
1537918850311747,-7,1,21,40,84,73,27,-2
1537918850311747,-13,17,7,3,-61,-101,0,-29
1537918850326705,1,4,1,9,28,50,49,-8
1537918850326705,10,2,-1,24,88,55,-41,-3
1537918850334683,-21,-21,-21,-47,-74,-6,2,-15
1537918850334683,5,2,6,7,-11,15,-12,5
1537918850357621,8,9,10,17,-33,-103,29,17
1537918850357621,-15,-15,-17,-35,-61,25,-24,-27
1537918850358619,16,-3,2,19,73,116,6,27
1537918850358619,3,-14,-5,12,40,14,-20,5
1537918850372581,-2,2,-1,-11,-2,-9,-19,0
1537918850372581,0,18,11,15,54,50,14,0
1537918850372581,7,4,-1,-8,-78,11,7,15
1537918850372581,6,-1,-7,-19,-56,-62,-16,2
1537918850386544,-2,-5,3,16,27,9,12,0
1537918850386544,-5,-9,-5,-4,-27,-91,14,-9
1537918850395520,7,10,7,14,43,29,-17,-1
1537918850395520,7,-3,-3,4,12,-10,-28,8
1537918850418458,-7,-4,-3,-5,-18,30,5,-12
1537918850418458,-3,-1,3,7,5,-58,4,3
1537918850419456,0,2,2,-3,-13,-20,-6,-1
1537918850419456,1,-3,-3,-6,-4,-13,2,0
1537918850440401,-3,-3,-1,-5,9,0,-7,2
1537918850440401,6,0,0,-1,-14,-35,0,15
1537918850441398,-16,-2,0,3,8,-4,0,2
1537918850441398,1,-1,-2,-6,4,5,3,-16
1537918850446384,3,1,3,8,19,38,-3,0
1537918850446384,4,15,-3,-4,-17,-32,-12,20
1537918850454363,-13,-11,1,1,0,10,38,-17
1537918850454363,-10,-6,-2,2,19,2,-2,-13
1537918850469323,-11,-10,-7,-4,-5,4,-16,22
1537918850469323,-2,10,-1,-3,-12,-36,-9,-31
1537918850477302,18,12,-2,-4,4,-11,0,67
1537918850477302,-4,-1,-1,-2,2,0,11,-15
1537918850492262,10,1,3,8,11,12,11,10
1537918850492262,-5,-12,0,0,-8,-17,-7,-38
1537918850493259,1,-1,-2,-2,6,4,-8,-25
1537918850493259,1,-7,-4,-9,-14,-5,-4,17
1537918850515200,0,-2,-2,0,16,40,5,4
1537918850515200,-1,-1,6,34,79,78,32,11
1537918850516198,-1,5,17,49,105,-75,-11,-19
1537918850516198,3,-3,-13,-34,-52,-32,0,10
1537918850529163,-10,-7,-17,-53,-98,43,-51,-28
1537918850529163,1,5,29,78,99,51,73,24
1537918850537142,-1,-14,-42,-105,-128,-100,-103,-27
1537918850537142,2,3,4,21,127,74,-13,8
1537918850552102,7,10,13,15,18,41,58,14
1537918850552102,-16,-12,-8,-15,26,-122,-27,-25
1537918850553099,20,22,25,71,120,127,63,18
1537918850553099,-11,-4,-16,-48,-128,-128,-29,-27
1537918850566064,1,-15,-16,-26,63,-45,-16,29
1537918850566064,-1,-12,7,16,69,111,6,2
1537918850581024,-2,-2,-7,-29,-118,-88,8,-16
1537918850581024,14,11,7,13,11,60,5,35
1537918850589003,-2,10,13,46,82,-36,-12,-21
1537918850589003,-13,-6,-13,-52,-128,-54,-22,-26
1537918850597979,11,4,3,6,34,39,-3,25
1537918850597979,-2,-1,4,13,6,12,12,1
1537918850611941,-7,1,-1,3,-22,-25,2,-12
1537918850611941,1,-1,-6,-15,-33,-50,-18,17
1537918850619920,-14,-8,-2,-5,-19,-8,1,-18
1537918850619920,0,-4,3,10,19,27,4,0
1537918850626901,-4,0,1,8,18,1,1,-15
1537918850626901,10,1,-4,-13,-16,-2,-6,18
1537918850634880,-3,-5,0,0,0,14,8,0
1537918850634880,3,0,2,3,6,21,-4,8
1537918850649840,0,0,1,6,1,-13,-4,-17
1537918850649840,5,0,-3,-7,-22,-12,6,7
1537918850657819,2,1,-2,-2,-4,2,4,10
1537918850657819,1,4,6,16,29,-2,-11,-3
1537918850671781,-6,1,-3,-5,-12,26,10,-25
1537918850671781,9,4,-4,-6,-12,-9,8,65
1537918850680757,-5,-1,-2,-3,2,6,-3,-19
1537918850680757,-8,-7,-2,-2,7,-4,-8,-12
1537918850686741,9,8,3,1,-15,5,0,5
1537918850686741,-4,-7,-4,-3,-8,-8,-17,15
1537918850695718,0,3,1,5,5,-11,6,10
1537918850695718,-4,1,-2,0,1,4,-2,-9
1537918850708683,-6,-10,-2,-4,-20,-9,9,30
1537918850708683,7,5,6,7,8,-3,-32,-45
1537918850717659,-25,-8,-3,-2,7,9,-5,-25
1537918850717659,13,1,1,-3,0,-1,22,34
1537918850731622,-12,-3,1,-2,-6,2,16,-42
1537918850731622,-6,0,-4,-8,-7,-13,-25,-34
1537918850740598,9,0,0,3,2,-5,5,1
1537918850740598,6,1,3,4,0,8,-27,-10
1537918850746582,14,4,4,8,26,0,24,80
1537918850746582,-20,-7,-3,-12,-35,26,-3,-32
1537918850755558,2,0,1,7,12,1,4,-33
1537918850755558,-6,-3,-5,-8,-2,-28,-29,-21
1537918850768523,-2,-5,-3,-7,-31,-6,-17,-7
1537918850768523,11,3,-1,1,17,-4,18,22
1537918850777499,3,-3,-2,-2,11,10,4,15
1537918850777499,-5,-2,3,7,12,17,-6,-16
1537918850791462,-5,0,1,-2,-1,-5,-5,-17
1537918850791462,6,0,0,1,-1,-10,10,-1
1537918850800440,-3,-3,-3,-4,-6,-3,-16,-2
1537918850800440,-2,-2,-2,1,1,-2,10,0
1537918850806422,4,2,-1,-2,-7,4,-11,2
1537918850806422,-4,-2,-1,0,0,-6,0,-8
1537918850815398,4,1,3,0,-2,4,8,67
1537918850815398,-7,0,0,1,-2,3,22,7
1537918850829360,10,-2,-1,1,-2,3,10,-10
1537918850829360,6,1,1,1,13,11,5,9
1537918850838337,-6,-4,0,-3,-14,-5,-2,-13
1537918850838337,-1,-6,-5,-7,-21,-6,4,0
1537918850851302,-1,6,0,5,31,44,-16,0
1537918850851302,-1,1,-2,-2,-18,-35,3,2
1537918850860279,-2,-1,-4,-8,-20,-28,2,-4
1537918850860279,-5,-3,-3,-3,1,-1,-4,-2
1537918850868257,-8,-6,-1,-5,-7,-3,0,-11
1537918850868257,7,2,0,4,26,17,6,-5
1537918850875239,-1,1,1,7,11,11,-2,-3
1537918850875239,-1,-1,-3,-3,-7,-6,-8,8
1537918850889200,-4,-2,-3,-1,4,-11,11,3
1537918850889200,0,-2,-1,-2,-5,-1,-12,31
1537918850898177,4,1,0,-1,-6,-4,-13,-23
1537918850898177,-2,0,1,3,9,8,-1,-26
1537918850911142,1,-1,-1,0,-6,-9,-3,46
1537918850911142,12,-1,-1,-3,-10,-5,-9,-12
1537918850920118,-2,-1,0,4,1,12,4,-6
1537918850920118,4,-1,-3,-1,5,-4,0,4
1537918850926103,-7,-2,-1,-2,-11,-4,-3,-25
1537918850926103,-6,-2,-3,-4,-7,-5,7,4
1537918850935078,0,2,0,-1,10,1,-1,3
1537918850935078,2,1,1,1,1,3,8,1
1537918850949040,-3,-1,-1,-4,-10,-10,-7,-7
1537918850949040,-4,-1,-2,0,-1,2,5,-3
1537918850958016,1,-1,1,3,3,2,-4,-1
1537918850958016,-6,-1,-2,-3,-4,-2,0,-5
1537918850979957,0,-1,-1,-1,-5,1,-4,-3
1537918850979957,-7,1,0,1,3,-1,27,24
1537918850981952,-1,-1,0,-2,0,1,4,-13
1537918850981952,4,-3,1,1,-1,0,-2,4
1537918850986939,-1,1,-1,2,0,-6,-13,-22
1537918850986939,-8,-4,-4,-4,-3,-6,-12,-7
1537918850994918,-7,-1,-2,-1,1,8,-6,-10
1537918850994918,0,0,-1,0,2,4,10,12
1537918851008880,-1,-1,1,3,8,0,-4,-4
1537918851008880,1,-4,-2,-3,-18,-21,-2,-4
1537918851017857,-13,-3,-4,-6,-6,6,-1,-13
1537918851017857,2,0,-2,-2,1,-2,-7,-4
1537918851031819,-2,-1,-1,-1,-1,5,1,-3
1537918851031819,1,0,3,2,9,5,2,6
1537918851040796,-1,-3,-5,-3,-3,-7,5,8
1537918851040796,-6,-3,0,0,1,-1,-4,2
1537918851056753,5,2,0,0,-2,0,23,-7
1537918851056753,3,2,-4,-2,-1,6,-3,-11
1537918851059746,2,2,0,1,-1,-3,-7,3
1537918851059746,0,-1,-2,0,0,2,-1,4
1537918851070716,-3,-3,-2,-2,-3,-4,-10,-1
1537918851070716,-3,-1,-2,-1,0,1,-10,-15
1537918851077698,1,-3,0,-1,0,-1,4,4
1537918851077698,-4,1,0,-1,1,-10,1,-3
1537918851091660,-2,-2,0,0,2,9,-3,4
1537918851091660,-7,-4,-1,-2,-3,0,8,6
1537918851100636,0,1,0,0,-1,-3,6,9
1537918851100636,-3,-1,1,1,1,0,2,1
1537918851106620,2,-1,0,2,10,13,-14,-12
1537918851106620,-2,1,0,13,67,-37,-2,-37
1537918851115596,-9,-3,-2,-11,-85,64,29,38
1537918851115596,-14,-2,5,25,103,-15,-59,-11
1537918851128561,6,1,-5,-20,-105,-74,27,26
1537918851128561,-12,-14,-8,-2,62,-5,8,-2
1537918851137538,26,8,6,7,-11,-124,-78,-36
1537918851137538,3,21,14,20,39,117,72,7
1537918851151500,6,-10,-19,-59,-96,-87,-39,3
1537918851151500,1,-4,-8,-2,92,-80,-20,1
1537918851160475,7,7,-1,-22,-102,21,58,15
1537918851160475,12,-15,-8,6,78,61,-89,-31
1537918851166459,9,25,37,51,-1,-46,79,29
1537918851166459,-4,-4,-14,-53,-67,26,14,20
1537918851175435,-10,-7,5,43,127,83,-65,-25
1537918851175435,14,-5,-6,-30,-126,-77,25,-7
1537918851189397,-15,-5,2,49,127,42,-29,-26
1537918851189397,23,-17,11,35,-48,-41,21,33
1537918851197376,-9,27,-14,-68,-32,19,-22,-3
1537918851197376,-26,-9,-8,12,93,-73,25,12
1537918851211339,10,2,9,-4,99,104,-12,-14
1537918851211339,-14,11,7,-8,-89,0,-25,-5
1537918851220315,0,-6,1,22,79,4,60,0
1537918851220315,8,-13,-13,-22,-78,-48,25,15
1537918851226299,-20,-3,-11,11,27,-4,-29,-18
1537918851226299,25,3,4,6,-4,39,-15,40
1537918851235275,-5,-5,0,-1,-42,-8,7,-6
1537918851235275,1,3,-5,-14,-36,-9,-19,6
1537918851249238,2,-4,-3,-7,-31,-3,12,16
1537918851249238,-5,7,2,-3,-20,26,-6,-26
1537918851258214,-1,-12,-4,-1,-10,-49,-2,6
1537918851258214,3,5,6,7,-4,8,8,2
1537918851272176,-4,-5,-3,-7,-11,6,-13,-18
1537918851272176,-9,1,-5,-14,-14,-4,4,-4
1537918851279157,1,-2,2,13,33,0,-6,-5
1537918851279157,-2,-2,2,-5,-17,12,3,-8
1537918851295115,6,3,-4,-9,-25,9,5,3
1537918851295115,-5,4,0,6,20,13,-2,-7
1537918851297110,14,-3,-1,5,6,-10,7,6
1537918851297110,-4,4,0,-4,-20,4,-1,-3
1537918851309078,-7,-4,-6,-10,-8,-14,1,7
1537918851309078,-1,3,2,10,16,13,2,-4
1537918851318054,-5,-7,-5,-5,-2,-8,-11,-3
1537918851318054,-9,2,-1,-2,-10,-5,4,1
1537918851332018,3,1,-3,-1,4,3,0,-2
1537918851332018,-8,4,2,1,3,11,-1,-9
1537918851338998,-18,-13,-1,-3,-6,-1,-2,-3
1537918851338998,-3,-8,2,-4,-2,0,-2,0
1537918851354956,-5,-5,2,1,0,2,6,0
1537918851354956,11,1,-3,-3,-5,3,-3,-3
1537918851356950,7,3,-2,2,1,-11,-8,-1
1537918851356950,-13,0,-3,1,-3,0,21,15
1537918851368918,23,-6,-3,-3,-2,-1,-21,-23
1537918851368918,-7,9,1,-3,-3,-1,9,13
1537918851383878,-24,-4,3,8,23,13,-5,-17
1537918851383878,16,6,11,33,92,-3,-41,-7
1537918851391857,-5,-3,-9,-19,-62,30,58,7
1537918851391857,-6,-8,-4,-1,25,2,-38,-62
1537918851398838,-1,2,7,10,-25,-61,-56,5
1537918851398838,11,-2,-7,-37,-121,-84,8,-10
1537918851415792,-19,3,1,11,112,102,-5,7
1537918851415792,10,-5,-9,-14,-106,32,48,-5
1537918851416790,-13,-1,-12,-26,-30,-66,-33,32
1537918851416790,11,-10,-19,-28,-85,-41,-47,-19
1537918851428758,-25,-3,23,53,67,-127,-77,-16
1537918851428758,-13,-10,-24,-44,-40,32,63,-14
1537918851437734,10,10,2,6,63,44,35,-23
1537918851437734,-5,-21,7,36,96,44,31,-10
1537918851453691,12,30,17,15,85,-25,22,9
1537918851453691,-14,-11,-15,-39,-56,-65,-67,-6
1537918851458678,-9,-12,12,31,61,-108,41,11
1537918851458678,-5,3,-13,-40,-73,-35,3,-18
1537918851475633,-2,-17,-4,21,58,95,-33,-20
1537918851475633,4,-6,31,80,127,-83,51,18
1537918851476631,4,19,-26,-60,-75,67,-18,2
1537918851476631,3,-1,3,19,68,104,0,33
1537918851488598,-7,1,-5,-18,-55,36,15,4
1537918851488598,7,11,3,5,-34,96,-27,-19
1537918851497574,10,-15,4,14,14,73,42,15
1537918851497574,-2,6,8,15,48,-23,-15,-3
1537918851512534,4,-1,-16,-35,-86,-67,3,-4
1537918851512534,0,-5,2,-6,4,3,-14,4
1537918851518518,7,-1,6,10,9,-36,11,-1
1537918851518518,-2,6,3,-4,-24,31,12,7
1537918851535474,7,-4,-5,0,12,-7,17,11
1537918851535474,-3,1,1,7,41,1,-15,14
1537918851536471,1,1,0,-3,-9,-15,-11,-6
1537918851536471,0,11,-1,-6,-20,-5,11,5
1537918851549435,-4,-12,-12,-22,-40,-15,-5,-5
1537918851549435,23,8,5,13,30,34,2,20
1537918851558411,-6,-2,0,2,-3,42,-4,-12
1537918851558411,-4,-2,-1,-2,15,-1,-1,-5
1537918851572374,1,-5,1,-1,-20,-15,5,2
1537918851572374,1,10,-1,-6,-18,-26,-6,11
1537918851579355,-3,-6,-3,-5,-12,5,0,-1
1537918851579355,0,-1,2,2,-3,-27,2,2
1537918851595313,-9,-7,-4,-11,-24,6,-7,0
1537918851595313,3,10,3,3,7,-2,12,4
1537918851596310,3,-5,0,7,9,0,-4,1
1537918851596310,8,3,1,1,6,19,2,1
1537918851609276,-11,3,-2,-9,-18,13,0,-7
1537918851609276,-3,-6,-1,0,9,7,-8,-5
1537918851618251,-6,1,1,2,-2,0,1,-2
1537918851618251,16,4,-2,-7,-8,12,2,4
1537918851632214,8,0,-1,-1,-5,-6,5,2
1537918851632214,-5,-5,-1,-4,-7,-21,-4,1
1537918851639195,-17,-3,-1,4,2,9,-2,-7
1537918851639195,18,-4,-4,-3,1,-4,6,7
1537918851655153,-3,2,-3,-3,-12,-16,-7,-5
1537918851655153,-4,9,12,12,26,37,2,-1
1537918851657148,-7,1,-3,-13,-33,13,1,2
1537918851657148,6,-2,2,-1,-10,-6,-16,-24
1537918851669115,-6,-4,-5,-5,-6,-5,9,1
1537918851669115,32,-1,-7,-9,-11,3,5,10
1537918851678092,7,6,5,13,25,8,-5,3
1537918851678092,-25,-6,-4,-4,-8,-5,6,-3
1537918851693052,6,-4,0,-2,-6,6,-29,56
1537918851693052,-9,-4,-1,3,4,-2,20,2
1537918851699036,10,2,0,-1,3,-8,-23,-6
1537918851699036,-19,-8,0,5,7,4,-17,-18
1537918851714993,2,7,-3,-4,-7,2,38,-7
1537918851714993,-13,-5,0,3,1,-11,-14,0
1537918851716990,12,-2,-4,-4,-6,-4,-3,4
1537918851716990,-11,1,0,-1,-1,9,1,-9
1537918851728957,15,-1,2,5,11,6,-8,-12
1537918851728957,-17,-5,-4,-7,-14,-11,-9,-36
1537918851737935,16,-2,-3,-3,-6,8,10,-35
1537918851737935,-4,2,3,5,15,-11,8,3
1537918851751895,-2,-1,-3,-6,-15,6,0,-4
1537918851751895,-2,-3,-3,-3,-5,-12,-2,1
1537918851758878,-9,-4,2,2,5,8,0,-6
1537918851758878,-9,3,1,4,13,9,4,11
1537918851775831,9,0,-2,-2,-1,-6,-7,-11
1537918851775831,12,-2,-2,-1,-3,-9,-5,8
1537918851776828,-4,-3,1,2,7,8,12,7
1537918851776828,8,2,1,0,-7,0,11,13
1537918851788796,-6,-2,0,0,-3,-7,-2,-1
1537918851788796,-8,-2,-1,0,-2,4,-6,-1
1537918851797772,1,1,-2,2,0,-4,0,11
1537918851797772,0,-1,-1,-1,1,3,2,0
1537918851811734,-7,-2,-4,-3,-7,-6,-3,-9
1537918851811734,-7,0,-2,-1,0,2,-5,10
1537918851818716,19,2,0,-2,1,0,-1,-5
1537918851818716,-5,0,0,0,-6,-2,0,2
1537918851835670,4,-1,-1,3,3,3,0,-2
1537918851835670,-2,-1,-2,-2,-3,0,-1,4
1537918851836668,-8,-3,-2,1,-1,-4,2,4
1537918851836668,16,3,-2,-3,-3,2,-2,4
1537918851848636,13,0,0,-1,0,-3,1,-1
1537918851848636,-3,-1,-1,1,2,1,0,2
1537918851857612,-2,-2,-1,0,-2,-5,-2,0
1537918851857612,-9,0,0,0,2,1,-3,-1
1537918851872572,-4,-1,1,0,-2,-2,0,-3
1537918851872572,1,-2,-1,-2,0,2,-1,0
1537918851878557,2,3,1,-1,1,1,-1,-3
1537918851878557,-17,-7,-2,-2,0,1,-2,5
1537918851895511,-4,0,2,1,2,-4,2,-3
1537918851895511,-2,-2,0,-1,1,4,-4,1
1537918851896508,-7,0,0,-1,-7,-10,1,4
1537918851896508,3,2,-1,-4,-4,-3,-3,-10
1537918851908476,-1,-1,-4,-2,-4,-2,-9,-12
1537918851908476,-4,-1,0,3,10,12,-1,-3
1537918851917452,3,0,0,0,-2,4,4,4
1537918851917452,0,0,-1,-2,-4,-17,-5,-6
1537918851940391,-9,-1,0,2,22,33,0,4
1537918851940391,5,1,0,-2,-30,-21,5,-5
1537918851941388,-2,-4,-4,-6,-13,-15,-6,-3
1537918851941388,9,1,0,2,1,4,1,8
1537918851962333,-6,0,0,2,-1,-9,1,2
1537918851962333,0,-1,0,1,18,12,-4,2
1537918851970310,3,-1,0,0,5,2,1,3
1537918851970310,-9,-2,-3,-3,-5,8,1,-9
1537918851985270,2,0,1,-1,-1,-16,-2,11
1537918851985270,0,-2,-1,-2,-1,-1,5,10
1537918851987265,-12,-3,-2,-1,-5,2,4,-10
1537918851987265,-13,0,-2,0,5,3,8,-1
1537918851999233,30,5,0,1,-2,2,-4,-3
1537918851999233,-1,0,-1,0,-1,-2,-6,-3
1537918852006214,-3,-3,-2,2,1,-4,2,7
1537918852006214,10,0,-2,-1,-4,-1,-2,5
1537918852023169,-7,-2,-1,-3,-8,-5,7,5
1537918852023169,-1,-1,-1,-3,-3,-8,-4,-2
1537918852024167,-1,1,1,-2,9,5,-6,-4
1537918852024167,-9,-1,1,0,1,12,-2,-3
1537918852045111,1,-2,-1,-3,-11,-13,-3,0
1537918852045111,1,-2,-2,0,3,2,-1,-4
1537918852047105,-5,-2,0,3,6,2,-1,1
1537918852047105,-11,-1,0,1,-1,-19,-2,-4
1537918852060072,15,1,-2,-3,-6,23,2,3
1537918852060072,-2,-3,-1,-1,-1,-2,0,1
1537918852066056,-3,-2,0,-1,-2,2,0,-3
1537918852066056,3,-1,-1,-1,-2,2,-5,-3
1537918852083010,-14,0,-1,1,0,-7,10,-3
1537918852083010,-3,0,1,0,0,-5,-2,7
1537918852084007,4,-1,-2,-4,-4,2,0,0
1537918852084007,5,-1,-2,-4,-1,-7,-1,6
1537918852104951,-10,-2,0,1,0,2,-6,-10
1537918852104951,0,-1,-1,-2,-2,2,4,-5
1537918852106947,-1,-1,-2,1,1,-3,1,4
1537918852106947,3,-2,0,0,1,3,0,1
1537918852119911,-2,-1,-1,0,1,-4,-3,-2
1537918852119911,-4,-3,-3,-5,-4,-4,0,-1
1537918852126894,5,-1,-1,-2,0,3,-1,1
1537918852126894,4,2,-2,-3,-2,0,1,-3
1537918852142851,-7,-4,-2,-2,-4,-4,-3,-1
1537918852142851,1,1,0,2,0,-1,-2,-1
1537918852143848,-1,-1,-3,-3,1,-1,0,-1
1537918852143848,2,-2,2,2,0,3,-3,-3
1537918852165789,-4,-1,0,-1,-1,-2,0,-2
1537918852165789,2,-1,-2,-1,-1,-1,-2,-2
1537918852166787,2,1,-1,-1,-2,-2,0,0
1537918852166787,3,-1,-1,0,0,1,0,1
1537918852179750,1,2,0,2,5,8,0,0
1537918852179750,-6,-3,-2,-4,-9,-7,-2,-5
1537918852186732,0,-2,1,0,2,1,-1,3
1537918852186732,0,-1,-2,0,3,2,-2,-2
1537918852202689,-2,-1,-1,-2,0,0,1,-1
1537918852202689,-14,0,-1,0,8,8,-2,-4
1537918852204683,22,2,-2,-2,-16,-15,1,8
1537918852204683,-4,-1,-2,-2,1,-2,-3,-1
1537918852225628,-2,-2,-2,-1,-1,-5,-1,-3
1537918852225628,-2,-1,-1,1,3,5,0,-1
1537918852226625,-8,0,0,0,3,3,-3,-3
1537918852226625,-3,0,-1,-1,-2,-1,3,1
1537918852239590,-3,-3,-1,-2,-3,-1,-2,-8
1537918852239590,8,1,-2,-2,-3,-4,1,1
1537918852246572,-6,-1,0,1,2,1,-1,1
1537918852246572,3,0,-2,-1,-4,-3,0,-4
1537918852262529,-2,2,-1,-2,0,-3,-2,10
1537918852262529,-6,-5,-2,1,-1,-2,-2,-4
1537918852264524,-3,-3,-2,0,1,0,-7,-4
1537918852264524,-9,-3,-1,-1,1,1,14,13
1537918852285468,-2,0,0,0,0,0,2,-23
1537918852285468,18,1,-1,-2,-4,-3,-4,9
1537918852286465,11,2,0,0,2,3,-13,14
1537918852286465,-15,-4,2,19,80,27,-16,-10
1537918852299430,10,7,6,9,-59,-68,5,-16
1537918852299430,5,-2,-2,-1,24,24,16,95
1537918852306411,-15,0,0,11,53,3,43,-81
1537918852306411,8,4,2,-9,30,20,-1,71
1537918852322369,-2,3,10,23,-42,-23,-35,-53
1537918852322369,-2,-9,-20,-68,-128,-102,4,-57
1537918852324364,-17,-16,-33,-53,-19,49,-28,14
1537918852324364,24,22,17,50,83,47,17,-41
1537918852345307,23,11,8,-10,-63,-15,-24,46
1537918852345307,-10,-17,17,60,127,71,-25,-3
1537918852346305,-6,25,22,0,-112,-77,-16,20
1537918852346305,-3,-13,-23,-25,24,47,-22,-43
1537918852359270,-4,-21,-21,8,89,-52,50,85
1537918852359270,27,32,16,-5,-72,60,-1,-1
1537918852368246,-6,-18,-8,-18,-24,-70,-21,-1
1537918852368246,9,-31,-3,3,-2,-10,0,32
1537918852383206,-7,15,3,12,76,34,1,-14
1537918852383206,-8,3,2,17,69,7,-4,-9
1537918852384204,0,-24,-7,8,14,0,21,-14
1537918852384204,-7,38,23,-9,-73,-42,-11,-13
1537918852405147,-15,-25,-13,-19,3,42,-6,-16
1537918852405147,-11,-4,-11,4,37,-65,12,-7
1537918852407142,18,17,6,1,-23,14,-21,2
1537918852407142,3,-11,-9,-11,-39,-28,-3,14
1537918852419110,-5,-6,-6,-14,-7,2,12,-4
1537918852419110,-9,8,2,6,-3,17,-2,-18
1537918852428087,4,1,3,12,23,6,7,16
1537918852428087,-16,-14,-7,-7,-20,-19,2,-13
1537918852443047,7,18,5,-5,2,11,-5,-11
1537918852443047,1,-6,1,0,-22,-8,0,-6
1537918852444044,-5,-7,-4,4,20,17,0,0
1537918852444044,2,1,-3,-10,-33,-31,2,-8
1537918852464989,-6,-4,2,-1,-3,20,-2,4
1537918852464989,-3,-6,-1,-8,-16,-7,-4,-18
1537918852466984,-3,2,-1,3,12,1,0,13
1537918852466984,10,3,0,0,-8,0,20,5
1537918852478963,1,-2,-1,-3,0,2,-4,-1
1537918852478963,-2,-3,-4,-2,-4,-3,-1,4
1537918852487927,-4,5,4,6,14,8,-6,-8
1537918852487927,-3,-1,-6,-8,-17,-12,-2,-12
1537918852503884,-20,-6,-2,-1,7,8,-4,-1
1537918852503884,11,2,-2,-4,-9,-9,3,5
1537918852508871,3,4,4,9,11,11,5,-4
1537918852508871,-5,-3,-4,-8,-19,-8,-5,-2
1537918852524828,1,-1,-2,-3,2,0,1,-3
1537918852524828,-13,0,2,5,11,-38,-3,1
1537918852526823,1,-2,0,-4,-9,33,8,4
1537918852526823,-5,-3,-1,-1,-16,-18,1,2
1537918852538790,6,0,-2,-9,1,21,-2,-6
1537918852538790,-2,-1,-2,-2,1,0,-3,-5
1537918852547766,1,-3,0,6,15,-20,2,-6
1537918852547766,-9,-1,1,0,-8,-6,-2,-6
1537918852562727,-9,-2,-1,-1,-3,5,-6,-5
1537918852562727,15,0,-2,-3,-3,14,5,9
1537918852564721,-2,-1,0,1,8,2,4,1
1537918852564721,2,2,0,3,4,10,2,2
1537918852585665,-2,-1,-3,1,-1,-10,-5,-8
1537918852585665,-20,-3,-2,-2,-5,8,-2,-5
1537918852586663,19,1,-2,1,1,-2,0,5
1537918852586663,5,0,0,-2,0,-5,-2,-2
1537918852598631,0,-1,-4,-4,-5,-3,1,-2
1537918852598631,-6,-2,-1,-6,-12,-3,0,-2
1537918852607606,-2,-1,1,1,-1,4,0,0
1537918852607606,-5,-2,-1,1,2,0,-2,-3
1537918852622566,4,1,-1,-2,-1,-3,0,1
1537918852622566,3,2,1,1,-4,6,-1,1
1537918852624561,-7,-1,-1,0,0,-5,1,0
1537918852624561,1,-4,-3,-5,-1,0,-3,-2
1537918852646502,2,0,1,-1,-2,-4,1,0
1537918852646502,3,-2,-3,-3,-6,-1,-2,-5
1537918852648497,-2,2,1,2,2,4,-1,5
1537918852648497,-14,-3,-3,0,-1,-2,-7,0
1537918852658471,7,-3,0,-1,-3,-1,6,7
1537918852658471,1,2,2,4,3,6,-7,-25
1537918852673430,-6,0,7,27,104,73,-17,-18
1537918852673430,-2,4,4,7,-19,-8,13,-12
1537918852682406,-10,0,-3,-4,-17,-73,46,20
1537918852682406,-2,-5,-1,1,69,30,-53,18
1537918852684401,11,2,-6,-24,-108,-7,78,13
1537918852684401,-1,-1,0,4,-23,-100,-22,-48
1537918852705345,-18,-13,-19,-40,-59,95,-43,-45
1537918852705345,24,22,17,31,42,15,30,24
1537918852706343,-9,-8,-19,-54,-107,-60,-27,0
1537918852706343,-18,-2,21,77,127,18,25,9
1537918852719308,16,-4,-21,-47,-119,-108,-1,31
1537918852719308,-17,2,6,-11,-1,91,-33,-27
1537918852728285,3,6,14,34,124,71,5,5
1537918852728285,8,-17,-21,-28,-63,35,49,-5
1537918852742247,2,5,18,49,127,-1,-9,1
1537918852742247,-18,2,1,18,-24,-71,23,-4
1537918852749228,6,-33,-31,-66,-128,-42,-32,-15
1537918852749228,-4,7,7,4,47,56,-20,10
1537918852765186,17,15,14,19,17,34,45,30
1537918852765186,-8,4,-10,-22,-89,54,-24,-29
1537918852767181,-10,6,9,29,56,5,-9,-20
1537918852767181,2,-16,-13,-20,-27,93,-14,49
1537918852779149,-2,-3,-9,-17,-103,-79,13,-40
1537918852779149,3,-7,-7,-14,-24,-27,13,43
1537918852788125,3,0,1,14,43,82,-16,45
1537918852788125,9,6,-4,-15,-31,0,-12,-23
1537918852802087,-4,4,13,20,49,34,-16,-3
1537918852802087,-1,-7,-2,-1,-1,-36,16,-12
1537918852809069,-3,0,2,7,-2,-39,-2,-2
1537918852809069,2,4,1,-6,7,-30,-13,9
1537918852825025,-6,-4,3,6,18,8,-10,5
1537918852825025,4,-13,-5,-5,1,-15,2,-1
1537918852827021,-2,12,6,6,4,-2,5,-7
1537918852827021,3,6,0,-12,-22,-30,-2,4
1537918852838988,-1,-4,-3,4,19,41,-10,-8
1537918852838988,2,-6,-8,-7,-8,17,2,3
1537918852847964,-20,1,4,7,8,-14,23,-1
1537918852847964,16,4,1,-6,-11,-8,2,1
1537918852861927,-1,-4,-2,2,9,12,-9,3
1537918852861927,0,-2,0,2,6,-12,1,-1
1537918852868909,-2,2,-3,-3,-8,-25,-7,-3
1537918852868909,-4,-2,-1,-2,23,15,-2,-1
1537918852884867,5,0,-2,-5,-20,16,-7,-7
1537918852884867,7,-2,0,3,3,-9,5,5
1537918852886863,-3,-3,2,9,32,2,2,-5
1537918852886863,-7,-1,-4,-13,-58,2,-3,1
1537918852907806,-4,-4,2,4,4,5,-9,-2
1537918852907806,1,0,-1,-1,10,15,9,-5
1537918852908804,2,2,-1,-1,-17,-35,-3,4
1537918852908804,-2,1,0,1,19,-20,-3,-10
1537918852921767,-7,0,-1,0,8,14,-4,-16
1537918852921767,1,-6,-2,-4,-8,-11,3,31
1537918852928748,-16,-1,1,3,6,9,-17,-17
1537918852928748,0,1,1,3,5,-2,1,-4
1537918852945703,-10,-3,0,-1,1,-1,-5,-6
1537918852945703,4,-2,-3,-4,4,7,7,0
1537918852946700,3,0,0,-2,-4,2,0,-1
1537918852946700,-4,-3,-4,-3,-6,-4,0,1
1537918852967644,-4,-1,-1,0,7,7,-5,-1
1537918852967644,-3,-1,1,0,1,-3,0,-12
1537918852969639,6,0,1,0,-3,-1,14,7
1537918852969639,-4,-2,0,-4,0,1,-4,-7
1537918852982604,-1,-1,-1,6,13,1,1,6
1537918852982604,7,2,-4,-6,-10,-13,-6,-5
1537918852988588,4,-2,-1,-1,-5,0,-3,-1
1537918852988588,-1,-1,-1,1,8,7,-3,5
1537918853005543,0,0,0,-3,-7,7,1,-2
1537918853005543,-1,1,1,7,22,-31,-5,-2
1537918853006541,-1,-3,-5,-11,-49,5,1,1
1537918853006541,0,0,0,-1,3,-1,-2,-3
1537918853027484,1,0,1,1,3,3,-4,1
1537918853027484,-5,-3,-2,1,-3,-10,-4,-7
1537918853027484,5,2,0,-1,8,2,1,1
1537918853027484,-1,-2,0,-1,-3,-1,-2,-1
1537918853041447,4,1,1,-5,-5,0,4,0
1537918853041447,-2,-2,-2,-1,2,12,2,-1
1537918853049426,-2,0,1,3,13,1,1,-1
1537918853049426,2,-1,-2,-8,-9,0,0,2
1537918853064386,0,0,-2,1,7,-3,-2,0
1537918853064386,-3,0,-1,-4,-7,5,1,-2
1537918853065383,-1,-1,1,5,5,-2,-4,-2
1537918853065383,-1,-1,0,2,4,0,0,-2
1537918853087325,0,-1,0,-1,0,-4,0,3
1537918853087325,-3,0,-1,2,-6,2,-1,-3
1537918853088324,1,-2,-3,-5,-3,-5,-1,-1
1537918853088324,-1,-1,0,1,-1,-1,0,0
1537918853101288,-2,-2,-2,0,0,3,-1,0
1537918853101288,-2,-2,-2,-1,-3,3,0,0
1537918853109268,-4,0,1,1,8,5,-2,-3
1537918853109268,11,1,0,0,0,-5,-2,3
1537918853125224,2,-2,-3,-3,-1,-3,-1,2
1537918853125224,-3,0,3,3,5,4,-1,-3
1537918853125224,1,-1,-3,-2,-1,-7,0,-2
1537918853125224,-5,-1,-1,-4,-1,6,0,-1
1537918853147165,-2,-2,-1,0,-3,3,-1,-1
1537918853147165,-1,-2,-4,-2,8,0,-2,-1
1537918853148163,-2,-2,0,2,-8,0,0,-1
1537918853148163,-6,0,1,1,2,-2,-1,-3
1537918853161128,1,-1,0,-3,0,0,-2,-1
1537918853161128,-6,-3,-1,-2,-4,0,0,-3
1537918853170103,1,0,-1,2,4,1,-1,-2
1537918853170103,1,0,-1,2,0,-2,0,0
1537918853185064,0,-4,-2,-1,-2,2,1,-1
1537918853185064,0,-1,0,-2,-5,-1,-1,0
1537918853185064,0,-2,-2,-1,2,-5,-3,0
1537918853185064,-2,-1,-2,-2,-2,-2,-1,-2
1537918853209000,-4,-3,-2,0,0,-2,1,-1
1537918853209000,0,-1,-1,0,-2,0,-1,0
1537918853209999,-1,-1,0,-1,2,-1,-1,0
1537918853209999,-3,0,-1,0,-3,-5,0,-1
1537918853215983,0,0,-1,-1,0,-1,-1,0
1537918853215983,0,-2,-1,-2,-3,-1,-2,0
1537918853222963,-1,-1,1,-1,-1,1,-2,-2
1537918853222963,-2,-1,-1,-2,-1,-2,-2,-1
1537918853235927,0,1,-1,-1,-2,-6,-3,2
1537918853235927,-2,-1,-1,-1,-3,6,0,0
1537918853243906,-1,-3,0,1,2,0,0,0
1537918853243906,-1,0,-2,0,2,-2,0,-3
1537918853259863,-2,-1,-3,-2,-2,-1,0,-2
1537918853259863,3,0,-1,0,-2,-2,0,-2
1537918853259863,-1,0,-1,-1,2,-2,1,1
1537918853259863,-2,0,0,-1,-1,-2,0,-3
1537918853275820,-2,-2,-1,-3,-2,-1,0,-2
1537918853275820,-1,1,-1,-1,0,-3,0,0
1537918853281804,1,0,-3,-4,-5,0,1,0
1537918853281804,-4,0,0,4,2,0,-1,-3
1537918853296764,-2,-2,-1,-1,-3,2,-2,-2
1537918853296764,-2,-2,-1,1,-2,-1,-2,-1
1537918853303746,1,-1,0,0,1,-1,-2,-2
1537918853303746,0,-2,0,-1,-2,-2,-1,-1
1537918853319704,0,-3,1,3,3,1,-1,-2
1537918853319704,0,-1,-1,-5,-7,-1,0,0
1537918853320702,0,1,-2,-1,-1,-1,0,0
1537918853320702,-2,0,0,0,1,0,-1,-1
1537918853335661,-1,-1,-2,-2,0,1,0,0
1537918853335661,0,1,0,1,-1,-2,-1,-1
1537918853341645,0,0,-1,0,-1,-2,-1,-2
1537918853341645,1,-1,-3,-4,-3,0,-2,0
1537918853356604,0,-1,0,2,0,0,-1,0
1537918853356604,0,-1,-1,-2,-1,1,-2,-1
1537918853363586,-3,-1,-1,-2,-1,0,-2,-2
1537918853363586,1,-1,0,0,-2,-1,-1,1
1537918853379543,-2,1,0,-1,1,0,-1,-1
1537918853379543,0,-2,-3,-3,-1,-1,0,0
1537918853380540,0,-2,0,2,2,1,0,0
1537918853380540,-3,-2,-3,-5,-6,-2,0,-1
1537918853395500,0,0,-1,1,-1,0,0,1
1537918853395500,-2,-3,1,1,-1,-1,-1,0
1537918853401484,-2,-1,0,1,-1,-2,-2,-2
1537918853401484,0,-2,-1,-1,-1,0,-1,-1
1537918853416444,-1,0,-1,1,0,-1,-1,1
1537918853416444,-1,0,-2,-3,-5,-1,0,1
1537918853423425,0,-2,-1,-3,0,1,1,1
1537918853423425,0,2,2,3,4,4,-2,0
1537918853439383,2,2,2,-2,0,-1,1,-3
1537918853439383,3,1,1,0,3,0,0,-2
1537918853440380,1,1,-1,-2,-1,-1,0,0
1537918853440380,-1,-2,-1,0,-1,0,0,-1
1537918853455340,0,-2,0,0,2,0,-1,-1
1537918853455340,-1,0,0,-3,0,0,-1,-1
1537918853461324,-1,0,2,2,0,-1,-1,0
1537918853461324,-1,-2,0,-1,-1,0,-2,1
1537918853476285,-2,0,-1,-1,-1,-1,0,0
1537918853476285,0,-2,1,1,0,-1,0,-1
1537918853484263,1,0,1,0,-1,0,-1,-4
1537918853484263,1,-2,0,0,-1,-3,-2,-3
1537918853499223,0,-3,-4,-6,-7,-6,-2,-1
1537918853499223,-2,-2,-3,-3,-1,-2,-2,-2
1537918853500221,-4,-3,-2,-1,-3,0,-1,-2
1537918853500221,-2,-1,-4,-3,-2,-3,-1,0
1537918853515180,-2,-1,0,-1,-3,-3,-2,-2
1537918853515180,-2,-1,-2,2,-1,-2,-1,-3
1537918853529143,-2,-1,-1,1,-1,-2,-1,0
1537918853529143,-1,-1,2,1,0,0,-1,-1
1537918853536124,-1,-2,-1,1,0,0,1,0
1537918853536124,-2,-3,-4,-3,-4,-1,-1,-2
1537918853544103,-1,-2,-3,-3,-1,-1,-3,-2
1537918853544103,-2,-2,-2,1,-1,-1,-1,-1
1537918853576018,-2,-2,1,2,-1,-1,0,-1
1537918853576018,-1,0,2,3,1,0,-1,-2
1537918853577015,1,0,-3,-6,-4,-2,-2,-1
1537918853577015,1,0,0,-1,0,-3,-1,-2
1537918853578013,-1,-1,0,-1,-1,0,-2,-1
1537918853578013,-1,1,-2,-1,0,0,-1,-2
1537918853581004,-2,-2,-1,0,-1,-3,0,0
1537918853581004,-1,-2,-2,-1,-1,-1,0,0
1537918853597960,0,-1,1,1,-2,0,1,-1
1537918853597960,-2,-2,-1,-3,-2,0,-2,-2
1537918853611922,-2,-1,1,2,1,-1,-1,0
1537918853611922,-1,-1,-3,-3,-2,-1,0,-1
1537918853619901,0,0,-3,0,-1,-1,1,-1
1537918853619901,-1,-1,0,3,-1,1,-1,-2
1537918853619901,1,-3,-4,-3,-3,-2,-1,-1
1537918853619901,-2,-2,0,1,0,2,-2,-2
1537918853634861,-1,0,-2,-1,1,2,-1,-1
1537918853634861,-1,0,-1,1,0,-1,0,2
1537918853649820,-2,0,2,1,-1,-1,-2,-1
1537918853649820,-1,-3,-1,-2,-1,-1,0,-1
1537918853656802,-1,0,-2,-1,-1,0,-1,-1
1537918853656802,-1,0,-2,-4,-3,-3,-2,1
1537918853663783,0,-2,1,0,0,-1,1,-1
1537918853663783,-1,-2,-2,-1,0,-2,-2,0
1537918853679740,-1,-1,-1,-2,-2,1,-1,-1
1537918853679740,0,0,0,-2,-1,-1,0,-2
1537918853680737,0,-2,-1,-1,0,-1,-2,-1
1537918853680737,0,0,1,1,1,-1,0,-1
1537918853695698,0,-2,1,-1,-2,-2,-1,-1
1537918853695698,-1,-1,-2,-1,0,0,-1,0
1537918853701682,0,-1,-1,0,-2,2,-1,-1
1537918853701682,0,-1,0,-2,0,0,0,-2
1537918853716643,-1,0,-4,-1,-2,-2,0,0
1537918853716643,0,0,0,-3,0,3,8,-1
1537918853732599,-1,0,0,0,-4,-5,-22,-2
1537918853732599,1,0,0,-1,-1,5,24,0
1537918853739581,-1,0,1,1,0,-1,-1,2
1537918853739581,1,-1,-1,-3,-1,-2,4,-1
1537918853740579,-2,-3,-1,-1,2,15,12,-2
1537918853740579,-2,0,0,0,0,-20,-30,-4
1537918853755538,1,0,1,0,-1,-6,-13,0
1537918853755538,-3,-2,-2,0,-2,7,-29,-5
1537918853761522,-2,-2,-4,-3,0,17,49,1
1537918853761522,1,2,1,-1,-2,-32,-23,-6
1537918853776483,1,0,-2,-4,-1,6,-66,-3
1537918853776483,-3,1,2,1,0,-8,38,1
1537918853783464,-4,-2,-1,1,0,-23,-59,-10
1537918853783464,13,5,1,7,24,33,-16,0
1537918853799421,-9,-2,-1,-7,-1,-20,22,-1
1537918853799421,-3,14,9,5,-10,82,25,-4
1537918853800419,6,-7,-11,-9,-6,-75,-7,-8
1537918853800419,21,-7,-10,-39,-75,-28,-49,-18
1537918853815379,-19,-2,-2,11,47,17,3,2
1537918853815379,-7,-38,-19,-4,-38,-121,10,6
1537918853821363,-37,0,-7,-3,26,69,34,-9
1537918853821363,4,33,43,16,11,-26,-30,-1
1537918853836322,48,21,-8,-29,-82,-37,-12,11
1537918853836322,-62,21,8,10,92,-30,-60,-28
1537918853844302,56,-48,19,36,65,38,-8,-6
1537918853844302,15,-4,-24,-59,-71,-80,-24,23
1537918853859261,4,9,12,13,115,113,53,-12
1537918853859261,18,-21,-40,9,45,-19,6,9
1537918853860259,15,34,31,18,40,63,16,10
1537918853860259,17,-9,3,6,-1,3,-9,59
1537918853882200,-5,10,-13,-30,-63,-52,-5,-31
1537918853882200,17,-5,-21,8,-26,71,-18,1
1537918853883198,-16,18,78,20,86,12,-13,-13
1537918853883198,-15,-12,26,27,48,39,76,32
1537918853896163,-31,-34,-19,-56,-47,18,-4,42
1537918853896163,-10,25,-11,-24,-30,-36,-35,-84
1537918853904141,18,-1,-43,-8,-41,16,-1,35
1537918853904141,-17,-5,-13,23,41,9,69,-21
1537918853927081,-56,8,2,40,57,20,21,3
1537918853927081,95,-46,-37,-17,-21,-29,4,79
1537918853928078,23,36,35,11,-32,-57,-15,-28
1537918853928078,-5,5,6,12,27,60,-1,-16
1537918853935059,7,-7,0,15,2,-23,-6,26
1537918853935059,-18,-7,-2,-12,-21,23,15,0
1537918853941042,-6,1,2,-12,-16,-5,7,22
1537918853941042,-8,-16,-15,1,21,2,-5,-9
1537918853956002,6,1,7,2,-34,-14,5,-22
1537918853956002,-17,10,48,8,4,13,12,-6
1537918853963981,-10,-11,-59,-28,-17,-10,-7,-8
1537918853963981,-20,2,-9,-1,0,0,-1,-23
1537918853978941,17,-5,5,2,5,-12,-2,-12
1537918853978941,-6,12,21,9,13,24,-3,1
1537918853985922,-14,-11,-10,-3,-26,-22,-1,11
1537918853985922,3,-2,-8,2,-5,8,3,-7
1537918853994898,1,-2,6,1,3,4,-4,-5
1537918853994898,2,3,11,7,6,4,2,6
1537918854000882,-10,-3,-11,-6,-18,-10,5,-8
1537918854000882,-5,-3,0,2,11,6,0,-7
1537918854016840,8,-2,3,12,5,4,-4,-5
1537918854016840,-10,7,7,-1,5,2,2,-5
1537918854023821,-5,-6,-10,-9,-12,-9,0,-4
1537918854023821,-3,-1,-7,-3,-7,11,-4,-7
1537918854038781,2,-5,2,-1,5,-8,-3,-1
1537918854038781,0,2,3,-2,-1,6,3,1
1537918854046759,-7,-1,-4,-1,-9,-5,1,-3
1537918854046759,3,-1,-3,1,3,1,2,-2
1537918854055735,-3,-2,-1,6,3,-2,1,-11
1537918854055735,-4,0,8,4,4,4,1,-5
1537918854061719,-4,-4,-11,-12,-13,-4,-2,-1
1537918854061719,-3,-1,-2,-2,-3,1,-1,1
1537918854076679,4,-1,-2,0,1,-3,0,6
1537918854076679,-1,2,4,-1,0,4,-1,7
1537918854083661,-3,-1,-2,1,0,-3,1,10
1537918854083661,-1,-2,-4,-4,-4,0,-1,-7
1537918854106599,2,-1,3,4,0,1,1,-2
1537918854106599,0,-1,0,-2,2,-2,1,5
1537918854107597,-4,-2,-5,-3,-4,-4,0,-1
1537918854107597,-3,0,0,-2,-2,0,-1,-3
1537918854130536,3,-1,0,2,2,1,-2,-4
1537918854130536,-4,1,0,-2,-1,-2,1,-2
1537918854130536,-1,-3,-2,-4,-4,-4,-2,-5
1537918854130536,-2,-3,0,-1,-1,3,0,-2
1537918854144499,0,0,-1,2,2,-3,0,-3
1537918854144499,0,1,0,-2,-4,1,1,-1
1537918854145498,-3,-1,1,-2,-1,-1,-1,-3
1537918854145498,-2,-1,-2,1,1,-1,-2,-1
1537918854167438,1,-2,-1,1,0,0,-1,-2
1537918854167438,0,0,0,-2,-2,-2,-1,-2
1537918854168437,-3,-2,1,0,0,-2,-3,-6
1537918854168437,1,1,-1,-1,-2,1,5,3
1537918854190377,2,-1,-1,-1,-1,-2,0,-2
1537918854190377,0,-1,0,0,0,3,-2,-2
1537918854191375,-2,-1,-2,-3,-3,0,-1,1
1537918854191375,0,0,-1,-1,-2,0,-2,0
1537918854204339,0,-1,-1,-1,-1,-1,-4,-3
1537918854204339,-7,0,0,-1,0,-1,-2,-11
1537918854205337,10,1,0,2,0,-2,-37,3
1537918854205337,-4,-1,1,2,2,7,60,4
1537918854228276,1,1,0,0,2,1,32,14
1537918854228276,2,1,0,-1,-1,-2,3,-1
1537918854228276,-7,3,0,-4,-4,-5,0,-4
1537918854228276,5,-5,0,3,3,-1,-33,-13
1537918854250215,3,4,-10,-4,-1,1,-12,-16
1537918854250215,-24,-5,-4,-1,27,34,-5,-9
1537918854251213,9,-6,-3,5,38,-46,-62,22
1537918854251213,12,-16,-26,-13,-27,39,15,-17
1537918854264178,-36,20,44,8,-80,-70,-11,-7
1537918854264178,27,-27,-13,-5,21,-27,-15,-11
1537918854265175,12,52,53,3,-11,-21,21,2
1537918854265175,-37,-77,-50,-10,16,-17,-22,-1
1537918854287117,-18,55,13,25,43,-32,17,13
1537918854287117,11,-98,-43,-41,-100,19,-10,-10
1537918854288114,-17,3,25,10,102,111,27,-8
1537918854288114,56,65,47,13,28,5,2,79
1537918854310056,4,-78,-99,-14,44,-28,-14,-30
1537918854310056,-33,29,-25,21,80,-15,12,20
1537918854311053,34,-22,82,20,-67,89,67,21
1537918854311053,13,105,80,-10,-64,-79,-31,-12
1537918854325016,-49,-85,-93,-35,-9,32,-35,-13
1537918854325016,51,91,100,48,87,-74,-12,0
1537918854325016,10,-56,-67,-35,-34,71,11,-17
1537918854325016,19,43,51,23,41,23,3,18
1537918854346957,24,9,28,10,-35,28,0,-12
1537918854346957,-8,-45,-78,-41,-25,9,15,-3
1537918854347955,11,37,-29,-18,-23,-23,-17,-3
1537918854347955,-42,-48,-37,17,24,-24,0,-63
1537918854369896,40,8,-62,-34,-22,58,21,52
1537918854369896,-3,36,92,20,-16,-18,-11,4
1537918854370894,-32,-63,-23,-9,-45,-35,13,25
1537918854370894,-5,32,18,11,14,27,-8,8
1537918854384856,1,-78,12,25,68,52,-4,-18
1537918854384856,-27,33,4,12,-4,-22,6,4
1537918854384856,-1,61,4,5,14,-38,-12,-36
1537918854384856,-18,-39,-29,-9,3,6,2,-1
1537918854406797,2,19,20,-3,4,-30,3,-1
1537918854406797,2,-1,-5,-3,-17,18,4,19
1537918854407795,-22,-26,-26,-6,-11,-41,-8,-17
1537918854407795,4,-10,-23,-10,-1,14,2,-4
1537918854430733,5,25,34,-2,-7,-21,-6,13
1537918854430733,-3,-11,-13,-18,-25,17,0,-13
1537918854430733,3,12,-2,18,31,6,-1,9
1537918854430733,-3,-23,-15,-13,-19,-25,-2,2
1537918854443699,5,29,27,0,0,3,0,-10
1537918854443699,-1,-4,-9,5,6,12,0,1
1537918854451677,-6,-3,-10,1,0,-29,-1,0
1537918854451677,-5,-6,-5,2,-5,1,-1,0
1537918854467634,-2,9,26,6,1,-5,3,-1
1537918854467634,5,4,-5,-4,-3,16,4,2
1537918854468631,-6,-2,-5,-5,-8,-21,-3,5
1537918854468631,-5,-12,-10,-5,-6,4,-2,-12
1537918854490573,6,16,9,0,3,8,1,4
1537918854490573,-2,-6,-5,-2,-4,-5,0,-7
1537918854490573,-2,1,-2,-1,6,-7,-4,-10
1537918854490573,-3,-5,-3,0,2,2,-3,13
1537918854503538,-1,8,8,4,0,-8,-3,19
1537918854503538,-3,2,3,1,-3,4,-5,18
1537918854512514,-5,-3,-4,4,2,-7,-1,6
1537918854512514,2,-1,-4,-7,-4,4,2,-2
1537918854527474,1,4,9,2,-2,-6,-2,-3
1537918854527474,-2,-5,-11,-8,-9,3,-2,-12
1537918854527474,-2,0,0,4,8,-1,-1,-8
1537918854527474,-3,-7,-5,-4,-1,-5,0,-8
1537918854550413,-1,6,5,-1,-2,-2,-1,-10
1537918854550413,-1,-1,-1,-1,-4,3,-3,-8
1537918854551410,0,0,-5,-1,-2,-7,0,-7
1537918854551410,-1,-3,-3,-6,0,-1,1,-4
1537918854563378,-1,1,1,2,-3,-3,-1,-3
1537918854563378,1,1,0,0,0,4,1,4
1537918854572354,-2,-2,-4,-6,-1,-7,-3,7
1537918854572354,-3,-3,-2,-2,-2,1,1,-3
1537918854586318,0,4,4,2,2,2,-1,-3
1537918854586318,-1,-3,-1,1,-1,0,-2,4
1537918854595294,-1,0,-2,-2,-2,-3,0,0
1537918854595294,0,-2,-1,2,-1,0,1,0
1537918854610256,0,0,0,-2,0,-2,-1,-3
1537918854610256,0,-1,3,2,-1,0,2,0
1537918854611252,0,-2,-2,0,-1,-1,-1,0
1537918854611252,0,-1,-3,-4,-3,-2,0,-1
1537918854624217,-1,2,0,-1,-3,-3,-1,0
1537918854624217,0,-2,-3,0,-1,0,-1,-2
1537918854633193,-2,1,0,1,3,-1,-3,-3
1537918854633193,-3,-2,-1,-2,-2,-3,-3,-4
1537918854648153,1,1,2,0,0,1,4,3
1537918854648153,-1,0,-1,1,1,-1,-1,0
1537918854649150,-2,-3,-3,-2,-1,-3,0,3
1537918854649150,-2,-1,-2,-1,-3,-1,-3,-3
1537918854670093,0,-1,-1,-2,0,1,-1,-4
1537918854670093,0,-1,-1,0,0,1,0,-1
1537918854672088,-1,-1,-3,0,-1,-2,1,1
1537918854672088,0,-2,0,1,3,-1,-3,-2
1537918854684055,-2,-3,0,1,0,0,-2,-3
1537918854684055,0,-2,-5,-6,-5,-4,1,0
1537918854693032,1,-2,0,0,1,3,-1,-1
1537918854693032,-2,-1,1,3,0,0,-2,-2
1537918854707992,-1,-2,-1,-6,-5,-4,-1,-1
1537918854707992,-2,-1,-6,-2,0,-1,-1,-1
1537918854709987,-2,-1,4,-1,0,0,-1,1
1537918854709987,1,0,-1,1,-1,0,0,2
1537918854729933,-1,1,1,2,2,0,-2,0
1537918854729933,1,-2,-2,0,-1,0,1,0
1537918854731929,0,1,-2,0,-2,-1,-3,-2
1537918854731929,-1,-1,-2,-2,-2,-1,0,-1
1537918854743897,0,1,0,-1,-2,1,-2,-1
1537918854743897,0,-3,0,1,-1,-2,0,-1
1537918854752874,-1,0,1,-2,1,2,3,0
1537918854752874,-2,-2,-2,0,0,0,0,-2
1537918854767833,-2,-2,-8,-9,-3,-2,-4,-4
1537918854767833,1,0,1,1,-1,2,1,2
1537918854768830,-1,0,3,2,0,0,0,-1
1537918854768830,0,0,-1,-2,-4,-3,-2,1
1537918854790771,-2,-2,-3,1,-3,-3,-3,-2
1537918854790771,-3,-2,2,1,1,-1,-2,0
1537918854791770,-1,-1,-4,-1,-1,-1,0,1
1537918854791770,2,-1,-2,-4,-2,1,1,2
1537918854813710,-2,0,2,0,2,3,3,0
1537918854813710,-2,-2,0,-3,-2,-3,-6,-3
1537918854815705,1,-1,0,3,2,-9,-4,-1
1537918854815705,-1,-1,4,2,1,1,-1,-2
1537918854818697,-1,-1,0,0,0,4,10,2
1537918854818697,0,0,1,0,2,-2,-12,1
1537918854826676,1,1,-1,-1,-2,-5,-4,-3
1537918854826676,-1,0,-1,-2,-3,5,9,0
1537918854841635,-1,-2,0,-3,-3,-7,-18,-5
1537918854841635,3,0,-2,-2,-4,3,19,7
1537918854849614,-2,-1,-8,-7,-2,0,-5,1
1537918854849614,3,9,3,0,-1,0,4,2
1537918854864574,-1,-7,1,4,2,14,21,3
1537918854864574,-8,-7,-5,-4,-2,-16,-32,-2
1537918854865571,1,-2,1,2,-1,-8,-8,-2
1537918854865571,2,-1,2,2,0,5,2,2
1537918854878536,-2,1,-3,-4,-3,-4,1,-1
1537918854878536,-1,2,-3,-1,-2,7,10,-1
1537918854887512,-1,-1,1,-3,-3,2,3,-1
1537918854887512,-4,0,0,-1,-1,-4,-7,-3
1537918854901474,1,0,-2,1,0,-6,-5,0
1537918854901474,0,0,-2,0,1,-2,6,-2
1537918854909454,-1,0,-5,-3,-4,2,0,2
1537918854909454,-2,-3,-1,0,-1,0,-10,-3
1537918854916435,0,0,-1,-4,-2,-1,10,0
1537918854916435,0,0,0,-2,-1,2,-2,0
1537918854923416,0,1,1,2,-1,-3,0,1
1537918854923416,-2,-3,-3,-2,-1,0,3,-3
1537918854938376,-1,0,-2,-2,1,7,3,-2
1537918854938376,0,3,4,4,1,-5,-5,-2
1537918854947353,-1,-1,-2,-1,-4,2,13,0
1537918854947353,-4,-7,-3,-2,-2,-11,-24,-1
1537918854961315,1,2,2,3,1,-7,-20,-1
1537918854961315,0,-3,-5,-3,-2,6,21,-4
1537918854969293,-2,1,4,2,2,2,14,6
1537918854969293,-1,0,-3,-2,0,0,5,-1
1537918854976275,0,-3,-4,-7,-1,8,5,-3
1537918854976275,1,1,3,1,0,1,-5,1
1537918854984253,0,-2,-2,-3,-1,-3,-5,-3
1537918854984253,-1,-2,0,0,-3,-3,3,-1
1537918854999213,0,0,1,2,-3,-9,-7,0
1537918854999213,0,-3,-1,-2,0,-2,-3,-3
1537918855007192,-2,-2,-1,-1,1,1,-1,-2
1537918855007192,-1,-1,-1,0,0,-2,0,1
1537918855022152,-1,-1,-2,-2,-5,-4,-14,-1
1537918855022152,-1,-2,-2,-1,-1,-2,11,-1
1537918855029133,-1,-1,0,0,-1,1,-11,0
1537918855029133,-1,-1,1,0,0,9,16,-1
1537918855044094,-2,-2,-4,-2,-1,-3,4,-1
1537918855044094,-1,-2,3,1,-2,-2,24,0
1537918855045091,1,0,-3,-2,0,1,-5,-2
1537918855045091,-1,-2,0,-2,-1,-14,-13,-2
1537918855059055,-1,0,0,1,-1,6,-16,0
1537918855059055,-1,-1,-1,0,1,-2,-12,0
1537918855067032,-1,-1,-1,-1,-4,-2,7,-1
1537918855067032,-3,0,-3,1,1,4,4,1
1537918855080995,-3,0,1,3,1,-3,4,-4
1537918855080995,0,-1,1,-1,-1,-6,-17,-1
1537918855089971,-1,-2,-3,-3,0,-3,4,-1
1537918855089971,0,-1,0,2,2,6,7,0
1537918855104931,0,1,0,-2,2,-7,-5,0
1537918855104931,0,0,-3,-2,-2,17,8,1
1537918855104931,-1,-1,-1,-2,-4,-17,-13,-4
1537918855104931,-3,-3,-2,-5,-4,0,-19,-4
1537918855118894,1,0,1,0,4,4,9,2
1537918855118894,0,2,0,3,4,-6,-10,3
1537918855126873,0,-1,-2,-1,-2,2,7,-4
1537918855126873,2,0,0,-1,-2,-12,-7,3
1537918855141832,0,0,0,1,-5,-4,-13,-1
1537918855141832,-4,-3,-2,-4,-2,5,-1,-2
1537918855149812,-3,-3,-2,0,1,7,8,-1
1537918855149812,-1,0,-1,1,-1,-4,-17,-2
1537918855164771,2,3,5,1,1,-2,6,0
1537918855164771,-2,-3,-4,-2,-4,-1,-2,-3
1537918855164771,0,-1,0,0,1,2,9,1
1537918855164771,-1,-2,-3,-2,1,3,9,-1
1537918855178734,-2,-1,0,1,-1,-3,2,0
1537918855178734,0,1,-1,0,-2,-6,-3,-4
1537918855186713,-1,0,0,-1,-1,2,-6,0
1537918855186713,0,-1,1,1,0,2,3,1
1537918855202672,-3,-2,-2,0,0,-4,0,0
1537918855202672,0,-2,-3,-3,-2,-3,1,-1
1537918855209652,0,-2,-1,1,-1,1,-8,0
1537918855209652,-2,0,-1,-2,0,-1,2,-1
1537918855224612,2,0,-3,-4,-5,-1,7,2
1537918855224612,1,1,0,0,-1,0,-2,-3
1537918855225610,-4,-1,1,0,2,-1,-5,3
1537918855225610,-3,1,-2,1,-1,-2,2,-3
1537918855238574,-3,-3,-2,-1,0,1,1,-3
1537918855238574,1,1,3,2,1,1,-4,-2
1537918855247550,6,-1,-6,-10,-7,-2,-2,-2
1537918855247550,-25,-2,-1,0,2,3,4,-6
1537918855262511,33,5,-2,-7,-8,-6,-4,7
1537918855262511,-27,0,-1,-3,-3,-6,-2,-3
1537918855269491,32,1,2,4,3,0,0,1
1537918855269491,2,-2,-1,1,-2,1,2,-1
1537918855284451,-25,-5,0,0,3,3,-2,-9
1537918855284451,1,11,9,7,10,9,5,8
1537918855285448,15,0,-23,-1,40,20,-24,-6
1537918855285448,-3,-18,14,7,11,15,-12,14
1537918855298414,7,-8,-13,15,38,33,59,-17
1537918855298414,8,-2,8,-6,-48,-50,-5,24
1537918855307389,-17,2,-5,22,89,25,-27,-15
1537918855307389,-52,2,-16,2,18,-18,-22,-20
1537918855321352,77,37,68,-25,-102,-110,32,41
1537918855321352,2,-32,-3,-33,56,66,-35,-12
1537918855329331,24,-36,-9,44,43,14,22,51
1537918855329331,-32,37,-33,-70,-96,-73,33,-18
1537918855344291,-20,13,7,-13,-52,-67,-41,-15
1537918855344291,30,3,6,-33,11,48,25,42
1537918855345289,5,-44,-39,22,90,107,-33,-62
1537918855345289,22,18,76,33,-42,-43,15,-64
1537918855359252,-11,-17,-30,33,69,-63,5,56
1537918855359252,-27,69,41,70,92,42,-30,28
1537918855367230,21,19,42,-23,-123,-127,-2,21
1537918855367230,5,32,5,-8,78,44,26,39
1537918855381194,-24,-64,-22,-24,34,104,-23,-42
1537918855381194,-6,-22,-39,-7,25,-128,28,6
1537918855390169,-23,-3,-34,-22,-19,20,5,-65
1537918855390169,19,1,-4,9,19,51,22,82
1537918855404133,-2,-11,-16,-7,-4,-68,-27,-64
1537918855404133,15,-18,-18,18,31,103,-3,48
1537918855405130,-6,17,18,-19,-86,-85,5,6
1537918855405130,24,-9,-4,-9,-16,-18,-9,-3
1537918855419092,-17,-8,-1,22,48,107,-12,-8
1537918855419092,-1,-27,-20,8,22,29,3,-17
1537918855427072,-11,61,32,-33,-82,-73,2,1
1537918855427072,-17,-18,2,10,39,36,-28,-15
1537918855441034,-7,9,5,11,62,110,-5,17
1537918855441034,-29,9,5,-11,-74,-48,-3,-57
1537918855450009,-6,-20,-2,-9,-6,41,12,22
1537918855450009,19,-12,-30,8,28,13,-8,0
1537918855463971,-9,22,9,6,-6,-14,13,6
1537918855463971,2,-12,-1,-20,-63,-36,0,-28
1537918855472948,-16,-2,-9,7,53,6,-3,4
1537918855472948,12,-14,-8,-2,-18,-9,1,6
1537918855478931,-6,6,7,0,-24,-25,-4,-2
1537918855478931,-2,-4,-10,-9,-22,-15,-5,-12
1537918855487907,-6,-1,-1,-12,-3,4,9,15
1537918855487907,6,3,9,14,10,4,-6,-16
1537918855509848,-5,-9,-4,-6,-16,-3,1,6
1537918855509848,6,2,-6,-1,3,-11,1,-11
1537918855511843,-9,5,12,4,12,16,6,1
1537918855511843,3,-14,-2,-4,-13,-10,-4,-6
1537918855523811,-3,1,-14,-2,4,-7,-7,5
1537918855523811,5,-2,2,1,-13,-8,2,1
1537918855532787,-8,-1,8,8,3,2,4,10
1537918855532787,-2,-11,-9,-13,-10,-5,0,6
1537918855538771,-2,-1,-6,-5,-11,-3,-3,6
1537918855538771,1,8,10,3,2,2,16,-19
1537918855547747,-5,-4,1,1,0,-11,-33,-21
1537918855547747,4,0,-4,2,9,-9,-14,-16
1537918855561709,-2,5,1,-2,-8,10,8,-3
1537918855561709,1,-4,0,-4,-6,0,2,1
1537918855570685,-5,-3,-5,3,9,16,22,9
1537918855570685,1,-3,-3,-2,-7,-14,-7,7
1537918855583651,-2,1,-3,-4,-11,-2,6,-1
1537918855583651,-1,-1,0,-3,-6,-22,-14,-2
1537918855592627,-1,0,-1,0,0,14,11,3
1537918855592627,0,-1,5,6,4,21,10,0
1537918855598611,-4,-6,-5,-6,-8,-13,-10,-2
1537918855598611,-2,-3,-3,-2,3,0,-5,-3
1537918855607587,-2,1,4,-2,-2,-9,-5,0
1537918855607587,1,-3,-5,-3,-4,-4,-1,-3
1537918855621550,0,3,-1,-2,0,7,10,1
1537918855621550,0,1,5,-1,-8,-5,6,0
1537918855630528,-1,-1,1,5,1,-13,-32,-8
1537918855630528,0,-3,-12,-7,0,1,3,0
1537918855643492,1,1,6,3,2,-7,-16,0
1537918855643492,0,0,-3,-4,-4,23,41,1
1537918855652467,-2,-3,7,-2,1,-17,-9,-1
1537918855652467,1,0,5,3,4,21,9,1
1537918855658451,-1,2,-3,-2,-3,-14,-8,-2
1537918855658451,3,2,4,4,3,-11,-25,3
1537918855667427,-1,-1,-5,-4,3,17,-18,-1
1537918855667427,-1,-3,0,2,-1,-10,-17,-2
1537918855681390,0,0,3,0,-1,4,49,2
1537918855681390,-3,-2,-2,1,-3,-8,-7,-6
1537918855690366,0,-2,-2,0,-3,0,12,4
1537918855690366,-1,-1,0,-3,-3,-7,-28,-7
1537918855712307,1,-1,-2,-2,-1,3,-10,1
1537918855712307,1,-1,0,1,1,0,1,-3
1537918855714302,-3,0,-3,-4,-5,2,3,0
1537918855714302,0,-1,-1,0,-3,-1,1,-1
1537918855735246,-1,-2,0,-1,1,-5,-2,0
1537918855735246,-1,-1,-2,0,-1,1,-3,-1
1537918855736243,-1,-4,-1,-1,-3,-4,2,0
1537918855736243,-3,-2,-2,-1,-3,-10,0,0
1537918855749208,0,0,-2,0,3,13,8,-1
1537918855749208,0,2,0,0,0,-2,-15,-3
1537918855756190,-2,-4,-1,2,2,12,24,2
1537918855756190,-2,-1,-3,-3,-6,-26,-15,-4
1537918855773145,1,0,-1,-2,-2,-5,-35,-1
1537918855773145,-3,-1,-1,0,-2,2,-16,-4
1537918855774143,1,0,0,1,1,-2,46,5
1537918855774143,0,-2,0,2,0,4,18,1
1537918855795086,-2,-1,-3,-4,-2,2,1,-1
1537918855795086,-1,-1,-2,-1,-1,1,-2,-1
1537918855797081,-2,0,0,-1,-1,-2,-13,-1
1537918855797081,-1,-2,-1,-3,-2,2,-15,-2
1537918855810046,-1,-1,0,3,0,3,19,2
1537918855810046,0,-3,-4,-5,-6,-8,-5,-2
1537918855816030,0,0,0,0,-1,0,1,-2
1537918855816030,2,0,0,0,2,2,-1,0
1537918855832985,-3,-1,-1,0,-2,-5,-12,-3
1537918855832985,2,1,1,2,0,6,-8,-2
1537918855833983,4,-1,-3,-4,-4,-1,28,-2
1537918855833983,-16,-5,-3,-2,-3,3,13,5
1537918855854927,12,9,-2,-6,-1,-15,-32,-1
1537918855854927,-5,-8,1,6,17,8,1,-9
1537918855856922,30,5,-1,13,89,34,-43,-1
1537918855856922,-27,-7,-18,-20,-52,16,74,-6
1537918855868890,44,-3,23,14,69,58,7,29
1537918855868890,-43,-46,-32,-3,71,-98,31,-24
1537918855877866,44,60,36,-14,-122,43,13,19
1537918855877866,-23,-12,-14,47,127,-73,-59,4
1537918855892827,-29,-37,-18,-93,-128,-9,-59,15
1537918855892827,11,30,23,-21,-14,-7,-81,-56
1537918855893823,-14,-17,-79,4,114,43,36,-7
1537918855893823,-2,69,82,51,-40,-69,-25,61
1537918855914766,-31,-90,-83,-20,-2,-20,-20,-46
1537918855914766,-61,87,18,3,81,100,-29,61
1537918855916761,59,-18,71,-4,-11,31,77,40
1537918855916761,1,-42,39,40,35,2,-31,16
1537918855928729,-39,-11,-3,73,100,96,-29,-38
1537918855928729,40,30,-80,-52,-128,-126,10,53
1537918855937705,-104,-35,-28,-19,-34,104,23,27
1537918855937705,-3,-16,-46,-40,55,15,-67,-64
1537918855952665,108,90,108,15,-103,-123,34,72
1537918855952665,-5,-40,-34,7,39,58,34,-9
1537918855953662,8,46,8,35,127,9,-27,6
1537918855953662,-38,-89,-30,-35,-128,-72,21,-27
1537918855975604,-24,-86,-128,-28,61,-8,-5,4
1537918855975604,-41,91,118,70,86,59,42,-26
1537918855976601,0,-3,-7,-43,-91,-97,-27,-5
1537918855976601,18,15,36,3,73,93,-4,11
1537918855988569,18,85,18,11,70,41,49,-40
1537918855988569,0,-115,-76,-15,-78,57,-24,-6
1537918855997544,-39,-9,43,12,-9,67,-32,-82
1537918855997544,16,-22,-36,-1,19,-51,7,-46
1537918856012505,9,73,26,-7,-16,117,10,14
1537918856012505,37,-37,0,-18,-94,-65,19,15
1537918856014499,-95,3,14,17,7,-102,-80,-34
1537918856014499,110,-3,-31,-22,-32,72,113,17
1537918856035443,-16,-31,5,13,34,10,8,13
1537918856035443,23,-6,-22,2,-13,-23,20,-13
1537918856036441,-2,0,-24,-12,9,-38,-16,-5
1537918856036441,-65,74,34,-18,-34,-35,3,-9
1537918856048409,-38,-21,43,0,-34,-60,-20,-33
1537918856048409,20,12,0,11,40,34,17,35
1537918856057385,32,-19,-7,19,2,-7,-4,9
1537918856057385,-16,-21,-20,2,4,33,-3,10
1537918856072345,6,14,-34,-38,-7,-18,-1,-4
1537918856072345,-7,-7,15,-8,-3,3,-14,-11
1537918856074340,3,-35,-26,0,0,-20,-5,-35
1537918856074340,18,20,10,4,4,26,3,26
1537918856095283,-18,-6,1,11,-13,-32,-8,-5
1537918856095283,11,-16,19,10,26,6,-16,-15
1537918856096281,10,0,-13,-8,-15,-14,15,2
1537918856096281,2,12,-5,-1,-6,12,-21,-8
1537918856109247,-1,-3,16,13,11,-5,14,5
1537918856109247,-11,-13,-8,-6,-2,4,-14,-5
1537918856118222,16,10,2,-4,-16,-31,-25,7
1537918856118222,-1,0,-4,-5,-3,33,40,4
1537918856133182,-9,-16,-10,7,6,-20,-22,5
1537918856133182,6,7,12,3,9,-1,-14,-5
1537918856134180,1,-6,-9,-3,-5,-12,-4,6
1537918856134180,-3,-7,-7,-4,-3,8,-24,-4
1537918856155123,15,-1,-6,0,-5,-7,30,-6
1537918856155123,-2,-1,13,0,1,13,29,-8
1537918856157118,2,-2,1,-2,-6,-7,-21,2
1537918856157118,-10,-2,-16,-5,5,9,-10,-16
1537918856169086,26,-5,6,5,-1,0,5,18
1537918856169086,-2,2,2,0,0,-4,-25,-11
1537918856178063,1,-2,-6,5,4,-4,4,11
1537918856178063,2,6,-1,-7,-2,4,-11,0
1537918856193024,-17,-1,-4,4,0,-7,-9,7
1537918856193024,2,-8,-1,-3,7,-1,2,9
1537918856194022,5,-5,-2,-7,-6,6,20,7
1537918856194022,3,4,-6,0,-1,-10,-7,4
1537918856214965,-6,3,8,7,0,-11,-8,-5
1537918856214965,-1,-4,-3,-5,1,12,14,7
1537918856216960,0,2,-2,-3,-3,-2,4,-4
1537918856216960,5,-1,3,3,4,7,-2,2
1537918856228927,-11,-6,-4,-4,-4,-16,6,-2
1537918856228927,1,1,6,2,1,7,-20,-10
1537918856237905,4,1,0,1,4,-3,-7,1
1537918856237905,1,-4,0,0,1,-3,4,-2
1537918856252864,-5,1,-4,0,-3,-7,0,-8
1537918856252864,1,1,7,-4,-2,-6,4,0
1537918856253861,3,-3,0,1,-3,-5,-8,-1
1537918856253861,0,-3,-3,-1,-1,6,2,2
1537918856275803,-6,3,-1,3,0,2,6,-6
1537918856275803,1,0,-4,0,1,-4,-6,4
1537918856276801,-1,-3,-1,1,0,-6,5,2
1537918856276801,1,-2,-1,-5,-3,19,17,1
1537918856288767,-2,1,2,-1,-3,-6,-20,-2
1537918856288767,1,-1,1,3,0,-10,-2,-4
1537918856297743,2,-4,-9,-7,0,16,5,1
1537918856297743,1,4,11,1,-3,-15,7,-1
1537918856312702,1,-3,6,5,0,0,-16,1
1537918856312702,-4,-7,-5,-2,5,1,-11,-3
1537918856313700,0,0,7,0,-2,4,12,0
1537918856313700,-2,-4,-9,-7,-5,-3,-11,-1
1537918856335641,0,2,-1,-1,2,1,4,-2
1537918856335641,0,4,3,3,-2,-28,-5,2
1537918856336638,0,-4,0,0,-1,19,37,0
1537918856336638,0,1,-4,-2,3,1,-14,2
1537918856348606,-3,-1,2,1,1,13,2,-3
1537918856348606,-1,1,-2,3,2,1,-9,-2
1537918856357583,2,1,0,3,0,-19,-2,-1
1537918856357583,0,-1,-4,-6,-7,11,10,-1
1537918856373540,-5,-2,-5,-2,0,-1,-8,-2
1537918856373540,0,0,1,1,-2,-2,18,2
1537918856374538,0,-6,-6,-5,-4,-1,-24,-1
1537918856374538,1,7,5,7,3,-14,-7,-1
1537918856395481,-3,0,8,3,1,-3,-3,-2
1537918856395481,-4,0,0,-3,-5,7,5,-4
1537918856396479,-1,2,3,2,0,-5,-2,-3
1537918856396479,-3,-11,-18,-4,1,-1,-6,1
1537918856408447,-1,0,-4,-3,-2,7,10,-1
1537918856408447,0,-3,-4,-3,-3,-11,-1,1
1537918856417423,-4,-1,5,2,2,15,0,-1
1537918856417423,2,1,4,1,5,3,-3,-1
1537918856432383,-1,-3,-6,-3,-2,10,9,-1
1537918856432383,-1,-2,2,-2,-1,0,-3,-2
1537918856434378,2,1,-4,0,-1,-11,-13,1
1537918856434378,-2,-2,1,-1,-2,-11,-12,-4
1537918856455322,0,4,1,1,0,-7,10,-1
1537918856455322,0,-7,0,2,4,-5,-15,-1
1537918856456319,-3,-2,-5,-2,-1,4,3,0
1537918856456319,-2,-2,-2,-5,-4,-13,-1,1
1537918856477264,-1,-2,1,-1,-1,9,-3,-1
1537918856477264,1,3,-4,-2,1,6,2,0
1537918856479259,-2,-2,9,6,3,-2,9,-1
1537918856479259,0,-3,-2,-6,-8,-7,-8,0
1537918856493221,-1,1,-3,-3,-2,-3,1,-1
1537918856493221,0,-1,-1,-2,1,6,6,1
1537918856494219,-1,-3,-5,-4,-4,-15,-10,-3
1537918856494219,-1,0,3,5,5,20,8,-1
1537918856515161,0,-2,1,-2,-1,-1,-2,0
1537918856515161,-1,-1,-6,-2,-1,2,1,-3
1537918856516158,0,1,-5,-6,-4,-2,-1,0
1537918856516158,1,1,1,2,-1,-11,-5,-1
1537918856538100,-1,-1,-1,2,-1,-16,-2,0
1537918856538100,-2,-3,-1,-1,2,18,2,-3
1537918856539097,0,1,-1,-3,-1,4,6,-1
1537918856539097,-2,-1,0,1,2,4,-4,-2
1537918856553059,-1,-1,-1,-3,1,-3,-5,1
1537918856553059,-1,0,2,0,-4,-8,0,-2
1537918856554057,-1,-1,0,1,-1,-3,-5,0
1537918856554057,-2,-1,0,2,1,8,18,0
1537918856575001,-1,-1,-3,-4,-5,-19,-13,-1
1537918856575001,-1,-1,-2,-1,1,6,-3,-2
1537918856576995,0,1,1,0,2,14,1,0
1537918856576995,-1,-2,1,1,0,-11,-1,-2
1537918856597939,0,0,-1,1,3,3,3,1
1537918856597939,-1,0,-4,-5,-5,3,4,0
1537918856598937,-1,-2,-2,-1,0,-9,-7,0
1537918856598937,0,0,-1,2,0,1,-4,-2
1537918856610905,-2,-1,1,-1,-1,-1,3,-2
1537918856610905,-1,-3,-1,-1,-2,-5,-3,-1
1537918856619881,1,0,1,1,0,2,1,-2
1537918856619881,0,1,2,-4,-8,-23,-11,-1
1537918856634841,0,-2,-2,-2,-1,29,12,0
1537918856634841,-2,1,0,3,3,1,-5,-1
1537918856636836,-1,-2,0,-2,-2,-4,-2,0
1537918856636836,0,0,0,2,1,-6,9,0
1537918856657780,-1,0,-4,2,-2,0,-8,-3
1537918856657780,-1,-2,-2,-3,-1,3,2,1
1537918856658778,-2,-1,-3,1,3,9,-2,-3
1537918856658778,-1,-1,-3,0,2,-5,-7,-1
1537918856672740,-2,-2,1,-3,-5,-6,-16,-4
1537918856672740,0,6,0,-2,-3,-1,22,-4
1537918856673737,-1,-11,-2,1,0,-10,2,2
1537918856673737,0,0,5,3,3,3,7,2
1537918856694681,0,0,-2,-1,1,2,-3,1
1537918856694681,-2,-2,0,3,1,-3,-3,-1
1537918856696676,-2,4,-3,-4,-5,-4,-4,-3
1537918856696676,-2,-2,-3,-5,-3,5,-2,-1
1537918856717620,1,0,2,2,2,-6,4,1
1537918856717620,-1,-4,-9,-10,-3,-1,-15,-2
1537918856719614,1,2,1,0,-1,24,48,2
1537918856719614,-3,-4,-1,0,-1,-5,-11,-1
1537918856732580,1,1,2,1,2,5,1,-2
1537918856732580,0,-4,0,-1,-3,-5,6,-1
1537918856734575,1,22,-1,-1,-3,-20,-66,-7
1537918856734575,-2,-22,-3,-5,1,35,79,4
1537918856755518,-1,-7,0,4,2,-13,15,5
1537918856755518,3,1,3,3,1,-24,-19,-2
1537918856756516,-2,-7,-3,-3,-3,3,-29,-4
1537918856756516,2,12,-1,-3,-4,-2,3,-3
1537918856777460,-3,0,-2,-2,1,9,0,-1
1537918856777460,-1,-6,-1,-1,-2,9,13,0
1537918856779455,4,2,0,-1,-1,-4,0,3
1537918856779455,1,4,-2,-2,0,-6,-35,-5
1537918856792420,-7,-6,-2,-2,-3,5,5,-5
1537918856792420,-2,4,13,1,-5,-14,-23,-2
1537918856794416,0,13,12,3,1,-2,0,3
1537918856794416,7,-9,-9,6,5,19,25,6
1537918856815359,4,-19,-33,-8,-4,-4,6,6
1537918856815359,-12,4,4,0,0,2,4,0
1537918856816358,6,-12,-13,-4,-7,-12,-67,-12
1537918856816358,2,8,20,5,6,11,89,16
1537918856837301,3,16,14,5,4,-16,-37,-2
1537918856837301,5,0,14,-1,-2,3,23,-1
1537918856839297,-11,-6,-23,-9,-4,2,9,-8
1537918856839297,8,4,-5,-3,-7,-22,-90,-8
1537918856852261,-5,0,-8,-6,-3,-11,13,-13
1537918856852261,9,43,38,5,9,34,22,-3
1537918856859243,0,-19,-6,21,86,27,90,22
1537918856859243,-45,-37,-53,-7,-10,33,-16,-16
1537918856875200,27,-8,7,-9,-18,3,9,17
1537918856875200,44,-27,-4,13,62,43,39,0
1537918856877194,-56,35,29,-5,-104,-94,19,-4
1537918856877194,-9,-10,9,25,102,16,-85,-67
1537918856898138,18,20,2,-49,-114,-51,24,23
1537918856898138,-22,6,-49,-6,86,-64,-51,31
1537918856899137,-24,-37,58,-10,-72,21,1,6
1537918856899137,86,38,37,-8,-4,-36,-9,75
1537918856911105,-84,-11,-13,15,35,-3,-31,-44
1537918856911105,45,-7,-42,13,55,36,-35,59
1537918856920080,-19,-74,-99,-39,-69,33,19,21
1537918856920080,-56,78,102,21,-63,-113,7,28
1537918856935040,39,94,-2,6,83,52,-18,3
1537918856935040,-35,-17,65,28,-46,-39,45,-3
1537918856937035,32,-21,-70,12,111,87,-27,-33
1537918856937035,-26,-89,22,25,7,-21,8,14
1537918856957977,20,-69,-9,-22,-78,-128,-19,-25
1537918856957977,-50,46,-37,-35,-128,-97,-23,-32
1537918856958975,18,11,-18,-11,21,-59,-27,-21
1537918856958975,10,-14,-78,2,99,94,6,-37
1537918856979918,23,-1,77,-4,-58,-46,15,101
1537918856979918,-2,25,46,1,-13,29,20,-21
1537918856981913,12,60,58,3,20,27,17,3
1537918856981913,-4,-46,-109,-17,4,30,-30,-4
1537918856994878,3,19,19,38,65,50,7,-59
1537918856994878,8,-16,-26,-3,25,125,-19,-17
1537918856996873,-23,65,47,-4,-2,-53,-7,15
1537918856996873,15,-46,48,-6,-108,-91,10,-20
1537918857017817,-32,-83,-34,4,19,44,-11,-19
1537918857017817,-2,54,-25,-14,-12,-19,12,5
1537918857018815,6,-40,-7,41,88,5,-23,-11
1537918857018815,-18,70,-1,-54,-77,-61,0,-21
1537918857031780,27,-8,22,0,12,1,9,-4
1537918857031780,70,18,-76,-18,67,34,-26,51
1537918857039758,-24,-79,45,21,0,-44,-26,-21
1537918857039758,22,10,39,14,2,42,17,54
1537918857062697,14,29,-15,-4,-10,7,14,11
1537918857062697,-14,-85,-27,1,35,34,-17,-3
1537918857063695,-18,44,-10,1,-2,31,0,-42
1537918857063695,0,-3,-1,-6,-33,-36,-3,29
1537918857076661,-24,20,-25,1,2,-10,-7,-22
1537918857076661,5,-32,20,7,0,-23,1,2
1537918857085638,2,-12,7,-2,-9,17,9,14
1537918857085638,-10,4,-9,-6,16,17,0,-30
1537918857100598,2,4,-19,5,21,9,2,18
1537918857100598,-32,-26,3,-11,-30,-28,4,-27
1537918857101596,23,12,0,-4,-18,-15,13,10
1537918857101596,-1,28,-6,1,31,29,-1,-6
1537918857115558,-12,-16,-10,-1,13,15,1,-6
1537918857115558,-10,-1,28,4,-29,-24,0,-18
1537918857116556,6,17,-5,-5,-8,7,3,7
1537918857116556,9,-6,-16,2,28,9,0,4
1537918857137499,-16,-7,10,5,8,14,-1,-1
1537918857137499,-11,4,4,-2,-26,-20,14,-15
1537918857139493,14,4,-15,-10,-4,-15,-12,18
1537918857139493,-8,-6,-2,3,3,12,2,-8
1537918857151460,-4,2,9,6,5,-1,-5,-1
1537918857151460,-6,9,8,0,-9,-5,-22,4
1537918857160436,6,1,-6,1,3,4,52,20
1537918857160436,0,-2,-2,-4,18,11,-3,7
1537918857175396,-6,6,-4,-3,-5,8,-5,-3
1537918857175396,-1,-8,5,3,-7,-8,-5,-15
1537918857176394,-1,-3,7,-5,-7,2,-12,-25
1537918857176394,-3,6,-13,-2,-5,-8,-11,-34
1537918857197337,1,0,-2,4,12,0,6,-13
1537918857197337,-7,-4,9,3,1,18,9,-19
1537918857199332,8,1,-4,-4,-9,-6,-3,-3
1537918857199332,-2,8,5,4,1,2,9,-1
1537918857220276,-3,-4,-6,-1,3,5,-1,7
1537918857220276,-3,-2,4,2,-6,-21,-2,8
1537918857221274,-1,4,-5,-7,0,1,-5,11
1537918857221274,1,-3,-4,-3,2,9,6,12
1537918857235236,-3,-1,-5,0,2,-8,-7,9
1537918857235236,-2,2,15,0,-4,-20,-2,5
1537918857241221,5,0,-5,2,4,19,9,15
1537918857241221,-6,-7,-3,-1,-2,0,0,-2
1537918857258176,-2,1,10,1,5,-3,-9,-3
1537918857258176,-3,-1,-5,-5,-8,-2,-1,-3
1537918857259174,2,-1,-4,-1,-2,-7,1,-1
1537918857259174,-2,-1,5,-1,-6,-18,-14,-7
1537918857271141,-2,0,-9,-4,7,57,34,-3
1537918857271141,1,-4,-5,1,-1,-12,7,-1
1537918857280118,-2,-2,-2,-1,-1,-4,-5,-2
1537918857280118,0,1,0,6,5,3,4,-3
1537918857295077,-2,-1,-3,-4,-6,-16,-10,-3
1537918857295077,-3,-3,-2,0,-3,0,0,-4
1537918857297073,-1,-2,-3,-3,-2,-1,1,0
1537918857297073,0,1,-1,-5,-2,0,-4,-3
1537918857318017,-3,-2,0,0,2,-7,-9,-5
1537918857318017,0,0,-4,-1,-2,0,6,-1
1537918857319015,-3,-2,-1,0,-2,-4,2,0
1537918857319015,1,-1,-3,2,3,-1,-18,0
1537918857330981,-2,-1,6,-1,0,2,16,-1
1537918857330981,-4,-2,-8,-9,-5,-7,-9,-4
1537918857339957,0,0,1,-1,-2,-8,-19,1
1537918857339957,-1,0,0,-1,-2,11,31,-3
1537918857354918,-1,0,-3,1,-1,-15,-17,-1
1537918857354918,-2,0,7,4,4,18,3,-3
1537918857356913,0,-2,-7,-5,-4,4,10,2
1537918857356913,0,1,1,-3,-1,-4,0,0
1537918857377856,-1,-2,-6,0,1,-11,-18,-2
1537918857377856,2,0,2,2,-2,-12,-2,0
1537918857378854,-1,0,0,3,2,4,-5,-2
1537918857378854,1,0,-2,-1,-2,7,9,1
1537918857390820,-2,0,-2,0,-1,-3,4,1
1537918857390820,-3,-2,-1,-1,2,-4,-9,-1
1537918857399796,-1,-1,0,-1,0,4,5,-2
1537918857399796,-1,-1,-1,-1,0,-2,-2,0
1537918857414756,1,0,2,-1,0,5,4,-2
1537918857414756,0,-1,-2,-2,-3,2,-3,-1
1537918857416751,1,1,1,0,1,-13,2,1
1537918857416751,-1,-2,-3,-1,-5,-7,-3,-2
1537918857437695,0,0,-5,1,2,16,-8,-1
1537918857437695,-3,-2,1,1,0,3,8,-3
1537918857438692,1,-1,0,1,1,4,-21,-2
1537918857438692,-1,0,-5,-2,1,15,45,0
1537918857451658,-1,0,1,2,0,-14,-1,1
1537918857451658,1,-1,-3,-2,-5,-12,-7,1
1537918857460634,-2,-1,0,0,-2,-9,-7,-3
1537918857460634,-4,-3,-3,-6,-6,7,-53,-6
1537918857475596,-1,0,0,0,-2,0,25,-2
1537918857475596,1,0,2,1,3,-14,-1,2
1537918857476592,2,0,1,0,0,-1,17,3
1537918857476592,-1,1,0,2,2,2,-1,2
1537918857497537,-2,-3,0,-2,-2,5,-18,-4
1537918857497537,-1,0,-1,-2,-3,0,-18,-1
1537918857499533,0,1,6,6,1,3,9,1
1537918857499533,1,3,19,-3,-4,-12,-9,-2
1537918857511498,-3,-20,-49,-12,-4,-23,-26,0
1537918857511498,1,-6,-14,4,6,28,37,2
1537918857520474,-4,-8,-5,-1,-1,0,3,-2
1537918857520474,0,6,8,2,1,12,9,-1
1537918857535434,1,3,8,1,0,-11,3,2
1537918857535434,-4,-3,1,-4,-8,-3,-25,-9
1537918857536431,-2,2,0,0,0,-24,-35,-5
1537918857536431,6,3,-3,6,7,-3,62,11
1537918857557375,2,4,8,3,0,12,-5,1
1537918857557375,1,1,-3,-5,-7,-29,-1,4
1537918857559370,-2,-1,2,-4,-5,22,-3,-5
1537918857559370,0,-1,-5,-1,2,21,-23,-6
1537918857580313,-1,-3,4,-2,-2,-9,-26,-6
1537918857580313,-6,-1,5,-2,0,12,-18,0
1537918857581311,6,1,27,2,1,-23,50,8
1537918857581311,-3,-30,-88,-13,-6,-20,-19,-6
1537918857595273,0,14,27,6,4,20,50,5
1537918857595273,5,-14,-21,-5,-7,-7,-20,-4
1537918857596271,-9,13,28,0,-1,13,5,-7
1537918857596271,-6,-5,23,3,0,-22,-37,0
1537918857617215,-3,-19,-65,-7,-3,9,-78,-1
1537918857617215,0,9,11,0,4,20,63,6
1537918857619210,7,-3,-5,-2,0,10,10,6
1537918857619210,18,11,14,3,1,-10,10,1
1537918857640153,-17,-2,13,-6,-12,-24,-75,-25
1537918857640153,-25,6,15,4,8,-2,-61,-1
1537918857642148,13,-3,-24,0,10,40,96,16
1537918857642148,12,23,45,9,2,-7,-12,12
1537918857655113,13,12,-3,-5,1,-7,-40,-6
1537918857655113,-21,-11,-26,13,77,-27,-6,-17
1537918857657108,16,-25,-31,-15,-103,-7,-26,13
1537918857657108,5,-3,-24,-15,-9,-31,-21,-18
1537918857678052,-23,16,14,9,77,-23,92,-6
1537918857678052,52,-15,23,-24,-112,-5,5,16
1537918857679050,5,-15,-18,9,127,17,-53,-12
1537918857679050,-13,30,-8,-14,-71,-50,35,26
1537918857699994,16,-27,-8,-9,17,8,-2,6
1537918857699994,-23,-8,49,13,7,-10,-17,-2
1537918857701988,-34,49,-1,-24,-26,-18,-3,-22
1537918857701988,-51,-61,6,28,41,42,-24,-22
1537918857713966,-23,55,46,24,64,114,-26,-5
1537918857713966,13,0,-73,-32,-93,-82,50,44
1537918857722933,8,-33,21,29,109,79,-29,26
1537918857722933,-18,11,22,-28,-76,-78,-47,9
1537918857737894,-25,-73,-36,-17,-62,-61,40,-14
1537918857737894,-30,17,-4,39,127,49,-10,-33
1537918857738891,-22,81,23,-27,-123,-49,-2,-7
1537918857738891,-5,-42,-47,-1,86,13,-6,20
1537918857759835,-6,47,8,-4,-9,30,14,27
1537918857759835,-8,0,19,6,-17,-65,51,-45
1537918857761831,47,-50,-42,-21,-35,-15,-17,9
1537918857761831,-58,45,74,39,25,-6,17,-8
1537918857773799,2,-30,-20,-13,-55,-21,-7,-44
1537918857773799,41,-59,-25,-2,57,86,-9,69
1537918857782775,-4,20,7,16,15,17,-12,-46
1537918857782775,33,-19,-4,-8,-14,42,16,52
1537918857797733,-26,27,-98,-9,14,105,37,19
1537918857797733,-32,62,119,27,-17,-11,20,-7
1537918857798731,2,34,35,4,-47,-72,-18,-8
1537918857798731,92,-78,-78,-8,81,126,-8,-28
1537918857819673,61,127,61,11,-8,-116,21,56
1537918857819673,-94,-128,-70,-10,-15,-18,2,28
1537918857821668,-8,40,-52,-4,-23,64,11,-24
1537918857821668,-28,121,104,44,80,52,2,-61
1537918857833636,-24,10,27,-23,-84,-81,-27,-13
1537918857833636,58,34,12,2,22,51,-4,29
1537918857842613,42,-32,-69,-19,47,-18,-34,11
1537918857842613,8,-103,15,17,33,99,24,3
1537918857857572,7,6,77,20,9,-46,8,4
1537918857857572,-9,62,2,-30,-88,-48,-21,-51
1537918857859567,-69,-1,7,18,80,29,5,0
1537918857859567,102,77,-6,-12,-75,-57,10,-1
1537918857880511,-20,-52,15,4,-3,-4,6,-7
1537918857880511,-11,-18,-18,-5,4,-8,-26,-12
1537918857881510,-14,-54,-31,1,35,6,0,0
1537918857881510,39,27,-14,-17,-6,14,5,3
1537918857902454,13,-40,5,4,1,-85,-3,9
1537918857902454,-32,6,-39,-18,-40,7,-10,-48
1537918857903452,16,-37,0,-4,-14,8,-5,-7
1537918857903452,-27,-25,14,0,-4,13,1,21
1537918857917413,4,-47,-22,-3,6,3,-11,-7
1537918857917413,50,54,-52,-16,21,-5,-5,9
1537918857917413,-50,48,106,41,-24,-47,9,7
1537918857917413,-48,-36,-7,-6,-41,-46,-20,-17
1537918857939355,12,-15,-25,2,23,64,16,17
1537918857939355,36,17,-31,-10,32,14,-6,1
1537918857940356,-12,-32,-17,-10,-18,-10,-1,1
1537918857940356,-12,30,-26,-12,-3,-34,-4,-5
1537918857954314,-3,-12,0,7,11,31,-2,-18
1537918857954314,11,2,31,3,-8,2,0,12
1537918857961297,9,4,-1,-3,-1,-11,-5,5
1537918857961297,-20,-12,-7,-9,-16,-21,-1,1
1537918857977252,25,9,1,-7,-7,4,2,4
1537918857977252,-13,-14,15,11,13,14,-4,-1
1537918857977252,9,-4,6,-2,0,-4,7,2
1537918857977252,-6,10,-19,-7,-8,-25,4,1
1537918857999194,-15,-14,-1,0,-4,17,-4,-5
1537918857999194,4,10,6,7,9,-5,-18,-1
1537918858000192,0,-8,6,3,-2,-5,-12,-3
1537918858000192,-9,0,-6,-5,-11,-12,1,4
1537918858022132,3,2,1,4,2,18,16,11
1537918858022132,-3,-7,2,-1,5,12,-18,28
1537918858023130,15,3,2,-1,-10,-27,-17,26
1537918858023130,-13,-4,-6,-2,3,12,15,-3
1537918858037092,3,-3,4,1,5,10,-2,-28
1537918858037092,7,8,1,5,4,3,19,-35
1537918858038090,-10,-12,-1,-6,-6,-2,-1,-26
1537918858038090,-9,4,-9,-8,-9,-20,-8,-23
1537918858059035,0,-1,1,3,0,5,-4,-8
1537918858059035,0,1,0,0,-2,2,0,-4
1537918858060032,10,-2,4,-2,-2,-1,6,6
1537918858060032,-12,-10,-11,0,-3,-9,-7,6
1537918858082970,4,9,-4,-3,0,0,-4,12
1537918858082970,-1,-6,8,-5,-7,-7,-3,6
1537918858082970,-4,1,1,4,4,9,8,11
1537918858082970,1,5,-6,-11,-2,-7,7,12
1537918858096933,0,-12,-7,0,0,10,-17,3
1537918858096933,-5,-2,4,2,1,-3,-6,0
1537918858097930,0,0,1,1,0,-6,5,1
1537918858097930,-2,3,0,1,-7,-6,0,3
1537918858120870,-2,0,-8,-8,-1,0,-12,-2
1537918858120870,-1,0,17,7,1,6,20,-4
1537918858121867,2,-5,-13,-8,-4,-18,-9,0
1537918858121867,-2,-2,4,-2,-2,-4,-3,-3
1537918858142811,-2,1,-6,-4,4,21,5,-6
1537918858142811,4,3,5,3,3,0,-5,-5
1537918858143809,0,-3,0,1,-6,1,12,0
1537918858143809,-7,-5,-9,-7,-4,-10,-8,-4
1537918858156773,-2,-2,-2,4,1,-10,-11,-3
1537918858156773,-1,0,0,-4,-3,2,8,-3
1537918858157771,1,0,-1,-2,1,3,-6,-1
1537918858157771,-3,-1,1,-2,-1,11,18,-3
1537918858179712,2,2,-3,4,1,-8,-14,-2
1537918858179712,2,-5,0,2,3,-7,-20,3
1537918858179712,-2,4,-3,-1,0,7,20,-1
1537918858179712,1,-4,-7,-1,-1,-7,-8,-1
1537918858196668,-3,-2,1,-2,-1,2,13,-2
1537918858196668,-2,2,-1,3,1,-2,1,-3
1537918858202651,0,0,3,-4,-3,-7,-7,-1
1537918858202651,1,0,0,5,2,-7,-5,-1
1537918858216613,-1,0,-1,-3,-1,15,10,1
1537918858216613,-1,0,1,-2,-1,8,2,0
1537918858217610,0,-2,-2,1,0,-2,-5,0
1537918858217610,0,2,-1,1,2,-8,-17,-4
1537918858239551,-1,-1,-1,-5,-2,-11,-2,1
1537918858239551,-2,-4,-3,-1,-1,4,9,0
1537918858240549,-1,0,-2,-2,-2,3,-1,-1
1537918858240549,1,1,2,1,-2,-1,-3,2
1537918858253514,-1,-2,4,1,0,-5,4,1
1537918858253514,-1,-2,-4,0,1,2,-2,-1
1537918858262490,-1,-1,-2,-2,-3,-1,-2,-2
1537918858262490,0,1,5,3,-3,-2,-3,-1
1537918858277450,0,-3,0,0,2,5,7,1
1537918858277450,-2,0,0,0,0,-2,-1,-1
1537918858277450,-1,-3,-4,-4,-4,-7,-4,-1
1537918858277450,0,-1,5,2,0,0,0,0
1537918858299391,0,-3,-4,-3,-2,-1,0,0
1537918858299391,-3,0,-2,-2,0,-1,0,-3
1537918858300389,0,-2,4,3,2,-2,-5,-3
1537918858300389,0,2,-1,-3,-3,3,2,2
1537918858313354,-3,-2,-3,-1,-1,-13,0,0
1537918858313354,2,1,1,-1,1,17,3,1
1537918858322330,-1,-2,-4,-1,0,0,0,-1
1537918858322330,-1,0,1,0,-1,1,-3,-2
1537918858337290,-1,-1,-1,-1,-4,-8,-2,-2
1537918858337290,0,-1,-2,-2,-1,-9,-1,1
1537918858337290,-2,0,2,1,-2,0,1,-1
1537918858337290,-1,-3,-3,-5,-2,7,0,-1
1537918858359232,0,-1,1,0,0,-1,0,0
1537918858359232,-2,-1,-2,1,0,1,0,-1
1537918858360229,0,1,-3,0,-2,-3,-4,0
1537918858360229,-1,-2,2,2,4,-5,-3,-1
1537918858374193,-1,-1,-2,0,-1,6,1,-2
1537918858374193,1,-1,-2,-2,0,-3,0,-2
1537918858382171,-1,1,-1,-1,0,-1,-1,1
1537918858382171,0,-1,1,0,-2,0,-1,1
1537918858397132,0,-2,-4,0,-1,1,-3,0
1537918858397132,-2,-3,-2,-1,-3,-7,-2,-1
1537918858398130,-1,0,3,3,1,3,1,0
1537918858398130,-1,0,-10,-2,1,0,-1,0
1537918858419071,1,0,6,-2,-1,-2,-1,-1
1537918858419071,0,-2,3,-2,-3,-4,0,-2
1537918858420069,0,-3,-10,-3,0,1,-1,-2
1537918858420069,-1,-4,-1,-11,-3,-2,-2,1
1537918858434031,-2,-2,-3,-2,-2,-2,-2,0
1537918858434031,-2,0,-1,0,-1,-1,-3,-2
1537918858442010,0,-1,2,-1,-1,-1,-3,-1
1537918858442010,-1,1,2,5,2,-6,-2,-2
1537918858456970,0,-2,-4,-2,-2,7,7,0
1537918858456970,0,0,2,-2,-3,-16,-6,1
1537918858457967,-1,-1,-3,-2,1,6,2,-1
1537918858457967,-2,0,3,4,0,17,5,-2
1537918858478911,-1,1,1,3,2,3,0,-1
1537918858478911,1,-1,-10,-4,-3,1,0,0
1537918858479909,0,-2,4,-2,-2,-21,-5,1
1537918858479909,0,-1,-2,-3,-4,0,-5,-1
1537918858493871,-1,0,-3,5,5,-4,-4,1
1537918858493871,-1,1,3,2,1,2,6,0
1537918858501850,2,2,0,-6,-4,-3,-6,-1
1537918858501850,-3,-5,-6,-4,0,3,-1,1
1537918858516810,-2,2,1,-1,-1,1,1,-1
1537918858516810,1,-13,2,3,2,1,-3,-1
1537918858517808,-1,19,7,2,1,-5,1,1
1537918858517808,6,9,12,8,0,0,3,-2
1537918858539748,-11,4,-16,-8,1,6,0,1
1537918858539748,9,-13,-9,-8,-2,1,1,-2
1537918858539748,-2,0,6,1,-3,3,1,0
1537918858539748,-14,-3,2,0,-1,-13,-6,-1
1537918858562687,-5,5,4,-4,-2,-7,0,-2
1537918858562687,-9,2,5,7,2,3,-7,-2
1537918858563685,-1,-11,-12,-7,-2,5,7,-1
1537918858563685,-1,-1,3,3,1,-7,-7,-1
1537918858576650,8,-4,3,5,2,12,10,-1
1537918858576650,-1,7,1,2,0,-15,-24,-5
1537918858577647,0,-2,0,-3,1,2,-1,-1
1537918858577647,-6,-9,-13,-11,-4,-8,-4,-4
1537918858599589,4,1,10,3,2,16,10,-1
1537918858599589,1,-1,5,-6,-7,0,5,1
1537918858600586,1,5,3,10,1,1,-5,1
1537918858600586,-3,-17,-53,-15,-2,-1,5,0
1537918858622527,1,-8,0,1,-3,-8,-8,0
1537918858622527,-4,14,-1,1,6,4,7,1
1537918858623525,-7,-24,0,0,-2,-2,-3,-3
1537918858623525,1,18,18,10,5,3,3,0
1537918858636490,-3,-1,-12,-8,-8,-13,-11,-1
1537918858636490,8,9,11,2,-4,-9,-4,0
1537918858637487,-9,-15,-8,-9,1,10,8,-2
1537918858637487,7,0,13,8,8,14,6,3
1537918858659429,-6,0,3,3,-2,-7,-9,-2
1537918858659429,0,-1,-4,-6,2,2,3,2
1537918858660426,3,3,-6,-7,-3,-13,-10,-1
1537918858660426,1,-4,4,3,1,-3,-4,-1
1537918858682367,3,1,4,-2,-3,-2,-1,-1
1537918858682367,-2,-5,-10,-1,-1,7,5,1
1537918858683365,2,1,0,0,2,-4,-5,-3
1537918858683365,0,6,6,1,-1,0,4,1
1537918858697327,2,-3,-2,-1,-1,6,2,0
1537918858697327,-2,-2,-4,-5,-6,-6,-2,-1
1537918858697327,-3,-1,-1,8,3,7,3,-1
1537918858697327,4,0,10,-10,-10,-14,-7,-2
1537918858719269,1,-6,-24,-4,0,-5,1,1
1537918858719269,-2,-1,1,-1,-1,4,1,-2
1537918858720266,2,5,5,6,8,11,5,0
1537918858720266,0,-2,0,1,-6,-8,-2,-2
1537918858743205,0,-1,4,-1,-1,14,3,-3
1537918858743205,-4,-1,-2,-3,0,5,-1,1
1537918858744202,2,4,0,-5,-7,-3,0,-1
1537918858744202,1,-2,-2,3,3,-4,-2,1
1537918858757168,-2,-1,6,0,2,-9,-3,-2
1537918858757168,-2,-2,-1,2,1,-2,2,-2
1537918858758165,1,-3,-2,-1,4,-6,-4,0
1537918858758165,-1,-1,-3,2,10,26,5,-1
1537918858779111,2,0,0,-1,1,-7,-2,2
1537918858779111,-4,-1,0,-2,-9,-10,-3,-4
1537918858780109,0,-1,-3,-3,-10,-2,-1,-1
1537918858780109,-1,1,-2,-2,0,-4,-3,-2
1537918858803047,0,-1,2,2,9,2,-2,-2
1537918858803047,-1,-1,-1,-2,-2,7,1,0
1537918858803047,0,0,-4,-2,-4,-2,1,1
1537918858803047,-1,-2,0,-1,1,-6,-5,-1
1537918858817010,-1,-1,0,0,-1,-3,-3,-2
1537918858817010,0,-2,-2,2,-2,12,7,1
1537918858818007,0,0,-3,-4,-3,-5,-3,-3
1537918858818007,-1,-1,1,1,1,-5,-1,0
1537918858838949,-1,1,-1,-1,-2,-10,-2,-1
1537918858838949,-2,-1,-3,-4,0,8,0,0
1537918858839946,-1,-2,2,6,30,70,5,-4
1537918858839946,1,1,-1,-1,-7,-22,1,-2
1537918858869866,-2,-2,-2,-5,-8,-16,-6,-1
1537918858869866,1,0,-2,-3,-15,-27,-2,-1
1537918858870864,2,0,-1,-4,-7,-2,3,0
1537918858870864,-1,-3,-3,-2,11,21,0,-2
1537918858878842,-2,-4,0,-2,-6,-10,-10,1
1537918858878842,-1,-2,2,7,11,1,1,-3
1537918858878842,2,0,-2,-2,-3,-12,5,4
1537918858878842,3,0,-1,1,-4,0,-2,0
1537918858899786,-6,0,1,3,1,3,5,-4
1537918858899786,-1,-2,-1,-2,0,1,-15,0
1537918858899786,-1,0,-2,-1,-8,-14,-3,-3
1537918858899786,0,-2,0,-2,-2,6,3,0
1537918858922726,2,0,0,0,3,8,-1,-2
1537918858922726,-2,-3,-1,-2,-3,-3,-1,-1
1537918858923725,-3,0,1,2,-2,-8,-4,0
1537918858923725,-1,-2,-1,-2,-6,-3,-3,-1
1537918858936689,-1,0,-1,-1,1,3,1,-1
1537918858936689,0,-1,-3,-4,-1,3,2,-2
1537918858937687,-3,-3,1,1,-3,-9,1,-1
1537918858937687,-1,0,-1,-3,-4,-3,-3,0
1537918858959628,0,0,1,-2,1,4,0,2
1537918858959628,0,-1,0,1,2,1,2,-2
1537918858960625,-1,-1,-3,-2,-4,-4,-2,-2
1537918858960625,-3,0,0,1,3,1,2,1
1537918858982566,1,0,-1,-2,-5,-1,0,-3
1537918858982566,4,1,1,2,3,-1,-5,0
1537918858983565,-11,-2,-3,-2,-5,-12,-45,-8
1537918858983565,10,-2,-2,-2,-7,-12,1,0
1537918858996528,1,1,1,6,13,33,79,16
1537918858996528,-2,1,2,9,42,38,28,16
1537918858997526,-21,-3,4,14,38,-69,-42,-86
1537918858997526,29,11,6,-5,-83,35,40,43
1537918859019467,-29,-8,3,26,95,-71,-80,-21
1537918859019467,-27,-3,-8,-38,-27,66,37,49
1537918859020464,61,6,-8,-36,-99,-64,53,63
1537918859020464,-5,-2,-4,3,72,-75,75,8
1537918859042405,16,1,-3,-23,-90,-77,-24,3
1537918859042405,-3,-11,-11,-22,0,-53,-32,-7
1537918859043403,-8,7,-5,-10,-80,-61,-2,-1
1537918859043403,-20,-18,-20,-18,60,96,-30,5
1537918859057365,16,0,10,22,88,93,-16,-17
1537918859057365,4,32,31,43,62,29,49,18
1537918859057365,-5,-4,-12,-16,-24,-63,35,0
1537918859057365,-4,-27,-1,5,46,-125,-42,-27
1537918859079307,-40,3,-16,-40,-128,127,2,-79
1537918859079307,23,-2,2,17,42,39,-19,10
1537918859080304,-11,-33,17,62,127,101,20,-10
1537918859080304,-5,14,-4,17,-29,111,6,5
1537918859102247,-2,-47,-26,-58,-86,-114,4,15
1537918859102247,5,32,2,-5,5,52,7,-2
1537918859103245,-3,26,5,9,78,63,-31,14
1537918859103245,-17,-57,-4,24,85,127,-41,-48
1537918859116209,12,39,-5,-55,-65,-67,-27,0
1537918859116209,4,-21,-4,19,22,-128,6,30
1537918859124188,-11,-14,-14,-25,-38,22,-13,-37
1537918859124188,2,10,6,10,26,85,5,26
1537918859139147,14,3,27,87,114,-101,29,22
1537918859139147,-23,-12,-15,-36,-13,27,-40,-57
1537918859140145,15,0,0,-10,11,51,-6,18
1537918859140145,0,11,-4,-28,-99,-88,-14,0
1537918859163083,4,7,4,20,34,27,4,8
1537918859163083,-4,-8,-4,-4,-28,-15,-12,4
1537918859163083,11,5,5,12,-36,-51,6,20
1537918859163083,-5,11,3,-6,-10,-27,-7,-14
1537918859185025,3,-3,-4,-13,-54,-64,-13,13
1537918859185025,-13,-14,-5,5,20,0,-17,-42
1537918859186023,-12,-12,-11,-30,-74,-65,-8,4
1537918859186023,15,22,6,-1,-49,17,0,8
1537918859200983,-4,2,-3,-4,8,53,7,4
1537918859200983,10,-1,2,5,-9,-4,2,-1
1537918859201980,-4,6,5,12,24,10,3,8
1537918859201980,-5,3,1,1,21,-22,-6,-9
1537918859222924,-3,-6,0,4,11,30,9,8
1537918859222924,6,-2,-1,-5,-37,2,-6,-9
1537918859222924,-4,2,4,9,35,48,0,5
1537918859222924,-6,-2,-8,-15,-29,-35,-3,-3
1537918859235889,2,-3,3,6,30,40,2,5
1537918859235889,-1,4,3,3,0,-13,-6,-3
1537918859244865,-8,0,-3,-7,-5,17,2,-3
1537918859244865,-9,-8,0,4,9,-27,2,-1
1537918859259824,-1,15,3,9,15,8,2,3
1537918859259824,19,-13,-10,-7,-13,10,-2,4
1537918859259824,-25,19,3,6,4,20,4,3
1537918859259824,17,-8,8,-2,-3,-13,-1,0
1537918859282763,-27,-4,5,-3,14,19,-7,-10
1537918859282763,24,-6,-12,2,-16,4,3,-5
1537918859283760,-11,-4,17,-2,2,18,0,-6
1537918859283760,-18,3,-14,-4,5,-22,-9,-22
1537918859304704,-15,0,20,11,12,17,6,3
1537918859304704,0,21,-5,-9,-8,-7,-7,2
1537918859305702,7,18,-9,-2,-2,0,4,-1
1537918859305702,-10,-63,-11,1,5,-3,-1,23
1537918859319665,7,35,1,-2,-1,3,-3,-1
1537918859319665,9,-10,2,4,-5,1,-24,-11
1537918859320663,18,22,15,5,10,14,32,16
1537918859320663,29,10,10,0,-5,-6,-15,-5
1537918859342604,-20,-84,-28,-4,4,10,48,8
1537918859342604,30,89,21,2,-2,-2,-2,-11
1537918859343602,-8,9,-4,-1,1,4,-11,26
1537918859343602,14,23,4,1,1,-4,11,42
1537918859356567,-22,-20,-10,-2,2,-2,-36,2
1537918859356567,-13,-51,-19,2,2,7,61,13
1537918859364546,29,0,10,4,3,6,1,24
1537918859364546,-18,20,5,1,-1,-7,-37,-15
1537918859379505,-11,-7,-6,0,5,3,-5,47
1537918859379505,-10,-3,7,2,-4,3,7,10
1537918859380504,-7,-13,-8,-4,-3,2,-7,-12
1537918859380504,-1,0,-4,-1,-4,-9,-2,-20
1537918859402444,22,13,1,-2,6,18,-6,-11
1537918859402444,-19,-10,-1,7,30,20,-9,-9
1537918859403442,-31,-25,-2,-7,-27,-15,-11,-17
1537918859403442,-4,21,-3,-13,-28,-37,-4,-22
1537918859416407,22,7,8,-3,-9,4,-2,-25
1537918859416407,-16,4,1,-5,0,17,-3,-14
1537918859424385,-10,-18,-8,5,27,16,-7,-25
1537918859424385,-11,0,1,4,12,7,6,6
1537918859438347,8,10,-1,0,-2,-5,0,-30
1537918859438347,-7,-19,-2,1,-3,-16,-9,6
1537918859447323,4,-3,-10,-9,-6,-1,-10,-9
1537918859447323,0,0,4,2,2,1,17,-3
1537918859462283,9,6,-2,0,4,-2,-4,3
1537918859462283,2,-4,4,2,-7,-2,-15,-10
1537918859464278,-1,-2,-3,-2,-5,-6,3,3
1537918859464278,17,5,-2,-1,5,12,11,0
1537918859492204,-11,-1,-3,2,3,-1,-20,-4
1537918859492204,-7,-3,1,-2,-11,-8,21,13
1537918859494198,31,-5,-6,-5,-2,-2,-8,-8
1537918859494198,-12,4,1,2,3,0,1,8
1537918859499185,7,8,2,2,0,-1,-2,-4
1537918859499185,11,-2,1,-3,-10,-9,-1,5
1537918859508160,7,-6,-4,2,3,2,5,2
1537918859508160,-3,-2,-2,-2,2,6,1,2
1537918859524118,7,1,0,-2,-3,-4,2,14
1537918859524118,-6,1,-3,-2,-5,2,36,-7
1537918859525116,-6,-5,0,2,3,2,3,-21
1537918859525116,-10,-2,1,2,1,-1,-9,-39
1537918859553040,12,4,-1,-3,-2,-5,11,59
1537918859553040,-13,-4,-4,-1,-2,1,15,16
1537918859554038,5,0,2,0,1,-2,-4,-7
1537918859554038,-6,-2,0,2,0,-1,-2,-8
1537918859559024,4,-2,-4,-2,3,9,7,3
1537918859559024,-27,-14,-5,-2,-6,-9,-24,-25
1537918859568000,28,15,4,0,-2,-5,2,22
1537918859568000,-9,1,1,-4,-3,-2,6,12
1537918859582960,1,-1,-1,1,-2,-3,9,-11
1537918859582960,-6,2,1,-1,2,0,-24,-6
1537918859583957,-16,-8,-2,2,-4,-7,-6,-13
1537918859583957,1,-3,-6,-6,-2,1,15,12
1537918859604901,1,1,-2,-3,-1,-5,7,-8
1537918859604901,17,-1,2,5,1,3,-16,15
1537918859606896,-20,-6,-2,-1,1,0,-14,-41
1537918859606896,4,2,0,0,-2,0,-9,21
1537918859618864,8,-1,-1,0,-1,1,7,19
1537918859618864,8,5,3,-2,-1,-3,-9,-3
1537918859627841,-22,-6,-2,-1,2,1,-7,-11
1537918859627841,4,0,-1,1,2,-2,-5,-7
1537918859642801,-3,0,-1,-2,-2,-3,5,-2
1537918859642801,-10,1,0,-1,-2,-5,-15,-3
1537918859643798,2,3,2,-1,-1,0,4,11
1537918859643798,-8,-22,-6,-1,1,-2,-9,1
1537918859664741,5,14,-1,0,-1,-4,-1,-6
1537918859664741,0,3,2,-2,-1,6,5,-13
1537918859666736,-2,-2,-2,0,-1,3,7,21
1537918859666736,-10,1,0,-1,0,-2,-5,-9
1537918859679701,4,-12,-3,0,-1,-6,-14,-32
1537918859679701,-2,-3,-3,-8,-7,2,4,7
1537918859686683,1,5,0,-2,-2,-3,-8,19
1537918859686683,4,-3,-3,-3,0,14,2,4
1537918859702640,-6,-1,1,3,-2,-11,-2,-24
1537918859702640,5,1,-1,0,0,-6,-2,-22
1537918859708624,1,-3,-1,0,0,1,-2,-11
1537918859708624,5,6,2,0,-1,2,3,-1
1537918859725578,0,1,2,0,5,5,16,25
1537918859725578,4,-11,-3,-2,-3,-2,-8,1
1537918859726577,-11,5,1,-1,0,9,8,-3
1537918859726577,24,1,0,0,0,-19,-17,-7
1537918859739541,-2,2,-1,-4,-3,13,18,8
1537918859739541,-6,-6,0,2,3,0,-26,19
1537918859746523,-3,-5,-5,-3,-3,-32,-40,-7
1537918859746523,-3,4,0,1,-5,20,-1,-21
1537918859762480,4,0,0,-1,4,11,7,-1
1537918859762480,-1,2,0,1,0,-6,11,13
1537918859764475,-8,-5,-2,-1,2,12,5,0
1537918859764475,-9,0,1,-1,-2,-25,-2,2
1537918859792400,-1,-2,-3,-3,-7,-17,-18,-7
1537918859792400,-8,-4,-3,-4,-2,13,2,-23
1537918859794395,2,-1,0,-3,-4,-34,5,1
1537918859794395,1,-1,-1,-2,3,49,-3,-2
1537918859799381,3,3,3,2,5,12,-28,-7
1537918859799381,2,2,1,4,5,-3,17,9
1537918859806363,-6,0,2,-1,-2,1,3,-6
1537918859806363,-10,-6,-5,-4,-7,-23,-10,11
1537918859822320,10,-6,-8,-4,-5,5,43,-5
1537918859822320,-5,-1,0,0,-2,-7,-40,-13
1537918859824316,-3,3,14,3,1,-16,6,-3
1537918859824316,-1,1,-20,1,1,15,53,7
1537918859845260,-12,-3,-1,-5,-14,-9,-40,-12
1537918859845260,-1,-1,3,-2,-3,-52,9,12
1537918859846257,14,-8,-11,-3,-1,57,-7,-2
1537918859846257,10,4,9,2,6,22,62,52
1537918859859223,-15,-6,-9,-1,5,-1,13,-19
1537918859859223,18,-1,-5,-6,-8,10,14,-2
1537918859866204,-3,-1,-3,1,3,-29,-21,4
1537918859866204,-2,0,20,-2,-5,-6,-25,-10
1537918859882160,-10,4,-15,-1,-2,9,-1,3
1537918859882160,-5,-5,-3,-1,-4,-23,-8,-6
1537918859884155,-21,-1,-4,5,10,37,-13,4
1537918859884155,5,-5,-13,-4,-3,-9,20,-17
1537918859905099,-4,2,10,2,4,-9,0,3
1537918859905099,-2,-2,-4,-1,-4,-7,-7,-11
1537918859906096,2,-4,2,-2,-4,2,26,7
1537918859906096,-7,4,5,5,13,18,-5,-8
1537918859919061,-2,-4,1,-2,-9,-36,-28,0
1537918859919061,0,7,5,0,-9,39,22,7
1537918859926043,14,-2,-1,-2,1,-32,-4,13
1537918859926043,-3,4,3,3,-10,10,-25,14
1537918859942998,8,-5,-3,1,14,7,-1,13
1537918859942998,-20,-6,-1,1,12,21,19,-13
1537918859943995,38,1,-7,-7,-23,-13,1,1
1537918859943995,1,12,3,-1,2,-27,-2,-17
1537918859964939,-4,-6,3,0,3,11,-18,-4
1537918859964939,-6,4,-1,-2,-3,-15,-12,4
1537918859966933,11,-4,-3,1,11,16,14,6
1537918859966933,0,-3,-2,1,4,-29,-22,-5
1537918859978901,3,3,2,-1,0,29,-13,-4
1537918859978901,0,-1,0,-2,-13,-12,11,-4
1537918859987877,-8,5,1,1,0,-16,-8,-6
1537918859987877,-3,-6,1,-3,-6,8,2,-6
1537918860001841,3,2,4,3,7,-31,57,-1
1537918860001841,10,4,0,2,5,8,-6,12
1537918860008821,-8,-1,0,0,-3,21,13,0
1537918860008821,-2,-2,-1,2,10,9,-3,-6
1537918860024779,-6,0,-1,0,1,10,-24,-9
1537918860024779,6,2,0,-3,-5,-19,-2,-1
1537918860026774,-9,-2,-1,-6,-18,-14,45,-1
1537918860026774,1,1,1,3,14,2,-24,-2
1537918860038741,-15,-7,-1,-1,-9,3,11,-1
1537918860038741,0,-2,-1,0,3,2,-21,-8
1537918860047718,2,-2,-2,-1,7,11,-7,1
1537918860047718,-14,1,-4,-7,-8,-9,8,-7
1537918860063675,14,2,-1,-2,-2,-6,-15,0
1537918860063675,-9,-7,0,5,14,19,2,0
1537918860068662,-7,-1,-1,-1,-11,-11,-7,-6
1537918860068662,-1,-2,-2,0,-1,-8,4,1
1537918860084619,-8,3,2,-1,-5,-13,-5,-2
1537918860084619,6,2,-1,-3,-8,8,-1,-1
1537918860086614,-1,1,-1,-1,8,10,2,-3
1537918860086614,6,-2,0,2,-3,-30,-13,-1
1537918860098582,-2,-2,0,-2,1,28,4,0
1537918860098582,3,-2,-4,-1,3,0,1,-5
1537918860107558,2,2,1,-1,-1,-3,-11,-1
1537918860107558,-3,-4,-1,-4,-6,-2,1,-3
1537918860121520,2,-1,-1,0,-1,-19,-14,4
1537918860121520,-1,1,0,1,-1,32,1,1
1537918860128502,-5,0,-1,-1,3,7,16,-1
1537918860128502,3,-3,-1,-1,3,-2,-7,-1
1537918860145457,2,3,1,0,-5,7,15,6
1537918860145457,-1,-3,-3,-5,1,-12,-19,-2
1537918860146454,-6,-4,0,3,7,-1,-7,-1
1537918860146454,-3,-3,-3,-4,-10,1,2,-4
1537918860158422,8,2,1,2,-3,-10,-10,0
1537918860158422,-6,0,-1,1,1,-9,2,0
1537918860167398,4,1,-2,-1,3,13,1,1
1537918860167398,0,-3,-3,-2,4,-1,3,0
1537918860182358,-8,-3,-1,1,1,-5,-3,-2
1537918860182358,3,-1,-2,-1,-1,1,7,0
1537918860184353,-3,-1,-1,0,2,0,-3,-4
1537918860184353,0,1,-2,-3,-3,0,-2,4
