timestamp,emg1,emg2,emg3,emg4,emg5,emg6,emg7,emg8
1537920643565284,-1,-2,-1,1,3,3,6,0
1537920643565284,0,0,0,1,-1,3,-6,-2
1537920643573263,-1,-1,-3,-2,-2,0,-3,-4
1537920643573263,0,-2,-2,0,2,3,-5,0
1537920643574260,0,0,0,1,4,-4,-3,-5
1537920643574260,-2,-3,0,2,2,-11,1,-2
1537920643575257,-1,0,-1,0,17,38,5,2
1537920643575257,-1,2,-1,-3,-25,-29,-17,1
1537920643577251,-1,-2,-2,-4,-17,-7,39,-1
1537920643577251,-3,-1,-1,0,2,-11,-12,0
1537920643588222,-2,-2,-2,-1,-1,-45,-19,-3
1537920643588222,2,0,-1,0,3,69,44,9
1537920643600191,-1,0,-1,-1,11,-12,-14,-10
1537920643600191,3,2,-1,1,4,-3,8,10
1537920643608169,-3,-1,-1,-1,-3,18,-9,-8
1537920643608169,-5,-3,-1,-4,-6,-41,-32,-10
1537920643617145,4,1,2,3,12,49,62,8
1537920643617145,-1,-2,-4,-8,-29,-12,3,-6
1537920643638089,-4,-1,-1,2,0,1,-8,-8
1537920643638089,3,0,-2,1,2,-9,-1,3
1537920643639086,-2,-1,-1,-3,1,-12,-27,2
1537920643639086,-2,1,1,2,23,21,-6,-2
1537920643684963,0,-2,-1,-3,-6,0,-7,1
1537920643684963,0,1,-1,-2,-1,-6,-11,-1
1537920643684963,-1,-1,0,0,10,-6,6,0
1537920643684963,-2,0,0,2,6,4,-6,-3
1537920643685961,0,-2,-1,1,10,1,-6,-1
1537920643685961,0,-2,-3,-6,-19,-23,0,0
1537920643689951,0,0,-1,-1,-1,10,20,1
1537920643689951,-1,0,1,0,-2,-23,3,-1
1537920643696932,-1,0,0,4,17,45,-5,-3
1537920643696932,0,-1,0,1,-6,-3,-5,-1
1537920643705908,-1,-1,0,3,13,-20,7,-4
1537920643705908,1,-2,-3,-11,-23,19,0,-2
1537920643711891,-3,0,-1,1,-5,-18,-36,-9
1537920643711891,1,1,0,1,2,-21,45,20
1537920643728846,-1,-3,-4,-7,-29,39,-40,-17
1537920643728846,-1,2,2,5,10,-6,16,-1
1537920643734830,-2,-1,-2,-2,0,-10,-4,-2
1537920643734830,-3,-2,0,0,1,-4,-20,2
1537920643757769,1,0,0,0,0,5,12,0
1537920643757769,1,-3,0,-1,-3,9,-3,-2
1537920643758767,-3,-1,-1,1,2,-2,5,-5
1537920643758767,-3,-2,0,1,10,8,-3,-3
1537920643772729,-1,-1,0,-1,0,-8,1,5
1537920643772729,-2,-1,0,1,-2,3,-6,-2
1537920643773727,-1,-1,0,-2,-1,-5,18,5
1537920643773727,0,-1,-1,0,5,16,2,-4
1537920643794670,0,0,1,1,-9,-14,-7,1
1537920643794670,0,0,-2,-1,4,-1,-6,0
1537920643795668,-6,-2,-1,0,-5,-6,2,-4
1537920643795668,8,1,-2,0,10,8,-2,1
1537920643817609,2,-1,-2,-2,-15,1,-1,6
1537920643817609,-1,-2,-1,-4,3,-6,-6,0
1537920643818606,2,0,0,-4,-19,-10,10,3
1537920643818606,-3,-1,0,-1,1,13,8,-7
1537920643833566,-7,-1,4,14,62,23,-15,-6
1537920643833566,0,0,-2,-1,-24,-43,20,3
1537920643834564,3,-2,-4,-11,-34,-53,-26,-6
1537920643834564,-1,0,4,14,84,96,29,6
1537920643855508,-4,-7,-13,-33,-112,-113,11,10
1537920643855508,5,4,8,33,127,66,-12,-16
1537920643855508,-7,-6,-8,-29,-104,-42,-1,-5
1537920643855508,-12,1,-6,-18,-64,-78,-63,-35
1537920643877449,3,2,15,49,111,97,44,3
1537920643877449,-10,-5,-15,-37,-101,-124,-25,31
1537920643878446,21,0,-1,8,82,-19,-7,6
1537920643878446,-12,-3,3,13,-33,46,31,1
1537920643892409,-7,-10,-16,-45,-112,60,-9,-9
1537920643892409,8,14,16,48,121,-18,-5,0
1537920643893407,-1,-4,-9,-40,-119,-24,12,13
1537920643893407,1,0,6,24,84,-57,-7,-10
1537920643915348,-3,8,8,16,-16,109,10,13
1537920643915348,-19,-15,-14,-24,-4,-63,-19,-7
1537920643916345,34,13,18,51,93,-13,44,15
1537920643916345,-19,-16,-25,-23,11,36,-15,-22
1537920643937290,6,-3,-16,-51,-66,-45,-6,20
1537920643937290,-2,5,8,-16,-5,34,1,-31
1537920643938287,16,29,17,31,61,-75,-6,2
1537920643938287,-16,-12,-10,-37,-96,-55,5,14
1537920643953246,4,-6,12,48,127,11,-21,-9
1537920643953246,7,2,-7,-10,-71,34,23,-7
1537920643959230,-42,-55,-27,-56,-55,-45,-73,-28
1537920643959230,19,19,16,67,115,73,93,24
1537920643975188,-22,2,-27,-37,-115,-99,-16,-23
1537920643975188,-20,-23,-5,-23,-103,111,-17,10
1537920643976185,64,49,15,32,84,75,25,47
1537920643976185,-5,-7,24,42,59,59,-30,-20
1537920643998126,-23,49,38,-8,-18,-44,-23,-12
1537920643998126,21,-79,-39,26,8,101,17,12
1537920643998126,-35,50,31,40,40,55,48,10
1537920643998126,-2,0,0,-41,-103,74,-37,-41
1537920644013086,2,-40,-4,29,85,-23,-54,-48
1537920644013086,24,15,20,40,64,93,-8,17
1537920644013086,-17,-61,-71,-102,-124,-58,-40,-11
1537920644013086,4,71,12,17,81,-19,0,17
1537920644035028,2,-36,2,43,99,-72,-4,-2
1537920644035028,-30,11,1,-26,55,64,1,-33
1537920644036025,-20,44,20,-42,-81,-5,-22,-44
1537920644036025,19,13,-9,-19,-54,-54,-34,1
1537920644057967,-6,-11,-7,5,47,24,-12,-18
1537920644057967,1,-43,11,43,109,-75,26,6
1537920644057967,-35,-90,-21,16,-37,39,25,-21
1537920644057967,5,94,47,-7,9,20,-7,-7
1537920644071929,6,11,-9,-48,-118,-89,-9,10
1537920644071929,2,-26,-12,15,61,-109,-5,5
1537920644079908,-19,60,16,-5,-59,98,7,-15
1537920644079908,-6,-56,-18,-12,16,-32,-25,16
1537920644094868,15,-41,-16,7,1,93,61,-10
1537920644094868,2,54,9,-16,-47,47,-22,4
1537920644095866,-12,-46,-17,33,109,87,10,1
1537920644095866,-2,-19,16,28,47,53,13,17
1537920644117807,1,13,11,-32,-64,-52,-10,33
1537920644117807,-2,32,-6,-19,-56,19,-1,-33
1537920644118804,30,-15,-2,16,92,61,8,44
1537920644118804,7,38,-3,-11,-62,40,8,10
1537920644131770,8,-40,-7,8,32,85,8,18
1537920644131770,10,10,10,36,83,-47,-8,-11
1537920644139748,2,-7,-3,-13,2,-40,-33,6
1537920644139748,-12,-119,-60,-11,49,60,22,-14
1537920644154708,23,103,57,11,30,77,-13,57
1537920644154708,-14,20,6,-34,-63,-17,18,-3
1537920644155705,17,-49,-10,50,127,59,1,-7
1537920644155705,3,50,29,-8,-113,-43,5,-6
1537920644177646,3,-3,-14,5,30,66,7,0
1537920644177646,-11,33,12,-6,-2,-16,-7,-16
1537920644178644,15,-22,-1,-17,-85,-81,11,9
1537920644178644,0,-59,-42,-42,-115,-128,-1,2
1537920644191609,21,-7,-2,27,76,-23,11,14
1537920644191609,5,35,14,-10,-26,74,-30,9
1537920644199588,-12,5,-4,-3,-29,-75,10,-7
1537920644199588,9,-26,1,5,6,0,-4,20
1537920644215545,-13,33,1,3,22,12,-3,-25
1537920644215545,-4,-33,-21,-16,-84,-64,10,22
1537920644215545,-3,60,5,26,72,-15,6,17
1537920644215545,0,-17,-14,-70,-80,93,-38,-13
1537920644237487,-1,-30,-10,-8,36,28,-4,-3
1537920644237487,-12,-50,-2,19,79,12,2,5
1537920644238484,0,42,8,3,-59,104,22,-37
1537920644238484,12,25,7,10,51,-112,-23,-15
1537920644251449,-18,4,-27,-18,-27,-19,11,-10
1537920644251449,42,12,34,4,13,104,-9,47
1537920644259428,-22,-27,3,-9,-79,-18,-1,-40
1537920644259428,6,-3,0,25,60,-90,1,6
1537920644275385,0,-1,-3,-13,-69,13,16,-3
1537920644275385,-30,-4,-12,3,8,-8,-3,-28
1537920644276383,37,13,6,0,33,58,-5,36
1537920644276383,-8,3,8,10,7,9,7,-12
1537920644297327,-13,-9,-3,10,13,-18,-5,-2
1537920644297327,-3,-5,-10,-9,-26,-22,3,4
1537920644298324,-11,-1,5,-5,2,-15,-6,-12
1537920644298324,-6,-1,-3,2,7,24,-1,7
1537920644312287,5,-2,1,4,1,-16,-2,-1
1537920644312287,-1,0,-8,-9,-18,-7,8,-5
1537920644319268,-1,3,6,-3,-2,-3,-7,3
1537920644319268,-1,-2,-3,10,20,24,9,9
1537920644335226,-5,-6,2,0,-4,12,-1,2
1537920644335226,3,6,-3,-8,-24,-30,7,-3
1537920644336223,-5,-3,-2,3,19,2,-7,2
1537920644336223,-3,-2,0,6,8,40,1,6
1537920644357167,0,0,2,-1,-10,-14,-3,-10
1537920644357167,0,-2,-5,-6,-10,-15,0,-3
1537920644358164,-5,-3,0,-2,3,0,-3,0
1537920644358164,3,0,0,3,13,20,6,1
1537920644372127,3,3,2,1,4,6,-2,-1
1537920644372127,0,-1,-5,-1,9,13,3,3
1537920644379108,-8,-3,-1,-5,-10,-56,-2,3
1537920644379108,-5,4,5,14,42,80,6,0
1537920644395066,-1,-4,-9,-23,-60,-48,-5,0
1537920644395066,1,0,-3,-2,0,-6,-2,0
1537920644396063,-1,-1,3,2,7,6,-2,-3
1537920644396063,-2,-2,-1,2,4,-11,-1,0
1537920644418004,2,-2,2,10,22,10,2,2
1537920644418004,0,0,-3,-1,-13,0,1,-3
1537920644418004,-1,0,-1,-2,2,5,-2,-2
1537920644418004,1,-1,-3,-1,-8,-12,1,0
1537920644431967,-12,-3,1,3,7,12,-1,-5
1537920644431967,14,1,-3,-7,-18,-30,-3,1
1537920644439945,-2,-2,0,3,13,22,2,2
1537920644439945,0,-1,-3,-3,-7,-13,0,0
1537920644455903,-3,-1,-1,-2,-8,-7,-2,-3
1537920644455903,-4,2,-2,0,9,1,-1,-2
1537920644462884,2,0,1,1,8,1,0,-2
1537920644462884,-1,-3,-3,-4,-9,-4,-2,-1
1537920644477844,0,0,0,2,12,17,0,-1
1537920644477844,-4,0,-2,-2,-12,-5,0,0
1537920644477844,-2,-1,-1,-2,-2,9,-4,-3
1537920644477844,0,2,1,3,6,-4,2,6
1537920644499785,1,-1,-3,-5,-32,-28,-6,-1
1537920644499785,-4,-2,-2,0,4,-7,6,-1
1537920644500783,-2,0,0,0,2,-3,-2,0
1537920644500783,-2,-2,-2,-1,-10,1,-1,-2
1537920644514746,1,0,0,5,16,0,-2,-1
1537920644514746,-2,-1,-1,0,5,8,0,-3
1537920644515743,0,-1,-2,-6,-14,-13,-2,2
1537920644515743,-1,1,-1,-1,4,-2,0,0
1537920644537685,2,1,0,0,18,-28,-1,-1
1537920644537685,-2,-1,-1,-1,3,-14,-2,-3
1537920644538682,2,0,-1,0,-9,28,2,1
1537920644538682,1,-2,-1,-5,-17,1,-1,3
1537920644560623,-1,-2,0,-3,-11,-16,-1,-3
1537920644560623,0,-1,1,5,31,30,-3,2
1537920644560623,0,-1,-4,-14,-57,-25,-1,-3
1537920644560623,-1,-2,-2,-3,3,-4,0,-1
1537920644575583,-2,-1,0,-1,-3,11,2,-3
1537920644575583,-2,-2,-1,-6,-20,36,1,-3
1537920644575583,1,1,4,9,38,17,2,-4
1537920644575583,-3,1,-3,0,-4,-20,-2,-3
1537920644597524,-1,0,-1,-1,1,14,1,-5
1537920644597524,2,-1,0,2,-1,-24,-3,4
1537920644598522,1,-3,-3,-1,8,3,-4,3
1537920644598522,-1,-3,-1,-4,-13,-11,0,-3
1537920644620463,1,-1,-1,3,11,-8,0,-1
1537920644620463,-3,-1,1,-1,-11,4,2,-3
1537920644620463,-4,-1,1,4,16,12,-2,-3
1537920644620463,-2,-1,-3,-7,-21,-16,-2,-1
1537920644635423,0,1,0,2,3,19,1,3
1537920644635423,0,-2,0,-5,-9,-30,-3,1
1537920644635423,-1,-1,-2,4,23,-30,-2,0
1537920644635423,-1,-1,2,3,28,62,0,-1
1537920644657364,1,2,-1,-1,-15,-21,-1,1
1537920644657364,-1,0,-2,-6,-13,-14,-1,-2
1537920644665343,-2,-1,-2,-1,-9,1,0,0
1537920644665343,0,1,-1,5,27,1,-1,-2
1537920644681300,-1,-1,0,3,26,-12,0,-2
1537920644681300,0,-1,-2,-5,-25,49,1,-1
1537920644682298,3,-2,-1,0,3,-4,-4,4
1537920644682298,-4,0,-2,-1,-10,-13,0,-6
1537920644703241,5,0,-1,-1,3,7,-3,3
1537920644703241,0,-1,-1,-1,0,-27,-2,-1
1537920644704239,-2,0,0,0,3,10,0,-4
1537920644704239,-1,-1,0,1,-1,2,0,-1
1537920644717204,-2,-2,-2,-6,-12,1,-1,-1
1537920644717204,-2,1,2,11,48,-22,0,-2
1537920644725183,0,-3,-4,-14,-45,24,2,0
1537920644725183,0,-3,0,0,-1,-21,-2,-1
1537920644741142,-2,0,-3,-4,-21,9,-1,-1
1537920644741142,-1,-1,1,2,19,-6,-2,-2
1537920644741142,-2,0,1,4,18,-44,0,-4
1537920644741142,0,-1,-2,-4,-19,-2,-2,2
1537920644763082,-2,-1,0,0,2,13,0,-1
1537920644763082,-1,-1,-2,-1,-2,4,0,0
1537920644764079,-2,0,0,1,1,3,-1,-2
1537920644764079,0,-2,0,0,3,5,0,1
1537920644777044,-1,-2,0,0,3,2,0,-1
1537920644777044,-1,0,-2,-3,-22,-9,-1,-3
1537920644785023,0,0,0,4,7,-9,0,-1
1537920644785023,0,-2,-1,-4,-6,33,1,0
1537920644800980,-2,-2,-1,2,15,10,0,0
1537920644800980,0,-2,-1,-1,3,4,-1,0
1537920644806965,1,-2,-2,-5,-20,4,-1,-1
1537920644806965,0,-1,0,2,12,-26,-3,-2
1537920644822922,-3,-1,0,-4,-24,2,1,-2
1537920644822922,0,-2,-1,0,-2,-14,0,0
1537920644824917,-1,-2,0,3,17,30,1,-3
1537920644824917,-1,0,0,3,7,26,-3,-2
1537920644836885,0,-2,-3,-9,-32,-28,-3,-2
1537920644836885,1,1,0,-1,-9,-10,0,1
1537920644853841,-3,0,0,0,2,10,-1,0
1537920644853841,0,-1,-1,4,18,-5,-2,-2
1537920644860820,-1,1,-4,-5,-16,9,0,0
1537920644860820,-5,0,-1,-2,-14,3,1,-7
1537920644861818,0,-1,-1,1,5,-2,-3,0
1537920644861818,1,-2,-1,-3,-8,-12,-2,6
1537920644883759,1,1,1,3,13,2,-2,0
1537920644883759,-2,-1,-1,-4,-4,1,0,-3
1537920644884756,0,-1,0,-2,1,-5,0,-4
1537920644884756,-3,1,0,-1,-5,-15,0,-1
1537920644905700,0,0,1,3,7,5,0,-1
1537920644905700,0,-2,-4,-1,12,8,-3,3
1537920644907695,-1,-1,-2,-1,-11,2,-2,0
1537920644907695,-1,0,0,0,-3,-35,1,-1
1537920644920661,0,-1,-2,-3,-9,14,1,2
1537920644920661,-2,-1,-2,-2,-5,-16,-4,-1
1537920644922655,0,0,0,4,19,74,2,0
1537920644922655,-2,-3,-4,-9,-25,-25,-3,-4
1537920644943600,-3,-1,2,5,15,-4,-1,0
1537920644943600,-2,-2,-1,0,2,-13,-1,1
1537920644944597,1,-1,-1,-2,2,2,-1,0
1537920644944597,-1,1,0,-1,-3,10,1,0
1537920644965540,-1,-1,0,0,8,8,1,-2
1537920644965540,-2,0,-2,-1,-3,-2,0,-1
1537920644967535,-1,1,0,0,-2,-22,-1,-2
1537920644967535,1,-1,-1,0,-4,6,0,-3
1537920644980500,0,-1,0,1,4,-3,-1,-1
1537920644980500,0,-1,-1,-1,-10,1,0,1
1537920644986484,0,-2,-3,-1,2,-13,-1,-1
1537920644986484,-1,0,0,5,38,16,1,0
1537920645003439,2,-3,-4,-12,-55,-33,-6,-1
1537920645003439,0,-1,-3,-4,-25,-6,-1,-1
1537920645004437,-2,-1,-2,-2,-9,-6,-1,0
1537920645004437,0,0,0,3,23,11,-1,-1
1537920645025380,-3,-2,-1,3,6,-1,0,-3
1537920645025380,-1,-1,0,0,1,4,-10,-2
1537920645027375,-3,-2,-2,-1,-7,-14,10,-1
1537920645027375,0,0,-1,-3,-13,-5,0,-3
1537920645040340,1,0,0,3,14,9,2,1
1537920645040340,0,-2,-1,-2,-3,6,5,-1
1537920645047322,-1,-3,-2,0,1,-11,-9,3
1537920645047322,-2,0,-1,-1,-5,-3,-6,-1
1537920645063279,0,1,-2,-3,-2,-5,-20,-3
1537920645063279,-1,0,-1,1,18,17,17,1
1537920645065274,-1,0,-2,-2,-14,-10,7,-10
1537920645065274,-14,-6,0,2,11,2,-39,-7
1537920645086218,12,5,3,2,2,-69,61,-1
1537920645086218,-8,0,-13,-15,-39,72,5,-7
1537920645087215,-15,-2,0,4,14,-17,-83,4
1537920645087215,-7,-49,-5,-1,6,-28,99,11
1537920645099183,16,52,11,-2,-4,8,-44,1
1537920645099183,1,-29,25,30,98,53,-11,-5
1537920645108159,-11,71,8,-50,-105,-105,-13,-1
1537920645108159,-45,5,-13,26,107,96,-31,-10
1537920645123119,43,27,26,-22,-53,76,8,44
1537920645123119,-24,-110,-102,0,42,-74,6,-12
1537920645125114,24,81,45,46,96,52,8,16
1537920645125114,-14,68,73,-31,-128,-35,-8,-42
1537920645146058,-80,-112,-69,11,58,-67,4,-10
1537920645146058,-8,127,90,-11,-91,-52,-20,3
1537920645147056,7,47,-6,-4,48,32,15,35
1537920645147056,33,-69,-60,32,69,118,20,11
1537920645159024,-23,38,61,24,13,-20,-3,-18
1537920645159024,44,13,-52,-40,-87,-20,-10,11
1537920645167999,-34,-128,-19,-15,-108,-101,-2,-10
1537920645167999,23,-36,-26,-15,21,61,-13,-15
1537920645182959,-13,55,19,31,102,11,3,52
1537920645182959,4,-15,9,-16,-62,-63,-10,-18
1537920645184954,-11,-63,-19,14,127,31,41,9
1537920645184954,75,-22,-13,-13,-83,-80,-34,-10
1537920645205898,-5,-95,-14,-2,59,97,5,-24
1537920645205898,20,127,65,-4,-53,-60,20,45
1537920645206896,32,22,-28,-10,5,-58,-36,-16
1537920645206896,-64,-9,-39,-2,72,13,0,9
1537920645219861,29,20,51,6,-62,48,-1,-9
1537920645219861,13,-76,-48,-8,19,-2,-22,2
1537920645228837,-27,-12,34,7,-14,29,16,-48
1537920645228837,-46,-10,-30,-7,17,15,0,26
1537920645243797,34,85,36,22,22,-88,11,-5
1537920645243797,11,11,4,-21,-19,58,-17,-51
1537920645249781,31,-20,-10,10,13,-36,15,56
1537920645249781,-22,20,11,-5,-17,30,5,6
1537920645265738,-14,-22,-24,-2,37,66,-10,-7
1537920645265738,-22,-40,4,27,59,-41,16,6
1537920645267733,-16,-5,-17,-15,-37,19,-2,-24
1537920645267733,30,44,31,4,-13,-45,-1,8
1537920645279701,-9,-29,-24,-20,-38,-16,-6,-7
1537920645279701,-23,-29,-6,13,32,23,4,-4
1537920645303637,13,15,0,0,-4,49,7,4
1537920645303637,2,7,21,-2,-30,-28,0,6
1537920645304634,-1,-12,-22,-10,-17,-27,-5,-13
1537920645304634,-2,-2,0,5,19,31,5,9
1537920645306629,1,5,10,4,-10,25,-2,-4
1537920645306629,6,3,7,-1,-14,-57,-7,-4
1537920645325578,-10,-11,-20,-14,-21,-11,-7,-8
1537920645325578,3,2,8,11,30,23,4,6
1537920645327573,-6,-16,-2,-4,-5,13,2,-5
1537920645327573,-2,-1,-1,-1,-11,-23,-2,-3
1537920645339540,5,16,-4,-7,-9,7,-3,1
1537920645339540,-10,-10,4,6,14,17,3,6
1537920645348517,0,-1,-2,2,-2,2,0,-8
1537920645348517,5,6,4,-3,-9,-11,0,1
1537920645363477,-5,-11,-7,-2,-3,0,-2,-2
1537920645363477,-12,-7,1,4,12,-8,-1,-4
1537920645364474,-5,-2,-4,-7,-10,50,1,-5
1537920645364474,8,8,8,-2,-21,-41,-2,3
1537920645385418,-5,-9,-8,-7,-5,-2,-3,-1
1537920645385418,-7,-6,-1,4,8,-17,2,-3
1537920645387413,3,2,0,-1,-6,-3,3,0
1537920645387413,-1,5,5,-1,7,8,-1,1
1537920645399381,-3,-9,-7,-3,2,-4,-2,-6
1537920645399381,2,4,0,0,4,11,1,2
1537920645408357,1,1,2,3,9,2,0,-1
1537920645408357,3,6,2,0,-2,-12,1,-1
1537920645423317,-1,-2,-5,-3,-11,-7,-2,0
1537920645423317,2,-7,0,1,10,16,-1,0
1537920645424314,-2,-1,-1,1,0,-3,0,-2
1537920645424314,1,2,0,-1,-3,-2,-1,-2
1537920645446255,3,-1,-6,-4,-6,1,-1,0
1537920645446255,-4,-5,1,-1,2,5,1,0
1537920645447253,-4,1,-2,1,2,-6,-1,-3
1537920645447253,2,0,1,-1,-8,-10,-2,-3
1537920645459221,1,-3,-3,-1,-1,9,-1,2
1537920645459221,1,-5,-3,-5,-6,-5,-3,1
1537920645468197,-2,0,0,2,14,2,-1,-3
1537920645468197,0,1,3,-1,-10,-17,-2,-1
1537920645483157,-2,-2,-2,0,-5,32,3,-3
1537920645483157,-1,-3,-2,-3,-8,18,-1,-3
1537920645485151,1,-2,-1,-2,5,6,-2,0
1537920645485151,-1,2,1,0,0,-6,-2,0
1537920645506095,0,1,-3,0,3,-10,-1,-2
1537920645506095,-2,1,-1,-2,-18,10,2,-1
1537920645507093,0,-1,-1,-1,-1,0,-2,-1
1537920645507093,1,1,1,0,8,10,-1,-1
1537920645528037,-3,-1,0,-3,-7,-18,-2,0
1537920645528037,0,0,-2,3,13,3,1,-1
1537920645530031,1,-1,-1,-1,-8,-9,0,-4
1537920645530031,0,0,0,3,1,13,0,0
1537920645542997,0,-4,-1,-3,-4,-13,-1,0
1537920645542997,-2,-1,-1,1,0,-5,-1,-1
1537920645544992,0,-1,-3,1,3,6,0,2
1537920645544992,0,-1,-2,-5,-11,-11,-2,0
1537920645565936,1,0,0,0,5,-4,-1,-1
1537920645565936,-1,-3,0,-1,-6,-15,-3,-1
1537920645566934,-2,-1,0,1,-5,-29,0,-2
1537920645566934,-2,-1,-2,-7,-12,44,2,0
1537920645579898,1,-1,-2,1,2,-6,-3,-3
1537920645579898,-1,-1,0,2,10,13,0,-2
1537920645587877,-3,-2,0,-2,-11,-6,-2,-2
1537920645587877,2,-1,-1,0,-2,-17,-5,2
1537920645603834,0,0,0,-2,-4,-1,-2,3
1537920645603834,1,-2,0,1,12,4,1,4
1537920645604832,0,0,-1,0,-9,4,1,0
1537920645604832,-3,-1,1,-1,9,2,0,-3
1537920645625775,-2,2,2,1,1,-4,-1,-5
1537920645625775,0,-2,-1,2,14,-2,-2,0
1537920645626773,-1,-2,-2,-6,-20,-2,0,-1
1537920645626773,-1,-2,-2,-1,-2,-8,0,-1
1537920645639738,0,-1,-2,-1,8,1,0,1
1537920645639738,-1,-1,-1,2,12,3,0,0
1537920645648714,-3,-1,-2,-5,-23,-8,-1,-1
1537920645648714,0,-1,1,2,5,-4,0,-1
1537920645663674,1,-1,-1,-1,-1,1,1,-1
1537920645663674,0,0,2,1,0,1,0,1
1537920645664672,-1,-1,-2,2,9,-2,-2,-1
1537920645664672,-1,1,-1,-1,-9,-6,0,-1
1537920645685615,-2,-2,-3,-2,-6,2,-2,-1
1537920645685615,-1,-2,-2,-2,-6,-3,2,1
1537920645687610,-1,-1,-1,2,17,-10,-5,-4
1537920645687610,-1,-1,0,0,-9,18,0,1
1537920645699578,-1,0,-2,0,-1,1,-3,-2
1537920645699578,3,1,0,-3,-10,-6,-1,-1
1537920645708554,-4,-1,0,-1,10,18,2,-1
1537920645708554,-1,-2,0,-1,-2,-17,-2,-2
1537920645723514,-2,-1,1,0,-1,0,-1,-1
1537920645723514,-1,0,0,1,-6,15,-1,-2
1537920645724512,2,1,0,-1,-1,-10,1,2
1537920645724512,-1,-2,-2,-1,2,2,0,-2
1537920645745456,-2,-2,-2,-1,-1,-2,-1,0
1537920645745456,-2,0,-1,-1,-4,-12,-1,-4
1537920645747451,2,-4,-2,0,-1,5,0,3
1537920645747451,-1,-1,0,2,2,-6,1,-4
1537920645759419,-1,1,-2,-4,-7,-2,0,0
1537920645759419,-1,-1,0,2,6,1,0,-2
1537920645768395,-1,-1,1,-2,0,4,1,-1
1537920645768395,1,-3,-2,-1,4,-3,-2,-1
1537920645783355,-14,-2,-1,0,-2,1,1,-4
1537920645783355,7,1,-1,-4,-3,-8,-4,3
1537920645784352,-2,0,-2,-1,8,9,2,-4
1537920645784352,2,0,-1,-1,-5,-12,-3,2
1537920645806293,2,0,1,0,1,5,-4,1
1537920645806293,-1,-2,-2,0,-1,4,6,0
1537920645807291,-1,0,0,-2,-5,-10,-10,2
1537920645807291,-3,0,-1,1,1,4,11,0
1537920645819258,2,1,0,1,2,-2,-5,0
1537920645819258,-2,-1,-2,-3,-6,-7,-3,-3
1537920645828234,1,-2,-1,0,7,13,9,-2
1537920645828234,-2,-1,-1,2,14,0,-3,-4
1537920645843194,-1,-2,-3,-3,-20,-17,-19,-3
1537920645843194,10,0,-2,-1,-1,-4,0,1
1537920645845189,-2,-1,0,-1,5,2,-12,-3
1537920645845189,-4,-1,-2,-2,1,9,7,2
1537920645866133,5,0,0,0,4,10,21,0
1537920645866133,-6,-1,-1,-2,2,-2,-6,-3
1537920645867131,0,-1,-2,-1,-4,1,0,0
1537920645867131,3,1,-1,1,3,-3,-7,0
1537920645887077,-4,-4,-1,-2,1,-2,-2,-2
1537920645887077,-2,-1,-1,-2,-10,-11,-5,-1
1537920645904032,0,-1,0,1,1,-1,3,1
1537920645904032,1,0,1,-1,-2,-3,-1,2
1537920645905029,1,-1,0,0,2,-1,2,-1
1537920645905029,-3,-2,-3,-3,-3,6,4,0
1537920645906026,-1,0,-1,0,-5,-8,-6,-2
1537920645906026,-1,0,-1,-2,2,2,-5,-3
1537920645925973,-1,-1,3,2,3,1,2,-1
1537920645925973,-1,-2,-1,-2,-2,-8,-3,-1
1537920645926970,-1,0,-2,3,12,-6,0,-3
1537920645926970,-1,-3,-3,-6,-21,-8,-1,1
1537920645947914,1,1,-1,-1,-3,7,1,-1
1537920645947914,-1,1,0,2,10,6,1,-3
1537920645949909,-2,-2,-3,-2,-11,2,0,-1
1537920645949909,-2,-1,0,0,9,5,-3,-4
1537920645962874,2,-1,-2,-1,0,-12,-2,2
1537920645962874,-3,-1,0,3,3,3,1,-2
1537920645964869,-3,-3,-1,-4,-14,-6,1,-2
1537920645964869,6,-2,0,0,0,0,-3,2
1537920645985813,-2,-1,0,-1,-4,5,-1,-1
1537920645985813,-4,-1,2,0,1,-8,-2,-1
1537920645986811,1,1,-1,1,1,2,3,0
1537920645986811,-5,-1,-2,-2,-6,-2,-2,-4
1537920646008752,1,-1,-3,-1,2,-5,-1,1
1537920646008752,1,-2,-1,-2,2,2,-1,-1
1537920646010747,-2,0,0,1,-5,-4,-1,-1
1537920646010747,-2,-1,0,-2,1,5,-2,-1
1537920646023712,1,-1,-1,0,6,-4,-1,0
1537920646023712,-4,-2,0,2,6,7,0,-1
1537920646024710,-4,-2,-3,-9,-40,-15,-2,-3
1537920646024710,2,-1,0,2,11,-6,0,-3
1537920646045653,1,1,1,-1,4,6,1,-1
1537920646045653,1,-4,-1,-4,-20,11,-1,5
1537920646047648,1,-1,1,3,15,1,-3,1
1537920646047648,-1,-1,-2,-2,4,-3,-3,-2
1537920646068592,-3,0,-2,-3,-6,-1,-2,-3
1537920646068592,-1,1,-1,1,9,-2,0,-3
1537920646069589,1,-1,0,0,-2,2,0,1
1537920646069589,-2,-1,0,-1,0,3,1,-1
1537920646082555,0,-1,0,1,6,-1,0,-3
1537920646082555,-2,-1,-2,-2,-5,-7,-1,1
1537920646096517,1,-1,0,0,6,5,-1,1
1537920646096517,-1,0,0,0,-3,-5,-2,0
1537920646105493,-3,-1,-2,0,4,-2,-1,-1
1537920646105493,-1,0,0,0,-5,-4,-1,-2
1537920646107488,0,-2,-1,-1,0,-6,0,-1
1537920646107488,-2,-1,0,0,3,13,2,0
1537920646135413,2,0,-2,-1,-5,-1,-2,1
1537920646135413,-2,0,0,2,12,1,0,-2
1537920646137408,1,0,-2,-3,-5,-6,2,1
1537920646137408,-3,-1,0,-3,-4,-1,-1,0
1537920646142394,-1,-2,2,0,-7,-4,1,0
1537920646142394,1,-1,0,0,3,-14,-2,0
1537920646149376,0,-1,1,0,2,20,-1,-3
1537920646149376,0,0,-1,-1,-3,-7,-1,0
1537920646165333,-1,-1,-1,-2,-5,2,-2,0
1537920646165333,0,-1,0,-1,1,-3,-1,-1
1537920646181290,-1,1,-1,1,5,0,0,0
1537920646181290,0,-2,-1,-1,-1,-3,0,1
1537920646188272,-1,-1,-3,-1,10,7,-2,-1
1537920646188272,1,-1,-1,-3,-16,-11,-2,-3
1537920646189270,0,-2,-2,-1,2,-3,-2,-2
1537920646189270,0,-2,-2,1,-4,0,-1,0
1537920646202235,0,-2,-2,-2,-3,-10,-12,-2
1537920646202235,-1,0,-2,-2,-2,16,23,-1
1537920646209216,-2,-1,2,1,4,-9,-12,2
1537920646209216,1,1,0,-1,6,2,3,1
1537920646226170,-5,-1,-1,1,-4,-13,-20,-9
1537920646226170,0,0,-1,-3,1,20,22,0
1537920646227168,4,1,-1,1,10,4,6,-1
1537920646227168,-9,3,-2,-2,-5,21,2,-4
1537920646256091,21,-1,-5,-2,8,-7,-13,8
1537920646256091,-7,12,4,1,8,-3,16,3
1537920646257088,-29,-9,-3,4,9,3,2,-16
1537920646257088,11,-32,-28,-13,-6,-8,3,-2
1537920646262074,-26,14,7,-4,6,7,10,-11
1537920646262074,51,-54,-25,6,22,-11,-15,15
1537920646271050,10,32,33,-5,29,11,-13,-3
1537920646271050,-18,40,23,59,117,78,-7,-28
1537920646286011,-6,20,15,-37,-115,-116,22,42
1537920646286011,56,17,16,-19,-60,28,-26,1
1537920646287008,-54,-63,-87,-8,74,45,8,-10
1537920646287008,24,50,56,17,68,-105,-3,39
1537920646308949,57,-55,-12,-25,-37,-29,2,-35
1537920646308949,-87,87,59,14,5,-88,-18,-12
1537920646309947,-15,14,56,16,12,64,11,-13
1537920646309947,7,7,-16,-10,3,-24,-12,12
1537920646321914,3,-1,18,31,58,85,11,-32
1537920646321914,5,28,-12,4,7,-19,1,5
1537920646330891,39,-34,-24,-16,-60,-29,-9,10
1537920646330891,-96,-69,-42,-13,-12,25,4,-26
1537920646346848,-51,13,15,0,-19,11,3,26
1537920646346848,-2,-85,-31,-13,-7,-3,-14,-28
1537920646347846,-17,3,-3,2,-11,-33,-2,1
1537920646347846,33,-8,-6,-25,-68,-6,2,13
1537920646383749,-22,-22,-23,-3,7,5,-10,-11
1537920646383749,-7,17,12,7,28,13,-1,-5
1537920646385744,-5,4,-2,-2,-4,-21,5,3
1537920646385744,18,2,7,-8,-35,-31,-2,-2
1537920646385744,-1,14,-1,5,23,17,-6,-3
1537920646385744,-15,-11,-13,6,34,27,9,5
1537920646390731,39,19,13,-8,-29,-15,1,13
1537920646390731,-9,-8,-4,-8,-38,3,-8,-7
1537920646405691,-1,7,-4,12,40,18,-8,5
1537920646405691,5,-6,-3,-1,1,17,11,6
1537920646407686,-3,-6,-6,-4,-22,-5,3,-1
1537920646407686,6,6,4,-8,-31,-14,-10,-5
1537920646428629,-7,-8,-10,-2,6,3,16,6
1537920646428629,-2,-7,-4,-7,-13,-6,-3,0
1537920646429627,1,10,8,6,15,2,8,-1
1537920646429627,0,-4,-6,1,-7,-5,-14,1
1537920646441595,18,3,0,4,2,-15,-2,3
1537920646441595,-9,-7,-3,-1,-3,5,-4,-1
1537920646450570,2,6,2,3,12,-5,-7,2
1537920646450570,8,-2,1,-2,-3,18,7,0
1537920646464533,-5,-8,-4,-2,2,2,-3,-1
1537920646464533,-9,1,-2,-2,2,-4,-5,-2
1537920646473509,22,2,-2,-2,-4,-5,6,6
1537920646473509,2,-1,2,0,1,6,8,-1
1537920646487472,1,2,1,3,6,5,-1,-2
1537920646487472,-13,-5,-5,-1,4,-1,-15,-3
1537920646495451,2,4,1,-3,-7,-1,-12,0
1537920646495451,2,-1,-1,-1,0,11,22,5
1537920646502432,2,3,-1,4,9,3,2,1
1537920646502432,1,-2,-2,-3,-9,7,11,0
1537920646518389,-7,-3,0,-3,-3,-12,-11,-2
1537920646518389,0,1,2,0,4,0,-18,-6
1537920646525371,-6,-3,-4,-1,1,3,5,-1
1537920646525371,4,0,0,0,-3,3,1,3
1537920646527366,-6,1,0,0,-1,0,-5,-2
1537920646527366,-1,-2,-2,-1,1,-4,-1,-1
1537920646548309,3,2,-1,0,-1,-4,10,2
1537920646548309,-2,-2,-2,-1,1,-1,-6,-3
1537920646549307,4,3,1,2,-4,-13,-28,1
1537920646549307,-5,-3,-3,-2,3,40,-10,-6
1537920646562272,-5,-3,-3,-1,0,3,-14,-5
1537920646562272,6,2,0,2,1,3,58,13
1537920646571248,-4,-2,-1,-1,2,-26,13,-1
1537920646571248,2,0,-2,0,-1,20,8,4
1537920646586208,-8,-3,-1,0,-3,-14,-17,-8
1537920646586208,-5,-4,-1,-3,-1,2,-1,-9
1537920646587205,-23,-4,-1,-2,-6,10,-21,-16
1537920646587205,13,0,2,-1,4,2,48,19
1537920646608150,13,5,0,2,4,-8,3,7
1537920646608150,1,4,1,-2,-6,0,-10,-25
1537920646610144,-38,-14,-9,-5,-2,-12,-20,-7
1537920646610144,26,3,-4,2,25,-1,-26,-13
1537920646622112,-14,-21,0,9,-5,12,-27,6
1537920646622112,0,4,-7,-4,22,-5,49,6
1537920646637072,-26,-23,-16,8,31,69,50,-8
1537920646637072,24,85,51,-23,-103,-56,-44,23
1537920646645051,30,23,-23,36,122,-11,-31,-2
1537920646645051,68,-50,-15,-41,-127,74,4,23
1537920646652032,-15,-31,-63,-25,34,-66,17,9
1537920646652032,-13,7,49,62,55,-31,-4,-15
1537920646667990,-46,-88,-21,-84,-128,-41,9,-12
1537920646667990,-6,124,112,27,94,20,-54,-17
1537920646669985,-43,-86,-27,-7,35,-83,-4,-14
1537920646669985,-7,81,32,-14,-21,13,24,7
1537920646681952,45,-88,-72,27,62,-39,6,-8
1537920646681952,-14,61,-61,14,116,72,-24,-33
1537920646690928,5,-3,14,-21,-84,-6,3,33
1537920646690928,22,25,66,31,58,20,-2,-5
1537920646704891,-58,-54,-41,-10,-15,-15,-3,-41
1537920646704891,-57,-18,-4,-38,-107,-42,16,43
1537920646711872,85,11,12,20,25,22,-29,14
1537920646711872,-35,65,-44,-6,33,61,24,7
1537920646727830,34,21,60,-6,-37,-16,21,16
1537920646727830,-74,-107,-14,29,82,16,-17,-21
1537920646729824,76,-59,-11,-29,-102,-47,8,9
1537920646729824,1,-86,-17,-26,-48,28,1,9
1537920646741792,6,48,17,5,6,29,15,8
1537920646741792,-25,-20,-25,2,9,-17,-11,5
1537920646750768,20,116,55,16,9,15,7,0
1537920646750768,10,-79,-41,-6,20,-1,-7,-20
1537920646764731,-20,40,8,-7,-24,26,-15,8
1537920646764731,24,-65,-10,1,-36,-40,2,8
1537920646771712,-23,18,7,6,-8,28,-5,-18
1537920646771712,-8,-24,-26,-9,-15,-41,-5,-5
1537920646788667,-6,18,14,9,17,48,7,3
1537920646788667,7,10,6,-5,-25,-47,-9,-4
1537920646789665,6,5,7,4,12,10,-4,3
1537920646789665,-21,-6,-20,0,14,-1,2,-5
1537920646809611,-7,1,14,4,-5,-8,3,5
1537920646809611,24,3,-2,0,-7,2,0,1
1537920646818587,-7,31,5,10,17,3,-6,-5
1537920646818587,-5,-47,-20,-12,-26,23,-2,0
1537920646825568,-1,21,7,5,18,-13,-6,-4
1537920646825568,31,1,-2,-10,-54,7,-5,4
1537920646831553,-18,1,5,9,24,33,4,-3
1537920646831553,2,-2,-9,-5,-1,-27,-4,-2
1537920646848507,-1,8,5,2,-3,2,3,3
1537920646848507,14,-2,-6,2,9,-2,-5,2
1537920646849504,-38,-7,4,5,1,2,4,-4
1537920646849504,-2,0,1,-1,-3,-10,-2,-5
1537920646870448,3,18,6,-1,0,15,1,1
1537920646870448,1,-7,-5,0,1,-22,0,-2
1537920646872443,-1,-5,-5,-4,-5,13,0,-5
1537920646872443,-3,-11,-9,-1,15,3,1,-1
1537920646885408,1,7,2,2,4,-17,0,-1
1537920646885408,-8,-2,1,-6,-28,-21,-8,-5
1537920646892390,11,1,1,-1,1,4,10,5
1537920646892390,-9,-4,-5,2,16,15,-1,-3
1537920646908347,2,-6,3,0,-6,-13,-10,1
1537920646908347,-1,3,0,-3,-2,-11,-6,-3
1537920646909344,3,7,2,1,3,10,-6,0
1537920646909344,-2,-14,-7,1,-1,-41,-16,-4
1537920646930288,1,1,1,1,8,75,4,0
1537920646930288,0,8,1,1,2,-9,0,1
1537920646932283,0,1,0,-1,2,14,11,2
1537920646932283,-8,-9,-5,1,-2,-4,1,-3
1537920646945249,9,3,-3,-3,-4,-13,-10,8
1537920646945249,-6,6,3,2,-2,2,0,0
1537920646952230,-1,-4,0,0,-1,-1,2,-1
1537920646952230,0,-7,-4,-3,-6,-5,-1,-2
1537920646968187,-2,6,3,1,-1,-1,2,-1
1537920646968187,-7,-2,-1,2,5,-1,0,-4
1537920646970182,-14,0,0,-1,-1,-4,-8,-4
1537920646970182,0,-3,-2,-3,-7,-6,2,-6
1537920646991126,3,1,-1,-2,-6,-5,-10,6
1537920646991126,3,-4,0,2,9,3,5,5
1537920646992123,-14,2,0,-2,-3,5,1,-6
1537920646992123,11,2,-1,-4,-12,-13,-5,4
1537920647005088,-2,-3,0,-2,0,6,8,-2
1537920647005088,-5,-4,-1,2,9,-7,1,-2
1537920647012069,10,9,4,4,13,13,-11,-1
1537920647012069,-5,-6,-3,-5,-30,-21,2,1
1537920647028027,1,2,0,1,-2,-6,-3,-2
1537920647028027,2,-1,-1,0,4,4,3,0
1537920647030022,0,-5,-3,-6,-16,-2,-6,-1
1537920647030022,-2,-3,-1,1,15,-12,-4,-4
1537920647050966,-1,-3,-2,-3,-5,21,12,3
1537920647050966,-2,3,-2,-1,-10,-9,-8,-1
1537920647051963,6,0,0,2,7,-12,-2,-1
1537920647051963,-6,-3,-1,-1,2,22,-5,-2
1537920647064928,12,1,-1,-1,-2,-8,3,2
1537920647064928,-1,0,-1,-3,-6,5,3,1
1537920647071910,0,-2,-2,-2,-3,-6,-11,0
1537920647071910,1,-2,-2,0,1,-2,16,5
1537920647087867,-5,1,-2,0,2,-2,7,-5
1537920647087867,0,3,0,0,-2,5,-1,0
1537920647089863,3,-1,0,2,-2,-11,-7,-2
1537920647089863,-10,0,0,0,5,7,-2,-3
1537920647110806,-3,-1,-1,-5,-6,7,5,0
1537920647110806,1,1,0,1,0,-11,-4,-1
1537920647111803,-1,-3,1,-1,-1,-5,-6,-2
1537920647111803,0,-1,-1,0,3,3,0,1
1537920647124769,-2,-1,-1,1,11,11,-1,-3
1537920647124769,4,0,-4,-4,-16,-25,0,-1
1537920647131750,1,-2,0,-1,-7,7,12,2
1537920647131750,-1,-2,-1,-2,7,4,-12,-3
1537920647148705,-2,-1,-2,-2,-12,-15,-11,-1
1537920647148705,-6,-3,-3,-6,-4,-7,8,-2
1537920647149702,2,-2,-2,0,0,11,11,1
1537920647149702,-2,-2,-1,0,-4,-5,-1,1
1537920647170646,0,0,2,4,7,-6,-14,-3
1537920647170646,0,0,0,3,9,13,2,0
1537920647172641,-3,1,-1,-2,-6,-5,1,-2
1537920647172641,8,-1,-1,-2,0,0,1,2
1537920647193585,-2,-2,-1,-1,-4,-3,5,-2
1537920647193585,1,-1,0,-1,1,1,-7,0
1537920647194582,1,-1,-1,-1,1,0,3,2
1537920647194582,-3,0,-1,-1,0,5,2,0
1537920647208545,-1,0,-2,-1,-3,-5,-1,0
1537920647208545,1,1,2,0,4,1,-4,-3
1537920647209542,-1,-1,-1,-1,2,2,2,-2
1537920647209542,-16,-2,-1,1,4,-1,-3,-4
1537920647233478,9,-1,-3,-6,-17,-10,0,2
1537920647233478,1,-1,0,1,5,8,-1,-1
1537920647234476,0,-3,0,2,8,12,3,3
1537920647234476,-4,-1,0,0,5,-9,1,-3
1537920647237468,-5,0,0,1,3,-12,-4,-4
1537920647237468,-3,1,-1,-2,-2,16,1,-2
1537920647246443,1,-3,-2,-1,-1,-8,-4,-2
1537920647246443,5,2,-2,0,-1,6,-3,0
1537920647260406,-4,-2,0,0,5,2,4,1
1537920647260406,1,-1,-1,-1,1,1,-10,-3
1537920647267387,-1,0,0,0,3,-2,6,2
1537920647267387,0,-1,0,-3,-4,1,5,0
1537920647283345,1,-1,2,1,2,0,1,3
1537920647283345,-3,1,1,1,6,6,-1,0
1537920647284342,2,1,0,0,-4,-2,-2,-3
1537920647284342,2,2,1,0,-4,-3,-1,-3
1537920647305286,-1,-1,-2,-1,-3,0,-2,1
1537920647305286,2,-1,-2,-3,-1,-4,-2,0
1537920647307281,-1,1,-2,1,8,6,-3,-1
1537920647307281,4,0,0,0,-3,-18,-5,0
1537920647320246,-3,-1,-3,-7,-23,12,9,-3
1537920647320246,0,-1,0,0,0,-3,2,1
1537920647327227,0,1,0,1,5,-2,0,-1
1537920647327227,-1,-4,-3,-6,-8,-3,-6,-1
1537920647343185,-1,0,-1,1,10,1,1,-3
1537920647343185,0,-2,-1,-3,-4,1,12,0
1537920647349169,-1,-1,-3,-4,-9,-17,-14,-4
1537920647349169,0,-1,0,1,6,4,-6,1
1537920647357147,-1,0,-1,-2,-2,-8,-8,-2
1537920647357147,-1,-1,-1,-1,2,1,3,1
1537920647364129,0,-1,-3,-2,1,1,6,0
1537920647364129,1,-2,-2,-3,-4,11,8,1
1537920647380086,-1,-3,0,-4,7,5,-2,-2
1537920647380086,-2,0,0,-1,-9,-13,-7,-1
1537920647387068,-1,0,1,1,-3,-2,1,-1
1537920647387068,-2,0,2,2,3,-2,1,-2
1537920647403025,-2,1,1,-1,-2,4,2,-1
1537920647403025,0,-2,-1,-2,5,3,-1,0
1537920647405020,1,-2,-2,-3,-21,-8,-5,-2
1537920647405020,1,-1,0,-3,-10,-2,1,0
1537920647417985,1,-2,1,1,4,-4,1,2
1537920647417985,-1,-1,0,1,7,0,-5,0
1537920647423970,0,-1,-2,-2,5,8,0,0
1537920647423970,0,-2,-2,-1,2,-2,0,1
1537920647439926,-1,-2,-1,-2,-10,-8,-3,-2
1537920647439926,-2,0,-2,-2,-5,-4,-5,-3
1537920647446907,-1,-1,0,0,5,4,0,0
1537920647446907,-1,0,-1,-3,-3,-1,-1,-2
1537920647462865,-2,-1,1,-1,1,-10,-3,-3
1537920647462865,0,0,-2,0,-1,-2,-1,2
1537920647464859,-2,0,1,-2,0,2,-1,-2
1537920647464859,1,-1,0,0,8,8,-1,-2
1537920647477824,-1,0,0,0,0,0,-2,-2
1537920647477824,-1,-1,0,-2,0,2,12,-2
1537920647484806,-1,-1,-1,-3,0,2,1,1
1537920647484806,2,1,2,4,1,-9,-16,0
1537920647499766,0,0,-1,-1,1,-1,-1,1
1537920647499766,-1,1,-1,0,-3,5,1,-1
1537920647506748,0,-2,-1,-2,-2,-2,3,-2
1537920647506748,0,-1,-2,1,0,2,5,0
1537920647523702,1,-1,-2,1,11,9,-1,-1
1537920647523702,-1,-1,-2,-4,-24,-12,-6,0
1537920647524700,0,-1,0,1,6,-3,0,0
1537920647524700,-4,-3,-6,-7,-18,-8,-1,-2
1537920647537665,-2,0,0,2,6,-4,-6,-1
1537920647537665,-1,0,0,1,7,3,7,-1
1537920647544646,-2,-1,1,-1,3,1,-3,-1
1537920647544646,-1,-1,2,-1,1,3,2,0
1537920647559606,-1,-1,0,-2,-4,-2,-1,-3
1537920647559606,-2,-3,-1,2,3,-2,-7,-2
1537920647566587,-1,0,-2,-1,-7,-4,-2,-1
1537920647566587,-3,-1,-2,0,2,0,0,-1
1537920647583542,-1,-2,-1,-3,-5,0,3,0
1537920647583542,0,-1,-2,0,5,2,-3,0
1537920647584540,-2,-1,1,2,5,-7,-1,-1
1537920647584540,-1,-1,-3,-1,-2,4,2,1
1537920647596508,-2,-2,-4,-2,-9,-1,0,-2
1537920647596508,-2,-2,-1,0,2,8,1,-1
1537920647605483,-1,0,0,0,1,-6,-4,0
1537920647605483,0,-1,-1,-1,6,1,-5,-3
1537920647621441,0,0,1,-2,-24,-10,-1,-1
1537920647621441,-1,0,-1,0,6,-5,-4,-3
1537920647627425,0,1,-3,0,4,8,3,0
1537920647627425,-1,1,0,-4,-23,-10,1,0
1537920647643382,0,0,0,2,8,4,1,1
1537920647643382,-1,-2,-1,-2,-2,-5,-3,0
1537920647644380,-1,0,-2,0,0,0,0,-2
1537920647644380,0,-1,-1,0,6,2,0,1
1537920647657345,-1,-2,-1,-2,-1,-4,-2,0
1537920647657345,0,0,0,-1,-4,-2,-2,0
1537920647666321,-1,-2,-2,-2,0,0,-2,-1
1537920647666321,0,0,0,-1,-1,-2,1,-2
1537920647688262,-1,1,0,0,2,0,2,1
1537920647688262,0,-1,-1,0,-3,-1,-3,-2
1537920647689259,-1,-1,-3,-3,-6,-1,0,-1
1537920647689259,-2,-3,-2,0,1,-2,1,-1
1537920647711201,0,0,0,2,3,-2,0,0
1537920647711201,-1,0,-3,0,5,2,-4,1
1537920647712198,0,0,-1,0,-4,3,2,0
1537920647712198,-1,0,1,-1,2,7,1,1
1537920647726161,-1,-2,-2,-3,-14,-6,3,-1
1537920647726161,1,-1,1,0,-1,-7,-8,-4
1537920647727158,1,0,0,-1,2,3,-6,-1
1537920647727158,2,0,0,0,10,-2,-3,-2
1537920647740124,-1,1,1,0,8,5,5,1
1537920647740124,2,0,0,0,7,-7,-10,0
1537920647747105,-25,-1,-5,4,23,-6,17,-8
1537920647747105,16,2,-8,-5,-18,-18,4,0
1537920647763062,-33,-43,-29,0,57,39,-3,-19
1537920647763062,43,29,39,-6,-71,54,8,24
1537920647765058,-10,-24,-48,-35,-63,-109,-27,-41
1537920647765058,-1,97,63,23,65,90,23,27
1537920647777025,4,-35,-45,-30,-66,-25,-22,-17
1537920647777025,55,-72,-76,4,91,60,13,14
1537920647791985,-36,50,97,61,36,-32,30,21
1537920647791985,58,28,5,-11,-3,55,-20,34
1537920647799964,37,-31,22,12,-3,67,15,26
1537920647799964,-31,85,40,11,81,23,-29,-60
1537920647806945,21,43,58,-27,-104,-54,17,16
1537920647806945,35,88,8,18,35,-82,-21,62
1537920647846839,-42,51,43,16,6,14,4,8
1537920647846839,46,-75,-59,-6,1,-10,8,-63
1537920647848833,-45,-71,-68,-6,38,75,0,61
1537920647848833,-34,7,-7,3,21,-37,2,-26
1537920647848833,37,10,-8,-12,-24,-34,-5,32
1537920647848833,-36,-4,9,-5,-33,-52,0,-16
1537920647853820,-19,-22,0,0,15,22,-16,-49
1537920647853820,-34,-77,-28,-20,-47,-4,2,-22
1537920647859804,-8,5,-12,0,21,-11,-8,-20
1537920647859804,-41,10,15,-1,-22,-17,4,10
1537920647866785,13,-1,-8,3,18,24,-2,4
1537920647866785,-10,-34,-11,-3,-12,-1,3,-4
1537920647882742,6,22,10,3,6,-13,1,-12
1537920647882742,-13,6,17,6,-9,-21,2,19
1537920647889724,39,5,-13,-14,-9,17,8,13
1537920647889724,-3,-27,-12,-3,-10,-9,-4,-30
1537920647896705,-7,6,8,3,3,-14,2,-2
1537920647896705,-9,2,0,-2,-7,-28,-8,23
1537920647905681,12,4,-9,3,23,24,12,-6
1537920647905681,-14,-24,-6,-3,3,46,-17,-16
1537920647919643,-7,0,1,1,-3,-13,19,3
1537920647919643,-6,3,-1,-7,-14,-28,6,19
1537920647926625,14,7,-1,1,-3,-9,-41,-14
1537920647926625,-8,-17,0,4,10,29,1,-12
1537920647942582,9,3,-1,-2,9,-4,-4,4
1537920647942582,0,5,1,0,3,14,12,2
1537920647966518,1,0,0,0,6,-2,8,-4
1537920647966518,-4,-16,-7,-4,-17,-19,-6,-2
1537920647967516,-3,2,-4,0,8,-2,-18,-4
1537920647967516,-12,0,-2,-2,-13,-18,-1,-1
1537920647968513,24,3,8,2,5,-1,-3,8
1537920647968513,-9,-10,4,-1,-8,4,7,-4
1537920647980481,0,2,-3,-2,-4,0,26,-2
1537920647980481,-3,1,4,1,-1,15,0,7
1537920647986465,2,-1,-8,-5,4,-2,-43,-4
1537920647986465,-8,-7,-7,-3,-3,-6,53,-8
1537920648002422,1,3,3,3,2,-7,-17,-4
1537920648002422,-3,-1,0,-2,-6,0,-8,7
1537920648009404,-1,-1,-4,-3,-2,-15,-37,-3
1537920648009404,-4,-7,0,-2,-9,-6,49,-5
1537920648025361,-8,-5,3,-2,-1,-13,-82,-7
1537920648025361,3,0,4,5,7,7,99,12
1537920648027356,-1,0,-13,-6,-1,0,-12,0
1537920648027356,1,-5,-9,-2,-4,2,10,-2
1537920648040321,0,1,3,-2,-4,6,5,-2
1537920648040321,-6,-3,-7,-5,-6,1,-56,-8
1537920648047302,1,1,6,5,2,-8,39,3
1537920648047302,-9,-8,-6,0,-3,-3,19,-15
1537920648062262,-13,3,-5,1,4,-7,36,9
1537920648062262,1,-9,-5,-5,-8,-1,-21,-5
1537920648077222,1,-6,-5,-3,-3,19,2,-1
1537920648077222,32,-5,-35,-3,29,-3,-8,7
1537920648086198,-29,-74,9,2,-20,10,-13,-8
1537920648086198,-48,66,-4,1,35,-62,-27,-29
1537920648087196,84,56,77,45,46,104,17,21
1537920648087196,-41,-2,-10,-58,-92,-78,-49,-10
1537920648100161,4,-85,-96,52,123,26,4,-6
1537920648100161,-56,-67,42,-53,-128,-7,18,29
1537920648122102,48,-5,-10,-8,84,-8,5,5
1537920648122102,45,127,105,64,86,57,2,30
1537920648138060,-55,-59,-45,-103,-128,-128,-45,-36
1537920648138060,-62,-8,-61,25,127,40,18,16
1537920648139057,38,-63,53,23,22,-55,10,34
1537920648139057,-67,13,-79,1,106,57,-2,-29
1537920648160998,25,127,68,27,33,25,17,51
1537920648160998,-13,-64,-8,-46,-53,-27,-47,-49
1537920648160998,-55,-93,-80,-40,32,6,0,-2
1537920648160998,48,34,54,13,4,-93,-33,-40
1537920648174961,-90,4,-11,18,20,47,4,10
1537920648174961,109,43,15,8,-1,36,4,6
1537920648175958,-15,-82,-55,-11,-80,-55,-6,-8
1537920648175958,-38,-83,-42,6,6,-12,-8,5
1537920648197900,28,127,57,-10,-41,74,11,-11
1537920648197900,3,-40,-5,-4,-34,-30,-7,4
1537920648198897,-31,57,16,7,-28,14,4,-24
1537920648198897,1,-51,-23,-3,-12,19,-3,10
1537920648212860,23,-17,8,3,17,-46,16,3
1537920648212860,18,13,15,7,-3,29,-2,5
1537920648212860,-36,25,-10,0,-18,20,2,-18
1537920648212860,-7,-1,16,-9,-45,-21,-8,12
1537920648242780,31,-20,-4,-2,14,0,5,-7
1537920648242780,12,1,1,22,50,18,-5,-1
1537920648243777,-45,22,-4,-12,-11,-19,-8,-10
1537920648243777,16,-9,1,-12,-20,-6,11,3
1537920648257740,20,-17,0,-2,3,14,14,-1
1537920648257740,-20,12,-5,13,30,-5,4,5
1537920648258737,-3,24,-2,-7,-21,27,6,1
1537920648258737,5,-15,20,1,-11,8,-16,6
1537920648280679,3,-3,0,7,12,11,4,-7
1537920648280679,1,14,8,6,3,-9,0,2
1537920648281676,-2,6,-2,-1,-2,-4,0,-6
1537920648281676,1,-14,-4,1,0,11,-6,0
1537920648294641,-8,-3,-2,-2,3,-12,11,0
1537920648294641,2,7,3,-1,-4,2,5,0
1537920648302620,10,6,3,2,9,1,2,-1
1537920648302620,-16,-9,-5,-1,-3,-2,-12,-1
1537920648318577,8,-4,1,-5,-5,-22,-10,-1
1537920648318577,2,6,0,3,2,-13,-2,-2
1537920648318577,0,5,-1,3,7,37,8,1
1537920648318577,-7,-1,2,-1,-8,-1,16,3
1537920648332540,5,-5,-4,0,0,1,-13,-4
1537920648332540,6,-6,-2,4,8,-13,-8,-2
1537920648333537,-15,16,2,-2,-1,-15,-9,-4
1537920648333537,5,-6,-5,-4,-10,-7,1,1
1537920648355479,4,-3,-1,1,3,5,9,0
1537920648355479,-8,-5,-3,1,2,24,13,0
1537920648355479,-4,4,1,-2,-8,-51,-8,-2
1537920648355479,2,0,1,0,5,18,-8,3
1537920648370439,0,1,1,4,16,20,-9,-3
1537920648370439,4,6,2,-1,-11,0,-7,0
1537920648370439,-3,-4,-2,-4,-5,-7,2,-2
1537920648370439,0,-4,-4,-3,-7,-8,9,-1
1537920648392380,-3,2,0,1,1,-3,3,1
1537920648392380,1,-2,-1,1,10,3,-3,0
1537920648393378,-8,1,0,0,-2,0,-1,-1
1537920648393378,1,-1,-2,-1,-2,-24,1,-2
1537920648415318,2,0,-1,-2,-1,18,5,2
1537920648415318,4,2,0,2,1,-16,-10,1
1537920648416316,-9,-3,0,2,-1,2,-3,-5
1537920648416316,8,0,0,-2,0,0,-3,2
1537920648430279,-1,-2,-3,-2,-2,-8,4,-3
1537920648430279,-3,-1,-3,-1,-4,10,7,5
1537920648430279,7,1,-2,-1,0,-14,-10,-2
1537920648430279,0,-1,1,2,2,19,-1,-3
1537920648452220,-18,-4,0,-2,-3,-5,-4,-4
1537920648452220,8,2,-1,-2,-2,-11,2,4
1537920648453218,-3,0,-1,-1,2,12,5,2
1537920648453218,-1,-2,-1,0,0,-9,-2,0
1537920648476156,0,1,0,1,-4,-7,-2,-4
1537920648476156,-6,-1,-1,-1,7,16,2,-2
1537920648476156,-1,-3,-1,-2,-19,-6,-13,-4
1537920648476156,-6,-3,-2,-5,1,3,3,-2
1537920648490119,3,0,0,1,1,-3,-9,0
1537920648490119,1,-2,-2,0,-3,-10,10,3
1537920648491116,4,0,2,3,16,14,5,1
1537920648491116,-5,-2,-3,-5,-18,-16,-5,0
1537920648521036,2,0,0,-2,0,-8,2,-1
1537920648521036,0,-1,-1,-2,0,6,0,-2
1537920648521036,-3,-1,-2,0,6,5,2,-4
1537920648521036,-8,1,1,2,4,1,-1,0
1537920648535996,9,0,-1,-2,1,0,4,0
1537920648535996,-2,-3,0,0,-8,-5,-5,-2
1537920648535996,-11,3,-2,-2,-2,-6,0,-6
1537920648535996,23,3,1,0,-1,0,-5,6
1537920648549959,3,-1,0,0,-2,2,4,3
1537920648549959,-3,-1,0,1,-2,1,-1,1
1537920648550956,1,-4,-1,-3,-4,-11,-6,-1
1537920648550956,-7,-2,0,-1,-1,-5,-4,-6
1537920648572897,-1,2,-1,1,0,3,-1,-3
1537920648572897,2,-1,-1,0,-3,-14,-1,-1
1537920648572897,-3,-1,-1,-1,2,-14,2,-2
1537920648572897,-5,-2,-2,2,8,50,15,1
1537920648595836,0,0,1,1,13,-16,-12,-1
1537920648595836,-5,0,-3,-7,-32,3,-8,-2
1537920648596834,-1,1,-1,0,0,-4,0,-2
1537920648596834,-3,-1,-1,-3,-11,-21,-4,-1
1537920648609799,-1,-2,-3,-1,1,2,7,0
1537920648609799,1,1,-1,-2,6,-2,4,-5
1537920648610797,-2,-2,-1,0,7,6,2,3
1537920648610797,-1,-1,1,1,5,-5,-15,1
1537920648632738,-3,-1,0,-2,-7,-4,0,-1
1537920648632738,0,-1,1,2,6,0,-4,-3
1537920648633735,3,-1,-1,-1,-3,8,4,1
1537920648633735,-6,-3,-3,-1,1,-3,0,-1
1537920648655676,-1,-1,0,1,-7,-1,-4,0
1537920648655676,4,-2,-2,0,5,-1,0,1
1537920648656674,-15,-4,-2,0,-1,8,2,-3
1537920648656674,43,5,1,0,-2,-3,-1,8
1537920648678615,-4,0,-2,-1,-3,-3,1,-2
1537920648678615,-2,0,-1,-1,0,-4,4,1
1537920648678615,0,-1,1,1,1,16,0,1
1537920648678615,-15,-3,0,-1,-1,-15,-11,-5
1537920648692577,-1,-1,-2,-2,-10,-19,-4,-3
1537920648692577,7,-1,0,0,8,15,-3,2
1537920648693575,2,-1,-1,0,1,0,4,3
1537920648693575,-10,-2,-2,-1,-2,0,2,-3
1537920648715516,3,0,0,-1,5,-11,-5,0
1537920648715516,-12,-2,-3,-5,-18,2,2,-6
1537920648716514,5,-1,0,0,1,-3,-9,-2
1537920648716514,-5,-4,-2,0,5,5,4,2
1537920648730476,-3,-2,-2,-1,1,1,0,-2
1537920648730476,1,0,1,1,6,-6,-5,-2
1537920648730476,2,-1,0,-2,-5,0,2,-1
1537920648730476,-4,0,-1,1,1,1,3,-1
1537920648753415,-1,0,-1,-1,0,2,0,1
1537920648753415,0,1,-2,1,0,-1,-1,-1
1537920648753415,2,-1,-1,-3,-1,1,1,0
1537920648753415,-10,-2,-2,-1,-2,2,0,-5
1537920648775356,-6,-1,0,0,-2,-9,-4,-2
1537920648775356,20,1,0,0,2,1,0,4
1537920648776354,1,0,0,1,5,0,-3,-1
1537920648776354,-3,0,0,2,6,3,-1,-3
1537920648798295,-2,-2,-3,0,6,1,3,1
1537920648798295,-6,-2,-2,-8,-7,7,-1,1
1537920648799293,-3,-1,-1,-1,0,-9,0,-3
1537920648799293,4,-1,0,-3,-13,3,2,1
1537920648812258,-1,0,-1,1,2,-3,-5,-1
1537920648812258,-7,-1,-1,1,7,-7,-4,-4
1537920648813256,2,-1,-1,-2,-4,2,-3,-1
1537920648813256,-4,0,-2,-1,7,5,2,-1
1537920648836194,1,-1,1,-1,-3,4,3,1
1537920648836194,-4,-3,-3,-1,-3,0,1,0
1537920648836194,0,0,-2,0,2,-2,-3,-1
1537920648836194,-1,0,0,-1,-1,-7,-4,-3
1537920648850156,3,1,-1,-2,-7,5,3,2
1537920648850156,1,-1,1,0,3,-5,-2,-2
1537920648857138,-2,-1,-2,-2,-1,4,6,1
1537920648857138,-4,-1,-2,-1,-1,-7,-4,0
1537920648872098,3,0,1,0,-2,4,-1,-2
1537920648872098,-5,-1,1,2,-2,-5,-2,-2
1537920648873095,-1,-2,0,0,-4,-5,-2,-1
1537920648873095,-4,-1,-2,-2,-1,5,4,-3
1537920648896034,8,-1,0,-3,0,4,4,2
1537920648896034,2,-1,-2,2,0,-6,-8,-2
1537920648896034,18,0,-1,-5,-15,-5,-2,7
1537920648896034,0,-1,-1,-1,-1,-6,-3,1
1537920648909996,-5,-3,-3,-2,1,7,0,-4
1537920648909996,-3,0,-1,1,5,6,5,-1
1537920648910994,-4,0,1,2,-1,-6,0,0
1537920648910994,0,1,-1,0,-2,-1,1,-1
1537920648932935,0,-1,-1,-2,-3,7,1,0
1537920648932935,-4,-2,-1,-1,-3,-9,-3,-1
1537920648932935,-5,-1,-1,0,3,-5,-5,-2
1537920648932935,1,0,-1,0,0,-2,1,-2
1537920648955874,-5,0,-1,0,4,-1,-1,-3
1537920648955874,-1,-2,-3,-5,-3,3,-1,-1
1537920648956872,0,0,-2,1,3,4,4,1
1537920648956872,2,0,-1,0,1,2,0,1
1537920648969836,0,0,1,0,4,0,-1,0
1537920648969836,-1,0,-1,-3,-13,-7,-1,-1
1537920648970834,-5,-2,-1,-1,12,1,-1,-2
1537920648970834,-4,-1,-3,-1,4,0,3,0
1537920648992775,-1,-3,-1,-3,-9,-3,-1,0
1537920648992775,-2,-1,1,1,4,2,-3,-2
1537920648992775,-1,0,-2,-1,-5,-4,-1,-2
1537920648992775,0,0,0,0,1,0,-1,-2
1537920649015714,-1,0,0,-1,0,5,5,2
1537920649015714,1,0,-2,-1,-1,-6,-3,1
1537920649016711,-3,-1,0,-2,-2,0,-2,-3
1537920649016711,-1,-2,-1,-1,0,-2,-2,0
1537920649029676,-2,-3,-2,1,-7,-7,-3,-3
1537920649029676,7,0,-1,0,3,4,5,2
1537920649030674,-1,-2,-1,-2,-2,0,-1,-1
1537920649030674,0,-1,0,-1,-3,1,-6,-2
1537920649067576,5,-1,-1,-2,-2,12,0,0
1537920649067576,-13,-3,-1,-2,-1,-14,14,-6
1537920649077548,-5,1,0,1,3,-11,-39,6
1537920649077548,11,1,0,3,7,2,-4,-5
1537920649078546,-21,-1,-1,2,15,6,-20,-15
1537920649078546,12,6,2,3,21,12,30,10
1537920649079543,-22,-3,-5,-5,-5,-3,33,0
1537920649079543,15,-22,-21,-4,21,4,-54,1
1537920649099490,-18,20,21,10,13,38,23,1
1537920649099490,-20,-33,-14,-10,-19,49,-3,5
1537920649100487,-75,-13,-13,-2,76,-27,-22,-39
1537920649100487,66,81,64,39,92,62,16,-5
1537920649112455,19,-49,-50,-67,-76,-40,-27,25
1537920649112455,-51,-3,-18,19,63,15,20,6
1537920649113453,108,-27,-42,19,69,-106,-11,-32
1537920649113453,-128,-128,27,-39,-96,-71,19,-27
1537920649135393,80,121,48,-15,-31,-70,-15,21
1537920649135393,-20,97,73,21,72,20,4,30
1537920649136391,-71,-6,3,7,-2,-5,-3,-30
1537920649136391,-64,-82,-94,3,61,30,-1,-13
1537920649150353,67,24,13,17,49,20,23,9
1537920649150353,23,-9,-1,-23,-82,-55,-23,-5
1537920649150353,-87,7,29,13,-2,70,6,5
1537920649150353,92,13,10,8,-26,-3,10,11
1537920649172295,-19,-36,-35,-16,-41,-25,-6,42
1537920649172295,22,-29,-27,-7,-3,-14,-16,-8
1537920649173292,0,13,6,-15,-36,28,8,1
1537920649173292,-12,-10,-3,-17,-42,-24,-4,-6
1537920649195234,-20,-31,-11,11,15,-12,4,-22
1537920649195234,13,15,2,7,12,5,-7,-10
1537920649196231,14,-4,9,-4,-26,19,2,10
1537920649196231,8,27,-6,-11,-8,-20,3,12
1537920649210194,-12,4,12,23,30,28,8,-6
1537920649210194,-22,-4,2,1,-8,-6,-26,-18
1537920649211191,24,-13,-8,-15,-25,-12,22,17
1537920649211191,18,30,5,4,9,7,-9,10
1537920649234130,-37,-4,5,15,25,31,-7,-16
1537920649234130,1,-29,-10,-4,-7,-53,-26,-12
1537920649235127,29,7,-2,-7,-8,13,-5,13
1537920649235127,7,30,3,-4,-23,-9,55,9
1537920649256071,-31,-24,-3,0,-14,18,-30,-22
1537920649256071,8,-9,-7,-5,-1,-20,14,3
1537920649256071,29,17,10,11,8,10,4,17
1537920649256071,-13,15,6,6,12,10,-14,-2
1537920649269037,-16,-21,-10,-3,-1,-29,13,-8
1537920649269037,6,-4,-3,-4,-6,20,-24,-4
1537920649278012,1,5,1,-2,-3,9,16,3
1537920649278012,0,-1,-12,-7,-2,9,11,-2
1537920649293970,1,-2,20,7,11,5,0,2
1537920649293970,4,3,1,6,-2,-15,-12,-2
1537920649294968,2,0,20,15,0,33,9,1
1537920649294968,-10,-5,-29,-35,-14,-35,-74,-7
1537920649315911,2,-6,-17,0,15,6,82,5
1537920649315911,-35,-3,-3,-3,-6,1,-18,-5
1537920649316908,23,-2,5,-4,-13,10,37,6
1537920649316908,1,3,-15,-4,-2,-36,-33,3
1537920649328876,-4,5,8,6,18,50,-1,-2
1537920649328876,-3,-7,-5,-8,-4,36,5,-1
1537920649337852,1,3,-4,-1,-7,-33,-14,0
1537920649337852,8,13,13,12,12,7,16,-1
1537920649352812,-11,-10,-9,-7,-7,-18,-14,-6
1537920649352812,15,-1,1,3,-2,-2,-83,1
1537920649352812,1,3,-3,-7,0,26,30,9
1537920649352812,9,10,14,9,0,-17,10,-7
1537920649375751,-38,-17,-4,1,-2,-38,-38,-16
1537920649375751,9,-4,1,2,11,39,79,22
1537920649376748,20,26,-21,-3,29,2,-52,-25
1537920649376748,42,-6,38,22,23,31,75,28
1537920649389714,-27,-58,-40,-7,-13,-43,-15,-17
1537920649389714,-13,65,15,17,69,83,-10,-11
1537920649397692,52,-20,17,-13,-56,-113,11,52
1537920649397692,-99,-67,-34,11,34,-62,-12,-36
1537920649412653,53,88,5,10,65,86,-11,16
1537920649412653,-21,-99,-2,-40,-112,-82,-34,-27
1537920649413650,-81,106,-5,64,127,-54,-22,11
1537920649413650,-11,32,57,-59,-128,47,7,8
1537920649435591,0,-48,-35,-1,27,-109,-25,-48
1537920649435591,-105,3,13,28,18,64,53,-6
1537920649436589,95,105,50,-67,-126,-113,-29,-28
1537920649436589,-102,-128,-29,33,127,15,-27,-50
1537920649449554,63,127,-9,1,12,69,15,32
1537920649449554,-32,26,5,12,68,-31,27,-2
1537920649457532,-13,-83,-79,-18,-15,35,-24,-2
1537920649457532,-18,-14,8,10,15,97,3,24
1537920649472492,51,35,77,-3,-22,-17,-19,-22
1537920649472492,-3,-65,3,18,5,-5,-1,24
1537920649473490,-31,-40,-15,-15,-37,35,-1,-4
1537920649473490,93,-16,-44,-13,-5,1,0,16
1537920649494434,-61,-26,-2,8,-4,-36,13,0
1537920649494434,-1,-7,-11,-18,-29,-27,-4,0
1537920649510391,51,13,28,12,13,35,9,0
1537920649510391,23,41,-10,-1,-6,-29,-14,-2
1537920649512386,-32,-43,-2,0,-23,-4,3,0
1537920649512386,63,41,3,-10,-17,-22,13,11
1537920649517372,-31,-62,-22,-1,16,22,1,-11
1537920649517372,0,43,15,11,-6,-33,-13,2
1537920649532332,5,3,7,-4,-26,8,-14,14
1537920649532332,12,-11,-17,-7,6,-11,21,-5
1537920649533330,-34,-7,5,8,4,8,26,1
1537920649533330,19,32,5,-2,-19,-23,-14,7
1537920649555271,-20,-31,-1,1,-1,-8,-1,3
1537920649555271,24,1,-19,-8,-8,21,-2,-9
1537920649556269,-20,-22,0,-2,6,1,-14,-6
1537920649556269,20,29,8,-3,-22,23,15,8
1537920649569234,-7,-30,-12,-3,4,-21,-7,-2
1537920649569234,7,9,1,3,3,-23,-12,-2
1537920649577213,0,2,6,1,-1,-4,-8,8
1537920649577213,-6,1,-3,-3,-4,-6,0,-4
1537920649592172,-14,-7,0,3,-1,16,8,1
1537920649592172,17,6,-4,-5,-4,0,-2,1
1537920649593170,-13,-12,1,1,8,14,-2,-3
1537920649593170,1,6,-3,-2,-4,-25,3,1
1537920649616109,-9,-10,1,-3,-10,1,4,1
1537920649616109,13,7,-1,-5,-6,-29,-6,0
1537920649616109,-27,-24,-7,1,5,30,5,-7
1537920649616109,18,19,3,3,5,2,1,4
1537920649638050,0,1,0,-1,-7,-4,-4,4
1537920649638050,-4,-5,-7,-4,-4,-11,-6,-6
1537920649639047,-2,-2,2,2,4,2,2,1
1537920649639047,-7,1,1,-3,-4,-9,-3,-1
1537920649652013,-4,-7,-1,-2,-3,1,1,3
1537920649652013,6,1,-4,-1,1,-14,-6,-5
1537920649653010,-2,-5,0,2,-4,2,-4,-1
1537920649653010,3,5,0,0,3,-3,3,3
1537920649674951,3,-7,-3,1,13,-4,4,-1
1537920649674951,-2,1,2,6,19,41,10,2
1537920649675949,2,0,-3,-14,-43,-19,-8,-1
1537920649675949,-3,-2,-2,0,-13,-22,-7,-4
1537920649697890,-2,-2,-1,-2,-5,-3,-1,2
1537920649697890,0,7,1,2,7,-1,-1,-2
1537920649699885,-1,-2,2,4,21,18,3,0
1537920649699885,-1,2,-3,0,-1,-8,1,-2
1537920649711852,-1,-7,-3,1,0,4,1,-1
1537920649711852,8,1,-3,-2,-6,-3,-4,-1
1537920649720829,-9,-1,-1,0,3,1,3,-2
1537920649720829,-3,-1,0,0,-1,-6,-2,-2
1537920649734791,-3,0,2,-1,-1,3,-1,0
1537920649734791,4,-2,-3,-3,-7,-8,-1,2
1537920649743767,-7,-1,-3,0,-1,-6,-2,-2
1537920649743767,-1,-1,0,0,7,6,-1,2
1537920649757730,-1,-1,0,0,-2,4,1,0
1537920649757730,-9,-3,-2,-3,-11,-12,1,-5
1537920649759725,8,-3,-2,1,6,2,-3,1
1537920649759725,-3,0,0,3,1,3,-2,0
1537920649771693,-3,-2,-1,-2,-2,4,-2,-4
1537920649771693,1,-2,-4,-4,-9,-15,0,2
1537920649780669,-3,-1,1,2,9,5,-1,-1
1537920649780669,2,2,0,-1,4,-14,-3,-4
1537920649795629,-3,1,-1,2,7,19,4,1
1537920649795629,6,-1,-1,-2,-14,-12,-1,3
1537920649797623,1,-2,-3,-4,-14,-15,-3,-3
1537920649797623,0,0,-1,-5,-14,2,0,-1
1537920649817570,-2,-2,0,-1,5,-3,1,-3
1537920649817570,-3,-2,0,2,10,6,1,-2
1537920649825549,4,0,-1,0,3,2,-1,1
1537920649825549,1,-3,0,0,4,0,0,0
1537920649832530,-2,-1,0,-2,-9,-7,-1,-1
1537920649832530,1,2,0,-2,-2,0,-1,-1
1537920649839511,-3,-1,0,1,-1,-2,-3,-1
1537920649839511,0,-2,-1,-1,3,3,1,2
1537920649855469,-3,-1,-2,-1,-4,-1,0,0
1537920649855469,1,-2,0,-1,-2,-6,-2,-1
1537920649857464,-1,-2,-1,0,5,5,0,-2
1537920649857464,1,0,-2,1,2,4,3,1
1537920649878408,-3,0,-2,-2,-8,-7,0,-1
1537920649878408,6,-1,-1,-3,-2,-4,-4,0
1537920649879405,-10,-1,-2,1,1,4,1,-1
1537920649879405,15,1,0,-1,0,1,1,4
1537920649893367,1,0,-1,-2,-3,-5,-2,-1
1537920649893367,-3,-2,-1,1,2,1,-1,-1
1537920649899351,2,0,2,-1,3,2,-1,0
1537920649899351,-4,0,-1,-2,-2,-3,-1,-2
1537920649923287,-3,0,0,-1,-3,-2,1,-2
1537920649923287,-1,0,-1,-2,1,2,-2,-1
1537920649924285,2,-1,0,0,0,-1,0,2
1537920649924285,-6,-1,0,-1,4,2,-3,-2
1537920649937250,2,0,-1,-1,-2,-2,0,1
1537920649937250,-5,0,-1,-3,-3,0,1,1
1537920649946226,2,0,0,0,-3,-2,-3,0
1537920649946226,-6,-1,1,-1,-2,0,-3,-2
1537920649952210,0,-2,2,1,1,-3,0,-3
1537920649952210,-2,-1,0,1,3,4,2,1
1537920649959192,-1,-1,-1,-3,-6,-5,1,-1
1537920649959192,0,-2,-3,0,0,0,-2,-2
1537920649983127,3,-1,-2,0,-2,-1,-1,3
1537920649983127,-2,-3,-2,-1,-1,-2,0,-2
1537920649985122,-2,-2,-1,-1,1,1,-2,-3
1537920649985122,-2,-1,0,0,1,-1,0,-2
1537920650006066,-2,-2,-1,-1,-2,-1,-2,-2
1537920650006066,3,0,-2,-1,0,1,-2,-1
1537920650007064,0,-2,-1,0,4,8,0,1
1537920650007064,-1,-1,0,-1,-5,-6,0,-1
1537920650012050,-1,0,-1,-2,-1,0,1,-2
1537920650012050,-1,0,-1,0,1,-3,0,1
1537920650019031,0,0,1,-2,0,-1,-1,-1
1537920650019031,-1,-2,-1,0,-1,1,0,0
1537920650035986,1,-2,-2,-1,0,-2,-2,-1
1537920650035986,-1,-1,1,-1,-2,-1,0,-2
1537920650036984,0,1,-2,-1,-1,-1,-1,-2
1537920650036984,-1,-1,1,-2,-1,-1,0,0
1537920650057928,-3,0,-1,-1,-2,-4,-3,-2
1537920650057928,-2,-2,-1,0,0,2,-1,2
1537920650059922,-1,-2,-1,0,1,-3,-1,-1
1537920650059922,1,-1,-1,0,1,1,1,2
1537920650080866,0,-1,0,-3,-2,0,0,0
1537920650080866,-1,-1,-1,-1,-3,-4,-4,-5
1537920650081864,3,1,0,0,1,2,2,2
1537920650081864,-1,1,0,-1,-3,-4,-2,1
1537920650095826,-2,-1,-3,-3,0,5,1,1
1537920650095826,-1,-2,-1,1,-3,-2,-1,-2
1537920650101810,-1,0,-1,1,-3,-1,-1,-1
1537920650101810,-2,0,-2,-2,-2,-3,-3,-3
1537920650117768,-1,0,1,0,0,-1,-2,0
1537920650117768,0,1,-1,-1,0,0,0,1
1537920650124749,-2,-3,0,-2,-4,-3,-2,-3
1537920650124749,0,-2,-1,0,-1,2,1,1
1537920650131730,-1,-2,0,0,0,1,-1,0
1537920650131730,0,-1,0,0,0,1,1,-2
1537920650140707,-1,0,-2,-1,-1,-2,1,-1
1537920650140707,-2,-2,-1,-1,-5,-1,0,0
1537920650155666,0,-1,0,1,5,-2,0,-2
1537920650155666,-2,-2,0,-2,0,1,1,0
1537920650157662,0,0,-3,-2,-7,-3,-3,-2
1537920650157662,-2,0,-1,-1,2,0,-1,1
1537920650178605,0,-1,-1,-2,-4,0,0,-1
1537920650178605,0,0,0,1,2,1,0,0
1537920650179603,0,1,0,1,4,-2,1,-1
1537920650179603,-1,-1,-2,-2,-2,2,-1,-1
1537920650191571,0,-2,-2,0,-2,-3,-1,1
1537920650191571,-1,-1,-2,0,0,-1,-2,-3
1537920650200547,0,-2,1,0,0,0,0,3
1537920650200547,-2,-1,0,0,0,-3,-1,-1
1537920650215507,0,0,0,0,-1,0,1,-1
1537920650215507,0,-1,-1,-1,-3,-2,-1,-2
1537920650217501,-1,0,-1,-3,-2,-1,-2,-2
1537920650217501,-2,-2,-1,1,0,0,-1,1
1537920650238445,-1,0,-1,-1,-3,-2,-1,0
1537920650238445,0,-1,-1,-1,-2,0,-2,0
1537920650244429,0,-2,-2,0,0,0,0,-1
1537920650244429,0,-1,-1,-1,0,-1,-2,-2
1537920650251411,-1,0,0,0,0,-1,1,-1
1537920650251411,0,-1,-1,-1,0,-2,0,0
1537920650260386,0,-1,0,-1,-1,-1,-1,-1
1537920650260386,0,0,0,1,-1,0,1,-1
1537920650275347,-2,-1,-1,-1,-3,-2,-2,-2
1537920650275347,-2,-3,0,-1,-2,-1,0,0
1537920650277342,0,-2,-2,-2,-2,-1,-1,1
1537920650277342,-2,-1,1,-2,0,-2,-2,-2
1537920650298285,0,-1,-1,-1,-3,2,-1,-1
1537920650298285,-2,-1,-2,-1,0,-2,0,0
1537920650299283,2,0,-1,-1,1,-1,0,1
1537920650299283,0,0,-2,0,-2,-1,0,-2
1537920650312248,0,-2,-1,0,-2,-1,-1,-1
1537920650312248,-1,1,-2,-1,0,0,1,0
1537920650321224,-3,-1,-1,0,0,0,-3,-1
1537920650321224,-1,0,-2,0,-1,-1,-1,-1
1537920650335187,0,-1,-2,-1,0,-1,2,1
1537920650335187,1,0,-1,-1,-2,0,0,0
1537920650343166,-1,-1,-1,0,0,0,1,0
1537920650343166,-1,-2,-2,0,0,-1,-2,-3
1537920650358126,-2,-1,-1,0,1,0,-2,-1
1537920650358126,-1,0,1,-1,-3,-2,-3,-2
1537920650360120,-1,0,-1,-1,-1,0,0,-1
1537920650360120,0,0,-2,-1,-1,1,0,-2
1537920650372088,1,-1,-1,0,0,-1,1,-2
1537920650372088,-1,-1,-1,-1,-1,-1,-1,-1
1537920650381064,-2,-1,0,1,1,0,-1,-1
1537920650381064,-2,1,0,-3,-3,-2,0,0
1537920650396024,0,0,-1,0,-1,-1,-1,0
1537920650396024,-1,0,-2,-3,2,1,0,0
1537920650397022,-2,-1,-1,-1,-6,-2,-2,-2
1537920650397022,0,2,-1,-1,-1,-1,-1,-2
1537920650417965,-1,0,-2,-4,-3,1,-1,-2
1537920650417965,-3,-1,0,-1,-2,-2,-1,-2
1537920650419960,1,0,-1,0,5,-1,0,1
1537920650419960,-2,-1,-1,-2,-2,-2,-1,2
1537920650431928,0,-1,-1,-1,-2,-1,-3,-1
1537920650431928,0,-1,0,-1,-2,-1,-2,-1
1537920650440905,-1,0,-1,-1,0,1,-1,-2
1537920650440905,1,-1,0,-1,-1,-2,-1,-2
1537920650455864,-2,-1,-1,0,1,-1,0,0
1537920650455864,0,-2,-1,-2,-3,-2,-1,-1
1537920650456862,0,-1,-2,0,-2,-1,2,0
1537920650456862,-2,-3,1,0,0,2,-3,-2
1537920650477805,0,-1,1,-1,0,-2,0,1
1537920650477805,-1,-1,-1,-1,-1,5,6,-1
1537920650479800,0,-1,-2,-2,-1,2,5,1
1537920650479800,1,-1,-1,2,2,-17,-42,-2
1537920650491768,1,-2,-1,3,13,9,13,-6
1537920650491768,-2,1,2,11,49,12,3,-7
1537920650500744,15,-4,-10,-24,-87,-57,-20,1
1537920650500744,-16,9,3,9,46,73,24,3
1537920650514707,71,-13,-25,-8,26,-20,-33,11
1537920650514707,-6,20,30,8,-23,5,79,7
1537920650521688,-39,-76,-67,-49,-36,-47,-1,-63
1537920650521688,-13,67,69,57,90,71,23,39
1537920650538642,54,33,-2,-65,-128,-79,-18,14
1537920650538642,-64,-81,-89,3,93,-44,-75,-70
1537920650539640,25,86,103,20,-69,75,74,74
1537920650539640,46,-14,11,-21,-13,22,-45,25
1537920650551608,-109,-86,-30,63,127,114,55,-51
1537920650551608,127,79,59,-48,-128,-110,-27,-36
1537920650560584,-105,-85,-71,54,127,94,-15,51
1537920650560584,-93,110,95,-24,-119,-58,27,28
1537920650574547,76,-25,-22,-23,-43,-18,-33,-34
1537920650574547,-4,18,-5,34,103,5,14,110
1537920650581528,15,114,47,-6,-18,75,-25,-54
1537920650581528,-44,-108,-110,-36,20,-95,-23,-47
1537920650598483,-128,20,35,27,43,40,60,76
1537920650598483,8,3,62,-16,-128,-64,-3,-12
1537920650599480,-17,47,15,32,121,-10,-16,0
1537920650599480,-36,11,-9,-2,14,10,27,13
1537920650620424,11,-31,16,30,83,101,-27,-43
1537920650620424,-61,-36,-70,-53,-55,-45,2,5
1537920650622419,26,-1,-12,-26,-33,0,-9,11
1537920650622419,7,-17,-9,14,37,30,-2,-46
1537920650635384,-17,-21,-40,-14,-1,6,-12,9
1537920650635384,-21,57,41,36,53,71,5,9
1537920650642366,-4,-49,-18,-12,-22,-58,-6,-29
1537920650642366,48,12,-16,-13,-53,-32,2,-18
1537920650658323,9,-6,21,11,-11,-29,-1,15
1537920650658323,-8,-25,-19,-5,-8,14,-8,-3
1537920650659321,17,7,8,0,-27,-39,9,-4
1537920650659321,24,-33,-12,7,14,12,-5,-2
1537920650680264,1,32,17,-8,-43,-43,-1,15
1537920650680264,-13,-12,-7,7,19,32,-2,-12
1537920650682259,13,2,-5,-4,5,0,-5,-4
1537920650682259,5,-29,-1,5,-4,-7,3,7
1537920650694226,-4,17,0,-15,-24,-34,-8,-10
1537920650694226,7,17,2,7,6,27,0,-8
1537920650703203,4,-23,2,2,14,-3,-1,7
1537920650703203,8,-4,-9,-6,-15,-15,-3,-1
1537920650718162,1,28,3,-7,-23,-23,1,-7
1537920650718162,1,-15,-3,8,26,37,-1,1
1537920650719160,1,-7,4,1,-6,-13,-1,4
1537920650719160,2,-4,-8,2,-1,-1,2,-3
1537920650741102,3,18,3,-4,-8,-6,-5,-5
1537920650741102,-6,-15,0,3,8,13,0,4
1537920650742099,-2,-10,-6,-1,-2,-13,-3,-6
1537920650742099,9,6,-3,-4,-8,-6,-1,-6
1537920650754067,1,1,6,5,-1,-5,-3,1
1537920650754067,-1,-3,-4,-1,2,8,-1,4
1537920650763043,1,2,1,1,-3,-8,0,-1
1537920650763043,4,-8,-3,1,4,2,-3,-5
1537920650778003,1,8,5,-2,-8,-5,2,5
1537920650778003,-5,-5,-5,1,5,9,0,-5
1537920650779997,2,-1,-2,-2,1,-1,-2,-1
1537920650779997,1,-7,-2,-1,0,-2,-1,0
1537920650800941,-2,4,-5,-2,-7,-12,-3,-4
1537920650800941,2,4,0,-1,1,5,0,0
1537920650801939,-1,-6,1,3,3,0,0,2
1537920650801939,2,-3,-2,-1,-4,-4,0,1
1537920650813907,-1,5,1,-2,-5,-6,-2,-4
1537920650813907,0,-6,-2,1,5,12,-1,2
1537920650822882,-1,-3,-1,-3,-2,-3,-2,1
1537920650822882,0,-2,-4,0,-1,0,1,-1
1537920650837843,-1,1,1,-1,-2,-2,-1,-1
1537920650837843,-2,-3,-1,1,0,0,-1,-2
1537920650839837,-1,-2,-2,-2,1,-3,-2,-2
1537920650839837,-1,2,-1,-1,-4,-2,-1,-2
1537920650860781,1,0,0,1,1,-1,1,2
1537920650860781,-2,-2,-1,-2,-2,0,-1,-2
1537920650861779,2,0,-1,1,-1,-1,1,-1
1537920650861779,0,-2,-1,0,1,0,-1,-1
1537920650874744,-1,1,0,0,-1,-4,-1,2
1537920650874744,-3,-1,0,-1,0,0,-5,-6
1537920650883720,0,0,0,-1,0,0,1,1
1537920650883720,-1,-3,-1,-1,1,0,-2,0
1537920650897683,1,-1,0,-2,-3,0,0,1
1537920650897683,-1,-1,-2,-2,-1,-4,-4,-3
1537920650899678,-1,-1,0,2,1,5,2,1
1537920650899678,1,0,-2,-2,-4,-2,-1,0
1537920650920621,-2,1,1,0,-2,0,-2,-2
1537920650920621,-1,-2,0,-1,1,0,-2,-2
1537920650921619,-1,0,0,-2,-2,-2,-2,-3
1537920650921619,0,-1,0,-2,0,0,-1,0
1537920650934584,0,1,0,-2,-3,0,0,-1
1537920650934584,-1,-3,-2,0,0,0,1,3
1537920650943560,0,0,-1,0,-2,-3,0,-2
1537920650943560,0,1,0,1,2,1,1,2
1537920650958520,-2,0,-2,-1,5,-2,-3,-3
1537920650958520,-1,-3,-2,-4,-7,-3,-1,1
1537920650959517,-1,-1,-2,-1,-4,-2,0,-2
1537920650959517,-2,-2,-2,-1,-3,0,-1,-2
1537920650980461,0,-1,1,1,-1,-1,-1,-2
1537920650980461,3,1,0,0,3,1,3,3
1537920650982456,-2,-2,-1,-3,0,-1,-3,-3
1537920650982456,-1,-2,0,1,0,0,1,0
1537920650994424,-2,0,-2,-2,-2,-1,-3,-2
1537920650994424,-2,0,0,0,1,1,0,0
1537920651003400,1,0,0,0,-1,-2,1,0
1537920651003400,-2,-1,-2,-3,1,-1,-1,1
1537920651018360,-1,-1,-2,-1,-1,0,0,0
1537920651018360,0,-1,0,-1,-1,-1,-1,-1
1537920651019357,-3,-1,-1,-2,0,-5,-3,-4
1537920651019357,2,-1,1,2,3,3,4,6
1537920651040301,0,-1,0,-1,-3,0,0,-2
1537920651040301,-2,-2,-2,0,-1,1,-2,-3
1537920651042296,0,-1,-1,1,-1,0,-1,1
1537920651042296,-1,0,0,-1,-1,-3,1,-1
1537920651055262,-2,-1,-1,-2,-2,-1,0,-1
1537920651055262,-2,1,-1,0,1,-1,0,-1
1537920651062243,0,-2,-1,-2,-2,-2,-1,-1
1537920651062243,0,-2,0,-3,-2,-4,-3,-3
1537920651078200,1,0,-1,1,0,-1,0,3
1537920651078200,0,-1,-1,1,0,0,0,-2
1537920651079198,0,-2,0,1,-2,0,0,-1
1537920651079198,-2,-1,-2,-2,-2,-1,-2,-1
1537920651100142,-2,1,-1,0,-2,-4,-1,-2
1537920651100142,1,-1,-1,-1,0,-3,0,0
1537920651102136,0,-1,-2,-2,0,0,-1,2
1537920651102136,-1,0,-1,0,-1,0,-2,-1
1537920651114105,-1,0,-1,-1,-1,-2,-1,-1
1537920651114105,0,0,-1,0,2,2,2,2
1537920651123080,-3,-2,0,-1,1,-5,-2,-4
1537920651123080,1,-1,0,1,0,2,2,5
1537920651138040,0,-1,-1,-1,0,0,-2,0
1537920651138040,-1,-2,1,0,0,-2,-2,-1
1537920651140035,-1,-2,-1,-1,-2,-2,-3,-4
1537920651140035,1,1,-1,-2,-1,-2,0,-1
1537920651160979,1,-1,0,1,0,0,-1,-2
1537920651160979,-1,0,0,-2,-2,0,-3,0
1537920651161976,-1,0,-2,-3,-1,1,0,0
1537920651161976,-1,-1,0,-1,-3,-2,-1,-3
1537920651173944,-1,-2,0,-2,1,1,-2,-1
1537920651173944,-2,-1,-1,-2,-3,-1,-1,-2
1537920651182920,-2,-2,2,1,-1,0,2,0
1537920651182920,1,0,-2,-1,0,-1,2,-1
1537920651198877,-1,-2,1,1,0,-3,0,0
1537920651198877,-1,-2,-1,-1,4,0,-1,-1
1537920651199875,1,-1,-1,-2,-4,1,-1,1
1537920651199875,-4,-1,-1,-1,-3,-2,-2,-4
1537920651220819,-1,-1,0,-3,-2,-3,-1,-2
1537920651220819,-2,0,-1,1,-1,-2,0,0
1537920651221816,-2,0,0,0,1,0,-1,-1
1537920651221816,-1,-1,-1,-1,1,0,-1,-1
1537920651234782,-1,-2,-1,0,-2,-1,0,1
1537920651234782,-1,0,-2,0,-2,0,-1,-1
1537920651242760,1,0,-2,-1,2,-1,-1,1
1537920651242760,-2,-2,-1,-2,-2,-3,-2,-1
1537920651257721,0,-1,-2,1,0,0,0,-1
1537920651257721,0,-1,-1,-1,-2,-1,-1,1
1537920651259716,1,0,-1,0,-2,1,1,0
1537920651259716,-1,-1,-2,-1,-1,-3,-2,-3
1537920651280659,-1,1,-2,0,0,0,-1,0
1537920651280659,-2,-2,-1,-1,-1,-3,-2,-2
1537920651281657,0,-1,-1,0,0,-2,-1,-1
1537920651281657,0,-1,-2,-1,0,-2,0,0
1537920651294622,-2,0,0,-2,0,-1,-1,-1
1537920651294622,1,0,-2,-3,-2,-1,1,-3
1537920651303599,-1,-2,0,-1,0,-1,0,1
1537920651303599,-2,-2,1,0,-1,-1,-2,-3
1537920651318558,-1,-1,-1,-1,-1,-1,-2,-4
1537920651318558,1,0,-2,1,0,-1,1,1
1537920651319556,-1,-1,-1,-1,0,2,1,1
1537920651319556,0,-1,-1,-1,-1,-2,-2,-3
1537920651340500,0,-1,0,-1,-1,0,1,2
1537920651340500,-1,0,-1,0,-1,-2,-1,-1
1537920651355459,-1,-1,-2,0,-1,1,-1,-3
1537920651355459,-1,-1,2,0,1,1,0,-1
1537920651355459,-2,0,0,-1,-2,-1,-1,-1
1537920651355459,-1,-1,-1,-1,-3,-1,-1,0
1537920651363438,-1,-1,-1,-1,-1,0,-2,0
1537920651363438,-2,-1,-1,-2,0,-1,0,-2
1537920651378398,-1,-2,-1,-1,-1,-2,2,0
1537920651378398,-3,-1,-2,-2,-1,0,-3,-2
1537920651379395,-1,0,-2,0,-2,-1,-2,0
1537920651379395,0,-1,-1,0,-2,0,0,0
1537920651400339,-1,-1,-1,-3,-1,-2,-1,-2
1537920651400339,1,-2,0,-1,1,1,1,0
1537920651406323,-2,0,-1,1,0,-2,0,0
1537920651406323,0,0,-1,-1,-1,-1,0,1
1537920651414302,-2,-1,-3,-1,-2,-6,-2,-1
1537920651414302,-1,-2,-1,-2,0,8,-2,-2
1537920651423279,-1,-2,0,-1,6,3,-3,-2
1537920651423279,0,-1,-1,-2,-15,-6,-1,-1
1537920651438238,-1,-2,-2,-2,-4,-4,-2,-2
1537920651438238,0,0,-1,-1,-2,-3,2,1
1537920651439236,-1,-1,-1,-2,-3,-3,0,0
1537920651439236,-2,1,0,2,5,4,0,0
1537920651460179,1,-2,-1,-3,-1,0,-1,-2
1537920651460179,-1,-1,-2,-1,-2,-5,-1,-3
1537920651462174,0,-1,-1,-1,1,0,1,1
1537920651462174,-1,-3,-3,-1,0,-2,-2,0
1537920651474142,-1,-1,0,0,-1,0,0,0
1537920651474142,-1,-2,0,2,4,-1,-2,-2
1537920651483118,-2,-2,1,-1,3,-2,0,-1
1537920651483118,0,-1,-1,-2,-8,-1,-1,-1
1537920651498078,0,0,-1,-1,-4,1,-2,-1
1537920651498078,-1,-1,0,-1,-3,0,-1,1
1537920651500073,-1,1,-1,0,-4,-2,0,0
1537920651500073,0,-1,-2,0,4,-1,-1,-2
1537920651521017,-1,-1,0,1,1,1,0,-1
1537920651521017,-1,-1,-2,1,-1,-2,-2,-3
1537920651522014,-1,-2,-2,0,-3,-1,-4,-2
1537920651522014,-2,-3,-1,-1,2,3,1,0
1537920651542958,0,-1,-2,-1,0,-2,-1,0
1537920651542958,0,-1,0,0,-1,-2,0,-1
1537920651544953,-2,0,-1,-2,-2,-2,0,-2
1537920651544953,-3,-1,-1,0,2,-2,-1,-1
1537920651557918,-2,-1,1,-2,0,0,-1,0
1537920651557918,-1,-2,-2,-1,-2,-3,-2,1
1537920651559913,1,-1,0,0,-2,-4,-1,0
1537920651559913,-1,-1,1,1,0,-2,-1,-1
1537920651580857,0,-1,0,1,1,4,2,3
1537920651580857,-3,-1,0,0,-1,-1,-2,-2
1537920651581854,-1,0,-1,-1,-2,0,1,-1
1537920651581854,2,0,-1,0,1,-2,-1,0
1537920651602798,-1,-1,-4,-1,-1,-3,-2,-3
1537920651602798,1,1,-1,-1,-1,0,-1,-1
1537920651604793,-1,-2,-1,0,-1,0,0,0
1537920651604793,-2,-1,-3,-1,0,-1,-1,-2
1537920651617758,-2,1,0,-1,0,-1,1,-1
1537920651617758,1,1,0,0,-1,0,0,2
1537920651619753,-1,-1,-1,-1,-1,-2,-2,0
1537920651619753,-1,0,-1,-2,-2,-1,-3,-1
1537920651640698,0,-1,0,0,0,1,-1,-2
1537920651640698,1,-2,-1,-3,-2,-2,-2,-1
1537920651641694,-1,-2,-1,-1,-2,0,-1,-2
1537920651641694,-1,-1,1,1,0,-1,-1,1
1537920651663635,-1,-1,-1,1,0,-2,-1,-2
1537920651663635,-1,-1,-2,-1,-1,-1,0,-1
1537920651664633,0,1,-2,0,-1,0,-1,-1
1537920651664633,-2,-1,0,1,-3,0,0,0
1537920651677599,-1,1,-2,0,-2,-1,-2,0
1537920651677599,-1,-2,0,-2,-1,0,0,-1
1537920651684580,1,-1,-1,0,-2,-3,-1,-2
1537920651684580,0,0,-1,-1,0,1,0,2
1537920651700537,-1,-2,-1,-2,0,-1,-2,-1
1537920651700537,-1,-1,0,-1,-1,-1,-1,-2
1537920651702532,-2,-2,-1,1,0,2,0,1
1537920651702532,0,1,-1,0,-2,0,-1,-1
1537920651723475,0,1,0,-1,-2,-1,-1,1
1537920651723475,-1,-3,-1,0,0,0,1,-1
1537920651724473,1,1,0,-3,-1,-2,-1,-1
1537920651724473,-1,-2,-3,-2,-1,-2,-1,-3
1537920651745417,-1,0,-1,0,0,0,1,2
1537920651745417,-1,-1,-2,0,-1,0,-1,0
1537920651747411,0,0,-1,-1,0,-1,0,0
1537920651747411,0,-1,0,-1,-1,0,-1,-3
1537920651760377,-2,-1,-1,0,-1,-3,-1,-1
1537920651760377,-2,0,0,1,-1,-1,-3,-3
1537920651762371,0,-1,-2,0,-1,0,0,-2
1537920651762371,-1,-2,-2,-2,1,1,2,2
1537920651783315,-2,-3,0,0,-1,-1,-1,-2
1537920651783315,0,-2,-1,-1,0,-3,-2,1
1537920651784313,-2,0,0,-1,-1,-3,-2,-2
1537920651784313,0,-3,-1,-2,1,-1,0,0
1537920651797278,0,-1,0,0,1,0,-1,0
1537920651797278,-1,0,-1,-2,-3,-1,-1,-2
1537920651804259,-1,0,-2,-1,-1,-2,-2,1
1537920651804259,1,-2,0,-2,-1,-3,-4,-2
1537920651820217,0,0,-2,-2,-2,-2,1,1
1537920651820217,-3,1,1,-2,0,0,0,-1
1537920651822212,-2,-2,-1,-1,0,0,-1,0
1537920651822212,-1,0,-1,0,1,-2,-2,-1
1537920651843156,-3,0,-2,1,-2,0,-2,-2
1537920651843156,0,0,-2,0,-1,-1,0,-1
1537920651844153,-1,-1,1,0,-1,0,0,-1
1537920651844153,-3,-1,0,-1,-1,-1,-1,-2
1537920651866094,-1,-1,0,-3,-2,-2,-1,-1
1537920651866094,-1,-2,-1,-1,0,-1,-1,-2
1537920651867092,0,-1,-2,0,-1,-1,1,-1
1537920651867092,0,0,-1,0,0,0,0,0
1537920651881055,-2,-1,-1,-1,-2,-1,-1,-1
1537920651881055,-2,-1,0,-1,0,-1,0,-1
1537920651882052,-1,0,-1,0,0,-1,-1,-1
1537920651882052,-1,-1,-1,0,6,-1,-1,-2
1537920651910974,-1,-1,-1,-2,-1,-1,-1,-1
1537920651910974,0,-1,-2,-3,-7,-2,0,-1
1537920651911972,1,-2,-1,-1,-3,-1,-2,-2
1537920651911972,0,-1,-2,-2,-2,-3,2,0
1537920651916958,0,-1,0,0,1,1,-2,-1
1537920651916958,-1,-1,-2,0,1,-1,0,0
1537920651923940,-1,-1,0,-1,-2,-1,-1,-2
1537920651923940,-3,-1,-1,-1,0,0,0,-2
1537920651940895,1,-1,-1,0,-1,-2,0,-1
1537920651940895,-1,-1,-2,0,-2,1,-2,-1
1537920651941892,-2,-1,0,-2,0,-1,-3,-3
1537920651941892,1,0,-1,1,0,1,3,4
1537920651962836,0,1,1,-1,-1,-1,1,1
1537920651962836,-1,-1,-2,-1,-1,1,-2,0
1537920651964831,0,-2,-1,-1,1,0,0,2
1537920651964831,-1,-1,-1,-1,-3,-2,-3,-3
1537920651977795,-1,-2,-1,0,-1,0,0,-3
1537920651977795,-1,0,-1,1,2,-1,0,-1
1537920651983779,-2,-1,0,-2,-3,-4,-1,0
1537920651983779,-2,-1,-2,-1,-3,3,-2,-2
1537920652000734,-1,-1,-1,-2,0,0,-2,-3
1537920652000734,-1,-1,-1,0,-1,-1,0,-1
1537920652001731,-1,1,0,-1,-1,-1,1,0
1537920652001731,-1,-1,-2,0,-2,-2,-2,-1
1537920652022675,-1,-2,-2,0,0,-3,-2,-1
1537920652022675,1,-1,1,0,0,-1,0,0
1537920652024670,-1,-1,-1,-1,1,0,-1,0
1537920652024670,1,0,0,0,-1,-2,0,1
1537920652036638,-1,-1,-1,0,-1,-2,-2,-1
1537920652036638,0,-1,0,0,0,-3,-2,0
1537920652045614,1,-1,-1,-1,-2,-2,-1,-1
1537920652045614,-1,-2,-1,-1,0,-4,-3,-2
1537920652060574,-2,-2,-2,-1,-1,1,-1,-1
1537920652060574,0,0,0,-1,0,0,-2,0
1537920652066558,-1,0,-1,-1,1,3,0,1
1537920652066558,-1,-1,-2,-1,-2,-1,-1,-1
1537920652083513,1,-2,-2,-2,-1,-2,-2,1
1537920652083513,-1,-2,0,2,1,1,0,-1
1537920652084510,0,-1,1,0,4,-3,0,-3
1537920652084510,-1,-2,-2,-1,-6,-1,-3,-2
1537920652096479,0,1,-2,-1,-3,-1,0,-1
1537920652096479,-1,-2,-1,-1,-2,-1,-1,-3
1537920652105454,-2,-2,-1,-1,-2,0,-2,-3
1537920652105454,0,-2,0,-1,4,-1,0,0
1537920652120414,-1,-1,1,-1,1,-1,0,-1
1537920652120414,0,-1,-1,0,-1,-1,0,-2
1537920652122409,0,-1,-1,2,-1,0,0,-1
1537920652122409,-1,-1,0,1,0,-1,0,0
1537920652143353,-1,-2,-1,-1,0,-1,0,-1
1537920652143353,-1,0,-1,-2,1,-3,0,-3
1537920652144351,-1,-1,0,-1,-2,0,1,1
1537920652144351,-1,0,0,0,-1,-2,0,-1
1537920652156318,0,-1,-1,-2,-1,-1,0,-3
1537920652156318,0,-1,-1,0,0,1,1,3
1537920652171278,-2,0,-2,-3,1,0,-2,-2
1537920652171278,-2,-1,0,-3,-2,-1,0,0
1537920652180254,-1,0,0,1,0,0,0,1
1537920652180254,-1,0,-1,-1,-1,-1,-3,-2
1537920652182249,-1,-1,-1,-1,-3,-2,-1,1
1537920652182249,-1,-2,0,0,0,-1,-1,1
1537920652203193,-1,1,0,-1,0,-3,-2,2
1537920652203193,0,0,-2,-1,-2,-2,-3,-2
1537920652204190,-2,-1,-2,-1,-1,1,-2,0
1537920652204190,2,-1,-1,0,0,0,1,0
1537920652217155,-2,-1,1,0,-1,2,1,1
1537920652217155,-3,-2,-1,-2,-1,0,2,0
1537920652226132,-1,-1,0,-1,0,0,0,-2
1537920652226132,0,-2,-1,1,-1,-2,-3,-3
1537920652241092,0,0,-1,0,-2,-2,0,-2
1537920652241092,0,-1,1,-2,-1,-1,0,0
1537920652242089,-2,-1,-1,-1,-1,-1,-2,-1
1537920652242089,-1,-1,-1,-2,-2,0,-1,-1
1537920652263033,0,-3,-1,0,2,-1,-1,0
1537920652263033,-1,0,-1,0,0,-1,-1,-2
1537920652265028,0,0,0,-2,0,-1,0,-1
1537920652265028,-1,0,0,-1,-2,0,-1,-2
1537920652276995,-1,-2,-2,-3,-3,1,-3,-3
1537920652276995,-1,-2,-1,0,-2,-1,2,2
1537920652285972,0,0,0,0,1,-2,1,-1
1537920652285972,0,0,-1,0,5,-2,1,-2
1537920652300931,-2,-2,0,-2,-5,-3,-1,-2
1537920652300931,-2,-1,-2,-3,-3,-2,-1,-3
1537920652301929,0,0,-1,-1,-4,-1,0,0
1537920652301929,-2,-1,-1,0,-2,-1,-1,0
1537920652322873,0,2,-1,0,2,0,-1,-1
1537920652322873,0,-1,-2,0,0,1,0,0
1537920652324868,1,-1,-1,1,0,-3,-1,-1
1537920652324868,-2,0,0,0,0,-2,-1,-2
1537920652336836,0,-2,0,-1,0,-2,-1,-1
1537920652336836,-1,-1,0,-1,0,-2,-2,-1
1537920652345811,0,-2,0,-1,2,0,0,-2
1537920652345811,0,-1,-1,-3,-2,0,1,0
1537920652360772,1,-1,-3,-1,-1,0,-1,0
1537920652360772,1,-1,-1,1,-3,0,-2,-1
1537920652361769,-1,-1,0,-1,0,-1,0,1
1537920652361769,-3,-1,-1,0,-1,-1,-2,-3
1537920652382713,-1,-1,0,-1,0,2,1,2
1537920652382713,-2,0,0,-1,-2,0,-1,-1
1537920652384708,-1,-1,-2,0,-2,0,-1,1
1537920652384708,-1,-1,-2,-1,-2,-1,-1,-2
1537920652396676,-2,-1,0,0,1,-1,1,-1
1537920652396676,-3,-2,1,-1,-1,-2,-2,-2
1537920652405652,-1,0,-2,0,0,0,-2,-2
1537920652405652,0,-2,-1,-1,0,-1,0,-1
1537920652420612,1,-1,-3,-2,-1,-2,-4,-1
1537920652420612,0,0,-1,-1,-1,-3,0,1
1537920652422606,0,0,-1,-2,0,-2,-2,-2
1537920652422606,0,-1,-1,-1,-1,-2,-1,0
1537920652443550,-4,-2,-1,-2,-1,1,-1,-1
1537920652443550,0,-1,0,0,1,0,-1,-1
1537920652444548,0,0,-1,-1,-2,-1,-1,-1
1537920652444548,-2,-1,-1,0,-2,0,-2,0
1537920652465492,-1,-2,0,-1,-3,-1,-2,0
1537920652465492,-2,-1,-2,-1,-2,-2,0,-1
1537920652467486,0,-3,-1,-2,-2,-1,-1,1
1537920652467486,-1,-1,-2,1,1,1,-2,2
1537920652480451,-1,-1,0,-1,-2,0,1,2
1537920652480451,-1,-1,0,-1,0,-1,-1,-2
1537920652482446,-1,-1,-1,0,-1,0,-1,-2
1537920652482446,-1,-2,0,-1,-4,-3,0,1
1537920652503391,-2,0,0,-1,0,-2,-2,-2
1537920652503391,0,-2,0,-2,0,0,-2,-2
1537920652504388,1,-1,-1,1,1,0,1,0
1537920652504388,0,0,-1,-2,-5,-1,0,-3
1537920652525331,-2,-1,0,0,0,2,0,-1
1537920652525331,0,-2,-2,-1,1,0,1,0
1537920652527326,-3,-2,-1,-4,3,-3,-3,-4
1537920652527326,-1,0,0,-3,-6,-1,0,2
1537920652539294,0,0,0,-2,-1,-1,0,-2
1537920652539294,1,0,-1,0,-2,0,1,0
1537920652548270,-1,-2,-1,0,-1,-2,0,-2
1537920652548270,0,-1,-1,0,2,0,0,-1
1537920652563230,0,-1,-1,0,-2,-2,-1,-1
1537920652563230,-2,0,-2,0,-1,-1,-2,0
1537920652564228,-1,-2,0,0,-2,-1,-1,1
1537920652564228,0,-1,-1,0,0,0,-2,0
1537920652585172,-2,-2,-2,-2,-2,-4,-1,-2
1537920652585172,-2,0,-2,0,1,0,0,-1
1537920652587166,-2,0,0,-1,-3,-2,-2,-1
1537920652587166,-1,-3,-1,0,-1,0,-1,-1
1537920652600132,-1,-1,-1,0,0,-1,1,-1
1537920652600132,-1,-1,-1,-1,0,0,-1,-1
1537920652607113,-1,-1,1,-2,-1,0,-2,-1
1537920652607113,0,-2,-1,-1,2,0,-2,-2
1537920652623070,-1,1,-1,0,0,-1,-1,-1
1537920652623070,0,0,0,-2,-2,-2,1,-1
1537920652625065,0,-1,-3,-1,-1,-2,0,-2
1537920652625065,-1,-1,-1,0,0,0,-1,1
1537920652646009,-1,-1,0,0,-2,0,0,-1
1537920652646009,-1,-1,0,-1,0,-1,-3,0
1537920652647006,0,-1,-1,-1,-1,0,0,-1
1537920652647006,-1,0,-1,0,0,0,-1,-3
1537920652659972,-1,-2,0,0,-1,-3,-4,-1
1537920652659972,0,-1,-1,-1,-2,-1,0,-1
1537920652666953,-2,0,0,1,-2,-2,-2,-2
1537920652666953,-2,0,-1,0,-2,-1,-1,-2
1537920652682911,-1,-1,-2,-1,0,2,-1,-1
1537920652682911,-1,-1,0,1,1,0,-2,-2
1537920652684905,-1,-1,-2,0,-2,0,-2,-1
1537920652684905,-2,-1,-1,-1,-1,-2,0,-4
1537920652705849,0,1,-1,0,1,-3,-2,-1
1537920652705849,-2,-1,0,-2,-1,-1,0,1
1537920652706847,-2,0,-2,-1,-1,0,-1,0
1537920652706847,-1,-1,0,1,1,0,-2,-1
1537920652719812,1,-1,0,0,5,-1,-1,-1
1537920652719812,-1,-1,-2,-2,-5,0,-1,0
1537920652726793,-1,-1,0,0,-4,-3,-1,0
1537920652726793,1,1,-1,-1,-1,1,2,3
1537920652742750,-1,-2,-2,0,-1,-1,-1,-1
1537920652742750,-1,0,-2,-1,2,-2,-4,-3
1537920652744746,1,0,-2,0,0,1,0,2
1537920652744746,-2,0,-1,-3,-2,-1,-1,-1
1537920652765689,-2,0,0,-2,-2,-1,-1,-3
1537920652765689,0,0,-1,0,-1,-1,0,0
1537920652766687,1,-1,0,0,-1,-1,-2,-2
1537920652766687,0,-2,0,-1,0,-3,-2,0
1537920652779652,-2,0,-1,-2,-2,0,-2,0
1537920652779652,-1,-2,-1,-1,-2,-3,-1,-1
1537920652786634,-1,-1,2,-1,-1,-2,-1,-1
1537920652786634,0,0,-1,-1,1,1,0,-1
1537920652803588,-2,-1,-1,-1,-3,-1,1,0
1537920652803588,-1,-1,-3,0,1,-1,0,0
1537920652804586,-1,0,-2,-1,0,0,0,0
1537920652804586,0,-1,-2,2,-1,-2,-2,-2
1537920652825529,1,-1,-2,0,-2,-1,1,2
1537920652825529,0,-1,-1,-1,-1,-1,-1,-2
1537920652827524,-2,-1,-1,1,0,0,0,0
1537920652827524,1,-1,-1,-2,-1,-1,1,-2
1537920652839492,-2,-2,0,-1,-1,1,-1,-1
1537920652839492,0,-1,0,0,-3,-1,0,-1
1537920652854452,-1,-1,-1,-2,-1,-2,-3,-1
1537920652854452,-1,0,1,-1,-1,0,1,0
1537920652863428,-1,0,-2,0,-1,-1,-2,-2
1537920652863428,-2,0,1,-1,-1,0,-2,-2
1537920652864426,-1,0,-2,-1,-1,-1,0,0
1537920652864426,-2,0,-1,0,-1,-1,-4,-2
1537920652885369,2,0,0,-1,-1,1,1,1
1537920652885369,-1,-2,-1,0,0,-2,-1,-2
1537920652887364,-1,0,0,-1,-1,-2,-1,-1
1537920652887364,-3,0,-2,-1,0,0,-2,-2
1537920652900329,-1,0,-2,-2,-1,-1,-1,1
1537920652900329,0,0,0,-1,-1,0,-1,-1
1537920652906313,-1,-1,-1,0,0,-2,1,-1
1537920652906313,-1,-1,-1,0,0,-1,0,1
1537920652923268,0,-2,0,0,-1,-1,0,-1
1537920652923268,0,-1,-1,1,-2,-2,-1,1
1537920652924266,0,-2,0,-1,0,0,-2,-1
1537920652924266,0,1,-1,0,-1,-1,0,-1
1537920652945209,-1,-2,-1,0,0,-1,-2,-3
1537920652945209,-1,0,-3,0,0,0,-1,0
1537920652947204,-1,-1,0,-2,0,-1,0,0
1537920652947204,-2,-1,0,-1,-2,-1,0,-2
1537920652959172,0,0,-1,0,1,0,-3,-2
1537920652959172,1,-1,0,-1,-1,-1,1,1
1537920652968149,-2,0,-2,0,0,2,-1,1
1537920652968149,-2,-1,1,-2,-2,0,0,0
1537920652983108,-1,-1,-1,0,-1,-2,-2,-1
1537920652983108,-2,0,-1,-1,-1,1,-1,1
1537920652984106,0,-1,-3,-1,-4,-2,0,-4
1537920652984106,1,-1,-1,-1,0,-2,0,0
1537920653005049,-1,0,-1,-1,-1,-1,0,-1
1537920653005049,-1,-1,-2,0,-1,0,-3,-2
1537920653006047,-2,0,-2,-1,1,-2,-1,-4
1537920653006047,0,0,-1,-1,-1,1,0,2
1537920653027988,-1,-1,0,0,0,-1,0,-1
1537920653027988,-1,-1,0,-2,0,0,-1,1
1537920653028986,0,0,0,-1,-2,0,1,0
1537920653028986,-1,-1,-1,-1,0,-1,-1,-2
1537920653041951,-1,0,-1,-2,-2,-1,0,-1
1537920653041951,-2,-1,1,-1,-2,0,-1,1
1537920653042948,0,0,-1,-1,0,-2,-2,0
1537920653042948,-2,0,-1,-1,-2,-1,-1,-1
1537920653064889,0,0,0,0,-1,0,-1,0
1537920653064889,0,0,0,0,0,0,0,-2
1537920653065887,1,0,1,-1,-1,0,0,0
1537920653065887,-1,-1,-1,-1,0,-1,-3,-2
1537920653087828,-1,-1,-1,-1,-1,-1,-1,1
1537920653087828,0,-1,-2,0,-2,-1,0,-1
1537920653088826,-1,-1,0,-1,-2,-1,-1,-2
1537920653088826,-1,-2,-1,0,-2,-1,-1,0
1537920653102788,-1,-2,1,0,-2,-1,-3,-2
1537920653102788,-1,-2,-1,-1,-1,-1,0,0
1537920653102788,1,-2,-1,0,1,2,0,3
1537920653102788,-1,-2,0,1,0,-3,-1,-1
1537920653124730,1,-1,-2,0,-1,0,1,-1
1537920653124730,-2,0,0,-1,0,-1,0,-2
1537920653125727,-3,-2,-1,-2,0,-2,-1,0
1537920653125727,1,0,1,0,1,0,-2,1
1537920653139690,-2,-2,-1,-1,-1,-2,-2,0
1537920653139690,1,-1,-1,0,0,-1,1,0
1537920653147668,0,1,-2,-2,-1,0,-1,-1
1537920653147668,-2,0,-2,-2,-2,-1,-3,0
1537920653162628,-1,0,0,-2,-1,-1,0,1
1537920653162628,-1,-2,0,0,-2,-1,0,-2
1537920653162628,0,-2,0,0,-2,0,-3,-1
1537920653162628,-1,-1,-3,-1,-1,-2,-1,-2
1537920653184569,-1,0,0,-2,-2,1,0,-2
1537920653184569,-2,1,0,-1,0,1,-1,-2
1537920653185567,-1,-2,-3,0,0,-1,-1,-1
1537920653185567,1,-2,-1,-1,0,-1,-2,-2
1537920653199529,0,-1,-1,0,0,-1,-1,-2
1537920653199529,-1,-1,-1,-2,-2,-2,-3,0
1537920653207508,-1,-1,-2,0,-2,-1,0,-2
1537920653207508,-1,0,-2,0,-1,0,0,-1
1537920653222468,-1,0,-3,-1,-2,-1,-1,-2
1537920653222468,-1,0,-1,-2,-2,-2,-1,-1
1537920653223466,1,-1,-1,0,-2,0,0,1
1537920653223466,-1,-2,0,-2,-1,0,0,0
1537920653245407,1,0,-1,-1,-1,-1,-1,-2
1537920653245407,-1,-1,-2,-1,0,-1,-3,-1
1537920653245407,-2,0,1,-1,-1,-1,-4,-2
1537920653245407,-1,-2,0,-1,-2,-2,1,-1
1537920653259370,-2,0,-1,-1,-1,0,-1,-1
1537920653259370,-1,-1,0,-1,2,0,1,-1
1537920653268346,-2,1,0,0,0,0,-2,-2
1537920653268346,-2,0,0,1,-2,2,1,2
1537920653290288,0,-1,-1,1,1,0,-1,0
1537920653290288,-1,-3,-1,0,-2,0,0,0
1537920653291285,0,-2,0,-1,-1,0,1,-2
1537920653291285,0,-1,-2,-1,-2,0,-1,-1
1537920653313226,-2,-1,-1,0,-1,0,-3,-1
1537920653313226,-1,0,0,0,1,1,-1,0
1537920653314224,1,-1,-1,0,5,-2,1,-1
1537920653314224,0,-2,-1,-3,-5,-1,-1,-2
1537920653319210,-1,-2,0,-2,-3,-2,1,-1
1537920653319210,0,0,-2,0,-3,0,-1,0
1537920653327188,-1,-1,0,-1,-2,-2,-3,-1
1537920653327188,-1,0,0,3,4,2,1,-1
1537920653350127,-1,-1,0,-1,1,0,0,-2
1537920653350127,-3,-1,0,-1,0,-1,0,-1
1537920653351125,-1,-2,0,0,0,-2,0,-2
1537920653351125,0,-2,-1,-2,-1,-3,-2,-3
1537920653365087,-1,0,-1,1,-1,1,1,2
1537920653365087,0,-1,-2,-1,1,-1,-1,-3
1537920653366085,0,-1,-2,-1,-3,-1,-1,-1
1537920653366085,-1,-1,0,-2,1,-3,-1,-1
1537920653396004,0,-1,0,-1,0,-4,0,-1
1537920653396004,1,-1,-1,-2,0,-1,-1,0
1537920653396004,-1,-1,-1,-1,-1,0,-1,1
1537920653396004,-1,-1,-2,0,-1,-1,-1,-3
1537920653401988,-2,0,0,-1,0,-1,-1,-1
1537920653401988,-1,0,1,0,-1,-2,-1,0
1537920653402986,-2,1,-2,-1,-2,-1,-1,1
1537920653402986,0,-1,-1,-1,0,1,0,-1
1537920653424927,-2,1,-1,-2,-1,1,-1,-1
1537920653424927,-1,-2,0,-1,-1,0,-1,-2
1537920653425924,-3,-1,-1,1,-1,-1,0,-2
1537920653425924,-2,-1,-1,1,-1,-1,0,0
1537920653447865,0,0,-1,-1,-1,-2,-1,0
1537920653447865,-1,0,-2,-1,-3,-1,-1,1
1537920653448863,-1,-1,0,0,0,-3,-3,0
1537920653448863,1,0,-1,-2,0,0,0,-2
1537920653462826,1,-1,-1,-1,-1,-2,0,0
1537920653462826,0,0,-1,-2,0,0,0,-1
1537920653462826,-1,-1,0,-1,-1,0,-1,-1
1537920653462826,-3,0,-2,1,-2,-2,-1,-2
1537920653484767,-1,-3,-1,-2,-1,-2,-1,-1
1537920653484767,-2,0,-1,-1,-1,-5,-11,-3
1537920653485764,1,0,0,0,0,12,25,4
1537920653485764,-1,-2,0,-2,0,-2,-1,-3
1537920653507706,-1,0,0,-1,0,-2,0,0
1537920653507706,0,-1,-1,0,-2,0,-2,0
1537920653508703,-1,-1,-1,0,-1,-6,-10,-3
1537920653508703,1,-1,-1,1,0,2,0,1
1537920653530645,-2,-1,-1,-1,-1,-1,-2,-2
1537920653530645,-1,-3,0,-2,0,-1,-4,0
1537920653531642,-1,0,-1,-1,-1,-3,-4,-1
1537920653531642,0,0,0,0,0,-1,1,-1
1537920653544607,0,-1,-1,-2,0,-1,-2,0
1537920653544607,-2,0,-2,0,0,1,3,-1
1537920653545604,0,-1,-2,-2,-2,-1,-1,0
1537920653545604,-1,-1,0,-1,-2,-2,-1,0
1537920653568543,-1,-1,0,0,-2,0,0,0
1537920653568543,-2,-1,-2,-2,0,0,3,-1
1537920653568543,0,-3,-1,1,0,0,-2,0
1537920653568543,-2,0,0,-2,-1,-2,-2,-1
1537920653582506,-1,0,-2,-4,-2,-1,-2,-1
1537920653582506,1,-2,1,1,-2,0,2,-1
1537920653583503,-2,-1,-2,0,0,-3,-5,-2
1537920653583503,-2,-1,-2,-1,0,0,1,0
1537920653604447,-1,-1,0,0,0,-1,0,-2
1537920653604447,0,-1,-1,0,1,-1,1,-1
1537920653605444,0,-2,0,-1,-1,-4,-3,-1
1537920653605444,0,-1,-1,0,-1,0,-1,1
1537920653628383,0,-1,-1,0,-1,-1,-2,-1
1537920653628383,-1,1,-1,-2,0,-2,2,-1
1537920653629380,-2,1,-1,-1,-2,-1,-2,-2
1537920653629380,-1,0,0,-1,-1,-3,-3,-1
1537920653642346,0,-1,0,0,-1,-1,-2,-2
1537920653642346,-1,-1,-2,0,0,2,1,-1
1537920653643343,-1,-1,0,-1,-2,-2,-2,-1
1537920653643343,-1,-1,-2,-3,-1,-2,-3,1
1537920653665284,-1,-2,-1,0,-1,-1,0,1
1537920653665284,-1,-1,1,-1,-1,-1,-1,0
1537920653665284,-1,-2,-1,-2,1,0,0,-1
1537920653665284,-3,-1,0,1,-2,-2,-1,-1
1537920653688223,1,-1,0,-2,1,0,2,-1
1537920653688223,0,-1,-1,-1,-1,-1,-1,-1
1537920653689220,-1,-2,-1,-1,0,0,-2,-2
1537920653689220,0,-2,-2,1,1,0,-1,-3
1537920653702185,0,0,0,0,-1,-1,-1,-2
1537920653702185,0,0,0,-3,-2,-1,-1,-1
1537920653703183,-1,-1,0,-1,-3,-1,-1,-1
1537920653703183,-1,1,0,0,0,1,2,1
1537920653733103,-1,0,0,0,-1,1,0,0
1537920653733103,-1,-1,1,-1,-1,-1,-1,0
1537920653733103,-1,0,-2,-1,0,-1,-2,-1
1537920653733103,-1,-1,-2,-2,-1,-2,-1,-1
1537920653748063,-1,-1,-1,-1,0,-1,-2,-3
1537920653748063,0,-1,1,-1,-1,-3,-1,-1
1537920653749060,0,-1,-1,-2,-2,-1,0,-2
1537920653749060,0,-2,-1,-2,-2,-5,-11,-1
1537920653762026,-1,-3,-1,-1,1,1,0,-1
1537920653762026,-1,-2,-2,0,0,2,12,2
1537920653763023,-1,-2,0,-2,0,-1,-9,0
1537920653763023,0,-1,1,0,-1,2,12,0
1537920653792943,-2,0,-1,0,0,-2,-10,-3
1537920653792943,0,2,-1,2,3,0,-4,0
1537920653793940,0,0,-2,-1,3,-1,-2,-1
1537920653793940,-2,-2,-2,-3,-7,-2,-3,-1
1537920653807903,0,0,0,-2,-5,-1,2,0
1537920653807903,-1,0,-1,-1,-4,-1,-2,-2
1537920653808900,-1,-1,-1,0,0,-5,-5,0
1537920653808900,0,-1,-1,0,2,0,0,-1
1537920653830842,-1,0,1,1,2,2,8,1
1537920653830842,-1,-3,-2,-1,0,1,-1,-1
1537920653830842,0,-1,0,-2,-2,-1,1,-2
1537920653830842,0,-2,0,-3,0,0,-3,-2
1537920653852783,0,-1,-2,-1,-1,-1,-1,-2
1537920653852783,-1,1,-1,-1,-1,-1,-3,-2
1537920653853780,-1,-2,0,0,-2,-3,-1,-3
1537920653853780,1,1,1,-1,1,4,3,1
1537920653867743,2,0,0,-1,-1,-2,0,0
1537920653867743,-1,-2,-1,-2,1,-1,-2,0
1537920653868741,-1,-1,-1,1,-2,3,3,1
1537920653868741,-2,0,-2,1,0,-1,-1,0
1537920653882704,-1,0,0,-2,0,-3,-2,-1
1537920653882704,-2,1,-1,-1,-2,0,-3,-2
1537920653882704,0,-1,0,0,-1,0,3,-1
1537920653882704,0,-1,-1,1,0,-3,0,-1
1537920653904644,-2,-1,-1,-1,-3,-1,-1,-1
1537920653904644,1,-1,-1,0,-2,-2,-1,1
1537920653905642,-1,-1,-1,-2,0,-1,2,-1
1537920653905642,-1,0,-2,-1,-2,0,-3,0
1537920653928580,0,-1,-2,-1,-2,1,0,-1
1537920653928580,0,-1,-1,-1,-1,1,0,-4
1537920653928580,-2,-1,-1,-1,-1,1,2,-1
1537920653928580,-1,0,-1,0,0,-2,-3,0
1537920653950522,-1,-1,-1,-2,-1,-2,-1,0
1537920653950522,0,-2,-1,-1,-1,-1,-2,1
1537920653951519,-1,-1,-1,1,-1,1,-2,-1
1537920653951519,0,0,-1,-2,0,-2,-1,-1
1537920653964484,-1,-1,0,0,-1,-4,0,0
1537920653964484,-1,0,1,0,-2,-1,0,1
1537920653965482,0,-2,0,0,-3,0,0,2
1537920653965482,-2,-1,1,-2,0,0,1,-2
1537920653988421,-1,-1,0,0,0,-1,0,-1
1537920653988421,0,-1,-1,-1,-1,-3,-2,0
1537920653988421,0,1,-1,0,-1,-1,-1,0
1537920653988421,0,-1,0,-2,-1,-1,0,0
1537920654001386,0,0,0,-1,0,-2,0,-1
1537920654001386,-1,-2,-1,-1,1,0,0,-3
1537920654010362,-2,1,-1,-1,1,0,-1,0
1537920654010362,-1,0,-1,-1,-3,-1,-1,0
1537920654025322,0,-1,-1,-2,-2,-1,-2,-2
1537920654025322,-1,-1,-1,-1,-1,-1,-1,-1
1537920654025322,-1,-1,0,-1,-1,-2,0,-1
1537920654025322,-1,-1,-1,1,-1,-1,0,-1
1537920654048261,-1,0,-1,1,-1,-1,-2,1
1537920654048261,-1,0,-3,0,4,-2,-3,-3
1537920654049258,0,-2,0,-3,-3,0,2,2
1537920654049258,-2,-1,0,-1,-4,0,-1,-2
1537920654070202,-1,0,-1,-1,-2,-1,0,-2
1537920654070202,-1,0,0,0,-2,-2,0,-2
1537920654071199,0,0,-3,0,2,-2,-2,0
1537920654071199,0,-1,-1,-2,0,0,-1,0
1537920654085162,-3,-1,-3,-1,-2,-2,-3,-1
1537920654085162,-1,-1,1,1,-2,0,0,1
1537920654085162,-1,0,-1,-1,-2,-3,-3,-1
1537920654085162,0,-2,-2,0,0,0,0,-1
1537920654108101,-2,0,-1,1,1,-1,0,-1
1537920654108101,-1,-2,-1,-3,-3,0,-1,0
1537920654109099,0,-3,-1,-1,-1,0,0,0
1537920654109099,-1,-1,-1,-1,-2,-2,-1,0
1537920654122064,-1,-1,-1,-1,1,-1,0,0
1537920654122064,-1,-1,-2,0,-2,-1,-1,0
1537920654130042,-1,-1,-2,-2,-3,0,-2,-2
1537920654130042,0,0,-1,-1,0,-2,-2,0
1537920654145002,0,0,-2,-2,-2,0,-2,-2
1537920654145002,-1,-2,-1,-1,0,0,0,1
1537920654146000,0,0,0,0,0,-1,0,0
1537920654146000,-1,-1,-3,0,-1,-1,-2,-1
1537920654167941,0,-1,0,0,-2,-1,0,0
1537920654167941,-1,0,-1,-1,-2,-3,1,0
1537920654168939,-2,0,0,-1,1,-1,-1,-1
1537920654168939,-1,-1,1,-3,1,-1,-2,-1
1537920654181904,0,-2,0,-1,-2,-1,-2,-1
1537920654181904,0,0,0,-1,-1,-2,-1,1
1537920654189883,0,-1,0,-1,-1,-1,0,0
1537920654189883,-1,-1,-1,0,0,0,0,-2
1537920654204842,-1,-1,-1,0,0,2,-1,-1
1537920654204842,1,-1,-1,-2,-1,0,-1,0
1537920654205840,-1,0,0,-1,-1,-1,0,-1
1537920654205840,-1,0,-2,-3,0,0,-2,0
1537920654227781,0,-1,0,0,-1,-1,0,0
1537920654227781,-1,-1,-1,-1,1,-1,0,-2
1537920654228779,-2,-3,-2,0,-2,0,-1,-2
1537920654228779,-3,-1,-1,0,0,-1,0,-2
1537920654241744,0,-1,-1,-1,0,1,0,1
1537920654241744,0,0,0,-2,-2,-2,-1,-1
1537920654249722,0,-1,0,-1,0,0,-1,0
1537920654249722,-2,-1,-1,0,-2,0,-2,-1
1537920654264682,-1,-1,-3,-1,0,-1,1,-2
1537920654264682,0,-2,-1,-1,0,-1,-1,-2
1537920654265680,-2,-2,0,0,-1,-2,0,0
1537920654265680,0,-2,-1,-1,-1,0,-1,1
1537920654287621,-1,-1,-1,-2,-1,-1,0,0
1537920654287621,-2,-1,0,-1,-2,-1,0,0
1537920654288618,0,-1,0,0,-2,0,-1,-1
1537920654288618,-1,0,0,0,-1,-3,-2,-2
1537920654310560,-2,-1,0,-2,-2,-1,0,0
1537920654310560,0,-2,-2,-2,-2,-1,-1,-1
1537920654311557,0,0,-1,1,0,0,-1,-2
1537920654311557,-1,1,-1,-1,0,-3,-1,-1
1537920654324522,0,-2,2,0,0,0,-1,-3
1537920654324522,-1,-2,0,-1,0,0,-2,0
1537920654325520,-1,0,-1,-1,-1,-1,-1,-1
1537920654325520,-1,-2,-1,-2,-1,0,0,0
1537920654348459,0,1,-1,-2,-1,-1,-1,0
1537920654348459,-2,-2,-1,0,-1,-1,-2,1
1537920654348459,-1,-2,-2,0,-1,-2,0,-1
1537920654348459,1,-1,-1,0,-1,1,0,1
1537920654370400,-3,0,0,0,-2,0,-1,0
1537920654370400,-3,-1,0,-1,-2,0,0,0
1537920654371397,-1,0,-2,-3,-2,0,-1,0
1537920654371397,-1,-2,-1,1,-2,-2,0,0
1537920654385360,-3,-2,-1,-1,0,-2,-2,-1
1537920654385360,-1,1,-2,-1,1,-3,-1,-2
1537920654385360,0,1,-1,-1,0,0,0,1
1537920654385360,-1,-1,-1,0,0,1,0,-1
1537920654408299,0,0,-1,0,-1,-1,-1,-1
1537920654408299,-1,0,0,-1,0,2,1,-2
1537920654409296,-1,-1,-1,0,0,-3,-1,-2
1537920654409296,-1,0,1,-2,1,0,0,-1
1537920654430240,0,-1,-2,0,-2,-1,-1,0
1537920654430240,0,-1,-1,0,-3,0,0,0
1537920654431238,-2,-2,0,-1,-2,0,-1,-2
1537920654431238,-1,0,-2,0,-1,-2,1,-1
1537920654445200,-1,0,-1,1,6,-1,-1,-2
1537920654445200,-1,0,-1,-2,-3,-2,0,0
1537920654445200,0,-2,-3,1,-3,0,-1,0
1537920654445200,-1,-1,-1,-2,-3,-2,-2,-3
1537920654468138,1,0,1,-2,-2,0,2,3
1537920654468138,0,0,-2,0,3,-1,-1,-1
1537920654469136,-2,-2,0,-1,1,-2,0,0
1537920654469136,0,2,0,0,0,1,0,0
1537920654491077,-1,0,-1,-1,-3,-2,-2,-5
1537920654491077,1,-2,0,1,0,2,0,0
1537920654491077,0,-1,-1,-1,-2,-2,-1,0
1537920654491077,0,0,-2,-1,-1,-2,-2,-1
1537920654505039,-2,-2,0,0,-2,2,1,-1
1537920654505039,-1,1,-1,-1,0,-2,-1,-1
1537920654506037,0,-1,-1,-1,0,-1,0,-1
1537920654506037,1,-1,0,0,0,0,-1,1
1537920654527978,-1,0,0,-1,-1,0,-1,-1
1537920654527978,-1,0,-1,0,0,-2,-2,-1
1537920654528976,-1,-1,-2,-1,1,0,-1,-1
1537920654528976,-2,-1,-1,-1,0,-1,1,0
1537920654550917,1,1,-1,-1,-1,-2,1,0
1537920654550917,-2,-2,-1,0,-2,-1,-1,-1
1537920654550917,-1,-1,1,0,-1,2,0,-1
1537920654550917,-1,0,0,-1,-2,-1,-1,-2
1537920654564880,-1,-2,0,0,0,-1,-3,1
1537920654564880,0,-2,0,1,-1,-1,-3,-1
1537920654565878,-2,-1,-1,1,-1,0,0,-1
1537920654565878,1,-2,-1,-1,-1,0,1,2
1537920654587819,-1,-1,-2,-1,1,-2,-1,0
1537920654587819,-1,0,-2,-2,-1,0,-1,-1
1537920654589814,-2,1,-3,-3,-2,-1,-1,-1
1537920654589814,0,0,-1,1,-2,0,-3,-1
1537920654610758,-2,0,-1,-1,-1,0,0,-4
1537920654610758,0,0,1,0,-2,-2,0,0
1537920654611754,-1,0,-1,0,0,0,0,-1
1537920654611754,0,-1,-2,-2,-1,-1,-3,0
1537920654623723,1,-2,-1,0,-2,-2,-1,1
1537920654623723,-1,-1,-1,0,-2,0,-2,-1
1537920654640678,0,0,-2,0,-1,1,-1,-1
1537920654640678,-2,-1,0,0,0,0,0,-1
1537920654647659,-2,0,-2,0,0,-1,-1,-1
1537920654647659,-2,0,-1,-2,-1,-1,0,0
1537920654649653,0,-2,0,-1,-1,0,1,0
1537920654649653,-1,1,-1,-1,0,0,-1,0
1537920654670597,-3,-2,-1,-1,-1,1,-2,-1
1537920654670597,-2,0,-1,-1,1,-2,1,2
1537920654676581,0,-2,-1,0,-2,-2,-2,0
1537920654676581,0,-1,0,-2,-1,-1,0,-2
1537920654684560,1,0,0,-1,-1,-1,-2,-3
1537920654684560,0,0,-1,-1,0,0,-1,-1
1537920654693536,0,-1,0,0,0,-1,0,-2
1537920654693536,0,0,-2,1,-1,1,0,0
1537920654708496,1,-2,-1,-2,-1,1,0,0
1537920654708496,-2,-2,-3,-1,0,0,-1,-1
1537920654709494,0,1,-1,-1,-1,-2,-1,-1
1537920654709494,-1,-1,0,-1,-1,-1,0,-2
1537920654730438,-1,0,-1,0,1,-2,-2,-2
1537920654730438,0,-1,0,0,0,0,0,1
1537920654732432,-1,-1,-1,-1,0,-1,-1,0
1537920654732432,0,-2,-3,-1,0,-1,0,-1
1537920654745397,-2,-1,-1,-1,-2,-1,-2,0
1537920654745397,0,1,0,0,-1,-1,-2,0
1537920654751381,-1,-2,-1,0,-1,-3,-3,-2
1537920654751381,-1,0,0,-1,1,0,-1,-1
1537920654768336,-1,-2,-1,-2,-1,0,-1,-1
1537920654768336,0,-3,-1,-2,-2,-1,0,0
1537920654769334,-1,-1,0,-1,-1,-3,-1,-1
1537920654769334,-1,-1,-1,1,-1,-1,-2,0
1537920654789280,0,-3,1,0,-2,1,-1,0
1537920654789280,-1,1,-1,1,0,0,0,-2
1537920654798256,-2,0,-2,0,2,0,0,-1
1537920654798256,-1,-2,-2,-1,4,-1,0,-1
1537920654804240,-2,-2,-1,-2,-9,-5,-3,-3
1537920654804240,2,-3,-1,-1,0,2,2,1
1537920654813216,0,1,0,-1,-3,-2,-1,-1
1537920654813216,-2,1,-1,-1,1,1,0,-1
1537920654828176,-1,-1,-2,0,5,-2,-2,-1
1537920654828176,-2,-2,0,-1,-3,-2,-2,-3
1537920654829173,-1,-3,-1,-2,-3,0,0,-1
1537920654829173,1,0,0,0,-2,-2,0,-1
1537920654850117,-2,1,0,-2,1,1,1,0
1537920654850117,-2,-2,-2,0,-1,-2,-2,-1
1537920654852112,0,0,-2,-2,2,0,-1,-1
1537920654852112,-1,0,-2,-1,-2,-1,0,0
1537920654864080,1,-1,-1,-1,0,2,1,0
1537920654864080,1,-1,-1,0,0,-1,1,-2
1537920654873056,0,-3,-1,-2,-3,-2,-3,-2
1537920654873056,0,-2,1,-1,-3,-3,-1,-1
1537920654888016,1,-1,-2,-2,0,-1,0,1
1537920654888016,-2,0,-2,0,-2,0,-2,0
1537920654889013,-1,1,0,-2,-2,-1,0,-1
1537920654889013,-1,-2,0,0,-2,-2,-3,-1
1537920654910955,0,0,0,-1,0,-1,0,0
1537920654910955,-1,-1,-2,-1,-3,-1,-2,-1
1537920654911952,-1,-1,-1,-1,-2,-1,0,1
1537920654911952,-3,0,-1,-1,-2,-1,-1,-4
1537920654924917,-1,1,0,1,0,2,2,0
1537920654924917,0,-2,-1,1,0,-1,-1,-1
1537920654932896,-1,1,-1,1,0,0,-1,0
1537920654932896,0,-1,-3,-2,-2,1,-1,0
1537920654947856,-1,-2,0,-1,-2,-1,-3,-1
1537920654947856,-1,-1,0,0,-1,-2,1,-1
1537920654949851,-1,-2,0,-1,0,0,1,0
1537920654949851,0,0,-1,-1,1,0,1,1
1537920654970795,-1,-1,-2,-1,-2,-2,-1,0
1537920654970795,-1,-1,0,-1,0,-1,-1,0
1537920654971793,0,-1,-3,-2,-3,-3,-2,-2
1537920654971793,0,1,0,2,-1,-1,2,2
1537920654983760,0,0,-1,1,0,-1,-1,-2
1537920654983760,-1,1,-1,-2,1,0,0,0
1537920654992736,-1,-3,-2,-1,-3,0,0,-2
1537920654992736,-1,-1,0,-1,0,-1,-1,-2
1537920655007696,-2,0,0,-1,-1,-1,-1,-2
1537920655007696,0,0,0,0,-2,0,-1,-1
1537920655009691,0,-2,1,0,1,-1,-1,-1
1537920655009691,0,-1,-3,-1,-3,-2,1,-1
1537920655030635,-1,-1,-2,-1,0,-2,-2,-2
1537920655030635,-1,0,-1,-1,0,-1,0,-2
1537920655031632,0,1,1,0,3,-1,-2,-1
1537920655031632,-1,-1,-2,-1,3,-1,-1,-1
1537920655044597,-1,-1,-1,-1,-8,-3,0,0
1537920655044597,0,-1,-3,-4,-2,0,-1,-1
1537920655053573,-1,0,1,-1,-3,-1,-1,0
1537920655053573,-1,-1,-1,0,0,-2,-3,-2
1537920655074517,-2,-1,-1,0,1,1,1,0
1537920655074517,-1,0,0,-1,-1,-2,-1,-1
1537920655083493,-1,0,-2,-1,1,0,1,2
1537920655083493,0,-2,0,0,-3,-1,0,0
1537920655098453,-2,0,-1,-1,0,-1,-2,-1
1537920655098453,0,0,1,0,0,-1,1,2
1537920655099451,-1,-1,-2,-3,0,-1,0,-1
1537920655099451,-1,-1,-1,-2,-1,1,-1,-1
1537920655104437,1,-1,0,0,0,1,1,0
1537920655104437,-2,-1,-1,-1,-2,-2,-2,-2
1537920655120395,-1,0,-1,0,-1,0,0,-2
1537920655120395,-1,-2,-1,0,-1,0,-1,-1
1537920655128373,0,-3,-1,-2,1,-1,-1,-1
1537920655128373,-2,-2,0,-2,-2,-1,-2,-1
1537920655129371,0,-2,-2,-1,-4,0,2,1
1537920655129371,-2,-2,-1,-1,-2,0,0,-1
1537920655150314,1,-1,0,1,1,0,-1,-1
1537920655150314,0,-2,-1,0,0,-1,1,-1
1537920655152309,-1,0,-3,-2,-1,-1,-1,0
1537920655152309,0,0,-1,-1,0,-1,-1,-1
1537920655164277,-2,0,1,0,-1,-1,-1,-1
1537920655164277,-1,1,-1,0,-1,-1,0,-3
1537920655173253,-2,0,0,0,1,0,-2,-2
1537920655173253,-1,-2,0,-2,0,0,-2,-1
1537920655188213,-2,-1,-1,-1,0,0,0,0
1537920655188213,-1,1,0,0,0,1,-1,-1
1537920655189211,0,-1,-1,-1,-1,0,-2,-1
1537920655189211,-2,0,0,-1,-1,-1,-1,0
1537920655210155,0,-2,-3,-2,-3,-1,-2,-2
1537920655210155,0,0,-1,-2,-1,-2,0,-1
1537920655212150,0,-1,-2,-1,0,-3,0,-2
1537920655212150,-1,-1,-1,-1,0,-1,0,-2
1537920655224118,-2,-1,0,-1,-1,-1,0,1
1537920655224118,-1,-3,-1,-1,0,1,1,1
1537920655233093,-1,-2,-1,-2,0,-1,-2,-1
1537920655233093,0,0,-2,-1,-3,-2,-2,-2
1537920655248053,-1,-1,-1,1,0,-3,-1,0
1537920655248053,-1,0,-1,-2,-1,0,-1,0
1537920655249051,-1,-2,2,1,0,1,0,0
1537920655249051,0,-2,-2,-2,0,-2,0,0
1537920655270992,0,0,-1,1,0,-1,0,1
1537920655270992,-1,-1,-2,-1,0,-2,-1,-1
1537920655271990,0,-3,-2,0,-2,0,-1,0
1537920655271990,0,1,-2,-1,-1,-1,-2,-1
1537920655292933,0,-2,-2,-2,-2,0,0,-1
1537920655292933,0,-1,-1,-2,-1,-1,-2,-1
1537920655294928,-1,-1,-1,-2,-2,0,-2,0
1537920655294928,-1,-2,1,-1,0,0,0,-1
1537920655307893,-1,-1,-1,-1,0,0,-1,-2
1537920655307893,-2,0,1,1,0,1,-1,0
1537920655309888,-1,-1,-1,-1,-2,-1,-2,-2
1537920655309888,1,0,-1,-1,1,1,-1,1
1537920655337813,-1,-3,-1,-1,0,-1,0,-1
1537920655337813,-1,-1,-1,-1,0,-1,-2,-2
1537920655339808,0,0,0,1,1,0,-1,0
1537920655339808,0,0,0,-1,-2,-2,1,-2
1537920655352773,0,-1,0,-1,-1,-1,-3,-1
1537920655352773,1,-1,-2,-1,0,2,1,1
1537920655354768,-1,-2,-1,0,-1,-2,-1,0
1537920655354768,-1,-2,0,-1,-2,-2,-1,-1
1537920655367733,-3,0,-1,0,-1,0,0,-1
1537920655367733,0,0,0,-1,1,-1,-3,0
1537920655373717,-1,1,-1,-3,-1,-1,1,0
1537920655373717,-1,-1,-2,0,-1,-1,0,-2
1537920655389675,1,-1,-1,1,-1,-2,-1,-2
1537920655389675,-1,-1,0,-1,1,-1,-1,-1
1537920655397653,-1,0,-1,0,-1,-1,-1,-3
1537920655397653,-1,-2,-1,0,0,-1,0,1
1537920655412614,0,-1,0,-1,0,-1,-2,-1
1537920655412614,0,-1,-2,0,-3,-2,-1,-2
1537920655414608,-1,0,0,-1,-1,-1,-1,-2
1537920655414608,-1,-1,0,0,-1,0,0,0
1537920655427573,0,-1,-1,-2,1,0,-1,1
1537920655427573,-1,0,-1,-2,-3,-2,-2,0
1537920655434555,0,-1,-2,-1,1,1,1,-1
1537920655434555,-2,-1,-1,-1,-2,-1,0,0
1537920655450512,0,1,0,0,1,0,0,-1
1537920655450512,-1,-1,-1,-1,-2,-2,-3,-2
1537920655451510,-1,1,0,-3,-1,-1,0,1
1537920655451510,-1,0,-1,-3,-2,1,-2,-2
1537920655473451,0,-2,-1,-2,0,-1,2,-2
1537920655473451,-1,-3,-2,-1,0,0,0,0
1537920655474449,0,-1,-1,0,-3,-1,-2,1
1537920655474449,0,-1,0,1,-2,-1,-2,-1
1537920655487413,-1,0,-1,-1,1,-2,-1,0
1537920655487413,0,-1,0,1,5,1,-1,-1
1537920655494395,-3,-1,-2,-2,-5,-2,0,0
1537920655494395,0,-2,0,-1,-1,-1,-2,-1
1537920655510352,-1,-2,-1,0,-3,-1,-1,0
1537920655510352,-1,-2,0,0,-3,-2,-1,-1
1537920655512347,0,-1,-2,1,3,-1,-1,-1
1537920655512347,-1,-1,-1,-1,2,0,0,2
1537920655533291,-1,-1,1,-2,1,0,-2,-3
1537920655533291,-1,0,-2,0,-3,-1,1,-1
1537920655534288,0,-1,1,-1,-2,-2,0,0
1537920655534288,-1,0,-2,0,0,-1,-1,-1
1537920655547254,-1,0,-1,0,1,0,-2,-1
1537920655547254,0,0,-2,-1,-1,-1,1,-2
1537920655554235,-2,0,-1,-1,0,0,-1,-1
1537920655554235,-1,-1,0,-1,0,0,-1,-2
1537920655570192,0,-2,-2,0,1,-1,1,-1
1537920655570192,-1,-2,0,-2,-3,0,-2,-1
1537920655572188,-1,0,-3,-1,-2,-2,-1,-1
1537920655572188,-1,-1,0,-1,0,1,-1,-1
1537920655593131,-2,-1,-2,-3,-2,-1,0,1
1537920655593131,-1,-1,-1,0,0,-1,0,-1
1537920655594129,0,-1,1,0,0,-2,-1,-1
1537920655594129,0,0,-1,0,0,0,-2,0
1537920655607095,-1,-1,-2,0,-2,-1,0,-2
1537920655607095,0,-1,-2,0,-2,-1,-2,-2
1537920655614076,-1,-2,-1,-1,1,-1,0,-2
1537920655614076,-1,0,0,-1,-2,-1,0,1
1537920655631030,0,0,0,0,0,-1,-2,0
1537920655631030,-2,0,0,-1,1,0,0,-2
1537920655632027,0,-1,0,-2,0,1,0,0
1537920655632027,-1,-1,-1,1,-2,-2,-1,-1
1537920655652971,0,-1,-1,-1,-1,-2,0,0
1537920655652971,-2,0,0,-1,-1,0,-2,0
1537920655654966,0,-1,-1,-1,0,-1,-1,-1
1537920655654966,0,-1,-1,-2,0,1,-1,0
1537920655675910,-1,0,-1,-1,-2,0,-2,-3
1537920655675910,0,-1,-2,0,-1,-2,0,-1
1537920655676907,-1,-1,0,0,0,-3,-2,-1
1537920655676907,-1,-1,-2,0,-1,-2,0,1
1537920655690870,0,-1,1,-1,-1,-1,0,-2
1537920655690870,-1,-1,0,-2,-2,-2,1,-2
1537920655691867,1,0,-2,-1,-1,-1,0,0
1537920655691867,-1,-2,0,-1,1,-1,0,-2
1537920655712811,-2,1,0,0,0,0,-2,-2
1537920655712811,1,1,-1,0,-2,-1,1,-1
1537920655714806,-1,-1,0,-1,-1,0,-2,-2
1537920655714806,-1,-1,-1,-1,-1,-2,0,-2
1537920655727772,-1,2,-2,-1,-1,-1,0,1
1537920655727772,-2,0,0,1,-1,-1,-1,0
1537920655733755,0,0,-2,-1,0,-1,-2,0
1537920655733755,-1,0,1,0,-2,0,1,-1
1537920655750710,-3,-1,1,0,-1,-1,1,-1
1537920655750710,-1,0,0,-1,-1,-1,-1,0
1537920655751707,-1,-1,-2,0,-1,-1,-1,0
1537920655751707,0,-1,-1,-2,0,-2,-1,-3
1537920655772651,-1,-2,1,0,-1,-2,-2,-1
1537920655772651,0,1,0,2,0,0,0,0
1537920655774646,0,-1,0,-1,-1,-1,1,-1
1537920655774646,0,-1,-1,-3,-1,-2,0,-2
1537920655786614,0,-2,-1,0,0,-1,1,-2
1537920655786614,0,-1,0,-3,-1,0,-1,-1
1537920655795590,0,-1,-1,-1,0,-1,-1,-2
1537920655795590,0,-1,-2,-1,-1,0,-2,0
1537920655810550,-1,-3,-1,0,0,-1,-1,-2
1537920655810550,-1,-3,-1,-1,0,-1,0,2
1537920655811548,0,0,-2,0,-1,-3,-1,-1
1537920655811548,-2,0,-1,0,-1,0,0,0
1537920655833489,-1,-2,-1,-2,-1,0,0,1
1537920655833489,1,-1,0,-1,-1,-1,-2,-2
1537920655834486,-1,-1,0,-2,-1,0,1,-1
1537920655834486,-1,0,0,1,-1,-2,-1,0
1537920655846454,-2,-2,-1,-2,-2,-1,-2,0
1537920655846454,-2,-1,0,-2,0,-2,0,-2
1537920655855430,-2,-1,0,0,-2,-1,0,-2
1537920655855430,-1,-2,0,0,-1,-1,0,1
1537920655870390,-2,0,0,-1,-2,-2,0,-2
1537920655870390,-1,0,-1,-1,-1,-1,0,2
1537920655872385,1,-1,-2,1,-1,1,-1,-2
1537920655872385,-1,-2,-2,-2,1,0,-2,-1
1537920655893329,0,0,0,-1,-1,0,-1,-1
1537920655893329,-1,-2,-2,-1,-2,-1,-1,-2
1537920655894326,-2,0,0,0,0,-2,-1,-1
1537920655894326,-1,-1,-2,-1,-2,0,-2,-2
1537920655906294,0,-3,0,-1,-1,0,-1,1
1537920655906294,-1,0,0,-1,0,-2,0,-2
1537920655915270,-2,-1,-1,0,0,1,-2,-2
1537920655915270,0,0,0,-1,1,-3,1,-1
1537920655930230,-1,-1,-3,-2,0,-1,-1,-1
1537920655930230,0,-2,-2,-2,0,2,1,2
1537920655932225,0,-2,-1,-1,0,0,0,0
1537920655932225,0,0,-1,-1,-2,1,-1,-1
1537920655953169,1,-2,-1,-1,-1,0,1,0
1537920655953169,-1,0,-2,-1,1,-1,-2,-1
1537920655954166,-1,-1,-1,-2,-1,-1,0,1
1537920655954166,0,-1,0,0,-2,-2,2,-1
1537920655967131,0,-1,-1,0,-1,0,-2,-1
1537920655967131,-2,-2,0,-1,-2,-1,-1,0
1537920655975110,-2,0,1,-1,0,-1,1,1
1537920655975110,-1,-3,-2,-1,1,-1,0,1
1537920655990070,-1,1,-1,0,-3,-2,0,-2
1537920655990070,0,1,-1,0,-2,0,1,-1
1537920655992065,0,0,-2,0,-2,0,1,0
1537920655992065,-1,-2,-1,0,-1,-1,0,-1
1537920656013008,0,-1,-1,-3,0,-1,0,0
1537920656013008,-3,-1,-1,-1,-3,-2,-1,-1
1537920656014006,0,0,-1,0,-2,-2,-1,-1
1537920656014006,-2,-1,-1,0,0,0,-2,0
1537920656026971,0,0,0,-1,-2,0,0,-2
1537920656026971,-1,-1,-1,0,1,-1,-1,0
1537920656035947,-1,-2,-2,0,-1,-1,-3,-1
1537920656035947,1,-1,-1,-2,-1,1,2,3
1537920656050907,-1,0,-2,0,0,-1,-1,0
1537920656050907,-1,-2,-1,-1,-1,-1,-1,-1
1537920656051905,0,-1,-1,0,-1,-1,0,-2
1537920656051905,0,0,0,-1,-2,-2,-1,-3
1537920656072849,-1,-1,0,-1,-1,-3,-1,1
1537920656072849,0,-2,0,0,-3,0,0,-1
1537920656074843,-2,-2,-1,-1,-3,-1,-2,-2
1537920656074843,0,0,-1,0,-2,1,-1,1
1537920656086811,-1,-1,-2,1,-1,0,-1,0
1537920656086811,-1,1,-2,1,0,-1,-1,-1
1537920656095788,1,2,1,0,2,-2,0,-1
1537920656095788,-1,-1,-1,-1,6,-1,-1,-2
1537920656110748,-1,-1,0,-5,-8,-2,-1,-2
1537920656110748,0,-1,-1,-1,-2,0,1,-1
1537920656116731,0,-2,0,-1,-3,-2,0,-1
1537920656116731,-2,1,0,0,-4,1,-1,0
1537920656132689,-1,-2,-1,0,2,-2,-2,0
1537920656132689,-2,-2,0,0,-2,-1,-3,0
1537920656134684,-1,-1,-2,-1,0,1,0,-1
1537920656134684,-2,-1,0,0,-1,-2,0,-1
1537920656146652,-1,-2,-1,1,0,-2,1,-2
1537920656146652,0,-2,0,-3,-1,0,0,-1
1537920656155628,-1,-1,1,0,1,-2,0,1
1537920656155628,0,-1,1,-1,-4,-1,-1,-1
1537920656170587,-2,0,0,-1,-2,2,-1,-2
1537920656170587,0,-1,0,-1,0,-2,0,-1
1537920656171585,0,-1,-1,-1,-2,-1,-2,-2
1537920656171585,-1,-3,0,0,-3,-2,-2,-4
1537920656192529,0,1,-1,0,0,-1,0,0
1537920656192529,-1,0,-3,-1,1,0,0,-1
1537920656194523,-1,-1,-1,-2,-3,0,0,1
1537920656194523,-2,-1,-1,-2,-2,-3,-1,-3
1537920656215467,-1,-2,-1,0,1,-1,-2,0
1537920656215467,-1,-2,-2,1,-1,1,-2,-2
1537920656216465,0,1,0,-3,-1,-1,0,-1
1537920656216465,0,-1,-2,0,0,0,-1,0
1537920656230427,1,0,-2,-1,1,-1,-1,0
1537920656230427,0,1,-1,-1,0,-2,0,1
1537920656232422,-2,-1,0,-1,-1,1,-1,0
1537920656232422,-1,0,-1,0,1,-1,-2,-2
1537920656252369,-1,-2,-2,-2,-1,-2,-1,0
1537920656252369,1,-1,-2,-1,-1,-1,-2,-1
1537920656259350,1,0,-2,-1,0,-1,-2,0
1537920656259350,1,0,-1,0,-2,-1,-1,0
1537920656275308,-1,1,0,1,0,1,0,-1
1537920656275308,-1,-1,-1,-1,-2,0,1,0
1537920656277302,-1,-2,-1,0,-1,0,-2,1
1537920656277302,-2,-1,1,-2,0,-2,-1,-1
1537920656290267,-2,-1,-1,0,1,-2,-1,-2
1537920656290267,-1,-2,-1,-1,0,0,-2,0
1537920656292262,-1,0,-1,0,0,-1,-2,-1
1537920656292262,-2,-2,-2,-1,-1,1,-1,-1
1537920656313206,0,-1,-2,-1,-1,-1,0,-2
1537920656313206,-1,-1,1,-2,0,0,0,0
1537920656314204,-1,-2,-1,0,-1,-2,1,-1
1537920656314204,-1,0,-3,1,-1,-1,-1,0
1537920656335147,-2,-2,-2,-1,-1,-1,0,-1
1537920656335147,-2,-2,-3,1,0,-1,-2,-2
1537920656351105,0,-2,0,-3,-3,0,-2,-2
1537920656351105,0,-1,1,-3,-2,0,0,0
1537920656352103,2,1,0,-1,-2,1,-1,-1
1537920656352103,-1,0,0,-1,-1,-2,1,-1
1537920656353100,0,-1,-1,-1,0,0,-1,-1
1537920656353100,0,0,-2,-1,-2,-2,-1,0
1537920656373046,0,-1,0,0,-1,0,-1,0
1537920656373046,-1,0,0,-1,-2,0,-1,-2
1537920656374044,-2,-1,-1,0,-2,0,1,-1
1537920656374044,-1,0,0,1,0,-1,1,0
1537920656394988,-1,-1,1,-2,0,-2,-1,-1
1537920656394988,-1,0,-2,-1,-1,-2,-2,0
1537920656402967,-1,1,-1,-1,-1,-1,0,0
1537920656402967,0,-1,-1,-2,-1,-2,-2,-2
1537920656409948,-1,-1,-1,0,0,1,0,1
1537920656409948,-1,-1,0,-2,-1,1,0,-1
1537920656416929,-1,-3,0,-1,-1,-1,-3,-1
1537920656416929,-2,0,-2,-1,1,-1,-1,-1
1537920656432886,-2,0,0,-1,0,0,-2,-1
1537920656432886,2,-2,-2,0,0,-3,-1,1
1537920656434881,-1,0,-2,-1,1,-1,-2,1
1537920656434881,0,-1,-1,-1,-1,-2,-1,-1
1537920656462806,0,1,0,-2,-1,-1,-1,0
1537920656462806,0,-1,0,-1,-2,-1,0,-1
1537920656464801,0,-1,0,-1,0,-1,0,0
1537920656464801,-1,-1,0,0,-3,-1,0,-1
1537920656469788,-2,-1,-1,0,0,-3,0,0
1537920656469788,0,0,0,0,-1,-2,0,-2
1537920656476770,0,-1,-1,0,-1,0,0,-1
1537920656476770,-1,-1,-1,0,-2,-1,-1,-2
1537920656492726,1,0,-1,0,1,1,0,-1
1537920656492726,-2,-1,0,-1,0,-1,-2,-1
1537920656494721,-2,-2,0,-2,0,-3,0,-1
1537920656494721,-1,0,0,-1,1,-1,1,0
1537920656515665,0,-1,-1,-2,-1,-1,-2,0
1537920656515665,0,0,0,2,2,2,-1,0
1537920656516662,0,-1,-2,0,-2,1,-1,-2
1537920656516662,-1,-1,-2,-1,-1,-1,-1,-1
1537920656529627,0,-2,0,-1,-1,-1,-1,-1
1537920656529627,0,0,0,-1,-1,-2,-1,0
1537920656536609,-1,0,-1,0,-1,-1,-1,-2
1537920656536609,0,1,0,-1,-1,1,1,0
1537920656552566,-1,-2,-2,0,-1,0,0,-1
1537920656552566,-1,-1,-1,-2,-1,-1,-2,-1
1537920656554561,0,-1,-1,-1,-2,-1,0,-1
1537920656554561,0,0,-1,1,0,0,-2,-2
1537920656575505,-1,0,0,-2,3,-1,0,-1
1537920656575505,-1,-1,-1,1,1,-2,1,0
1537920656581489,-2,-2,-2,-3,-8,-2,-1,-2
1537920656581489,-1,0,-1,-2,-3,-1,1,0
1537920656589467,1,-1,-2,-1,-2,0,0,0
1537920656589467,-1,0,0,0,1,-1,-2,-2
1537920656604427,-1,-1,1,0,2,0,0,-1
1537920656604427,-1,-1,-1,1,0,-1,-1,-2
1537920656613403,0,-1,-1,-1,-3,-1,0,-1
1537920656613403,0,-1,-1,-1,-1,-1,0,-1
1537920656614401,0,0,-1,0,1,-1,-1,-1
1537920656614401,-1,-1,-1,-1,-1,1,-2,0
1537920656643323,0,0,0,1,-1,-1,-1,1
1537920656643323,-1,-1,-2,-1,-2,-2,0,0
1537920656644321,-1,-1,0,0,2,1,0,0
1537920656644321,0,-1,-1,0,1,-1,0,1
1537920656649307,-1,-1,-2,1,-1,-2,-1,-2
1537920656649307,-1,0,-1,0,-1,1,1,0
1537920656658284,1,-1,-2,-1,0,-2,-2,-3
1537920656658284,-1,-1,-1,-1,0,-1,-1,0
1537920656673243,-1,-1,-1,-1,-1,0,1,-1
1537920656673243,0,0,-1,-2,-2,0,-2,-1
1537920656674241,0,-1,-1,0,-1,0,0,-1
1537920656674241,-1,-1,-1,-1,-2,-2,-2,0
1537920656695185,-1,-1,-1,-2,-2,-1,-3,0
1537920656695185,-2,-1,-2,0,0,1,-2,0
1537920656697180,-2,-1,-1,0,1,-1,0,0
1537920656697180,-1,-2,0,-2,-2,-1,-1,-3
1537920656709148,0,0,0,1,-1,0,1,0
1537920656709148,1,-1,0,-1,-1,-2,0,-1
1537920656718123,-1,-1,0,-1,0,-1,0,0
1537920656718123,0,-3,0,0,-1,0,-2,-2
1537920656733083,-2,0,-1,0,-2,0,-2,-1
1537920656733083,-2,-1,-1,0,-3,0,-1,-1
1537920656734081,-1,-1,-1,-1,-3,-3,-2,-1
1537920656734081,0,0,0,0,0,-2,0,0
1537920656755025,0,-1,-3,-2,1,1,0,1
1537920656755025,0,0,-1,0,-2,-1,-2,-1
1537920656762006,-1,0,0,0,-1,-1,-1,-1
1537920656762006,-2,-1,-1,-1,1,0,-2,1
1537920656768988,0,0,0,-1,0,-1,0,-2
1537920656768988,-1,-1,-3,-1,0,-1,0,1
1537920656777964,-3,0,-2,-1,0,-1,-1,-2
1537920656777964,1,-1,-2,0,2,1,1,3
1537920656800902,-1,-1,0,0,-2,-1,-1,-1
1537920656800902,-1,-2,0,-3,1,-2,-1,-1
1537920656801900,1,0,0,-1,0,-1,-1,-1
1537920656801900,-1,0,-1,-2,-1,0,-1,-1
1537920656815862,-2,-1,0,1,0,0,-1,-1
1537920656815862,0,-1,-2,-2,1,-1,0,-1
1537920656816860,-1,-1,-1,0,-1,-1,0,-1
1537920656816860,-1,-2,-1,-2,0,0,0,0
1537920656828827,-1,-1,-1,-1,-1,0,-1,-1
1537920656828827,0,-1,0,-3,-3,-1,-1,-2
1537920656845782,-1,-1,-1,-2,-1,0,-1,1
1537920656845782,0,-1,-2,0,0,-1,1,0
1537920656852763,-2,-1,-1,-1,-1,0,-1,-1
1537920656852763,-2,-1,-1,-1,1,0,-2,0
1537920656854758,-1,-3,-1,1,-2,0,-1,0
1537920656854758,1,0,0,-1,-1,-1,1,-1
1537920656874705,0,-1,0,-3,1,0,1,1
1537920656874705,-1,0,-1,2,-1,0,-1,-1
1537920656882684,1,0,0,0,-1,0,0,1
1537920656882684,-1,-2,-1,0,-2,-2,0,-1
1537920656897644,1,0,1,1,-1,-3,1,-1
1537920656897644,-2,-1,0,0,0,0,0,0
1537920656903628,1,0,-2,-2,1,-4,-4,-2
1537920656903628,-1,0,0,0,0,-1,0,-1
1537920656912604,-1,0,-3,0,-2,-1,1,-1
1537920656912604,-1,-1,-1,-2,-3,-1,0,1
1537920656914598,-1,-2,0,0,-2,-2,-1,0
1537920656914598,0,-1,-2,-1,1,-1,-2,1
1537920656935542,-1,-2,-2,-2,1,-2,-2,-1
1537920656935542,-2,0,0,-1,0,-2,0,0
1537920656936540,-2,0,0,-2,-1,0,0,-2
1537920656936540,0,1,-1,-1,-2,-1,-1,-2
1537920656949505,0,-1,0,0,-2,-2,0,0
1537920656949505,1,-1,-1,-1,-1,-1,-1,-1
1537920656958481,0,0,-1,0,1,2,1,-1
1537920656958481,-1,-3,-1,-1,-2,-1,-1,-2
1537920656973441,-2,-2,-1,0,-1,0,-1,0
1537920656973441,-1,-1,-1,-1,0,-2,0,0
1537920656974439,0,-1,0,0,-1,1,1,-1
1537920656974439,-1,1,-1,-1,-2,0,-1,-1
1537920656995382,1,-1,-1,0,-2,-1,1,-1
1537920656995382,-2,-1,0,0,-1,-2,-1,0
1537920656997377,-1,-1,-2,-1,0,-1,-2,-1
1537920656997377,0,-2,-1,0,0,0,0,-1
1537920657009345,1,-1,0,-1,-2,-1,-1,0
1537920657009345,0,0,0,0,0,-1,1,-2
1537920657018321,-1,-1,0,0,-2,-2,0,0
1537920657018321,-1,-2,1,-2,-1,-1,-1,-1
1537920657033281,0,0,-2,0,-1,-1,-2,-1
1537920657033281,0,0,0,-1,-2,0,-1,0
1537920657034279,0,-2,-3,-1,-3,-3,-1,-1
1537920657034279,-2,0,-1,-2,0,-1,0,1
1537920657055223,-2,-2,-2,-2,-1,-1,-3,-1
1537920657055223,-2,-1,0,-1,-1,-1,0,2
1537920657057217,1,0,0,-1,0,1,-1,-2
1537920657057217,-1,-1,-1,-1,-1,-2,0,-1
1537920657069185,0,-1,-1,-1,0,-1,-2,-1
1537920657069185,0,-1,-2,-1,-2,0,-2,-1
1537920657078162,-1,1,-1,-1,0,-2,0,-2
1537920657078162,1,-1,-2,-1,-1,0,-1,0
1537920657093121,-2,0,-1,-3,-1,-1,-2,-1
1537920657093121,0,-1,-1,0,-1,-1,-3,0
1537920657094119,0,-1,-1,0,-2,-1,1,1
1537920657094119,-2,-2,-1,0,0,-2,-1,0
1537920657115063,-2,0,0,-1,-1,1,1,-1
1537920657115063,-1,-3,-1,-1,-1,0,-1,-1
1537920657117058,-1,-1,2,-3,-1,-1,-1,0
1537920657117058,-2,-1,-1,-1,-1,1,-1,-1
1537920657138002,0,-1,-2,-1,0,-2,0,0
1537920657138002,0,0,1,-2,-1,0,-1,-2
1537920657138999,-1,0,0,-1,0,-1,-1,-2
1537920657138999,0,0,-1,-2,-1,-2,-2,-1
1537920657151964,-2,-2,-1,-1,0,0,-2,-1
1537920657151964,-1,0,-2,0,-3,-1,0,-4
1537920657158946,0,-2,0,0,-1,-2,0,0
1537920657158946,0,0,1,1,-1,-1,-3,-2
1537920657175900,-1,-1,-1,0,-1,0,0,-1
1537920657175900,1,-1,0,0,0,-1,-1,0
1537920657176898,-1,-3,-1,0,-1,0,-2,0
1537920657176898,-1,0,-1,-1,-1,-1,1,0
1537920657197841,-1,-2,0,-2,0,-1,0,0
1537920657197841,-3,-2,-1,0,-1,1,1,1
1537920657199836,-1,-1,0,-1,-1,-1,-1,-2
1537920657199836,0,-2,-1,0,-1,-1,0,-2
1537920657212801,-1,0,-1,1,0,0,0,0
1537920657212801,-2,-1,-1,1,-1,-1,0,0
1537920657214796,-1,-1,-1,-1,0,1,-2,0
1537920657214796,-2,-1,-2,-1,-1,-3,-1,-1
1537920657235740,-1,-3,-1,-1,-2,0,-2,-3
1537920657235740,0,-2,-1,0,-1,0,-1,0
1537920657236737,-1,0,-2,-1,0,-2,-2,-2
1537920657236737,0,0,-1,0,-1,0,0,0
1537920657257682,-1,-2,1,-1,0,-1,-1,-2
1537920657257682,1,-2,-2,0,0,-3,-3,0
1537920657259676,-1,-2,-1,-3,0,0,0,1
1537920657259676,-1,0,0,-1,-1,1,0,-2
1537920657272641,-1,0,0,-1,-1,-1,-1,0
1537920657272641,-1,-1,0,-2,0,0,-1,-2
1537920657274637,-1,1,0,0,-1,0,0,1
1537920657274637,0,0,0,-1,-1,-1,-2,-1
1537920657295580,-2,1,0,1,-2,0,0,1
1537920657295580,-1,0,-1,0,0,-1,-1,-2
1537920657296578,0,-1,-1,1,-1,0,-2,-2
1537920657296578,-1,1,0,-1,0,0,-2,0
1537920657317521,0,-2,-1,1,-3,-2,-1,-2
1537920657317521,-1,-2,-2,0,-1,-1,-1,1
1537920657319516,0,-1,-1,-1,-1,-1,0,-1
1537920657319516,0,-3,-1,0,0,-2,-2,0
1537920657332481,-3,-2,0,-2,0,0,-1,-1
1537920657332481,0,-2,0,-2,-1,-1,-2,-1
1537920657339463,1,0,0,-1,-3,-2,-1,-1
1537920657339463,-1,-1,-2,0,0,-1,0,-2
1537920657355420,1,1,-1,1,3,-2,-1,0
1537920657355420,-1,-2,0,0,4,1,-2,-1
1537920657357415,-1,-2,-3,-4,-10,-1,-3,-2
1537920657357415,-1,-3,-1,0,-2,2,-1,-1
1537920657378359,-1,-1,-3,0,-2,-1,-1,-3
1537920657378359,-1,-24,-31,-7,-1,3,1,-2
1537920657379357,-24,19,26,27,94,45,1,-6
1537920657379357,50,-34,-10,-2,-8,-30,1,-6
1537920657392322,-19,27,3,0,26,-21,-3,3
1537920657392322,30,-46,15,-11,-75,-34,-10,1
1537920657399303,-85,-2,-35,-26,-76,-8,2,-7
1537920657399303,91,61,46,20,66,5,-3,-16
1537920657415260,-36,-111,-25,1,-77,-65,5,10
1537920657415260,88,84,29,-3,17,67,26,56
1537920657417255,57,-26,38,11,-17,5,-17,48
1537920657417255,-105,-8,-40,-32,-128,-67,5,-35
1537920657438199,67,127,87,10,3,-23,0,-1
1537920657438199,-21,-113,-76,0,89,4,5,-41
1537920657439196,-73,-104,-56,5,15,6,19,1
1537920657439196,10,102,34,3,19,-29,-5,16
1537920657460141,-17,-105,-67,-27,-3,59,-3,-63
1537920657460141,9,-39,18,14,-6,-29,4,31
1537920657462135,-33,-32,-28,-2,43,5,-4,-32
1537920657462135,81,47,-3,5,10,22,3,52
1537920657475101,-44,-74,-23,-4,2,-8,-1,1
1537920657475101,-3,109,52,2,3,4,-11,-24
1537920657477096,40,50,10,-7,-29,-24,0,-3
1537920657477096,-49,-61,4,12,13,29,6,7
1537920657498039,-3,22,-10,-2,1,10,-2,4
1537920657498039,-10,-7,-22,-5,1,5,-2,-5
1537920657499037,14,-5,16,0,-14,-9,-5,1
1537920657499037,-41,-3,-13,-6,-1,1,-6,-10
1537920657512001,31,13,2,5,28,17,-2,11
1537920657512001,-46,-12,-4,-1,-19,-17,-3,-6
1537920657520978,16,38,17,-1,-9,-20,-1,-1
1537920657520978,-6,-36,-8,-1,15,17,-5,-10
1537920657535938,2,12,5,1,-4,2,2,13
1537920657535938,-14,11,15,6,-5,-4,-2,3
1537920657536935,12,17,0,-4,-2,-6,-1,-10
1537920657536935,-1,-24,-9,-2,10,15,1,2
1537920657557880,-3,5,6,3,1,5,-3,8
1537920657557880,-17,10,-24,-5,-7,-11,-6,-11
1537920657559874,11,11,16,2,3,0,-1,-2
1537920657559874,-34,-89,-5,-2,-2,5,0,-6
1537920657571842,15,79,16,2,11,-6,-1,5
1537920657571842,-6,-11,-8,-6,-17,-6,-3,-4
1537920657580818,-5,22,0,-2,-1,-6,0,-3
1537920657580818,15,-9,4,-1,-3,1,-4,3
1537920657595778,-22,-9,3,4,5,6,1,-6
1537920657595778,0,8,2,5,5,3,0,2
1537920657596775,6,-14,-8,-4,-6,-8,-2,-1
1537920657596775,-23,7,-4,-2,1,-1,-7,-6
1537920657617719,8,-8,-3,-1,5,10,8,5
1537920657617719,-13,3,1,-5,-8,-24,-52,-14
1537920657619714,3,-6,-1,-1,-2,13,3,5
1537920657619714,-5,5,-1,0,5,-8,1,-2
1537920657631682,2,-2,-3,-3,-6,6,54,4
1537920657631682,-3,-6,6,1,0,-8,-85,2
1537920657640658,5,4,0,1,2,-14,33,0
1537920657640658,-1,7,-15,-3,4,78,85,6
1537920657654621,0,-4,12,-3,-7,-26,-39,-3
1537920657654621,-8,4,8,5,0,-30,-33,-8
1537920657663597,0,-10,-7,-2,-3,-22,-81,-11
1537920657663597,-5,3,-4,0,-3,-4,18,2
1537920657677559,-9,-9,0,-3,-5,14,33,2
1537920657677559,-11,-2,0,-3,-2,7,25,-2
1537920657679554,18,9,14,7,6,36,53,8
1537920657679554,-8,-7,-17,-12,-9,-26,-73,-16
1537920657691521,7,1,-3,4,12,14,62,15
1537920657691521,2,4,1,1,3,-4,40,10
1537920657700498,0,-1,-5,-2,1,33,9,-3
1537920657700498,-8,4,8,3,-4,-10,-29,-2
1537920657715457,-3,-7,-5,-2,-3,-4,-40,-8
1537920657715457,-1,-1,-2,0,-1,4,32,0
1537920657716455,2,-1,1,-1,-2,-19,-2,1
1537920657716455,-1,4,4,-1,2,-6,-9,-1
1537920657738396,-3,-2,-4,0,-2,-18,-39,-3
1537920657738396,-1,-3,4,1,0,17,40,2
1537920657740391,-2,0,-2,-4,-3,-2,-25,-4
1537920657740391,-1,1,2,2,4,-10,-6,0
1537920657751361,0,-1,-3,1,-2,4,2,-1
1537920657751361,-1,1,1,0,0,9,-1,0
1537920657760338,-2,0,-5,-3,2,-10,-5,-3
1537920657760338,0,-2,-1,0,4,-7,-2,2
1537920657776295,-2,-3,-2,-3,-8,0,-8,-2
1537920657776295,-2,-5,0,0,-1,4,-3,-2
1537920657789261,3,8,-3,-2,-3,-13,-6,1
1537920657789261,0,-1,2,3,0,5,11,1
1537920657798236,-2,1,0,1,2,-1,-21,-6
1537920657798236,0,-1,-1,-2,-2,-1,0,-2
1537920657799234,-1,-5,-1,-2,-2,-2,8,-1
1537920657799234,-2,1,2,0,-2,-3,-5,1
1537920657811202,0,-1,-1,-2,1,-4,-11,-2
1537920657811202,-2,0,-2,-2,0,0,2,-1
1537920657837133,-3,-3,-2,-2,-2,-2,2,-1
1537920657837133,0,1,-1,-1,0,-3,-4,-1
1537920657838131,0,-3,-1,-2,0,-4,-10,-3
1537920657838131,-1,-1,0,0,1,4,10,-1
1537920657842119,0,-1,-3,-1,-3,-4,-5,-3
1537920657842119,-1,-3,1,-1,-2,-4,0,0
1537920657858077,-1,-2,0,-1,1,3,0,0
1537920657858077,-1,1,-3,-2,-1,1,-3,-1
1537920657859074,-1,-3,-1,0,-2,-5,-3,-1
1537920657859074,-1,0,-2,-1,0,-1,-1,-2
1537920657880018,0,-3,-1,1,0,-1,-2,-1
1537920657880018,-1,0,-1,-3,-1,-1,-3,-3
1537920657881015,0,-2,-3,-1,-1,-3,-4,-2
1537920657881015,1,0,0,-1,0,1,3,3
1537920657894978,-1,0,-1,0,-2,-1,-5,-1
1537920657894978,-2,1,0,-1,-2,1,0,-1
1537920657895975,-2,-1,-2,0,-1,-2,0,-1
1537920657895975,0,-1,1,0,1,-1,0,0
1537920657916919,-1,-1,-3,0,0,-3,-1,1
1537920657916919,-1,-1,0,-1,0,-1,-1,-1
1537920657917916,0,-1,0,-1,0,-2,0,0
1537920657917916,-1,0,-1,-1,-2,-1,-3,-3
1537920657939858,-1,-2,-1,-2,-2,-1,-3,-1
1537920657939858,-1,1,-1,1,-1,0,-1,-1
1537920657940856,-1,-2,-1,-1,0,1,0,-1
1537920657940856,0,-2,0,1,0,-2,-3,-3
1537920657954818,0,-1,0,0,1,0,1,1
1537920657954818,-1,0,-1,1,-1,-2,-1,0
1537920657955815,-2,-1,1,-1,1,0,-1,-2
1537920657955815,-1,-1,0,-1,-2,-5,-2,-1
1537920657977756,2,-2,-1,0,-6,0,0,1
1537920657977756,-2,-1,1,0,0,-1,0,-3
1537920657977756,-1,-5,-2,-1,0,0,2,2
1537920657977756,-2,5,-1,-1,2,-1,-2,-2
1537920657999698,-2,-6,-2,-2,-4,-4,-1,0
1537920657999698,-1,-2,-5,-4,-4,-2,1,1
1537920658000695,-2,-9,-2,-1,-1,-2,-1,-2
1537920658000695,2,21,4,1,1,-1,1,1
1537920658014657,-2,1,2,1,3,-2,-2,-3
1537920658014657,0,1,-1,-1,-1,-2,0,-2
1537920658015655,-2,-10,-4,-1,-1,1,-2,-1
1537920658015655,-5,-18,-19,-2,11,7,-3,-3
1537920658037596,-2,-36,-5,-2,-10,1,2,1
1537920658037596,0,10,6,-3,-7,-4,-3,0
1537920658037596,9,55,19,1,1,-4,-1,3
1537920658037596,3,14,12,1,-3,-1,-2,-1
1537920658067516,-5,-1,-8,1,7,2,-4,-2
1537920658067516,5,-33,-12,0,2,3,-1,-1
1537920658068514,-5,-7,-8,0,-3,1,-1,-4
1537920658068514,-11,-15,-6,-2,-3,-2,1,-2
1537920658074498,29,-10,-3,-2,2,0,0,5
1537920658074498,-4,21,6,0,-1,-1,-2,-4
1537920658075496,-15,-19,-11,-4,-2,-2,-1,-4
1537920658075496,25,23,10,4,-5,-1,1,7
1537920658105415,-22,14,2,-1,-3,-5,-4,-9
1537920658105415,0,-14,-7,-1,8,2,1,3
1537920658106412,-4,-1,-4,-1,-3,-1,-2,-4
1537920658106412,-10,-28,-9,-4,-6,-1,0,-3
1537920658119378,-4,2,3,-2,0,0,0,0
1537920658119378,4,14,2,0,0,-1,-3,-1
1537920658120375,0,-16,-1,-1,1,-2,0,0
1537920658120375,-1,-5,0,-3,-5,-5,-1,-3
1537920658134338,4,17,4,0,2,1,0,0
1537920658134338,-1,-2,0,0,-1,-2,2,-1
1537920658135335,2,-2,-1,0,-1,1,0,2
1537920658135335,-3,-1,2,0,-3,-2,-3,-3
1537920658157276,-1,8,1,1,1,1,-2,-2
1537920658157276,-5,-5,-2,0,0,0,1,3
1537920658158274,0,-1,0,0,-3,-4,-4,-3
1537920658158274,0,5,-1,0,-1,0,0,0
1537920658180215,-3,-5,-3,-1,-1,-2,0,-1
1537920658180215,1,0,-1,-1,-2,1,0,-3
1537920658180215,3,5,3,-1,-1,-3,-2,-1
1537920658180215,-3,-5,-1,-1,-2,-1,-2,-1
1537920658195175,-2,0,-2,0,-1,-1,-1,-1
1537920658195175,-3,0,1,-1,-2,-1,1,-2
1537920658195175,2,2,0,-2,0,0,0,0
1537920658195175,-4,-6,-1,-1,-1,0,-2,-1
1537920658217116,-1,0,0,-1,-1,0,-1,-1
1537920658217116,0,1,0,0,-1,0,-2,-2
1537920658218114,0,-4,-3,1,0,0,0,1
1537920658218114,-1,0,-1,-1,0,0,0,0
1537920658248034,-1,2,-1,-2,-1,-1,-2,-3
1537920658248034,0,-2,0,-1,1,-2,-1,0
1537920658249031,-1,-2,0,-2,-1,-1,0,-2
1537920658249031,0,0,-1,-1,-1,-1,0,1
1537920658255015,1,1,0,-1,-1,0,-1,-1
1537920658255015,-3,-3,-1,-1,-2,0,-1,-1
1537920658255015,0,2,1,0,-1,-1,1,0
1537920658255015,0,1,-1,0,-2,-3,-1,-1
1537920658276957,-1,-1,-3,-1,0,-1,-2,-2
1537920658276957,0,-2,-1,-1,-1,0,-1,0
1537920658277954,1,1,0,0,-1,1,-3,2
1537920658277954,-3,-2,0,0,0,1,-1,-2
1537920658300892,-1,0,1,-1,0,-2,-3,0
1537920658300892,-1,0,0,-1,0,0,-2,-2
1537920658300892,-1,-1,-1,-1,-1,0,-1,-3
1537920658300892,0,-1,-1,0,-1,-1,0,0
1537920658314855,-2,1,0,-1,-1,-2,1,-1
1537920658314855,1,1,-1,-1,-1,0,0,-1
1537920658315853,0,-2,-1,-2,-1,1,1,-1
1537920658315853,0,-2,0,1,-1,-1,0,0
1537920658336796,-1,1,0,0,0,2,-1,-1
1537920658336796,-1,-1,2,-1,-1,-1,-1,-1
1537920658337794,0,-1,-1,-1,-1,1,0,1
1537920658337794,0,-2,-1,-1,-2,-3,-1,-3
1537920658360732,-1,-1,-1,-1,-1,0,1,1
1537920658360732,-2,-1,-1,0,0,-1,1,1
1537920658360732,0,0,0,-1,0,-2,-2,-2
1537920658360732,-1,1,-1,-3,-1,-2,-1,-1
1537920658374695,-2,-2,0,0,-2,-1,0,1
1537920658374695,-1,0,-2,-1,-3,-1,-2,-3
1537920658375693,-1,-1,0,-1,-1,-1,-2,-1
1537920658375693,1,1,-1,0,-2,-3,-1,-1
1537920658396637,1,1,-1,0,1,2,0,1
1537920658396637,-1,-2,-2,0,0,0,1,-2
1537920658404615,-1,-1,-1,-2,-1,-3,-2,0
1537920658404615,-2,-2,-1,-1,0,0,-3,-2
1537920658420573,-1,-1,-1,-1,0,0,0,0
1537920658420573,-2,0,-2,-2,-3,-4,-1,-1
1537920658421570,-1,0,-2,-1,1,1,-1,0
1537920658421570,-1,-3,0,-3,-2,-1,-2,-1
1537920658434535,-1,-1,-2,0,-3,-1,-1,0
1537920658434535,0,-1,-1,0,2,-1,-1,-1
1537920658435533,-1,-2,-1,0,-1,-1,-1,1
1537920658435533,-1,-1,0,-1,0,-1,0,0
1537920658457475,0,-1,0,-2,0,-3,-3,-1
1537920658457475,-1,0,-1,-2,0,-1,0,0
1537920658458473,-1,-2,-1,0,-1,-2,-2,-3
1537920658458473,-1,-2,-2,0,0,1,0,-2
1537920658480414,-1,-1,-1,-2,-1,-2,-1,-1
1537920658480414,0,0,0,1,-1,1,-1,2
1537920658481411,-2,2,0,-1,-1,0,0,-1
1537920658481411,-1,-1,0,0,0,-1,0,-1
1537920658494376,0,-1,-1,0,-2,-1,-2,-2
1537920658494376,-2,-1,-1,-2,-2,-1,1,-2
1537920658495373,-2,-2,-1,1,0,0,-1,-2
1537920658495373,-1,-1,-1,-3,-2,-1,-2,-1
1537920658517314,-2,0,-1,-2,-2,-4,-2,-3
1537920658517314,0,-1,0,-1,0,0,2,3
1537920658518312,0,0,-1,0,-2,-1,0,1
1537920658518312,0,0,-1,-1,1,1,0,1
1537920658540253,1,-1,0,-2,0,0,0,-2
1537920658540253,-3,-3,-2,-1,0,-2,-2,-1
1537920658541251,0,-1,0,-2,-1,-1,-1,-1
1537920658541251,-1,-2,-3,-1,-2,-1,0,-1
1537920658555213,0,-2,-1,2,-1,0,2,2
1537920658555213,1,-1,0,0,0,-3,-3,-4
1537920658555213,1,-2,0,0,2,1,2,3
1537920658555213,-2,-1,-1,0,4,0,-2,0
1537920658577154,-2,-2,-1,-4,-7,1,2,2
1537920658577154,-1,-1,1,-1,-2,0,-1,0
1537920658578152,0,0,-1,-1,-1,-2,-2,-2
1537920658578152,-1,-1,1,-1,0,0,-2,-1
1537920658600093,0,-2,-3,0,1,0,-1,1
1537920658600093,-3,1,-1,0,-1,0,0,-2
1537920658601091,-2,0,-2,-1,-1,-1,-1,1
1537920658601091,0,-1,0,0,-1,-2,0,0
1537920658615053,-2,-1,0,-1,1,-1,-1,1
1537920658615053,-1,-2,-1,-3,-2,-3,-3,-2
1537920658615053,0,-1,-1,-1,1,2,0,0
1537920658615053,-1,-2,1,-2,-2,1,1,-1
1537920658636995,0,0,0,0,-1,0,-1,-3
1537920658636995,0,1,-1,-1,-1,-1,-2,-2
1537920658637992,-1,-3,-1,-1,-1,-1,1,0
1537920658637992,-1,-2,-2,0,-2,-2,-1,1
1537920658660931,-1,-1,0,-1,0,-3,-3,-3
1537920658660931,0,0,0,2,0,3,3,3
1537920658660931,0,0,-1,-2,-1,-2,-2,-2
1537920658660931,2,-2,0,0,-2,1,2,1
1537920658681874,-1,-1,-1,1,-1,-1,-1,0
1537920658681874,-1,-1,-1,-2,-2,-1,-2,-1
1537920658689853,-2,-2,0,0,-1,-2,-2,-3
1537920658689853,-2,0,-1,0,-2,-2,1,-1
1537920658696834,0,-1,0,-2,-1,-1,1,-1
1537920658696834,-1,-1,1,-1,0,-3,-1,-1
1537920658697832,0,0,0,1,0,-1,0,2
1537920658697832,-2,1,-1,-1,-1,-1,-2,-1
1537920658720771,-2,-2,-2,1,2,0,1,1
1537920658720771,1,-1,-2,-1,-1,1,0,1
1537920658720771,-1,-1,-1,-1,-2,-2,-2,-1
1537920658720771,1,0,-1,-2,1,0,-1,0
1537920658733736,0,-1,-1,0,-1,0,0,-2
1537920658733736,-1,-1,-2,-1,-2,-1,-1,-1
1537920658742712,0,-2,-1,-1,-2,-2,0,0
1537920658742712,-3,-2,-1,-2,-1,-1,-2,-3
1537920658757672,-1,-1,0,-2,-1,0,-1,0
1537920658757672,-2,-1,-1,-1,1,-3,-2,1
1537920658757672,-1,0,-2,-1,-1,-2,0,-4
1537920658757672,-1,-2,-1,-1,-1,-2,0,-1
1537920658780610,0,0,-1,-2,2,1,-2,-1
1537920658780610,0,0,1,1,0,1,-1,-1
1537920658781608,0,-2,0,0,-1,0,0,0
1537920658781608,0,1,-1,-2,-2,-2,-3,-1
1537920658794573,0,0,-1,-1,-1,-1,0,0
1537920658794573,-2,-2,-1,-1,-3,-1,-1,-2
1537920658802552,-1,0,-1,0,-1,-1,-2,0
1537920658802552,1,0,0,1,-1,1,0,-1
1537920658817512,-2,-1,0,-1,0,0,0,-3
1537920658817512,-1,0,-1,-2,0,-2,-1,0
1537920658818509,-1,-2,0,-2,-1,0,-2,-1
1537920658818509,-1,-3,-1,-1,-2,-2,-2,-1
1537920658840450,-1,1,-1,0,0,-1,0,0
1537920658840450,1,0,0,-1,1,-1,-1,-1
1537920658841448,-2,-1,-2,1,-2,0,1,0
1537920658841448,-2,0,-1,-2,-1,1,-2,1
1537920658854413,-1,-1,0,-2,-1,-1,-2,-4
1537920658854413,1,-2,-2,-1,1,0,1,0
1537920658862392,-2,-1,-1,-3,-3,-1,-2,-1
1537920658862392,-2,-2,-1,-1,-1,-2,0,-1
1537920658877352,0,-1,-2,0,0,-1,0,-1
1537920658877352,-1,0,0,-1,-1,-3,-2,-3
1537920658878349,-1,-1,0,-2,0,-1,1,0
1537920658878349,-2,-1,-1,0,-1,-2,0,-2
1537920658900291,-2,0,0,0,-3,-3,0,1
1537920658900291,0,-1,-2,-1,-1,0,0,2
1537920658901288,-1,-1,-1,-1,-1,1,0,-1
1537920658901288,0,-1,1,-1,-1,1,0,-2
1537920658914253,-1,0,-1,0,-1,-1,-2,0
1537920658914253,-2,-1,0,-2,2,1,-1,-2
1537920658922232,-1,0,-2,0,-1,-1,-1,0
1537920658922232,-2,0,-1,-1,1,-2,0,0
1537920658937192,0,-1,-1,0,-2,-2,0,-3
1537920658937192,-2,-1,-1,0,-1,-1,-1,-1
1537920658938190,0,-2,-2,-2,-1,0,-1,-3
1537920658938190,1,-1,-2,-1,-1,0,-1,0
1537920658960130,1,-2,-2,-2,-1,-1,0,0
1537920658960130,-1,0,-1,-2,-3,-2,-2,-2
1537920658961128,0,0,-1,0,0,-1,1,-1
1537920658961128,-1,-1,1,-1,-1,-3,-2,0
1537920658974094,-1,-3,0,0,-1,0,0,-1
1537920658974094,-1,-2,-2,-2,-1,-1,1,-2
1537920658982072,-1,0,-1,0,0,-2,0,0
1537920658982072,1,-1,-1,0,-1,0,-3,-2
1537920658997032,-1,0,-1,0,2,1,1,1
1537920658997032,0,-2,-2,-1,-1,-3,-2,-2
1537920659005010,-2,-2,-1,-1,-1,-1,0,0
1537920659005010,-2,-1,-2,0,-1,-1,0,1
1537920659019970,0,-1,1,-1,-2,-2,0,1
1537920659019970,-1,-1,-1,-1,-3,-1,-1,-1
1537920659020968,-1,-1,0,0,-2,-1,-2,-3
1537920659020968,0,0,-1,-1,-3,-3,-1,-2
1537920659042909,-1,0,-2,-1,-2,-1,-2,-1
1537920659042909,-2,-2,0,-1,0,0,0,-1
1537920659043906,0,-2,-1,0,-1,-2,-2,0
1537920659043906,-1,0,1,-1,-1,-1,2,0
1537920659056872,-1,-2,-1,-1,1,-1,-3,-1
1537920659056872,0,0,-3,-1,-1,-1,-2,0
1537920659057869,1,0,-2,0,-1,1,0,-1
1537920659057869,1,1,-3,-1,0,-1,0,-2
1537920659080808,1,-1,-2,0,-1,-2,1,0
1537920659080808,-1,-1,0,0,3,0,0,-2
1537920659080808,-2,-1,0,-1,2,-1,-1,-1
1537920659080808,-3,-2,-2,-3,-8,-2,-2,-2
