timestamp,emg1,emg2,emg3,emg4,emg5,emg6,emg7,emg8
1537904872134308,-3,-28,5,11,3,0,-1,-2
1537904872134308,0,6,-26,-12,-3,-3,0,-1
1537904872135305,-2,-9,13,2,5,0,-1,0
1537904872135305,0,4,5,-3,-4,-4,-1,0
1537904872137300,-6,-22,-4,0,1,1,0,-2
1537904872137300,1,23,9,0,1,1,-2,0
1537904872138297,-1,-7,1,-4,-8,-5,-2,-2
1537904872138297,-2,14,-6,0,1,2,0,-2
1537904872153257,-1,1,-18,-2,-1,-1,0,0
1537904872153257,-4,-13,40,4,3,0,-3,-4
1537904872154254,0,-9,-45,-9,-6,0,-1,0
1537904872154254,-2,2,6,6,-2,-1,-1,-1
1537904872167220,4,23,11,-11,-2,2,1,0
1537904872167220,-1,1,10,7,-2,-3,-2,0
1537904872175198,-2,-11,-27,-4,-2,1,0,-2
1537904872175198,1,5,21,1,-6,-4,-3,-2
1537904872182180,2,20,-6,-9,1,0,0,1
1537904872182180,-3,-5,0,8,5,7,1,-3
1537904872196142,-2,12,6,-4,-9,-9,-3,-3
1537904872196142,-2,-8,-16,2,-3,-3,-3,0
1537904872207113,0,0,4,2,0,-3,-1,0
1537904872207113,2,6,-5,0,1,2,1,2
1537904872219081,-1,16,-2,2,14,12,3,0
1537904872219081,-1,-10,2,-6,-4,-5,-1,0
1537904872259972,1,-2,1,-7,4,1,-1,-1
1537904872259972,1,-7,5,11,-6,-6,-2,0
1537904872260969,-2,-14,-6,-13,0,3,2,1
1537904872260969,1,11,-2,-7,-3,-1,-2,0
1537904872272937,-4,-22,-15,4,0,-3,-2,-2
1537904872272937,-2,9,1,-9,-6,1,1,-2
1537904872273935,0,21,1,7,8,0,-2,-3
1537904872273935,-2,-23,4,-5,-10,-3,-2,0
1537904872274932,-2,-3,9,1,1,1,0,-1
1537904872274932,-1,8,-12,-5,0,1,1,-2
1537904872279919,-2,-13,-14,-5,5,3,0,2
1537904872279919,-2,0,4,6,-3,0,1,2
1537904872285902,-1,2,9,-4,-4,-2,-4,-2
1537904872285902,-2,7,-7,1,1,0,-1,2
1537904872301860,-1,-13,8,0,-4,-2,0,-2
1537904872301860,-2,2,-1,2,4,2,0,0
1537904872307844,-1,-9,-10,-2,-3,-1,0,1
1537904872307844,1,-10,-1,-3,3,1,-1,-2
1537904872339758,0,4,3,1,-5,-1,-2,1
1537904872339758,-1,12,13,4,0,-1,-3,-3
1537904872339758,0,-4,-16,8,2,-1,1,1
1537904872339758,1,-16,-1,-3,8,1,0,2
1537904872346740,-4,-4,-2,1,-14,-6,-3,-2
1537904872346740,-1,-4,5,0,-1,-2,-1,-2
1537904872346740,3,18,11,4,4,1,1,0
1537904872346740,-4,-17,-3,-2,4,0,-1,0
1537904872378655,2,19,2,0,-6,-3,-2,1
1537904872378655,-1,-13,-13,-4,2,0,-1,-2
1537904872378655,0,19,3,-3,-1,0,-1,1
1537904872378655,3,1,5,1,-1,1,0,0
1537904872391620,-1,0,8,-1,-2,-1,-1,0
1537904872391620,-2,-1,-16,-4,-5,-1,-1,-1
1537904872391620,2,8,6,0,-2,-1,1,1
1537904872391620,-1,5,1,-5,-3,-2,-4,-3
1537904872413561,-1,-7,2,5,5,2,0,1
1537904872413561,0,-8,9,4,2,-1,-3,-2
1537904872414559,-1,4,-18,-6,-1,-2,-1,-1
1537904872414559,-2,-6,-19,-2,-2,-2,-2,-1
1537904872430516,1,7,34,-10,0,-2,1,-1
1537904872430516,-1,-12,-9,8,3,0,0,-1
1537904872430516,-2,-2,-4,-2,1,0,-2,-2
1537904872430516,-2,0,10,-2,-5,-4,-2,-3
1537904872451460,1,-2,-12,-1,4,1,0,-3
1537904872451460,3,16,9,-3,-1,1,0,-1
1537904872451460,-1,13,10,0,-5,-2,-4,-3
1537904872451460,-2,4,-7,0,-1,0,0,1
1537904872465423,2,-5,-6,5,1,-1,-1,0
1537904872465423,-3,-1,14,-7,-2,-1,-2,1
1537904872473401,-3,2,-13,-3,0,0,0,-1
1537904872473401,0,-6,2,7,-3,0,0,1
1537904872488361,-1,-11,-1,-12,-5,-3,-1,-2
1537904872488361,1,35,-10,10,2,0,1,-1
1537904872489359,-5,-30,7,-7,-7,-2,-1,-1
1537904872489359,-2,6,5,3,0,-2,-1,-5
1537904872511300,-1,3,3,3,-1,-2,-2,1
1537904872511300,-1,-11,-8,-8,-1,-2,-2,-1
1537904872512297,1,2,-7,-3,-2,0,-1,0
1537904872512297,2,7,7,2,-1,0,1,0
1537904872525262,-3,-5,-22,-4,1,2,0,-1
1537904872525262,1,-4,28,0,-2,-2,-1,-1
1537904872533241,0,12,-24,1,5,1,0,2
1537904872533241,1,2,3,-3,-1,0,-1,-1
1537904872549198,-1,-4,4,3,-1,-4,-1,-2
1537904872549198,0,-2,-11,-2,0,1,0,0
1537904872549198,-1,-22,21,2,3,3,0,-1
1537904872549198,-2,3,-13,-1,0,2,0,-3
1537904872578122,0,-8,-2,3,2,-3,-2,-2
1537904872578122,0,5,12,-1,-4,-3,-3,-2
1537904872587097,-2,-25,-36,-4,-1,1,1,-1
1537904872587097,-3,-1,21,0,-2,-4,0,0
1537904872588095,-2,5,-9,-4,-1,0,-2,-1
1537904872588095,1,1,-32,-11,3,1,1,0
1537904872593081,-5,-7,7,15,-3,-1,0,-2
1537904872593081,-2,0,9,-15,-4,-1,-2,-1
1537904872617017,-2,-13,4,3,-3,-4,-2,-3
1537904872617017,0,-2,-6,-4,-4,-3,-2,0
1537904872618015,-2,7,0,-2,-1,-3,0,-3
1537904872618015,0,-8,5,7,3,1,1,-1
1537904872630980,-1,11,-8,-1,1,2,-1,0
1537904872630980,-1,-6,-6,2,-1,1,-1,-1
1537904872631978,1,6,10,-7,-4,-2,-3,0
1537904872631978,0,0,-6,3,0,-2,-1,1
1537904872653919,1,3,6,0,-1,1,0,-1
1537904872653919,-2,-7,-7,-5,3,-2,0,-1
1537904872654917,3,-2,-14,-6,-1,-1,0,0
1537904872654917,-2,4,-5,0,-6,-4,-1,-2
1537904872668879,0,5,-4,1,-1,1,1,-1
1537904872668879,-1,-3,14,2,-1,0,1,-1
1537904872669877,-1,-7,2,-1,-1,-2,-1,1
1537904872669877,2,2,-6,-5,3,2,0,0
1537904872691819,-1,-5,2,0,0,-3,-1,-1
1537904872691819,1,12,1,1,2,1,1,2
1537904872691819,0,0,10,-2,-4,-1,0,-2
1537904872691819,-2,10,-7,0,1,0,-2,0
1537904872706778,0,6,3,3,1,2,1,2
1537904872706778,0,-9,3,-2,-8,-5,-2,1
1537904872712764,2,15,15,10,2,1,-1,0
1537904872712764,0,-6,-9,-10,0,1,1,-1
1537904872728721,1,33,10,-2,-3,-2,1,-1
1537904872728721,-5,-37,-3,-2,-2,-4,-2,-3
1537904872729718,2,10,-9,-8,-1,0,-1,0
1537904872729718,-5,-26,-6,1,-4,-3,-2,-2
1537904872751659,1,7,-10,-7,-3,-1,-1,0
1537904872751659,-1,4,-2,6,1,2,0,-2
1537904872751659,0,6,26,-3,-2,-2,0,0
1537904872751659,0,-1,-13,8,2,2,0,0
1537904872766618,-1,-13,-4,-13,-4,-3,-4,-2
1537904872766618,-1,0,-3,0,-2,-4,1,-1
1537904872772602,-2,-3,0,-2,-1,1,-1,-1
1537904872772602,0,8,2,-2,-3,-1,-1,-1
1537904872790554,-2,-15,-5,3,-1,-1,-1,0
1537904872790554,0,16,-7,-4,-1,1,0,-1
1537904872790554,-1,3,0,-2,2,-2,-3,-2
1537904872790554,1,-4,3,-6,1,4,0,0
1537904872811498,0,0,-8,4,0,-3,-2,-1
1537904872811498,1,1,6,-4,-2,0,-1,0
1537904872811498,1,3,-9,4,-2,-2,-1,0
1537904872811498,-1,3,-5,0,1,0,-1,1
1537904872827455,0,-15,1,0,3,2,0,-1
1537904872827455,-2,7,2,-2,-2,-1,-1,-2
1537904872833439,-3,-19,-3,-7,-5,-1,-3,-2
1537904872833439,1,10,43,8,-3,-3,-3,-2
1537904872848399,0,-1,-44,-4,0,-1,-2,-1
1537904872848399,-2,8,-1,-3,0,0,-1,0
1537904872849396,-1,0,9,-2,-2,-3,0,-2
1537904872849396,-1,5,-10,-3,3,0,1,0
1537904872871338,-2,-11,13,4,0,1,-1,-1
1537904872871338,1,-4,-6,-3,2,2,1,0
1537904872872335,-1,3,4,-1,-3,-3,-2,1
1537904872872335,0,0,-10,-3,0,-3,-1,-1
1537904872894276,0,5,9,5,-1,-1,-2,-1
1537904872894276,-2,-1,-2,-1,2,-1,0,-1
1537904872901258,-1,1,-1,1,1,2,1,0
1537904872901258,0,5,5,1,3,-1,0,1
1537904872909236,-3,1,-1,-3,-3,-2,0,0
1537904872909236,-1,-17,11,-3,-3,-1,-1,0
1537904872909236,-2,-3,-23,0,-2,0,1,-1
1537904872909236,0,5,6,1,0,-2,-1,-1
1537904872931179,1,1,3,-1,-3,-1,-2,-1
1537904872931179,1,1,-5,-13,1,1,0,-2
1537904872932176,1,32,34,14,0,0,0,-1
1537904872932176,-3,-34,-45,-15,-6,-2,-2,-1
1537904872954117,-1,0,1,-1,0,1,2,1
1537904872954117,1,6,-1,8,0,0,-1,-2
1537904872954117,-2,-10,-6,-3,2,-1,1,-1
1537904872954117,-1,7,10,9,-2,-1,-1,-2
1537904872969076,-1,-5,13,1,2,-4,-2,1
1537904872969076,-1,-4,-22,-7,-4,0,0,0
1537904872969076,-3,-16,-17,-6,0,0,0,0
1537904872969076,0,11,13,9,3,-1,-2,-2
1537904872998996,-1,-2,-6,-6,1,2,0,-2
1537904872998996,-4,-6,12,9,1,-1,-2,-1
1537904872999994,0,12,0,-4,0,-2,-2,0
1537904872999994,-1,-25,-10,-13,-4,2,0,-1
1537904873013956,-1,9,9,9,-3,-1,0,-2
1537904873013956,1,10,-11,2,0,-2,-1,-1
1537904873014954,0,-12,-4,-2,0,1,2,0
1537904873014954,1,6,2,-4,-1,0,0,0
1537904873028916,-1,-6,4,0,0,-1,-1,-2
1537904873028916,-4,-5,0,9,-2,-1,-2,-1
1537904873029914,1,0,-7,-16,-4,-3,-2,-1
1537904873029914,1,0,-8,-2,-2,-1,-1,-1
1537904873050858,-1,0,8,-3,-2,-3,-1,-1
1537904873050858,-2,0,3,4,5,2,1,-1
1537904873051855,2,4,11,6,2,1,-2,-1
1537904873051855,-1,2,8,-3,-3,-3,-1,-2
1537904873073796,-2,-6,-10,-6,-1,1,0,0
1537904873073796,1,-1,5,3,2,2,0,1
1537904873074794,-2,-2,-2,2,2,0,-1,-1
1537904873074794,-2,0,11,3,0,-1,-1,0
1537904873088757,1,2,-19,-5,-1,-2,-2,-2
1537904873088757,-1,1,-9,1,2,-3,-3,-3
1537904873089755,-2,1,9,-3,-4,1,-2,-1
1537904873089755,0,2,-6,-1,3,1,0,0
1537904873111696,-2,10,21,6,3,1,-1,-1
1537904873111696,1,4,-3,-7,-4,1,-1,-1
1537904873111696,3,2,-5,5,-1,-2,-1,-2
1537904873111696,-1,7,-15,-4,-3,-2,-1,-1
1537904873133638,-3,-14,19,-2,-3,-2,-2,-1
1537904873133638,0,3,-22,-6,-2,-1,-2,2
1537904873134636,-5,-35,-4,2,1,-1,-1,-1
1537904873134636,2,33,4,-2,-1,0,0,1
1537904873148597,-2,-22,-18,-10,-3,-3,-1,-1
1537904873148597,-2,-2,8,4,-2,2,-2,-2
1537904873149596,0,5,6,-3,-1,-2,-1,-1
1537904873149596,-2,-1,-4,0,-1,-3,-2,-1
1537904873171538,1,-1,-7,4,0,0,0,1
1537904873171538,-1,-1,11,-2,1,2,0,0
1537904873171538,1,10,-12,-2,-1,-1,0,0
1537904873171538,-1,-3,0,-9,-8,-3,-2,-2
1537904873194474,-1,-6,7,1,0,0,0,-1
1537904873194474,-1,-5,-5,-4,-2,-4,-1,-1
1537904873218410,-2,0,-2,4,1,-2,-1,-2
1537904873218410,-2,-6,-2,2,-1,-3,-2,-1
1537904873219407,0,10,4,-5,-3,-1,-1,0
1537904873219407,1,7,9,0,-2,-3,0,-2
1537904873220405,-2,-6,-18,3,-1,0,0,0
1537904873220405,0,-5,20,2,-1,1,0,-2
1537904873240351,0,10,-34,-6,0,-1,-2,-1
1537904873240351,2,4,5,-5,-5,-2,0,-2
1537904873240351,-4,-21,4,-4,1,-1,-1,-1
1537904873240351,-2,22,8,1,-1,1,-1,-2
1537904873262294,0,8,-3,-1,-3,1,0,1
1537904873262294,-2,-3,1,3,1,0,1,-1
1537904873262294,2,5,-1,-5,1,3,-2,-1
1537904873262294,0,-8,-2,4,2,0,-1,0
1537904873277252,-2,-11,15,4,-1,-1,-2,-1
1537904873277252,-1,0,-24,-14,1,-1,0,0
1537904873277252,1,7,8,7,0,1,0,0
1537904873277252,-1,-20,-1,3,0,-1,1,1
1537904873290218,2,10,12,0,2,-2,0,-2
1537904873290218,-1,-7,-1,2,0,0,0,-1
1537904873298197,1,26,-7,-6,-3,-3,0,-2
1537904873298197,-1,-27,-4,-4,1,1,-1,1
1537904873314156,0,22,-4,1,0,0,-1,-3
1537904873314156,0,10,4,-5,-2,0,-1,0
1537904873314156,-1,4,3,1,-1,1,-1,0
1537904873314156,-2,-5,4,-1,2,2,-1,-2
1537904873344075,1,4,-17,0,-6,-3,-3,-1
1537904873344075,-3,-10,-10,-4,0,-4,-3,-1
1537904873345074,0,-1,2,3,-2,-1,-2,-1
1537904873345074,-1,1,3,8,-1,0,-2,-1
1537904873359035,-2,-20,0,-7,-1,1,1,1
1537904873359035,2,10,11,5,2,2,-1,0
1537904873360032,0,-2,-7,-4,-2,-2,-2,-1
1537904873360032,0,2,-7,-4,1,0,2,1
1537904873381973,-1,3,9,-3,-3,0,-1,0
1537904873381973,-3,-8,-3,8,0,0,-2,-2
1537904873382970,-1,-1,8,-5,0,2,0,0
1537904873382970,1,10,5,1,-6,-3,-2,-2
1537904873396933,0,-8,-20,-6,-1,-1,1,-1
1537904873396933,-1,-8,25,0,0,2,-1,-1
1537904873397930,0,9,-27,2,1,-1,-1,-1
1537904873397930,0,-2,-1,-13,1,-1,0,0
1537904873419871,-2,13,9,4,-2,-1,-1,0
1537904873419871,-4,-27,-2,1,-4,-3,-1,-1
1537904873419871,-1,-2,7,-1,-2,-1,0,-3
1537904873419871,2,-4,-15,-1,2,2,0,-1
1537904873433834,-2,4,13,-3,2,-1,-3,0
1537904873433834,-1,-2,-8,7,1,0,0,1
1537904873434832,0,3,3,-14,-6,-2,-1,-1
1537904873434832,-2,-10,-8,1,2,-1,-2,-1
1537904873455776,-1,-6,7,1,-2,-1,2,-1
1537904873455776,1,26,-3,-4,-1,-1,0,-2
1537904873463755,1,-6,0,4,2,-1,1,0
1537904873463755,0,2,7,1,-2,-3,-1,0
1537904873478714,0,-12,-6,1,1,1,0,1
1537904873478714,-1,5,-6,-2,-3,-3,-1,1
1537904873486693,-3,-6,0,-5,-8,-3,-1,0
1537904873486693,-2,4,-1,2,2,0,-3,-1
1537904873493674,-1,-7,-8,4,0,-1,-1,-1
1537904873493674,0,-1,-1,-5,-1,0,0,-3
1537904873494672,-1,-10,2,-1,2,0,-1,1
1537904873494672,-3,-1,-3,-3,-2,-3,-1,-1
1537904873516612,2,6,18,-5,-2,0,-1,-2
1537904873516612,3,-2,-21,-1,-5,0,0,0
1537904873517610,-2,-5,-6,4,4,1,0,-1
1537904873517610,1,3,0,0,-5,-2,-3,-1
1537904873539551,-3,-1,-7,-8,-2,1,-2,1
1537904873539551,2,6,15,4,-2,-3,-1,0
1537904873540549,0,-2,-1,-2,-1,-1,-1,-2
1537904873540549,-3,2,-4,-1,-1,-4,0,-1
1537904873553514,-1,9,-4,6,1,0,0,-1
1537904873553514,-1,-10,3,0,1,-1,-3,0
1537904873554511,1,-2,-3,-3,-1,0,1,0
1537904873554511,1,9,-2,2,-2,-2,-1,-2
1537904873576453,-4,-11,-8,-4,-3,-4,-1,-2
1537904873576453,-1,2,-7,0,1,3,1,0
1537904873577450,-1,-3,9,3,-1,-2,0,0
1537904873577450,0,-1,-2,-9,-3,0,-1,0
1537904873599391,1,-4,-13,5,-2,-1,1,0
1537904873599391,0,5,6,0,1,0,-2,-1
1537904873600389,-5,-7,-2,0,0,0,-1,-1
1537904873600389,-1,1,-4,-2,-4,-3,-1,-1
1537904873613354,-1,-12,4,2,1,-1,-2,1
1537904873613354,0,0,2,-5,-2,-1,0,0
1537904873614352,0,4,11,-1,-2,1,-1,-1
1537904873614352,1,-5,-11,-5,2,1,0,1
1537904873637290,-1,6,13,2,-2,-1,-1,-1
1537904873637290,-1,-5,-14,-1,1,-1,-2,-1
1537904873638288,1,8,-1,-3,1,0,0,0
1537904873638288,1,-5,-14,2,-1,0,1,-1
1537904873659231,-4,-6,9,-5,-1,-1,-3,-1
1537904873659231,-3,-3,2,-1,-1,-2,0,-2
1537904873661226,0,5,3,4,1,-1,-1,-1
1537904873661226,1,-7,15,7,2,1,0,1
1537904873673194,0,11,-21,-10,-3,-3,-2,0
1537904873673194,-3,-3,4,5,0,-3,-2,0
1537904873682170,-1,-2,-1,-7,2,0,-2,1
1537904873682170,-5,-31,4,1,-4,-1,0,0
1537904873697130,1,6,-11,0,-1,0,1,0
1537904873697130,0,-2,-7,-3,1,0,-1,0
1537904873698127,-1,-3,12,0,-1,-3,-3,0
1537904873698127,1,6,-11,1,2,0,1,1
1537904873719071,0,17,5,2,0,1,0,-2
1537904873719071,0,-10,13,-3,0,1,-1,-1
1537904873721066,0,8,-22,1,-4,-3,0,-2
1537904873721066,-3,-8,3,-3,-1,1,-2,-1
1537904873733034,0,-4,0,1,1,0,-1,0
1537904873733034,0,2,2,-1,-3,-1,-2,0
1537904873742010,0,2,5,1,-3,-1,-1,-1
1537904873742010,-2,-2,-2,-4,-1,-1,-2,-2
1537904873763951,1,4,3,-2,0,1,0,0
1537904873763951,0,0,3,15,2,-1,0,-1
1537904873765946,-3,-16,-13,-12,-7,-2,0,-1
1537904873765946,3,22,-9,-1,-3,-2,-2,-1
1537904873778912,-1,3,-7,2,0,-1,0,1
1537904873778912,-3,-3,12,-1,0,-1,-2,-1
1537904873780906,-1,-17,-13,2,2,0,0,-2
1537904873780906,-2,9,9,0,0,-2,0,-1
1537904873792874,2,27,8,2,2,-1,-1,0
1537904873792874,-4,-24,-13,-12,-1,-1,1,0
1537904873801850,0,1,8,3,1,0,-1,-2
1537904873801850,-2,-12,-2,4,2,0,-1,0
1537904873816810,-1,10,-4,-4,-2,1,0,0
1537904873816810,1,3,-7,-9,-1,-3,-1,0
1537904873818805,-1,-4,1,-2,-3,-1,-2,-1
1537904873818805,-1,3,2,-2,-2,0,1,0
1537904873839749,-2,-11,6,0,0,-2,-3,-3
1537904873839749,0,-7,-4,-1,-1,1,-1,-1
1537904873840746,-1,3,-7,-3,-2,-1,-1,-1
1537904873840746,0,4,4,2,-2,0,-2,0
1537904873852714,-2,-11,-5,2,3,2,0,-1
1537904873852714,-1,-1,-2,-2,-5,-2,-2,-1
1537904873861690,-1,2,8,5,3,1,0,0
1537904873861690,0,1,-5,-13,-7,-2,-2,-1
1537904873876650,-2,-15,-11,-4,0,0,-2,-2
1537904873876650,-3,4,7,2,1,0,1,-1
1537904873878645,0,-1,3,0,1,-1,-1,1
1537904873878645,2,10,1,0,2,1,1,-1
1537904873899589,0,-9,5,0,0,0,0,0
1537904873899589,0,6,-7,-3,-3,-1,0,-2
1537904873900586,0,12,6,3,2,-1,1,1
1537904873900586,-1,-2,-1,-2,2,0,1,0
1537904873913552,-2,-8,-16,0,-4,-1,-1,-1
1537904873913552,0,4,3,-2,-2,-2,0,-2
1537904873921530,0,14,-4,-1,-1,0,-2,-2
1537904873921530,-1,11,17,-5,-8,-8,-2,-1
1537904873936490,1,-20,-6,7,0,-1,-2,-1
1537904873936490,-4,-10,-21,-8,-1,0,0,-1
1537904873938485,1,1,3,4,2,-2,-3,-2
1537904873938485,-5,-17,-1,4,6,2,0,0
1537904873959429,0,2,4,-12,-5,-3,-4,-1
1537904873959429,-2,11,-1,3,-1,-2,-2,1
1537904873960426,0,-4,1,-2,-2,-1,0,-1
1537904873960426,0,-2,0,3,-1,1,-2,-2
1537904873973391,-4,-7,-4,-4,-2,-2,-1,-1
1537904873973391,-1,3,3,4,0,1,-1,0
1537904873982368,0,17,1,-8,-5,-2,0,0
1537904873982368,-1,-8,4,2,-1,1,-1,0
1537904873997327,0,9,-12,1,0,-1,0,0
1537904873997327,-1,0,3,-3,2,1,0,-3
1537904873998325,0,-5,6,5,-1,-3,-3,0
1537904873998325,-1,-9,-7,-5,-1,-1,-1,-2
1537904874019269,-3,-11,4,0,0,0,-2,-1
1537904874019269,-1,6,5,2,2,1,0,0
1537904874021264,-3,-16,-10,-7,-1,0,0,-1
1537904874021264,0,4,5,5,0,-3,-1,-2
1537904874042207,-2,3,-4,2,1,-1,1,-1
1537904874042207,0,-2,-2,-1,2,0,0,0
1537904874043205,-2,-3,2,-1,0,0,-1,0
1537904874043205,0,6,-5,1,3,2,0,1
1537904874057167,0,4,8,-1,-4,-3,1,-1
1537904874057167,-1,-4,1,-4,-1,-2,0,-1
1537904874058165,1,-1,-12,-7,-5,-2,2,0
1537904874058165,-1,-2,2,-1,2,-1,-1,0
1537904874079109,0,-2,7,6,-1,-1,1,-2
1537904874079109,0,-2,-19,3,2,-1,-2,-2
1537904874081104,-2,-5,4,-3,-1,1,-3,-1
1537904874081104,0,1,-5,-4,-3,-2,0,-1
1537904874093072,-2,4,9,1,1,2,0,0
1537904874093072,0,3,-6,-9,-7,-3,0,0
1537904874109030,-2,-10,2,7,1,0,-1,-1
1537904874109030,-2,6,-1,-3,-1,3,1,0
1537904874117009,-1,-4,-1,-1,-2,0,1,0
1537904874117009,-4,-39,2,4,-2,-1,0,-1
1537904874118007,2,27,-15,-8,-2,-2,0,-1
1537904874118007,-2,-23,-3,-1,0,0,-1,-2
1537904874139947,0,0,12,1,-3,-2,1,0
1537904874139947,1,2,-9,-4,0,0,0,1
1537904874140946,-2,-22,4,2,-3,-1,0,-1
1537904874140946,-1,1,-1,2,-3,-3,-1,-1
1537904874152913,0,1,-8,-1,0,-1,-2,-2
1537904874152913,-1,5,16,1,-2,-1,-1,-1
1537904874169869,-4,-6,-1,3,1,0,-1,0
1537904874169869,-1,8,-5,-3,0,1,2,0
1537904874176850,2,-3,-1,9,1,-1,-1,-1
1537904874176850,0,9,3,-14,-1,1,-1,0
1537904874178844,-2,-1,-1,5,0,-1,-1,-1
1537904874178844,0,-2,0,1,-2,-2,-1,-3
1537904874199788,-1,2,8,-9,-4,-2,-2,0
1537904874199788,1,12,-8,5,0,2,0,1
1537904874200787,0,5,-11,-5,1,1,-1,0
1537904874200787,1,-3,0,-2,-3,-1,-1,0
1537904874212754,-1,13,1,2,2,0,-1,-1
1537904874212754,-2,2,-1,-2,-2,-1,0,-2
1537904874221728,-1,-12,5,-3,-1,-1,1,-2
1537904874221728,-1,2,0,0,-1,-2,-1,0
1537904874236689,-1,-2,-7,-4,-2,-1,-2,0
1537904874236689,-2,-3,3,4,0,0,-1,-2
1537904874238683,-3,-1,-6,0,-2,0,-1,-3
1537904874238683,-1,-1,-3,-1,-2,-1,-2,-1
1537904874266608,-2,-11,-5,-5,1,1,1,-2
1537904874266608,2,6,-4,-1,-9,-3,1,0
1537904874268603,1,-9,17,4,2,-2,-1,0
1537904874268603,-3,-1,-8,-7,-2,-3,-1,-2
1537904874272593,0,9,9,2,-1,-1,-2,-1
1537904874272593,-3,-5,-15,-2,-2,-2,1,-2
1537904874281569,-2,-12,1,3,-1,-1,0,0
1537904874281569,1,1,1,-3,-1,-1,0,1
1537904874296528,0,-7,-5,-5,-4,-5,-2,-2
1537904874296528,-1,0,-2,2,0,0,-1,-1
1537904874298523,-1,-13,-5,-2,-1,-1,-2,-1
1537904874298523,-1,3,-3,-3,0,-1,-1,-1
1537904874319466,0,-6,0,-2,5,4,1,0
1537904874319466,0,15,11,-1,-2,-1,-2,-2
1537904874320464,-2,-15,-4,-3,-3,-2,-2,-3
1537904874320464,1,7,2,9,2,-1,0,-1
1537904874341408,-1,-3,-7,-1,1,3,0,-1
1537904874341408,0,-1,-16,2,-1,-2,-1,-2
1537904874348389,0,6,9,1,-3,-1,-1,-1
1537904874348389,1,-1,2,7,-1,-2,-2,-1
1537904874357365,-1,-9,-3,-11,1,-1,-1,0
1537904874357365,-1,-1,12,5,0,0,0,1
1537904874358363,3,13,-9,-1,1,1,-1,0
1537904874358363,-1,-14,-1,-3,-2,-1,1,0
1537904874387285,1,5,0,8,-1,-2,-1,-2
1537904874387285,-1,-3,-1,-2,1,1,-1,-2
1537904874388283,-1,6,1,-1,0,1,-2,-2
1537904874388283,-2,2,0,-1,2,0,0,0
1537904874402245,-1,-11,8,2,-6,-3,0,-1
1537904874402245,1,6,-6,-2,3,0,0,0
1537904874403243,0,7,6,-1,-7,-5,-1,-1
1537904874403243,1,11,-11,-4,-1,-2,-1,0
1537904874417205,0,4,-7,-11,-1,-2,-1,-2
1537904874417205,-1,-2,11,8,4,0,-2,1
1537904874419200,-2,1,-2,-3,-1,-1,-2,0
1537904874419200,1,1,0,5,-1,1,-2,-1
1537904874439147,0,-1,-7,-2,-4,-1,2,1
1537904874439147,1,0,14,2,1,0,-1,-2
1537904874441142,-1,5,2,2,2,-1,-2,-2
1537904874441142,-1,-10,-27,-15,-2,0,-1,-1
1537904874462086,0,6,-4,4,1,0,-1,-1
1537904874462086,-1,-11,2,-5,-2,-1,-2,-2
1537904874463083,2,17,3,7,1,-1,0,1
1537904874463083,-3,-7,11,4,-2,0,0,-3
1537904874476048,-1,11,-2,-5,-4,-1,-1,-1
1537904874476048,-3,-2,-4,1,-1,-2,-2,0
1537904874491008,0,-4,-11,-5,0,1,0,0
1537904874491008,-3,-3,3,0,-2,-3,1,-3
1537904874498987,0,1,1,-2,0,0,-2,0
1537904874498987,-1,-6,-3,0,0,-1,-1,-1
1537904874500982,-2,-8,6,-5,-3,-3,0,-1
1537904874500982,-2,-2,-1,-4,-6,-1,-3,-1
1537904874521925,-1,-2,-4,11,3,-2,-1,-2
1537904874521925,-3,-12,0,-10,-2,0,0,-1
1537904874522923,-1,3,-5,0,0,0,-2,-2
1537904874522923,0,3,3,-1,0,0,0,0
1537904874535888,-2,-6,0,-4,0,1,0,-3
1537904874535888,1,7,5,9,-1,-4,1,2
1537904874542869,-2,-4,-21,-5,-2,1,-1,-1
1537904874542869,-3,-7,18,-2,-1,-1,0,-1
1537904874566805,1,14,-3,3,-1,-1,-2,-3
1537904874566805,-3,-1,-6,-3,-2,0,0,-3
1537904874568800,2,3,-6,-1,-2,-1,1,1
1537904874568800,0,1,6,5,1,1,-3,0
1537904874598721,-3,-9,-8,0,-2,-1,-1,-1
1537904874598721,0,5,1,-6,-3,-2,-1,-1
1537904874599720,0,-5,8,0,-1,-2,-1,0
1537904874599720,-1,-5,-11,1,-1,1,1,0
1537904874600717,-2,-1,8,-3,0,1,-2,1
1537904874600717,-2,-7,-5,0,-3,-3,0,-2
1537904874604707,0,-16,0,1,-2,0,1,0
1537904874604707,1,21,0,2,-1,-2,-1,-1
1537904874619665,0,-7,-3,0,0,0,0,1
1537904874619665,-2,4,2,-5,-1,0,-1,-1
1537904874620663,0,4,1,0,2,1,-1,0
1537904874620663,0,-8,2,-4,-2,-3,-1,-1
1537904874640609,-2,-8,-2,4,-1,-1,0,-2
1537904874640609,0,-3,-8,-11,-2,0,-2,-1
1537904874649584,-3,0,20,1,-1,-2,0,-3
1537904874649584,3,18,-16,0,0,0,-1,-1
1537904874656565,-3,-7,3,-2,-1,0,2,0
1537904874656565,0,5,0,-2,-4,-1,-1,-1
1537904874662550,0,7,1,2,-2,0,-4,-1
1537904874662550,-2,-22,2,1,3,-2,0,-1
1537904874679504,-1,-3,4,-5,-1,-1,-1,1
1537904874679504,-2,0,-3,-2,-2,0,0,0
1537904874680501,0,0,-4,-6,1,-1,0,0
1537904874680501,-3,-8,-4,2,-1,-1,-1,-1
1537904874701445,0,6,0,-1,-3,0,0,1
1537904874701445,0,-3,15,2,-1,-3,-1,0
1537904874703440,0,-7,2,4,4,3,1,0
1537904874703440,-1,-4,-14,-4,-1,0,-1,-1
1537904874716405,-1,-4,-3,-7,-1,-3,1,-1
1537904874716405,-1,9,0,1,-2,-1,-3,-2
1537904874730368,-1,-3,-2,-2,0,-2,-1,-1
1537904874730368,-1,4,2,-1,0,0,0,0
1537904874739344,0,4,3,-5,-7,-3,-2,0
1537904874739344,0,-9,2,4,2,0,-3,-2
1537904874740341,0,8,-7,1,0,-2,0,-1
1537904874740341,-2,-12,0,-3,-4,2,0,-2
1537904874769264,-4,-3,-6,2,-1,0,-3,-3
1537904874769264,2,12,-2,-1,0,-4,0,0
1537904874771259,-3,-13,-9,-4,-2,0,1,-1
1537904874771259,1,16,9,-5,-2,0,0,-1
1537904874776246,-2,0,13,15,0,-3,-2,0
1537904874776246,0,-4,-23,0,-3,0,0,-1
1537904874783227,-3,-10,1,1,-3,-2,-2,-1
1537904874783227,-1,0,-4,-9,-5,-2,-1,-1
1537904874799186,0,-1,13,-4,1,-1,-1,0
1537904874799186,-3,-1,1,0,3,-2,-2,0
1537904874801181,-4,-13,0,-3,-1,2,-1,-2
1537904874801181,-1,2,-3,5,4,0,0,0
1537904874822124,-1,0,-13,-12,-5,-2,1,-1
1537904874822124,-1,-6,6,7,2,1,-1,-1
1537904874823122,0,-1,-7,-12,-3,-1,-2,1
1537904874823122,1,6,6,8,2,-2,-1,-1
1537904874836089,1,6,5,0,0,0,0,-1
1537904874836089,-4,-24,-12,-4,-2,0,-1,-2
1537904874844066,0,10,5,3,0,-3,0,-2
1537904874844066,-4,-6,-5,-1,-3,-3,-1,-1
1537904874859025,0,-1,-11,7,3,0,-1,2
1537904874859025,1,10,6,-1,-3,-2,-2,0
1537904874861020,0,3,6,1,-2,0,-1,-1
1537904874861020,1,2,-10,-5,0,1,-1,0
1537904874881963,1,-15,-8,-3,-2,0,0,0
1537904874881963,0,12,-2,-2,1,-1,-1,0
1537904874882961,-2,-3,-10,-3,0,-2,-1,0
1537904874882961,0,-1,5,-3,-5,-2,-2,-1
1537904874895926,-1,-5,11,3,-2,-2,-1,0
1537904874895926,-1,-4,-6,2,1,1,1,-2
1537904874904902,-2,2,2,0,-1,0,-1,0
1537904874904902,-1,-1,-14,-4,0,-1,-1,1
1537904874926845,-1,5,3,-1,-2,-1,-1,-1
1537904874926845,-2,-8,-3,-1,-3,-3,-2,-1
1537904874928839,-1,-9,1,-2,-4,-2,0,-1
1537904874928839,-3,-12,3,-1,-6,0,0,-1
1537904874941804,-3,-5,-6,-2,-1,0,0,-2
1537904874941804,0,5,3,2,-1,2,3,0
1537904874943800,-1,3,9,-1,-1,0,0,-1
1537904874943800,-1,-10,2,-2,0,-3,0,-4
1537904874955766,-2,-5,-6,-2,-1,-2,-2,-2
1537904874955766,1,1,2,-5,0,0,0,0
1537904874981697,-3,-6,-14,3,-1,1,-1,-2
1537904874981697,1,-2,3,2,3,1,-3,0
1537904874981697,2,8,2,4,0,-1,1,-2
1537904874981697,-1,5,10,-1,-2,1,-2,0
1537904874985686,1,6,-10,-2,2,-1,0,0
1537904874985686,-5,-12,3,3,3,-1,-2,-4
1537904875009621,2,13,2,-4,-2,0,-1,1
1537904875009621,0,0,14,-5,-4,-3,-1,1
1537904875010619,2,21,-10,2,-2,-1,0,-2
1537904875010619,0,-5,10,0,-1,1,0,1
1537904875015605,-3,-3,-7,-3,-2,-3,-1,0
1537904875015605,1,0,0,-2,1,0,0,0
1537904875024582,1,-7,-2,-2,-2,-2,-2,0
1537904875024582,0,16,3,2,-1,-3,0,-2
1537904875046523,-1,-8,-14,-2,2,2,1,0
1537904875046523,-1,-1,8,3,-2,-2,-1,0
1537904875048518,-1,4,-9,-2,1,-1,0,-1
1537904875048518,1,-10,1,2,2,0,-1,1
1537904875061483,-4,-9,0,-1,2,2,-1,-3
1537904875061483,-2,-3,-2,-7,-3,-3,-3,-1
1537904875063478,-1,0,6,5,-1,2,-1,0
1537904875063478,-1,3,-12,-6,-1,-3,-1,-2
1537904875075445,-2,6,-2,2,0,-1,-2,-2
1537904875075445,-1,-1,-9,-6,-2,-2,-1,0
1537904875084421,-3,-14,12,-2,-4,-2,-1,-1
1537904875084421,0,3,-6,-2,-1,0,1,-1
1537904875099381,1,3,8,1,2,-1,-2,-1
1537904875099381,-1,-2,-12,1,-1,-1,-1,-2
1537904875100379,-1,9,7,1,0,-4,-2,1
1537904875100379,-2,-7,1,-4,-3,0,-1,0
1537904875122320,2,1,3,-3,0,-2,0,0
1537904875122320,0,-4,-1,3,2,2,0,-2
1537904875123318,0,-9,-1,1,2,1,0,-1
1537904875123318,0,12,0,1,-2,0,-1,0
1537904875144262,-3,-3,-5,-6,0,1,0,-1
1537904875144262,-2,-6,5,8,-2,-3,-2,-2
1537904875146256,-2,-6,-26,-8,-1,0,0,0
1537904875146256,0,6,16,5,-3,-1,0,-2
1537904875159222,-1,-5,-1,-4,-3,1,-2,-1
1537904875159222,-2,1,-4,6,5,0,1,1
1537904875161217,1,4,2,-7,-2,-1,1,-1
1537904875161217,-2,-3,1,-5,-2,-1,-2,-1
1537904875182160,-3,-1,1,2,-2,-3,1,-1
1537904875182160,-3,1,0,-3,-1,0,0,-2
1537904875183158,3,-3,-14,-2,2,1,-1,-1
1537904875183158,-2,0,14,2,-2,-1,0,-1
1537904875195126,0,-5,-18,-5,-3,-2,0,-1
1537904875195126,0,5,-1,1,1,1,-2,-2
1537904875204102,0,8,14,-1,-1,-2,-1,-2
1537904875204102,0,-6,-7,2,4,1,-1,1
1537904875219062,-2,9,2,4,0,-2,-2,0
1537904875219062,-1,1,-2,-6,-3,-2,-1,-2
1537904875221057,0,3,0,-2,-2,-1,0,-1
1537904875221057,0,-1,-10,-3,-1,-2,2,1
1537904875242001,-2,-3,13,4,-1,0,-1,-1
1537904875242001,2,7,-6,-1,0,1,-3,-1
1537904875247984,-2,-10,2,1,-1,-2,-2,-1
1537904875247984,-1,1,-4,-4,-1,-2,1,0
1537904875263942,0,-1,0,1,3,3,0,2
1537904875263942,-3,-20,-4,-6,-1,-2,1,-1
1537904875265936,-1,15,5,-1,-3,-2,-2,-1
1537904875265936,3,-8,-12,12,0,0,-1,-2
1537904875286880,-3,-5,-2,-3,0,1,0,0
1537904875286880,0,-3,11,3,1,1,-1,0
1537904875287878,-2,-6,-12,-4,0,2,0,0
1537904875287878,-1,10,1,-1,-2,0,0,0
1537904875301840,-1,-9,-3,1,-1,0,-1,-2
1537904875301840,1,7,2,-6,-2,-1,1,0
1537904875303835,-2,-11,5,0,-2,-3,-1,-3
1537904875303835,-2,6,-7,-3,-2,-2,-1,-1
1537904875324779,0,4,2,5,-1,-1,3,-1
1537904875324779,-3,-7,-9,-3,-1,2,-1,0
1537904875325776,1,7,8,1,0,0,2,-1
1537904875325776,-3,-6,-19,2,5,1,-2,-1
1537904875339739,1,6,2,-4,-2,-2,0,0
1537904875339739,-1,14,10,4,-4,-4,1,-1
1537904875340736,-1,-9,-14,0,0,-3,2,0
1537904875340736,0,13,12,-7,2,2,1,1
1537904875361681,0,5,-5,7,-3,-3,0,-1
1537904875361681,1,9,8,-4,-1,-1,-2,-2
1537904875363675,0,-1,1,5,-1,-2,-1,-1
1537904875363675,-1,2,3,-4,-1,-2,-2,0
1537904875391600,1,4,-7,0,2,0,-2,-1
1537904875391600,0,-5,-6,-2,-1,0,-1,0
1537904875393595,-2,-12,4,-1,0,0,0,0
1537904875393595,-3,-10,1,-1,-2,0,-1,-1
1537904875398582,1,-5,0,-5,-3,-3,-3,-1
1537904875398582,-1,-4,-6,-5,-1,-1,-2,-1
1537904875405563,-1,-16,-3,-2,-4,-3,-1,-1
1537904875405563,-2,6,10,-2,-4,-1,-2,-2
1537904875420523,2,-1,-28,-6,-1,-2,-2,-3
1537904875420523,-4,-15,0,-5,1,0,2,0
1537904875429499,1,9,1,5,-1,0,-2,-1
1537904875429499,-1,5,7,4,-1,0,-2,-1
1537904875444459,-3,-4,2,-4,-2,-3,-2,-4
1537904875444459,-2,-12,-10,-7,-1,-3,-1,0
1537904875445457,-1,2,5,0,-3,-2,0,-1
1537904875445457,1,-5,4,-2,0,-1,2,1
1537904875458422,-1,0,23,-4,-6,-1,0,1
1537904875458422,0,5,-28,9,-1,-3,0,0
1537904875465404,-2,-2,-2,-1,3,1,-2,-2
1537904875465404,0,-12,0,2,0,-1,-2,-1
1537904875482358,0,-8,-3,-4,2,1,0,-1
1537904875482358,-2,-1,28,3,0,1,1,0
1537904875483356,1,5,-19,-7,1,1,1,2
1537904875483356,-2,-3,-7,1,-3,-3,1,-1
1537904875504299,-3,-13,-2,0,0,-1,-1,-1
1537904875504299,-3,1,8,7,0,-1,-1,-1
1537904875506294,1,3,16,3,1,0,-2,-3
1537904875506294,-2,-4,-19,-10,-5,-1,-1,-1
1537904875527238,0,5,6,4,3,0,-1,-1
1537904875527238,1,5,-3,3,-1,-2,2,0
1537904875528236,-2,1,-9,-13,-5,-1,-1,0
1537904875528236,-2,-7,8,3,1,-1,-1,-1
1537904875542198,-2,3,2,-1,-6,-2,-1,-1
1537904875542198,-1,-14,-4,0,0,0,-1,0
1537904875543195,1,4,11,6,-1,0,0,-2
1537904875543195,-1,-5,-3,0,2,-2,0,0
1537904875564139,-1,1,-15,-3,0,0,-2,-2
1537904875564139,0,7,-1,-3,5,1,0,-3
1537904875566134,1,2,19,6,-10,-4,-3,1
1537904875566134,-3,-15,-26,-10,-4,2,3,0
1537904875579100,0,9,17,14,7,-1,1,-1
1537904875579100,1,3,-4,-6,-3,-4,-1,1
1537904875585083,-2,-1,23,8,1,0,-3,-3
1537904875585083,-1,3,-10,-1,-4,0,-1,-4
1537904875602038,-1,-5,-1,-22,0,-1,-1,0
1537904875602038,0,1,-8,38,2,-1,-2,-1
1537904875603035,-3,-8,-3,-4,-2,0,1,-1
1537904875603035,3,24,22,-9,2,0,-2,0
1537904875631958,-1,-1,12,-4,-12,-3,-2,-1
1537904875631958,-3,-13,-17,-6,4,0,1,-1
1537904875632955,-3,2,-38,-4,-2,-1,-2,-1
1537904875632955,-1,6,8,-1,1,-1,-1,-2
1537904875637942,2,1,-11,12,4,3,1,1
1537904875637942,-1,2,-6,-21,-6,-5,-3,0
1537904875646918,1,4,14,-2,-7,-2,-2,0
1537904875646918,-1,-4,-2,-7,-3,-4,-1,0
1537904875661878,-4,23,29,7,1,-1,-2,-2
1537904875661878,-2,-20,-29,-3,1,2,-1,-2
1537904875662875,-1,7,-11,-2,2,0,0,-2
1537904875662875,2,2,4,5,3,-1,-1,-1
1537904875684816,-2,-18,-4,-13,-9,-4,0,-1
1537904875684816,0,17,9,1,0,1,-2,-2
1537904875685814,0,-1,-3,-9,0,-2,0,0
1537904875685814,0,-11,12,11,-2,2,-1,-1
1537904875697782,-1,-10,-19,2,1,-1,0,0
1537904875697782,-1,-5,4,-7,0,0,-2,-1
1537904875706758,0,-9,-1,2,-3,-2,0,0
1537904875706758,-3,1,-3,-2,1,1,1,0
1537904875721718,0,9,9,5,2,-1,1,-1
1537904875721718,-1,-4,7,-8,2,2,0,-1
1537904875723714,-3,-4,-24,-2,-4,-1,-2,0
1537904875723714,2,10,26,11,-2,-4,-3,-1
1537904875744658,-2,-4,-4,-3,1,0,0,-1
1537904875744658,-1,-14,-8,-1,-2,-2,1,-1
1537904875745656,0,-1,8,-2,5,-1,0,-1
1537904875745656,-2,3,-13,-8,-4,-2,-2,-1
1537904875758621,3,3,3,10,2,0,-1,-1
1537904875758621,-2,1,10,-6,-7,-1,-2,1
1537904875774578,-2,-2,-30,-11,-2,0,0,-2
1537904875774578,1,-4,-4,4,-1,-4,0,1
1537904875781559,0,12,40,7,2,-1,-1,0
1537904875781559,2,5,3,-12,-6,0,0,1
1537904875783553,1,6,-2,17,11,6,2,0
1537904875783553,0,2,-12,-14,-8,-6,-5,-2
1537904875804497,-5,-15,-17,-4,0,1,1,0
1537904875804497,-1,-6,17,3,-3,-3,-2,0
1537904875805494,2,21,22,2,3,0,1,-1
1537904875805494,-1,-2,-15,6,6,4,0,0
1537904875818459,0,-14,2,-2,1,-2,-3,1
1537904875818459,-1,-6,-23,-5,-5,-3,-4,-2
1537904875826438,-1,21,21,-4,3,-1,0,1
1537904875826438,-5,-26,-1,10,-2,1,2,-4
1537904875841398,1,26,-5,-1,3,-3,1,0
1537904875841398,2,13,6,6,0,-1,1,1
1537904875843393,-1,-16,-5,-4,4,2,-1,-3
1537904875843393,-1,1,10,-3,-2,-1,1,0
1537904875864337,-3,-12,-17,2,3,2,0,-2
1537904875864337,-2,7,-10,3,6,0,0,-4
1537904875866331,-2,-25,-11,1,-2,-1,-1,0
1537904875866331,5,16,-8,-16,-20,-7,-3,-1
1537904875878299,-1,3,-6,3,1,-1,-2,-1
1537904875878299,1,9,10,0,5,1,1,1
1537904875887275,-1,-11,6,7,2,1,-1,1
1537904875887275,-2,-1,16,-4,0,-1,-3,0
1537904875909217,1,-11,-49,-18,-7,-1,0,0
1537904875909217,0,8,38,4,-3,-1,-1,-2
1537904875911211,-2,1,-8,-4,-1,-1,0,-1
1537904875911211,0,-4,-28,7,8,4,2,-1
1537904875924177,0,8,14,-8,-4,-1,-3,0
1537904875924177,-3,-6,-8,1,-1,-1,-2,0
1537904875926171,1,6,-4,-6,-3,-1,-3,-1
1537904875926171,-1,-1,26,11,6,1,0,0
1537904875947116,-1,-9,-20,8,-6,-1,-2,-2
1537904875947116,0,0,-14,-36,-26,-10,-2,-1
1537904875948113,-1,1,12,5,-1,-1,-1,-1
1537904875948113,-2,-4,-20,-3,5,2,0,0
1537904875961078,-1,13,11,-2,4,5,2,-1
1537904875961078,-1,-25,-4,8,-4,-3,-3,-1
1537904875968059,0,3,18,3,4,1,1,-1
1537904875968059,-3,-6,-33,-18,-12,-1,-3,-2
1537904875984017,-4,-1,6,8,0,-4,-1,-3
1537904875984017,-2,3,8,12,6,5,3,-1
1537904875986011,0,-3,-10,-5,1,0,-1,0
1537904875986011,-1,-2,11,8,-3,-3,-4,0
1537904875997979,1,-2,33,0,-4,-2,-1,-1
1537904875997979,-2,-9,-65,-14,-1,-1,1,1
1537904876013937,-3,-11,-1,1,0,-2,-1,-1
1537904876013937,1,3,5,1,4,0,0,0
1537904876020918,1,-9,14,-5,-3,-1,-1,0
1537904876020918,-1,-3,16,8,4,0,-1,-1
1537904876027900,-1,-2,-14,-2,3,2,1,0
1537904876027900,-3,-6,0,-4,0,-2,0,-1
1537904876051836,-3,-13,7,-5,-2,0,-1,-2
1537904876051836,1,14,-12,4,3,0,-1,0
1537904876052834,1,-10,-7,3,-4,-2,-1,2
1537904876052834,-1,-15,15,2,-1,0,0,-1
1537904876057820,-1,-38,7,-5,-2,-2,-2,0
1537904876057820,3,2,-47,9,6,1,-2,0
1537904876066795,-3,-54,22,1,-4,-1,0,0
1537904876066795,-1,20,-23,-6,5,1,0,0
1537904876080758,-2,18,30,11,2,0,-1,-2
1537904876080758,1,6,30,-8,-6,-1,-2,-2
1537904876087739,-1,-1,-18,2,-2,-3,-1,-2
1537904876087739,-1,2,5,0,3,1,-1,-1
1537904876104694,0,-24,-18,-1,-1,-2,0,2
1537904876104694,-8,8,23,8,3,0,-4,-11
1537904876105692,4,27,-1,-5,-2,-2,-1,3
1537904876105692,0,13,7,-5,-4,0,0,0
1537904876117660,-2,31,-15,-4,-3,-2,-2,-1
1537904876117660,-1,-13,-4,1,2,0,0,1
1537904876126635,-3,0,6,-8,-1,-1,0,-2
1537904876126635,-1,7,30,8,-5,-4,-4,-2
1537904876141596,0,-18,-52,-15,0,1,1,1
1537904876141596,3,4,6,3,2,0,1,3
1537904876165533,-2,-31,10,-1,-3,-1,-1,-4
1537904876165533,-2,-14,-6,3,1,-1,1,2
1537904876165533,0,18,13,2,-1,-1,-3,-4
1537904876165533,0,10,13,2,1,1,0,0
1537904876167528,2,48,4,2,-5,-2,-1,0
1537904876167528,-4,-14,-2,2,-1,-1,0,-1
1537904876186477,-1,4,-17,-5,-2,-1,-1,0
1537904876186477,-3,2,11,-5,0,-1,-1,-1
1537904876188472,6,29,11,-13,-2,1,-1,-1
1537904876188472,-1,-4,-69,5,-3,-2,-1,0
1537904876201436,4,23,46,22,14,6,3,3
1537904876201436,-2,-8,-4,-22,-6,-4,-1,1
1537904876208417,-3,6,8,-1,-12,-5,-1,-1
1537904876208417,0,3,-1,-3,-3,-2,-3,-4
1537904876224375,0,-5,-25,-5,-3,0,1,-1
1537904876224375,-1,8,17,8,0,-2,-2,-1
1537904876225372,-3,-10,-22,-9,2,-1,0,-1
1537904876225372,0,0,27,2,2,-1,-1,-1
1537904876263271,0,-2,-26,-1,-2,-2,0,-1
1537904876263271,-1,-4,11,4,0,1,-1,1
1537904876264268,-2,-5,5,-4,-2,-1,-3,-2
1537904876264268,1,5,-19,-6,1,0,-3,0
1537904876265266,-2,-3,26,2,2,-4,0,-1
1537904876265266,-2,-7,-52,-5,-5,-3,0,0
1537904876269255,-2,-6,-35,0,-4,-2,-3,-2
1537904876269255,-1,-6,59,2,-3,-2,0,-2
1537904876292193,-1,15,24,2,-1,1,0,0
1537904876292193,-3,-26,-36,-5,-3,0,0,-1
1537904876293191,-2,3,14,4,1,-2,0,-1
1537904876293191,-3,-7,-19,-3,2,-1,1,-1
1537904876314135,0,-5,-13,-9,-4,-2,-1,-1
1537904876314135,1,-4,5,2,0,1,1,1
1537904876316129,-6,1,1,4,0,-1,-3,-5
1537904876316129,2,6,8,-4,2,1,0,2
1537904876329095,-1,-2,30,-1,-7,-2,-1,-3
1537904876329095,0,8,-2,8,0,0,0,-1
1537904876331090,2,-15,-52,-6,1,-1,0,2
1537904876331090,0,15,28,-4,-5,-3,0,-2
1537904876345053,1,-3,-7,5,3,0,-3,-2
1537904876345053,0,3,22,-2,0,0,-1,1
1537904876367991,-1,-3,6,5,1,1,1,-1
1537904876367991,0,-3,-8,-12,1,-1,1,-1
1537904876367991,-3,-7,-16,-3,-6,-1,0,0
1537904876367991,-1,-3,19,4,0,-1,-2,0
1537904876369986,0,0,-29,-1,2,-1,1,0
1537904876369986,0,-1,3,4,-1,1,0,0
1537904876380956,2,3,37,-3,1,1,-2,1
1537904876380956,0,3,-25,-6,-1,-1,0,-1
1537904876387937,-1,7,24,4,-2,0,-2,-3
1537904876387937,-1,-10,-31,-3,-1,0,1,0
1537904876403895,0,10,-15,-2,0,0,0,0
1537904876403895,-4,4,25,-1,-4,-4,-2,-2
1537904876405890,0,1,4,-8,1,1,-1,2
1537904876405890,-2,-2,1,12,-2,0,-1,-1
1537904876426833,-1,-3,-22,-4,-1,-1,0,-1
1537904876426833,0,2,10,2,-2,-2,-1,-2
1537904876428829,-1,-3,-3,-2,-1,-2,-3,0
1537904876428829,-1,-3,-13,3,1,1,1,-1
1537904876440796,-1,-8,-10,-8,-1,-2,-2,0
1537904876440796,-1,4,5,8,1,1,-1,1
1537904876447779,1,1,11,-3,1,-1,0,0
1537904876447779,0,-5,10,4,-3,-2,-3,0
1537904876464732,0,-2,-42,-4,-1,0,1,1
1537904876464732,1,0,-7,-6,0,0,-2,0
1537904876465730,1,5,22,4,0,1,0,0
1537904876465730,-1,-6,-12,-1,0,0,0,-1
1537904876486674,0,12,7,2,0,-1,-2,-2
1537904876486674,-2,-20,5,-4,-1,2,0,-2
1537904876488668,-1,3,-14,-2,-1,0,-1,-2
1537904876488668,0,2,36,-2,-3,-1,-1,0
1537904876501633,-1,-9,-32,-3,-4,0,0,-1
1537904876501633,-1,3,1,-3,-1,-2,-1,-2
1537904876507617,2,7,18,6,-3,-2,0,1
1537904876507617,-3,-10,-21,-8,1,0,-2,0
1537904876524572,1,-2,22,3,-2,-3,-1,0
1537904876524572,0,2,6,1,2,0,0,0
1537904876525569,-1,-7,-7,2,0,0,0,-3
1537904876525569,1,5,7,-5,-2,-1,0,-2
1537904876546513,-3,-5,-19,2,0,-2,-3,-3
1537904876546513,0,2,6,-2,-2,0,-1,0
1537904876548508,-2,-2,-8,1,-2,-2,0,1
1537904876548508,0,1,15,3,2,1,-1,-2
1537904876569452,1,-1,3,-6,1,0,1,1
1537904876569452,-1,0,2,5,-1,-1,-2,-2
1537904876575436,-1,-7,-11,-14,-5,-1,-3,-2
1537904876575436,0,-1,8,1,-2,-1,-3,0
1537904876583414,1,1,14,1,-1,0,1,0
1537904876583414,-1,0,-23,-4,2,-1,-1,-1
1537904876592390,0,9,13,8,3,0,0,-1
1537904876592390,-5,-19,-41,-19,-11,-2,-2,-3
1537904876606354,-1,4,36,7,0,-2,-1,-1
1537904876606354,-1,-6,-20,-10,-2,1,0,0
1537904876608348,-1,-4,-7,0,-1,-1,-1,-1
1537904876608348,2,8,-6,4,1,-3,0,-1
1537904876621313,-1,-8,-4,7,1,-2,-1,-2
1537904876621313,-2,-13,33,-3,-6,-1,0,-1
1537904876628295,-2,-2,-66,-6,0,-1,-1,-1
1537904876628295,1,5,41,4,3,0,1,2
1537904876644252,-2,-13,-30,-9,-3,-3,-2,0
1537904876644252,2,24,52,9,4,2,2,0
1537904876646247,-1,-5,-11,-1,-1,-1,-2,0
1537904876646247,0,-4,-24,-9,-5,-1,-2,-2
1537904876674172,-2,1,-12,-3,0,0,-1,-2
1537904876674172,1,1,-13,7,-3,0,-1,-1
1537904876676167,-4,-9,5,-2,-1,-1,0,0
1537904876676167,-1,4,-7,9,3,0,0,-1
1537904876680156,-1,-1,23,-5,-2,0,-1,1
1537904876680156,-2,-6,-5,-6,1,0,-1,-2
1537904876689132,0,0,15,5,-3,-2,-1,-2
1537904876689132,1,5,-6,-4,-1,0,1,-1
1537904876712071,-3,-16,3,2,-1,0,-2,-3
1537904876712071,0,-3,-34,-9,-5,-2,-2,0
1537904876713068,1,4,37,4,1,1,-1,0
1537904876713068,-1,3,5,-3,0,-1,-2,0
1537904876727031,-1,0,-16,2,-2,0,0,-1
1537904876727031,-1,-4,-21,3,-1,-1,-2,0
1537904876728028,-1,1,47,-2,-2,-1,-1,-1
1537904876728028,-2,-6,-56,1,1,-1,0,0
1537904876740993,0,2,-8,-3,-1,-1,-1,1
1537904876740993,1,10,55,6,2,-1,0,1
1537904876748972,0,-7,-11,-7,0,1,1,-1
1537904876748972,-1,5,20,12,-4,-5,-3,-2
1537904876763932,1,-8,-28,-6,-1,0,1,-1
1537904876763932,-1,3,-2,-8,-2,-2,-1,0
1537904876765927,-3,-6,-9,0,-2,-1,-1,1
1537904876765927,1,1,20,1,3,1,-1,0
1537904876786870,-2,-4,7,0,-2,-2,0,-2
1537904876786870,2,-1,-59,-1,1,-1,1,-1
1537904876787868,0,1,-1,-2,1,0,-1,0
1537904876787868,0,-2,-1,-3,-1,-1,-2,0
1537904876816791,-1,7,18,0,-1,-1,-3,-1
1537904876816791,-2,-10,-4,-1,-1,0,-1,-1
1537904876818785,1,4,2,-1,-2,-2,0,-1
1537904876818785,0,-1,27,2,0,-1,-1,-1
1537904876824769,-1,-4,-51,-6,0,1,-1,-1
1537904876824769,0,14,-33,-4,-2,-3,-2,-2
1537904876825767,-1,-8,19,9,3,-1,2,1
1537904876825767,1,0,6,-1,0,-2,-2,0
1537904876846711,-1,0,25,2,-2,0,0,0
1537904876846711,-2,-3,-4,-1,0,0,1,-2
1537904876848705,-1,-1,-25,-8,-3,1,-1,1
1537904876848705,-1,0,10,1,3,1,0,-1
1537904876860673,-1,4,-12,5,1,-2,-2,0
1537904876860673,1,-9,-3,-4,-3,-2,0,0
1537904876869650,-1,1,3,0,0,-2,0,-3
1537904876869650,-2,-2,-6,-5,0,1,-1,1
1537904876884609,-1,2,0,-6,-1,0,-1,-1
1537904876884609,-1,0,27,9,1,-1,-1,-2
1537904876885607,-4,-5,18,-2,-2,-3,-1,-2
1537904876885607,-1,-4,-67,-7,0,0,-1,1
1537904876922509,1,2,26,-1,-3,-1,0,-1
1537904876922509,0,3,16,2,1,-1,-1,0
1537904876923505,-2,-2,-7,-3,-2,-2,-1,-2
1537904876923505,0,0,5,4,-2,-1,-1,-2
1537904876928493,-1,2,4,10,5,0,-1,-1
1537904876928493,-3,-2,-19,-30,-14,-2,0,-2
1537904876929490,-2,-13,-11,8,-5,-1,-3,-2
1537904876929490,0,1,13,2,1,1,1,1
1537904876952428,0,7,18,-5,-1,-1,-1,0
1537904876952428,1,-5,18,4,3,1,0,-2
1537904876952428,1,3,-38,-2,0,0,-1,0
1537904876952428,-1,-5,13,-2,-1,0,-1,-1
1537904876966390,-2,1,3,-1,0,-1,0,-2
1537904876966390,-1,-3,14,5,1,0,-1,-1
1537904876966390,-1,0,-11,-5,-2,-1,-1,-1
1537904876966390,4,16,-19,0,0,1,1,0
1537904876988332,0,-9,-17,1,-4,-2,0,-1
1537904876988332,-4,-13,-23,-3,1,0,-1,0
1537904876989330,4,17,62,3,-1,-1,0,-1
1537904876989330,-2,-2,-2,-4,-5,-3,-2,-1
1537904877003292,-2,1,2,-2,-1,0,-1,-1
1537904877003292,-1,-6,-22,4,1,0,-1,0
1537904877004289,0,2,4,2,3,1,0,1
1537904877004289,-3,-2,5,-10,1,-3,-1,-2
1537904877026231,0,-1,0,10,-3,-2,-3,-1
1537904877026231,-2,-3,10,6,3,-1,-1,0
1537904877027228,-1,0,-9,-5,-3,1,-3,-1
1537904877027228,-2,-4,-2,-1,2,-1,-2,-1
1537904877048172,-1,2,-11,-3,0,-1,0,-1
1537904877048172,-1,1,11,13,1,-2,-1,0
1537904877057148,-1,3,71,-6,-2,-1,-2,-2
1537904877057148,0,-17,-76,-6,1,2,1,1
1537904877065127,1,2,-14,-8,-1,1,-1,0
1537904877065127,0,1,5,3,0,-1,-1,-1
1537904877066124,-2,-4,-3,1,-1,-1,0,0
1537904877066124,-2,-3,32,3,-3,-2,0,-1
1537904877096045,-1,-4,-5,-2,3,-2,1,0
1537904877096045,3,8,-11,-1,1,1,2,0
1537904877096045,-2,2,2,0,2,-1,-1,-2
1537904877096045,-1,-5,5,-11,-6,-1,-1,-3
1537904877109009,-1,-3,-22,11,-2,-1,-2,-1
1537904877109009,-2,-1,28,-2,-2,0,-1,-2
1537904877109009,0,2,-30,0,0,0,1,1
1537904877109009,-2,3,30,9,3,-1,-2,-1
1537904877131949,-2,-3,-11,-14,-1,-1,-1,-1
1537904877131949,-1,4,15,-1,-2,-1,-3,-1
1537904877132946,-1,-6,-13,-3,-1,0,0,0
1537904877132946,-1,1,11,11,-1,-3,-3,-4
1537904877145912,0,-5,2,-5,0,0,1,0
1537904877145912,-2,1,-15,-6,-1,-2,-1,0
1537904877146909,0,-4,-25,-7,-3,0,-2,-2
1537904877146909,1,8,30,11,2,0,1,1
1537904877168850,-1,1,27,-5,-1,0,-1,-1
1537904877168850,-1,0,-16,-6,-2,-1,-1,-1
1537904877169847,0,-3,-7,1,0,0,-1,1
1537904877169847,0,-6,-28,-15,-2,0,0,0
1537904877199768,0,1,20,19,1,-5,-1,-1
1537904877199768,0,-2,12,-14,-2,3,1,-1
1537904877200765,-2,-4,-8,-2,-3,-3,-1,-1
1537904877200765,-1,2,22,1,-1,-1,-2,-1
1537904877205751,0,-2,-42,-11,-1,1,-1,-1
1537904877205751,0,1,-8,12,2,-1,-1,-1
1537904877206749,1,0,5,5,1,-4,1,-2
1537904877206749,-1,0,12,-5,-1,-2,1,-1
1537904877228691,-1,3,8,0,0,1,-2,0
1537904877228691,-1,-3,-4,9,3,0,0,-1
1537904877229688,-1,4,-20,-12,-3,-1,0,0
1537904877229688,0,-7,13,2,-1,-2,-1,0
1537904877243650,-1,-3,-4,-3,0,1,-2,-1
1537904877243650,-1,-1,5,-3,-4,-1,-1,-1
1537904877244648,-2,-3,12,3,1,-1,0,-2
1537904877244648,1,5,-5,3,0,2,2,2
1537904877266589,-2,-1,-7,-13,-3,-3,0,-1
1537904877266589,-1,-3,-5,1,-2,-2,-3,-2
1537904877266589,1,-1,7,6,0,0,-1,-2
1537904877266589,-2,-4,-14,-11,-3,0,0,0
1537904877305484,2,5,9,6,3,2,-1,2
1537904877305484,-1,-3,-15,-2,-2,-1,0,-1
1537904877306482,-1,0,9,1,-2,-1,-3,-3
1537904877306482,2,0,-14,1,0,-2,1,0
1537904877307479,-1,-2,1,0,-1,-2,-1,-2
1537904877307479,-2,1,12,-9,-3,-3,-1,-2
1537904877311469,-1,-1,-15,7,1,-1,0,0
1537904877311469,-2,0,-5,-8,-2,0,0,-3
1537904877334407,-2,-3,16,0,-2,-2,1,-2
1537904877334407,1,3,-5,5,3,0,-2,-1
1537904877335405,-1,-2,-7,-1,-2,-1,0,-1
1537904877335405,-1,1,4,-1,-2,-1,0,-1
1537904877349367,1,-2,-3,-2,-1,-1,0,-2
1537904877349367,1,-4,1,0,-1,-2,-1,-1
1537904877350365,-1,-6,-16,-6,1,1,-1,1
1537904877350365,1,3,3,-2,0,1,1,2
1537904877363330,-2,1,33,10,0,-2,-1,-4
1537904877363330,-1,-3,-27,-3,-1,-2,-1,0
1537904877364327,1,-2,-7,-2,-1,-2,0,-1
1537904877364327,-2,1,9,3,-2,-1,-4,-1
1537904877386268,-1,2,30,1,0,2,0,1
1537904877386268,-1,-5,-33,-11,-2,0,1,1
1537904877387266,-1,-1,-2,0,-2,-1,0,-2
1537904877387266,-1,-3,-20,3,0,-1,0,-1
1537904877411202,0,3,1,1,-2,-2,-2,0
1537904877411202,-1,0,18,-12,-6,-2,0,-2
1537904877411202,-1,-2,-6,-6,0,-1,0,0
1537904877411202,0,0,-8,8,0,0,0,0
1537904877423170,1,1,-8,-14,-4,-1,0,1
1537904877423170,-1,-2,-8,5,0,1,1,0
1537904877424167,-1,3,14,2,0,-1,-2,0
1537904877424167,-1,-1,7,0,0,-3,-1,-2
1537904877446109,-2,-4,-16,1,1,-1,-3,-1
1537904877446109,-1,1,5,2,-1,1,-2,0
1537904877447107,0,-1,3,-5,0,-1,0,2
1537904877447107,-2,-2,22,6,1,0,-1,-1
1537904877477026,-2,-5,-37,-2,-2,-1,1,0
1537904877477026,0,2,9,-2,-1,1,-1,-1
1537904877478024,0,4,12,7,-1,1,-1,-1
1537904877478024,1,-3,-8,-6,-1,0,-2,0
1537904877484008,1,0,-3,-2,-5,-1,0,-2
1537904877484008,-1,-1,5,1,1,1,0,0
1537904877484008,0,0,-11,-1,0,0,-1,0
1537904877484008,0,-3,7,-1,0,-2,-2,-1
1537904877506947,0,4,1,-3,2,1,1,-1
1537904877506947,-3,-2,0,3,-2,-5,-2,-3
1537904877513928,-1,-3,6,3,-1,-1,-1,1
1537904877513928,-1,0,-21,-6,-2,0,-1,-1
1537904877528888,0,-3,16,7,-1,-2,-2,0
1537904877528888,0,2,18,-2,0,0,0,0
1537904877529885,-1,-2,-17,-5,-1,-2,-2,-3
1537904877529885,-2,-1,17,-4,-2,-1,-1,0
1537904877543847,-1,-2,0,0,0,0,0,0
1537904877543847,0,1,-20,-1,0,-1,-1,-1
1537904877550828,0,0,12,-4,2,0,1,-1
1537904877550828,-1,0,-14,3,-3,-3,0,-1
1537904877565788,-3,-3,6,3,-1,0,-1,-2
1537904877565788,0,-1,-2,-1,-3,-2,-3,1
1537904877566786,-2,1,-2,-2,-2,0,0,-1
1537904877566786,0,4,4,2,3,0,0,-1
1537904877589724,0,-1,-9,-3,-3,-2,-1,-1
1537904877589724,0,0,14,1,0,0,0,0
1537904877589724,0,-3,-2,0,-2,-2,-1,-2
1537904877589724,-2,-3,-14,-2,0,1,-1,-1
1537904877612664,1,5,-5,0,0,1,0,-1
1537904877612664,-2,-5,-15,0,-1,-1,-2,-1
1537904877613661,0,1,8,-3,0,-2,2,0
1537904877613661,-1,-2,2,-4,-5,-1,-1,0
1537904877625629,0,-1,-13,3,-2,-3,0,1
1537904877625629,1,-1,6,-3,2,-1,-1,-1
1537904877626626,-1,0,-5,10,2,0,-1,-2
1537904877626626,0,0,8,-1,-3,-1,-1,-1
1537904877651561,-2,-7,1,-8,-1,0,0,-2
1537904877651561,1,6,3,0,-2,1,0,-1
1537904877652559,1,-2,-2,-5,0,-1,-1,-2
1537904877652559,-1,-3,-4,3,0,-1,-1,0
1537904877663530,-1,1,3,-2,-2,-1,-1,0
1537904877663530,-1,-2,11,3,0,0,-1,-1
1537904877664526,-1,-5,-31,-6,-1,-2,-1,1
1537904877664526,0,1,19,0,-1,-1,-1,-2
1537904877687465,-2,1,-6,-1,-1,-2,-1,0
1537904877687465,-2,0,4,0,-1,-1,0,-3
1537904877688462,-1,-3,-3,-2,0,-2,0,0
1537904877688462,-2,-2,-12,-8,-1,0,-1,-1
1537904877716386,-1,-3,-2,3,-1,-1,-1,-1
1537904877716386,-1,-1,3,2,2,-1,1,0
1537904877717384,0,5,19,-1,-5,-2,-1,-2
1537904877717384,1,-4,-28,-2,-1,-3,0,-1
1537904877723367,1,3,9,3,-1,1,1,-2
1537904877723367,0,-2,-21,-1,-1,-2,0,0
1537904877731346,-2,-1,8,-4,-2,1,-1,0
1537904877731346,-1,2,1,2,0,-2,-1,0
1537904877754284,-2,-1,-13,-2,0,-1,0,-2
1537904877754284,-1,-7,26,0,-1,-1,2,0
1537904877755282,-2,2,-23,-4,-3,1,-1,-1
1537904877755282,-1,-1,-4,-2,0,1,0,-1
1537904877769245,-1,-4,-16,-3,0,0,-1,-1
1537904877769245,-1,3,32,1,1,-1,-2,-1
1537904877770242,0,-3,2,0,0,-2,0,-3
1537904877770242,-1,-3,-8,-1,1,-1,1,-2
1537904877792183,0,5,18,-2,-2,-2,-1,-1
1537904877792183,1,1,-12,-2,-1,-1,-1,-1
1537904877793181,-1,-2,6,0,-1,-1,1,-1
1537904877793181,-2,0,-12,1,0,-1,0,0
1537904877806147,-2,-3,0,-2,1,0,0,1
1537904877806147,0,-2,-14,2,0,-1,1,0
1537904877807144,0,2,22,2,-1,-1,-2,1
1537904877807144,-1,-3,-23,-3,0,-1,-1,0
1537904877829086,0,1,9,-1,-4,1,-1,-1
1537904877829086,-1,6,6,-1,-2,-3,-1,0
1537904877830086,1,-4,-9,1,0,-1,-1,0
1537904877830086,0,3,37,0,-1,0,0,-1
1537904877852025,-1,-8,-43,-10,0,-1,-1,-1
1537904877852025,-2,-2,-9,6,-3,-3,-2,-1
1537904877859006,-2,1,-1,5,2,-2,0,-1
1537904877859006,-1,-3,13,-2,-1,-1,-1,-1
1537904877865988,0,-2,9,4,1,-2,-1,-1
1537904877865988,0,-2,-3,-6,-2,2,0,0
1537904877866986,1,-2,-6,2,0,0,0,0
1537904877866986,0,-2,-9,0,-1,0,0,-1
1537904877888926,0,3,22,-1,-2,-1,0,0
1537904877888926,-1,-2,-17,-4,0,-1,0,-2
1537904877889923,-2,-3,-2,-3,-3,-2,0,0
1537904877889923,0,0,-4,3,-1,0,-2,0
1537904877902888,-1,-1,6,0,-2,-2,0,0
1537904877902888,1,2,14,-3,-2,-1,-1,-2
1537904877918845,-2,2,-10,-3,-1,0,0,-1
1537904877918845,1,-10,-15,-2,-1,-2,0,0
1537904877925826,0,-1,9,0,0,0,-2,-1
1537904877925826,-2,-7,-23,-5,-1,0,0,0
1537904877926824,0,6,12,2,-1,0,0,-1
1537904877926824,-1,-2,-5,-1,-1,-2,-2,-1
1537904877949763,0,4,9,2,1,-1,-1,1
1537904877949763,-1,-1,-6,-5,-1,0,1,-2
1537904877949763,-2,-5,-11,-4,-2,-1,-1,-2
1537904877949763,1,4,26,-4,-2,-2,-1,-2
1537904877963725,-1,-1,-9,3,0,-2,-2,-1
1537904877963725,0,1,11,-1,-2,1,-1,-2
1537904877970706,0,-1,-16,-1,-1,1,0,-1
1537904877970706,0,1,-13,-2,-1,0,0,0
1537904877985666,-1,-2,-7,-3,0,-1,0,-1
1537904877985666,-1,-2,-1,1,1,-2,0,0
1537904877993645,-2,-1,17,1,-5,-2,-1,-1
1537904877993645,0,1,-1,-1,2,1,2,1
1537904878024562,-1,-4,-11,-5,1,-2,-1,-1
1537904878024562,-1,-5,-3,-7,-1,0,-1,0
1537904878025559,1,3,11,4,-2,-2,-1,0
1537904878025559,0,0,2,0,-1,0,1,0
1537904878027554,0,-2,-11,-4,-1,-3,-1,1
1537904878027554,0,2,6,4,1,-2,0,0
1537904878031543,-2,-3,-8,-7,0,0,-3,-2
1537904878031543,-1,4,20,-1,-4,-1,-1,-1
1537904878046503,-2,-1,10,1,-3,1,-1,0
1537904878046503,0,-2,-21,-3,-1,0,-1,-1
1537904878046503,-3,-1,26,5,1,-1,0,0
1537904878046503,0,0,-35,-1,2,0,-1,0
1537904878069442,0,0,1,-3,-1,0,1,-1
1537904878069442,0,3,6,0,-2,-2,-2,-1
1537904878070439,-1,-12,-4,-4,-2,-1,-1,0
1537904878070439,-1,-1,7,-1,-2,-2,1,0
1537904878091383,0,4,0,0,0,0,-2,-1
1537904878091383,-2,-4,-13,4,-2,-2,0,-1
1537904878092381,0,3,-1,-6,0,0,1,-1
1537904878092381,-3,-3,-6,5,-2,-1,-1,-1
1537904878106343,0,-5,2,-3,0,0,0,-1
1537904878106343,1,2,16,-2,-1,0,-1,-3
1537904878106343,0,-1,-6,2,0,-2,-1,-1
1537904878106343,1,3,8,1,1,0,-1,0
1537904878137261,-2,-1,8,2,-1,0,0,0
1537904878137261,-2,-2,0,-1,-3,-2,-1,1
1537904878137261,-1,-3,-14,-1,0,1,-3,1
1537904878137261,-3,-2,6,-5,-3,0,-2,0
1537904878152221,0,2,15,-1,0,0,-1,-1
1537904878152221,-1,-3,-28,2,-1,-2,1,-2
1537904878152221,-1,-1,-3,0,-1,-1,1,-1
1537904878152221,-1,0,6,-1,0,-1,-3,-1
1537904878166183,0,-2,-13,0,-1,-2,-3,-1
1537904878166183,0,-2,9,-1,0,0,-1,-2
1537904878167181,-1,1,11,-2,-2,0,0,-2
1537904878167181,0,-1,-13,-5,-1,-1,-2,-2
1537904878188125,0,-2,-10,-1,1,-2,2,0
1537904878188125,-1,2,27,2,-2,-3,-2,-1
1537904878196103,0,0,-9,2,0,0,0,-1
1537904878196103,-2,0,7,-2,0,0,-1,-1
1537904878212061,-2,0,2,1,-1,0,0,-2
1537904878212061,0,-1,-21,0,1,-2,0,1
1537904878212061,0,-1,3,-5,-3,0,-1,0
1537904878212061,-1,-8,-23,-3,-3,0,-1,-2
1537904878241981,2,16,11,5,1,-1,-1,-1
1537904878241981,-2,-13,0,-1,1,1,0,0
1537904878242978,-1,2,12,0,-1,-3,1,-1
1537904878242978,-1,-3,-15,-2,-1,0,1,-2
1537904878248962,-1,-5,-14,-13,-2,-3,-1,-1
1537904878248962,1,4,46,10,0,1,1,0
1537904878255943,-1,-3,-56,-5,-5,-4,-3,-1
1537904878255943,0,-2,9,-1,1,0,0,-1
1537904878271901,0,0,1,5,-2,-1,0,-1
1537904878271901,-1,1,1,-6,0,-1,0,0
1537904878272898,0,-3,5,-1,-1,2,1,-1
1537904878272898,0,4,3,2,0,-2,-1,0
1537904878285863,-2,-7,-5,-3,-1,-1,0,-1
1537904878285863,-2,0,-11,-3,-1,0,-1,0
1537904878286861,0,0,5,1,-1,-1,-1,1
1537904878286861,0,2,6,2,0,-1,-1,-1
1537904878310797,-1,-1,-1,-1,1,0,0,0
1537904878310797,-2,-1,-21,-1,-3,-2,-3,0
1537904878311795,1,0,5,2,2,-1,-1,0
1537904878311795,-1,-2,3,0,-1,-1,-1,-1
1537904878339720,-1,-3,-1,2,-2,-2,0,1
1537904878339720,0,3,-3,-4,-1,-2,0,0
1537904878339720,1,0,3,-3,0,-2,-2,-1
1537904878339720,0,-3,2,-1,-1,-2,-1,-2
1537904878345705,-1,-2,-9,2,-1,-1,-1,-1
1537904878345705,0,0,1,-2,-1,-1,0,-3
1537904878346702,0,1,3,-2,0,0,-3,0
1537904878346702,0,1,1,0,0,-1,-1,0
1537904878376621,-1,-4,-5,-3,-4,-3,0,-1
1537904878376621,-2,-1,0,0,0,0,-1,-2
1537904878377618,-2,-2,0,-1,-2,0,0,0
1537904878377618,-2,1,-3,3,0,-1,-1,-1
1537904878391581,-1,0,3,-2,-2,0,-4,-1
1537904878391581,1,-2,1,0,0,-1,0,0
1537904878392578,-1,2,-7,-2,-2,0,1,-2
1537904878392578,-1,-7,-7,-10,1,0,0,0
1537904878414520,-1,5,13,6,-2,0,-1,0
1537904878414520,0,-2,-36,-2,2,0,-1,-1
1537904878414520,-1,0,-5,0,0,-2,-1,-2
1537904878414520,-2,-1,7,-1,-1,-2,0,-1
1537904878429480,-2,-2,-1,-6,0,-3,0,0
1537904878429480,-1,0,13,-4,-1,0,0,1
1537904878430477,-1,-1,7,8,-1,-1,-2,-1
1537904878430477,0,0,-14,-2,-1,0,-1,-1
