timestamp,emg1,emg2,emg3,emg4,emg5,emg6,emg7,emg8
1537912225112525,-2,-3,-6,-15,-6,-21,3,0
1537912225112525,-2,-1,-1,5,-32,23,-5,-2
1537912225113523,1,0,2,-19,-64,-27,-8,-4
1537912225113523,-4,-3,-5,-6,55,-11,-9,-3
1537912225114520,3,3,10,30,-12,10,-1,2
1537912225114520,-3,-2,-4,-19,6,-12,-1,-3
1537912225117512,-2,-2,0,4,43,39,16,4
1537912225117512,1,-2,-1,12,-10,21,-10,-3
1537912225124493,0,-1,1,2,24,-10,0,-2
1537912225124493,-1,1,-4,-53,-37,-5,-12,-2
1537912225134467,-1,-2,-10,-5,51,-12,2,0
1537912225134467,2,2,5,14,-7,-9,3,2
1537912225139453,-4,-4,-6,-3,30,19,-16,-3
1537912225139453,2,1,4,8,-87,-13,12,2
1537912225154414,1,2,3,-1,17,-7,-7,1
1537912225154414,-3,-3,-2,-1,6,14,1,-1
1537912225164387,-1,-1,-2,-2,-78,-6,-1,-1
1537912225164387,-1,1,-2,14,59,29,4,2
1537912225170371,-3,-2,-3,-1,-9,24,4,-3
1537912225170371,-2,0,1,3,-19,-45,0,2
1537912225185331,3,-1,1,-8,-21,-33,-2,3
1537912225185331,-4,-3,-4,3,64,40,1,-7
1537912225194307,-1,-2,-1,5,-35,20,5,-1
1537912225194307,-3,1,-1,-4,9,9,-1,-6
1537912225234201,0,-1,-2,1,13,-85,-21,4
1537912225234201,1,1,-1,-5,-35,89,30,7
1537912225238190,-1,-2,0,-5,-11,-29,-4,1
1537912225238190,-1,1,1,3,9,8,-6,-5
1537912225238190,0,-3,-2,-6,-35,21,24,4
1537912225238190,-4,-4,-1,1,49,-17,-6,-3
1537912225239188,0,0,1,8,-35,-13,0,1
1537912225239188,0,-2,-4,-5,-2,2,-3,1
1537912225245171,-4,-4,-5,-3,38,7,-5,-6
1537912225245171,-3,0,1,-1,-38,29,-10,-3
1537912225251155,-1,0,3,9,-14,29,16,6
1537912225251155,-1,-1,0,-14,-9,-23,-2,-1
1537912225267113,-1,-1,-4,-5,11,59,14,3
1537912225267113,-1,0,0,-1,78,-26,-8,-3
1537912225274093,-5,-7,-6,-2,-27,-19,-15,-8
1537912225274093,0,1,3,9,69,-1,6,4
1537912225282072,-3,-1,0,2,-15,-7,-13,-4
1537912225282072,0,-2,0,-5,-23,-28,-4,-2
1537912225289054,-1,1,4,31,33,1,-8,-3
1537912225289054,-3,-4,-10,-44,-36,-5,-3,-4
1537912225305011,0,1,2,-5,-15,0,7,2
1537912225305011,-2,-2,-5,2,8,-11,3,1
1537912225311992,0,2,8,44,-7,-11,-14,-4
1537912225311992,-1,-2,-3,-34,-8,-33,4,1
1537912225318974,1,-1,-1,0,14,-7,-12,-4
1537912225318974,-1,-2,-5,-8,-63,16,4,-3
1537912225333934,3,2,-2,-12,61,40,16,7
1537912225333934,-3,0,7,43,63,-15,-5,-2
1537912225341912,0,-1,0,2,19,-1,7,2
1537912225341912,-1,-4,-5,-3,11,-38,-8,-1
1537912225348894,-3,-3,-6,-12,-7,3,-1,-6
1537912225348894,-1,-3,-5,7,-28,5,11,4
1537912225364851,-2,-1,-2,-14,-20,-21,-5,0
1537912225364851,-1,0,0,13,12,-15,-9,-3
1537912225371832,-2,-3,-7,-27,-42,-2,-12,3
1537912225371832,-1,1,2,13,12,36,6,0
1537912225378814,5,4,4,10,-41,11,8,1
1537912225378814,4,2,3,5,-1,-9,-5,2
1537912225393773,2,-2,-3,-25,9,18,15,3
1537912225393773,-2,-1,-1,1,-30,-21,-17,-6
1537912225402749,-2,-1,0,10,11,-4,4,2
1537912225402749,-2,0,-1,1,36,2,5,1
1537912225408733,-2,-1,-5,-19,-38,-28,-16,-4
1537912225408733,-1,1,3,17,12,2,4,0
1537912225424691,-4,-5,-8,-16,-39,15,0,-4
1537912225424691,1,0,2,18,40,17,-1,2
1537912225431672,-1,-1,-2,-9,45,2,1,-1
1537912225431672,1,-1,2,12,-49,-8,-3,-2
1537912225438654,-3,1,-6,-6,-13,0,-19,-5
1537912225438654,-3,-3,-4,-15,-27,-20,2,1
1537912225453614,-2,-1,-1,4,35,20,7,-3
1537912225453614,-1,0,2,3,0,19,-4,-2
1537912225462590,-1,-1,5,12,40,-22,-1,-1
1537912225462590,-2,-3,-2,-1,-71,-4,7,-1
1537912225468574,1,1,2,-1,20,7,4,2
1537912225468574,-2,-2,-5,-7,4,8,-10,-5
1537912225484531,-2,-2,3,9,61,10,3,-1
1537912225484531,0,0,0,-11,-21,-37,-12,-4
1537912225491512,0,0,1,3,29,-4,-2,-2
1537912225491512,0,-4,-3,-6,-56,7,-4,0
1537912225499491,0,0,1,-4,-17,24,15,4
1537912225499491,-1,-1,1,-5,6,5,2,0
1537912225514451,-1,-1,-2,-4,2,4,-3,-1
1537912225514451,-1,-2,-6,5,10,13,2,3
1537912225522430,0,1,0,-11,-52,-41,2,1
1537912225522430,0,-3,-4,-4,30,13,2,-1
1537912225536392,0,2,5,4,-43,-34,-4,-2
1537912225536392,-1,2,1,-5,25,-1,0,-2
1537912225544371,-1,0,3,13,37,23,-5,-2
1537912225544371,2,2,4,7,-31,2,2,2
1537912225553347,-2,-2,-3,10,63,-15,-7,-2
1537912225553347,2,3,0,-30,-31,1,-10,-4
1537912225559331,-1,-2,0,-4,-3,-21,-2,0
1537912225559331,-1,0,-1,0,2,10,-6,-2
1537912225574291,-2,0,4,24,-43,-5,-4,-5
1537912225574291,2,2,2,3,1,10,5,6
1537912225582270,-3,-2,-4,-10,-14,1,-7,-3
1537912225582270,-3,-5,-11,-26,42,-10,4,1
1537912225596232,0,0,0,-5,-67,5,5,2
1537912225596232,-1,-2,1,10,51,3,0,-1
1537912225605208,2,0,4,17,-44,-19,1,-1
1537912225605208,-1,0,1,-1,-5,-2,-2,-2
1537912225611192,-2,-3,-3,-7,31,-12,8,1
1537912225611192,-1,-1,-3,2,-27,2,13,5
1537912225619171,-1,1,1,0,4,16,-4,1
1537912225619171,-1,-1,0,5,25,9,-10,-4
1537912225634132,-2,-3,-4,-13,13,14,23,5
1537912225634132,-1,-1,1,-1,-16,-24,-6,-1
1537912225642110,-1,0,-2,7,3,-14,-11,-2
1537912225642110,1,-1,1,-10,-30,15,6,0
1537912225656073,0,0,-1,4,-56,-12,-6,-2
1537912225656073,-3,-2,4,22,52,13,2,-3
1537912225665049,0,-3,-12,-39,6,9,3,-1
1537912225665049,0,1,-1,12,0,-12,10,3
1537912225672030,-1,2,-1,-10,5,5,-9,-3
1537912225672030,0,-1,4,8,-9,-2,-6,0
1537912225679011,-1,-1,2,13,-42,-17,-7,-4
1537912225679011,1,2,1,4,63,33,2,1
1537912225693971,-1,-1,-1,-3,-10,-5,2,0
1537912225693971,-2,-2,-3,0,2,-6,-6,-2
1537912225701950,-1,-1,-1,-1,8,-9,-5,-3
1537912225701950,2,-1,-1,-2,-13,-1,-6,1
1537912225716910,-1,-1,1,-2,-14,5,-10,-1
1537912225716910,-1,-1,-3,-5,37,-9,0,-2
1537912225724889,-3,-3,-2,-10,-53,-12,12,3
1537912225724889,-1,1,7,30,-18,-26,-2,-5
1537912225731870,0,-3,-12,-35,24,23,5,3
1537912225731870,0,-4,-6,-24,-32,-7,10,2
1537912225747827,-1,1,5,49,45,9,8,0
1537912225747827,-3,-1,-2,-56,-22,-8,-7,-4
1537912225753811,-2,3,9,49,-1,-12,-8,-2
1537912225753811,-1,-2,-7,-57,33,-1,-12,-6
1537912225762788,0,0,-3,9,-4,20,-4,-1
1537912225762788,-1,0,3,-8,-6,-12,-3,0
1537912225776750,1,0,3,17,-14,-6,-6,-2
1537912225776750,-1,-1,-5,7,18,3,6,2
1537912225785726,0,1,3,-12,22,29,-4,0
1537912225785726,0,-2,0,35,-13,3,18,8
1537912225791710,0,1,5,18,2,-5,-6,-3
1537912225791710,-4,1,7,-11,-85,-34,-11,-2
1537912225807667,-1,-4,-21,-49,69,21,2,1
1537912225807667,0,-4,-6,5,-27,-3,-5,-3
1537912225813651,0,0,3,-5,30,2,0,-1
1537912225813651,0,3,16,97,12,-1,3,0
1537912225822627,0,-1,1,-32,-12,-5,-2,-1
1537912225822627,-3,-6,-10,-20,-12,-2,-9,-2
1537912225836590,1,1,7,32,-7,-1,9,4
1537912225836590,1,1,-3,-17,20,14,2,2
1537912225845566,0,3,16,105,0,-11,-5,-3
1537912225845566,-5,-5,-22,-87,6,-1,-10,-7
1537912225851550,-1,-4,-10,-43,-34,-3,2,0
1537912225851550,0,0,1,-4,32,4,-4,-3
1537912225874489,-2,-2,-5,-16,3,-9,4,3
1537912225874489,-1,0,6,47,19,-8,0,-1
1537912225875486,0,2,0,14,11,24,-3,-2
1537912225875486,-3,-2,-14,-63,-31,-10,4,1
1537912225883466,3,4,16,14,11,-8,-7,0
1537912225883466,-1,-2,-3,49,36,3,-3,-3
1537912225896430,-2,-2,-3,-61,-32,0,0,-1
1537912225896430,0,-5,-6,42,18,8,7,1
1537912225905406,-2,-1,-9,-73,-13,-10,7,2
1537912225905406,2,4,11,6,-15,8,-18,-4
1537912225911390,-1,0,4,43,16,-2,-4,-5
1537912225911390,0,0,1,29,-38,-5,-4,0
1537912225928345,-1,0,-5,-25,7,-5,3,-2
1537912225928345,0,1,3,6,-9,8,8,2
1537912225934329,-2,-4,-8,-19,-1,-22,-14,-3
1537912225934329,0,0,0,-13,17,14,5,0
1537912225943305,0,0,5,74,-19,-4,13,5
1537912225943305,-1,-1,-8,-61,-21,0,1,-2
1537912225956270,-1,4,16,77,68,0,2,-3
1537912225956270,0,-1,-8,-20,-29,20,-2,-1
1537912225965246,-2,1,9,39,-12,9,-25,-11
1537912225965246,-5,-9,-30,-80,26,-11,9,4
1537912225971230,-1,-2,-1,28,-14,-6,5,1
1537912225971230,3,7,23,29,2,-8,-13,-8
1537912225988185,-1,-2,-15,-48,-6,8,-4,-3
1537912225988185,-1,4,20,100,-12,-7,-3,-1
1537912225994169,1,-2,-10,-64,41,5,8,3
1537912225994169,-1,-1,9,103,-25,-7,-7,-7
1537912226003145,0,3,23,75,10,3,-9,-5
1537912226003145,-4,-15,-63,-115,11,6,19,6
1537912226016110,-2,-3,8,20,-40,-2,8,2
1537912226016110,5,18,38,84,-35,-4,-30,-10
1537912226025086,-1,-2,4,13,85,6,32,13
1537912226025086,0,-6,-25,-21,-40,-5,-16,-7
1537912226031070,-3,-14,-32,-127,-40,-45,2,-5
1537912226031070,0,-2,-8,-21,9,24,16,8
1537912226048025,-1,2,8,106,-4,-26,-31,-14
1537912226048025,10,24,63,99,36,94,9,1
1537912226062985,8,11,34,113,18,-36,-8,11
1537912226062985,-9,-16,-34,-89,-112,-1,1,-7
1537912226063982,-8,-11,-29,-65,9,-11,-2,-10
1537912226063982,-3,-9,-19,69,-11,-1,5,3
1537912226084926,-1,7,11,41,1,-10,-43,-22
1537912226084926,7,10,29,100,-1,4,1,7
1537912226086921,1,8,21,29,-19,-1,5,-3
1537912226086921,-10,-22,-51,-126,-30,-79,9,6
1537912226098889,3,5,11,49,-47,50,29,8
1537912226098889,0,-1,-7,-97,24,15,-22,-5
1537912226107865,5,8,-4,29,20,-29,-1,4
1537912226107865,4,7,59,55,-38,36,-27,0
1537912226121828,-7,-7,-10,5,-17,-26,32,8
1537912226121828,-9,-26,-75,-20,94,-4,30,6
1537912226128809,-5,-10,-14,-62,-11,66,-13,-5
1537912226128809,-3,10,12,-39,76,-7,19,-4
1537912226145763,9,8,10,-61,26,0,-20,2
1537912226145763,-4,-3,12,-46,-71,18,23,2
1537912226146761,1,-1,-17,57,-7,-90,2,21
1537912226146761,-3,-12,-18,-56,-24,-20,-14,-6
1537912226158729,-2,2,2,5,19,51,-15,-3
1537912226158729,-1,4,15,-38,26,-55,29,12
1537912226167705,2,11,24,-3,-28,2,-59,-27
1537912226167705,1,1,4,8,13,9,6,0
1537912226182665,-1,0,12,-32,4,25,3,-4
1537912226182665,-1,2,34,28,105,-7,-8,-8
1537912226184660,-1,-16,-53,-78,-16,-28,-2,0
1537912226184660,1,3,17,40,12,27,-32,-9
1537912226204606,-1,-4,-26,20,-48,-24,16,5
1537912226204606,-7,-3,-2,-35,37,4,-29,-20
1537912226211587,-2,-7,-4,-35,-2,-21,16,8
1537912226211587,2,8,8,-24,-12,13,-14,-8
1537912226227545,4,3,11,4,17,17,-21,-6
1537912226227545,2,0,-12,70,-4,22,0,4
1537912226229539,0,1,0,-5,-33,12,15,2
1537912226229539,3,3,28,37,-5,-17,31,15
1537912226250484,-2,-3,-11,27,35,0,-22,-5
1537912226250484,-12,-9,-31,-5,-6,30,-10,-14
1537912226251481,7,-2,-11,-57,-20,-58,11,8
1537912226251481,2,13,47,59,-16,-24,-24,-3
1537912226264446,-5,-12,-40,-54,20,21,15,2
1537912226264446,2,-3,-8,-55,-23,-76,-22,2
1537912226273422,-3,4,22,48,0,76,11,0
1537912226273422,-1,-2,-8,18,-22,-40,16,4
1537912226287385,-6,-6,-4,51,2,-14,11,0
1537912226287385,2,1,6,15,-12,1,-8,2
1537912226289380,-5,-8,-18,-67,-15,40,-5,-8
1537912226289380,-1,-3,-3,-25,8,-20,11,-1
1537912226310324,0,6,8,19,1,-31,-23,-7
1537912226310324,3,8,13,5,-55,-2,4,3
1537912226312318,-2,1,15,32,32,31,6,-1
1537912226312318,-5,-9,-20,47,46,37,-1,-6
1537912226324287,-6,-8,-28,-44,-44,-28,5,-3
1537912226324287,1,-1,9,-26,-12,1,-7,0
1537912226333263,0,1,0,-7,30,-11,13,8
1537912226333263,2,5,15,20,-41,32,3,2
1537912226348223,-2,-6,2,12,-2,3,25,13
1537912226348223,-1,-1,8,9,6,73,19,3
1537912226349220,-4,-5,-20,-48,-39,-49,0,4
1537912226349220,-2,-5,-7,22,10,-23,-1,-1
1537912226370164,-3,-4,-9,-33,-2,27,-11,-7
1537912226370164,2,3,10,-3,52,-34,7,5
1537912226372158,1,3,6,66,14,19,-3,-7
1537912226372158,-1,-4,-3,-20,-20,3,-3,-6
1537912226384127,-1,2,8,-36,-3,-26,10,-2
1537912226384127,-2,-6,-19,-5,-4,0,5,3
1537912226393102,-3,-1,-1,19,4,21,-18,-8
1537912226393102,-2,2,-2,-1,-6,12,1,-11
1537912226408062,1,1,0,-68,-24,-85,24,7
1537912226408062,-1,-7,-17,12,2,-1,-1,-1
1537912226409060,1,5,25,34,1,2,14,3
1537912226409060,-1,-4,-1,9,7,39,-15,-3
1537912226430004,-1,-2,-14,25,25,39,-18,-8
1537912226430004,1,5,22,7,-30,-12,-8,-4
1537912226431998,1,-1,-10,13,13,-4,-1,-3
1537912226431998,-3,-4,-10,-17,-8,-41,1,0
1537912226443966,-3,0,5,-12,5,34,-10,-1
1537912226443966,1,4,7,20,12,-51,-6,-1
1537912226452942,-1,0,7,-15,-2,62,-9,-8
1537912226452942,-1,-4,-7,-5,-4,-88,-2,4
1537912226467902,-1,-5,-14,-13,1,14,-3,-1
1537912226467902,-1,3,1,6,-12,-7,-2,-2
1537912226468900,2,7,26,29,35,-71,6,6
1537912226468900,2,0,-10,-5,-20,-19,-16,-4
1537912226490841,0,-7,-9,11,7,19,-1,-1
1537912226490841,-2,-2,-5,4,18,10,2,-1
1537912226491839,2,7,9,-16,-31,-18,8,1
1537912226491839,-2,-3,-3,18,35,22,9,1
1537912226503807,-1,-4,-5,-15,-5,-8,-19,-4
1537912226503807,0,3,-2,12,-6,9,7,1
1537912226512783,-1,-3,-6,-29,8,24,3,-2
1537912226512783,0,4,7,-16,-34,-14,-14,0
1537912226535721,0,5,16,17,1,-8,-1,0
1537912226535721,-2,0,1,-13,12,24,1,-2
1537912226536718,-1,-6,-11,10,-15,-16,7,3
1537912226536718,-5,-8,-20,-26,-12,-7,7,-3
1537912226550682,-1,-7,-8,4,14,69,13,3
1537912226550682,2,1,7,-7,-15,-5,-19,-5
1537912226551679,-1,2,3,-2,-8,-10,-18,-3
1537912226551679,3,9,11,24,27,-10,3,1
1537912226563646,-2,0,9,-6,1,-4,1,0
1537912226563646,-1,-6,-16,-9,4,0,-4,0
1537912226572622,-3,-5,-10,-37,-11,17,-3,-5
1537912226572622,0,1,1,11,3,39,1,2
1537912226587582,0,1,7,-8,-32,-45,-2,-2
1537912226587582,0,0,0,16,47,19,0,2
1537912226589577,0,-2,-8,-24,4,7,-1,1
1537912226589577,1,-1,4,8,6,-1,-5,-2
1537912226610521,1,3,8,55,17,-5,-1,0
1537912226610521,0,-6,-9,-29,-32,-3,16,6
1537912226611518,-2,-4,0,-5,-2,1,-1,0
1537912226611518,-1,1,1,-10,7,2,-3,-2
1537912226624484,-1,2,5,20,9,-13,-3,-2
1537912226624484,0,1,-1,12,-21,-7,4,2
1537912226632462,-3,-5,-7,-27,-9,-1,-1,-2
1537912226632462,1,-2,-1,1,27,10,6,4
1537912226655401,0,1,0,-5,-29,-14,-2,-3
1537912226655401,-1,-2,1,-4,-12,-18,-1,-3
1537912226656398,-2,-3,-3,0,-4,1,-9,-5
1537912226656398,-1,1,0,10,-36,-11,4,-1
1537912226670361,1,0,1,-18,52,18,1,-1
1537912226670361,-1,0,-1,19,-8,-2,-1,1
1537912226671359,1,-2,-5,-17,-15,-3,-1,0
1537912226671359,-1,-1,-3,-3,-2,-3,-1,-2
1537912226684324,-3,1,1,-6,-6,-8,-1,0
1537912226684324,-2,-2,-2,0,-7,-9,-4,-2
1537912226693300,0,2,1,4,38,10,2,0
1537912226693300,-2,-2,-2,0,-21,-3,0,0
1537912226708260,1,1,-1,-33,-10,12,4,1
1537912226708260,-2,-3,-2,0,0,8,0,-1
1537912226709258,-1,-1,0,5,-7,-3,0,0
1537912226709258,1,1,1,-5,1,-10,-2,-1
1537912226730201,-2,-1,-1,12,-15,-6,-10,-5
1537912226730201,-1,-2,-3,-10,27,10,-1,-2
1537912226732196,0,-5,-1,-8,-16,-8,1,0
1537912226732196,0,-1,-1,-1,-17,0,5,1
1537912226753140,0,0,3,9,-5,-2,1,-1
1537912226753140,-1,-2,-3,-7,-23,-8,-1,-1
1537912226754137,-2,-2,-2,3,-18,-18,-5,-3
1537912226754137,0,-1,-2,0,47,35,4,0
1537912226768100,0,-1,-1,-7,-15,-13,-5,-2
1537912226768100,0,-3,-1,-2,14,-9,3,2
1537912226769097,-1,3,3,13,12,17,-14,-4
1537912226769097,-2,-2,-2,4,-23,-26,-3,-2
1537912226790042,-1,0,0,-12,-18,15,1,0
1537912226790042,-1,-1,-2,-5,12,0,0,-2
1537912226792036,-2,-1,1,19,13,-32,-7,-4
1537912226792036,0,3,2,-2,-29,15,-6,-3
1537912226812980,-1,0,1,12,-19,-6,-3,1
1537912226812980,0,0,-2,-8,17,1,3,0
1537912226813978,-1,0,-3,-17,-20,-12,6,2
1537912226813978,-1,-2,-3,1,47,16,0,-1
1537912226826943,-1,0,1,2,-59,-8,6,3
1537912226826943,-1,0,-2,6,37,4,2,-1
1537912226833925,0,-2,-2,-4,-3,2,1,0
1537912226833925,-1,-1,1,5,-1,-12,-6,-2
1537912226850879,1,-1,-1,-6,56,11,0,1
1537912226850879,0,1,3,4,-64,-14,-6,-2
1537912226851877,0,-1,-3,-3,8,21,6,1
1537912226851877,-3,-3,-3,-8,-1,-17,-1,-1
1537912226872820,-1,-1,-3,8,29,14,1,-1
1537912226872820,0,2,-3,-9,-45,-24,-7,-4
1537912226874816,1,1,2,-1,30,4,4,3
1537912226874816,0,1,3,6,-6,20,1,5
1537912226886783,0,0,-2,-11,0,-10,-1,-1
1537912226886783,-1,-3,-2,20,76,18,-8,-2
1537912226893764,-3,-3,-6,-23,-32,-6,12,2
1537912226893764,-1,-1,-1,1,0,-5,1,-1
1537912226909723,-3,0,2,1,26,-3,-3,-2
1537912226909723,-1,-1,-2,-4,-40,-6,-1,-1
1537912226916704,0,1,4,8,10,1,-9,-3
1537912226916704,0,-1,-5,-8,1,18,0,1
1537912226932662,-1,-3,-2,-5,9,-5,9,2
1537912226932662,0,1,1,3,-20,-23,-6,-1
1537912226934656,-2,-2,-4,-6,4,10,20,11
1537912226934656,-1,-2,-3,-8,40,-9,-3,-1
1537912226946623,-1,0,0,-2,-43,-6,-4,-2
1537912226946623,0,-1,0,7,64,8,2,1
1537912226955600,1,-1,-1,-8,-6,7,-9,-4
1537912226955600,0,0,-1,-4,-31,6,-1,-1
1537912226970559,-1,-2,-3,3,12,2,4,2
1537912226970559,-4,-3,-1,-12,-37,-14,0,-3
1537912226971557,-2,2,-1,10,17,16,-3,-4
1537912226971557,-1,0,0,-3,-21,-11,5,-1
1537912226992500,-2,-2,-1,1,17,-3,-1,-5
1537912226992500,-2,0,-2,0,9,21,8,2
1537912226994495,1,0,2,10,-31,-8,2,1
1537912226994495,-2,-2,1,1,-7,1,5,0
1537912227007460,-2,0,-4,-5,-24,-16,-8,-2
1537912227007460,-2,-4,-4,-19,42,8,17,2
1537912227014442,1,0,1,20,-20,-16,-3,0
1537912227014442,-2,-1,-4,-20,3,-2,-4,-2
1537912227030399,-1,-3,2,-4,-7,-2,-2,-2
1537912227030399,0,1,-2,-14,-51,7,-9,-3
1537912227031396,0,-2,0,5,81,-3,-4,-2
1537912227031396,2,1,6,29,-8,-4,-1,0
1537912227053337,0,0,-8,-31,-26,4,-6,-1
1537912227053337,0,-3,-5,-3,29,-13,-5,-1
1537912227054336,-1,-1,1,18,-18,19,13,3
1537912227054336,-1,-1,-2,-12,-17,-7,-3,0
1537912227067302,-1,1,3,13,12,0,-6,-2
1537912227067302,-1,2,3,1,-36,12,-10,-2
1537912227074284,-1,-1,0,-4,-9,-5,-10,-4
1537912227074284,-2,-3,0,7,42,0,5,0
1537912227090241,1,-2,2,4,-15,-2,1,0
1537912227090241,0,-1,-4,1,-7,-3,0,-2
1537912227092236,-2,-2,-2,-5,13,-15,-4,-2
1537912227092236,-1,2,-2,-8,-14,10,-2,-1
1537912227113180,1,-1,0,8,-3,-15,1,1
1537912227113180,1,-4,-1,-14,28,32,4,2
1537912227114177,0,-1,1,-2,-6,-4,-2,-2
1537912227114177,0,-1,-5,-14,-16,0,-3,0
1537912227127142,-2,-1,2,13,40,-2,3,-1
1537912227127142,-3,-3,-5,7,-5,-9,-6,-2
1537912227134125,-2,0,1,11,-25,-4,4,-1
1537912227134125,-2,-1,-2,-8,-46,1,-10,-7
1537912227150080,0,-2,0,0,105,10,7,4
1537912227150080,1,0,7,50,-75,-29,14,8
1537912227152074,-1,-1,-8,-62,-6,31,5,-2
1537912227152074,1,0,5,23,-4,-10,-6,-2
1537912227173018,-1,-3,1,-1,-79,3,13,6
1537912227173018,-6,-9,-17,-23,81,1,2,-3
1537912227174015,2,0,1,6,-28,-29,-8,-1
1537912227174015,-2,0,0,19,58,3,2,0
1537912227186980,0,-1,-7,-11,-17,17,-10,-8
1537912227186980,-1,3,7,9,-10,-6,5,2
1537912227193962,-1,1,-2,-9,-15,17,-3,2
1537912227193962,-7,-4,-4,5,13,-35,39,7
1537912227209919,-2,-1,1,25,-7,-10,10,5
1537912227209919,1,5,3,-3,-3,8,-36,-16
1537912227211914,2,3,4,-8,-24,-8,7,5
1537912227211914,1,6,9,-12,5,1,-16,-3
1537912227232858,-3,1,-7,24,27,4,-11,-12
1537912227232858,-5,-16,-19,-59,-6,-17,25,8
1537912227234853,-13,-3,-2,29,0,14,-24,-23
1537912227234853,17,-1,4,-12,36,-10,11,12
1537912227246821,1,-2,-17,4,-43,5,-3,2
1537912227246821,5,9,23,-3,1,15,-38,-11
1537912227255799,-1,1,-18,26,20,-19,-5,-3
1537912227255799,-3,-4,1,-25,-53,-3,18,7
1537912227270757,-4,6,23,-11,49,6,4,2
1537912227270757,1,5,-9,23,-22,34,-26,-15
1537912227271756,3,1,7,2,11,-13,8,8
1537912227271756,-5,13,32,30,18,22,-19,-10
1537912227292698,3,-9,-14,-18,-29,2,-24,-11
1537912227292698,-3,-17,-45,-14,-2,-31,27,26
1537912227294693,1,0,38,-21,5,7,14,14
1537912227294693,-3,-12,-62,-15,-8,-24,-16,-6
1537912227306660,-11,1,8,11,21,25,-2,-17
1537912227306660,10,10,27,11,-1,-16,2,16
1537912227315637,3,-4,-25,-7,-37,55,12,-3
1537912227315637,7,7,23,-1,34,-41,14,15
1537912227330596,-1,4,19,26,-8,24,-53,-17
1537912227330596,0,0,-11,15,-12,6,24,-2
1537912227331594,-5,7,33,-1,23,-21,22,-10
1537912227331594,-1,-2,12,1,-44,29,-4,8
1537912227352538,-2,-18,-71,14,29,2,-2,2
1537912227352538,-6,-19,-32,-75,-2,3,-3,-2
1537912227354533,1,2,-13,-22,-55,-23,-22,-9
1537912227354533,0,10,43,32,82,22,-17,-18
1537912227366501,3,4,3,-8,-5,-18,19,15
1537912227366501,1,3,12,22,-3,-16,-44,-18
1537912227375477,-7,-10,-19,-4,3,15,8,2
1537912227375477,-2,-5,-16,-6,-27,-12,4,-1
1537912227391433,5,4,20,-11,-12,8,11,13
1537912227391433,-12,2,9,13,-8,-2,20,-6
1537912227393428,7,4,1,2,22,-14,-22,4
1537912227393428,-8,-5,-3,5,-19,-3,39,5
1537912227412377,3,2,12,5,21,-13,25,10
1537912227412377,-6,-3,-6,-5,-3,-5,-16,-9
1537912227414372,-6,-14,-17,-24,-6,-25,45,20
1537912227414372,1,-1,0,-3,-5,0,-10,-1
1537912227426340,2,1,-34,-13,-16,-15,-9,-4
1537912227426340,6,11,71,7,-21,5,10,6
1537912227435316,-2,-6,-63,33,31,24,-17,-5
1537912227435316,-1,-14,-19,-39,-12,2,-16,-9
1537912227450277,3,0,10,-6,-8,-16,3,0
1537912227450277,2,6,0,-18,6,5,8,4
1537912227452271,2,3,18,20,23,-1,-13,-5
1537912227452271,-4,5,0,0,11,32,-27,-7
1537912227473215,-2,5,17,4,-5,-1,-3,-8
1537912227473215,7,1,-13,10,9,-11,-11,4
1537912227474212,-1,1,21,5,-1,30,10,-1
1537912227474212,1,1,-19,10,-4,-14,-23,-13
1537912227486180,0,-4,19,-4,-1,1,-1,2
1537912227486180,1,3,-20,-14,-32,17,-30,-12
1537912227495156,1,-5,9,5,-6,-24,18,10
1537912227495156,-4,-4,-4,-2,-11,-5,7,-1
1537912227510116,-1,-3,0,-33,-16,-6,-2,2
1537912227510116,-7,-8,-9,20,3,10,12,-2
1537912227512111,0,-4,-12,-7,9,-38,-11,1
1537912227512111,-2,0,23,-10,-21,3,13,2
1537912227533055,-3,0,-20,2,-11,-5,9,-2
1537912227533055,-1,-3,11,11,26,0,8,2
1537912227534053,-1,4,-11,-15,1,24,-8,1
1537912227534053,-2,-4,2,12,-20,-6,1,-2
1537912227546020,-4,-11,-21,-20,-15,-18,27,6
1537912227546020,-8,4,5,4,22,1,7,-3
1537912227554996,12,5,28,-4,-44,-22,-12,3
1537912227554996,-3,0,-28,12,36,16,1,1
1537912227569956,3,1,38,-7,-22,-14,-18,1
1537912227569956,1,-7,-48,18,-8,51,18,2
1537912227571951,-9,-8,4,-28,5,-13,35,9
1537912227571951,-2,1,-11,-5,-16,-14,-8,-5
1537912227592895,1,2,6,1,27,2,-8,1
1537912227592895,1,3,20,8,5,-14,-15,-6
1537912227593892,-2,0,2,12,-3,23,-17,-12
1537912227593892,2,-5,-16,-11,6,16,4,2
1537912227606858,2,5,9,13,3,-1,21,6
1537912227606858,0,3,23,-25,-24,-7,14,8
1537912227615834,-2,-1,-11,17,-20,-17,-15,-9
1537912227615834,-6,-5,3,-7,35,-5,4,-1
1537912227630794,-5,-14,-60,-29,-13,-4,-10,-4
1537912227630794,-3,-8,-7,6,9,5,-19,-9
1537912227631791,0,3,4,-19,-8,-8,7,2
1537912227631791,5,10,35,8,-26,6,-2,-1
1537912227652735,-3,4,11,18,54,-19,8,2
1537912227652735,2,-2,-7,-9,-36,-23,9,4
1537912227654730,-1,-2,-10,-2,-24,-5,-8,-3
1537912227654730,1,1,5,8,23,22,-6,-3
1537912227675674,-2,4,8,-5,6,13,-12,-6
1537912227675674,0,-1,4,3,-11,-20,6,3
1537912227676671,-2,0,6,7,12,5,-3,-4
1537912227676671,-7,-5,-14,-1,-17,-31,1,-2
1537912227690634,4,2,10,14,-2,41,-5,-3
1537912227690634,-2,-2,-8,-19,0,-19,1,0
1537912227691631,-1,0,5,6,39,18,-5,-1
1537912227691631,-1,-1,-7,2,8,-10,-5,-2
1537912227712575,-5,-3,-3,-1,-5,-3,-3,-5
1537912227712575,0,1,5,-2,-1,-5,4,2
1537912227714570,-2,1,0,7,9,1,-9,-5
1537912227714570,2,-2,-7,-7,-21,2,4,3
1537912227735514,1,2,5,-7,3,-7,-7,-2
1537912227735514,1,0,-1,8,11,18,2,1
1537912227736511,0,1,4,11,-2,-11,-4,-3
1537912227736511,1,-3,-5,-2,-23,14,0,1
1537912227750474,1,3,3,-11,-21,-19,-23,-12
1537912227750474,-3,-2,-3,4,40,-3,8,2
1537912227752468,0,-1,-2,7,23,2,-2,-1
1537912227752468,4,2,0,-5,3,28,-4,3
1537912227772415,-3,0,6,2,9,-1,-9,-5
1537912227772415,1,1,-3,7,-12,-12,-3,-1
1537912227774410,-1,-2,0,-8,-4,-1,3,0
1537912227774410,0,-1,-5,1,2,11,8,1
1537912227795354,0,-2,3,1,-21,-1,2,-1
1537912227795354,1,3,5,5,13,-5,1,1
1537912227796351,0,-3,-3,-5,-20,-7,-2,0
1537912227796351,0,-2,-3,-5,8,-12,-4,-3
1537912227810314,-1,-1,-1,-3,-10,11,8,2
1537912227810314,-2,-2,2,2,-6,-14,2,-1
1537912227816298,0,1,2,4,3,27,-5,-2
1537912227816298,-3,-3,-5,-7,16,-3,1,-1
1537912227833252,-2,-3,-1,-3,6,6,4,2
1537912227833252,-1,1,0,-5,-21,3,-5,-5
1537912227834250,-1,-1,-3,-13,-15,-11,-5,-2
1537912227834250,-1,0,-1,16,-24,-16,-3,0
1537912227855194,-3,-4,-6,-15,41,-7,10,3
1537912227855194,-2,-3,-4,-13,-34,-1,1,0
1537912227857189,0,-1,2,3,32,21,-1,-2
1537912227857189,-1,1,2,3,16,-7,-7,-3
1537912227870154,0,0,2,0,-14,-10,-4,-1
1537912227870154,1,1,2,1,-24,1,-12,-2
1537912227876138,-2,-3,-4,-4,-8,-34,-4,1
1537912227876138,1,-3,-5,-10,13,-6,10,1
1537912227894091,1,2,0,12,57,19,-1,2
1537912227894091,-2,-2,-1,-5,-50,-4,4,1
1537912227896086,1,-1,-1,3,31,8,-2,-1
1537912227896086,-2,-2,-1,-10,-55,-16,-6,-1
1537912227915034,-3,-2,-1,5,-3,-4,-1,-1
1537912227915034,1,0,1,2,35,6,0,-1
1537912227917030,-1,0,-2,2,-34,-1,0,-1
1537912227917030,-1,-1,-3,-16,21,-5,1,0
1537912227929995,0,0,-1,0,21,8,2,-2
1537912227929995,0,-1,0,3,7,-1,-4,-2
1537912227936977,-1,0,0,1,-13,-7,-9,-6
1537912227936977,-1,-4,-2,-4,4,21,10,3
1537912227952934,0,0,-2,0,-61,0,0,0
1537912227952934,1,0,3,5,75,-7,-3,-4
1537912227953931,-1,-2,-2,-1,-23,10,1,3
1537912227953931,-1,-1,-1,1,37,-3,-6,-2
1537912227975873,-1,0,-2,0,-55,-13,-5,-2
1537912227975873,-1,-1,-1,5,-18,10,6,2
1537912227976870,-1,-2,-2,-16,1,-8,5,-1
1537912227976870,0,1,1,9,-7,-7,-6,-1
1537912227989835,0,-2,-2,1,11,14,2,2
1537912227989835,1,1,-1,-10,-42,-12,0,-1
1537912227996816,-1,-3,-3,0,61,1,10,3
1537912227996816,0,3,2,12,16,-6,-4,-2
1537912228012773,-2,-1,-2,4,-23,-17,-4,-5
1537912228012773,-1,-1,-3,-10,3,-5,-4,-3
1537912228014767,-1,-2,-4,-22,-13,33,14,6
1537912228014767,-2,-3,-3,-7,-6,-2,-9,-5
1537912228035711,-1,2,1,3,-12,-17,-1,0
1537912228035711,0,0,-1,11,9,9,3,0
1537912228036709,0,-1,-1,1,-17,-12,-7,-4
1537912228036709,-2,0,2,6,21,1,-6,-3
1537912228049674,-1,2,0,1,7,5,-9,-6
1537912228049674,-1,-1,-2,-10,-26,8,-1,1
1537912228056655,-2,1,3,26,35,-7,5,0
1537912228056655,-1,-3,-4,-27,-29,-5,4,0
1537912228072613,-2,-1,0,-5,4,3,-1,-2
1537912228072613,-4,-1,-1,8,67,-2,5,1
1537912228074607,-2,-3,-9,-25,-72,-7,-1,-2
1537912228074607,-1,-1,2,18,-16,-6,-1,-2
1537912228095551,1,-1,-5,-30,-12,3,-1,0
1537912228095551,-2,0,-2,2,27,0,-6,-2
1537912228096549,0,0,0,6,4,-6,3,0
1537912228096549,-2,-1,-2,0,-30,-7,6,4
1537912228109514,-1,-1,3,0,51,18,-6,-4
1537912228109514,0,-2,0,1,-9,-12,9,3
1537912228116495,-1,-1,1,1,-22,-15,-8,-3
1537912228116495,-1,0,0,-4,6,14,0,-2
1537912228132453,0,0,3,8,-5,10,13,4
1537912228132453,-1,-2,-5,-11,-8,-3,5,2
1537912228134447,1,1,1,1,7,-5,-13,-7
1537912228134447,-2,-2,-1,-2,9,-6,0,-2
1537912228155391,-2,-1,2,12,-32,5,-2,-3
1537912228155391,1,0,-2,-1,-8,-8,0,1
1537912228156389,-1,-1,-1,14,1,3,-9,-3
1537912228156389,1,-1,-3,-23,-47,0,-6,0
1537912228169354,-3,-5,-12,-15,60,-1,9,2
1537912228169354,0,0,1,-6,-5,5,-6,-3
1537912228178330,1,-2,-1,-3,-2,-4,-2,-3
1537912228178330,0,0,1,19,-8,2,2,2
1537912228192293,0,-1,-1,2,13,-5,-2,-1
1537912228192293,-1,-1,-1,4,-11,1,-3,-2
1537912228199274,-3,1,-2,-7,21,16,2,1
1537912228199274,0,-1,-2,-6,-3,-10,-2,-3
1537912228214234,1,0,2,-1,-30,-5,-3,0
1537912228214234,-3,-2,-3,6,10,0,2,0
1537912228215231,0,-1,1,8,7,-2,1,1
1537912228215231,-1,0,0,3,-6,-1,-2,1
1537912228238170,0,0,0,7,-25,5,-7,-2
1537912228238170,0,-1,0,-11,5,1,-6,-2
1537912228238170,-2,0,2,-7,-11,6,1,0
1537912228238170,0,-2,-2,11,6,-17,-2,-1
1537912228252133,-2,2,3,5,16,8,-1,0
1537912228252133,-2,-3,-8,-11,-11,-3,7,4
1537912228253130,-2,-3,-3,-3,-27,-7,13,2
1537912228253130,-2,-1,1,10,29,18,-4,-1
1537912228275071,-2,-4,-7,-27,-25,-17,2,2
1537912228275071,3,1,1,4,-3,-1,-1,1
1537912228275071,-1,-2,-2,-3,8,0,0,3
1537912228275071,0,-1,0,-7,-28,-4,-2,-2
1537912228298010,-1,-1,2,23,15,-6,4,2
1537912228298010,0,1,3,4,10,-6,-9,-5
1537912228299008,0,0,-4,-8,12,8,5,4
1537912228299008,1,0,1,6,12,5,1,-1
1537912228311973,-3,-2,-1,-4,15,0,0,-2
1537912228311973,-2,-1,1,-4,-25,-10,-3,-3
1537912228312970,-1,1,-2,7,0,-10,-6,-3
1537912228312970,-2,-2,-2,-2,16,16,6,1
1537912228334911,0,-1,-4,-12,-59,-17,6,0
1537912228334911,1,2,3,11,39,14,-5,0
1537912228334911,1,0,1,-8,-30,-7,-5,-1
1537912228334911,-3,-3,-6,28,53,9,12,3
1537912228357850,1,-2,-6,-62,-52,-3,9,6
1537912228357850,-1,-1,-1,10,48,0,-17,-8
1537912228358848,0,1,2,2,9,0,-10,-5
1537912228358848,-1,2,2,-3,-27,2,-10,-7
1537912228371813,0,-3,0,28,21,0,-3,0
1537912228371813,-1,-3,-3,-18,-43,-2,8,3
1537912228372810,-2,1,-1,-9,-3,4,-5,-4
1537912228372810,1,0,0,-3,17,-6,-2,-1
1537912228394751,-2,-1,2,17,15,8,3,-1
1537912228394751,-1,-1,0,-9,27,9,-5,-2
1537912228395749,-1,-3,-1,0,-20,-9,-6,-3
1537912228395749,1,-1,-1,-8,-16,-8,0,1
1537912228408714,0,3,6,25,-2,-18,-7,-3
1537912228408714,1,-1,-3,12,21,31,8,1
1537912228417690,-1,0,0,-12,-2,5,3,-2
1537912228417690,-2,-6,-5,-4,-7,7,3,0
1537912228432650,2,4,13,96,-26,-29,-23,-5
1537912228432650,-4,-2,-17,-84,49,11,3,1
1537912228432650,-1,0,-3,-29,46,12,5,2
1537912228432650,0,6,18,35,-28,-13,-1,3
1537912228454592,-3,-9,-11,-64,27,-25,-8,-2
1537912228454592,-1,0,0,52,-50,25,11,1
1537912228455589,-1,-6,-10,40,29,28,-16,-7
1537912228455589,0,-1,-6,-5,33,4,12,2
1537912228477531,0,7,1,-53,-13,1,-3,-4
1537912228477531,-10,-8,2,7,-11,-43,-4,-7
1537912228477531,1,-1,5,-23,-16,-11,1,10
1537912228477531,12,3,2,75,-3,17,8,9
1537912228493488,-9,-3,-10,6,2,1,5,-11
1537912228493488,3,2,9,1,-12,-27,-13,-8
1537912228494485,-3,-4,1,15,-22,5,67,25
1537912228494485,-5,-3,-3,6,34,-11,7,-3
1537912228514432,7,4,20,19,-24,-6,10,8
1537912228514432,-2,-4,-11,29,-7,11,-8,3
1537912228515429,-4,-6,-19,-28,2,-1,-35,-15
1537912228515429,1,2,19,38,-17,-10,-14,-4
1537912228537372,-3,-7,-20,-95,-26,-13,-9,3
1537912228537372,-5,-7,-25,-43,-14,18,8,-14
1537912228538369,-1,-4,-12,32,-24,-9,16,3
1537912228538369,-3,-4,-16,-104,17,10,-13,-5
1537912228560310,-4,6,16,48,-23,-1,-3,-2
1537912228560310,4,14,39,52,18,-2,-2,3
1537912228561307,1,4,14,35,11,-19,-11,3
1537912228561307,4,1,-7,-20,-6,6,-5,-7
1537912228574272,6,-1,-1,-2,3,-27,-3,17
1537912228574272,-13,-2,11,51,27,51,12,-11
1537912228575270,-3,1,-1,-17,-7,-5,-3,-9
1537912228575270,-8,10,28,3,-21,-27,-17,0
1537912228597211,11,-3,-10,99,70,49,9,1
1537912228597211,0,-14,-17,-82,-63,-58,-23,10
1537912228598209,-5,-1,-10,48,-1,27,-16,-5
1537912228598209,2,-8,-36,-30,-12,-18,-33,-19
1537912228612171,-5,12,40,80,39,27,-43,-31
1537912228612171,6,3,1,-10,-8,-4,13,11
1537912228613168,-18,-4,-1,-20,21,28,0,-13
1537912228613168,15,3,2,-9,-17,-34,-1,13
1537912228635110,-5,-1,-16,-5,17,83,-6,-14
1537912228635110,2,11,26,49,31,-31,12,9
1537912228635110,15,-1,22,-29,-17,-25,-4,17
1537912228635110,-8,3,-23,119,4,-21,8,-15
1537912228658048,-8,-6,35,-120,-68,-27,1,0
1537912228658048,-3,-19,-70,-11,20,13,15,3
1537912228659046,-8,-19,-32,23,-13,-8,40,-14
1537912228659046,-4,-5,6,-47,-15,27,0,36
1537912228673008,7,4,1,84,18,-32,22,6
1537912228673008,4,8,37,-29,-46,2,-5,3
1537912228674006,1,9,3,-2,15,19,-10,-3
1537912228674006,-11,-4,-12,-31,6,15,-5,-17
1537912228694950,-12,0,10,-5,-4,-28,10,-7
1537912228694950,2,5,6,40,26,31,-22,-4
1537912228694950,1,1,-4,9,-33,-19,-24,-11
1537912228694950,-6,-11,-6,-33,5,15,38,0
1537912228717889,4,0,-16,11,11,0,2,13
1537912228717889,4,7,40,6,-19,-24,-18,-9
1537912228718886,3,-1,-30,-25,60,42,-23,-4
1537912228718886,-2,-2,18,2,5,3,-3,-10
1537912228731851,5,4,-27,-16,1,5,-13,3
1537912228731851,-1,-5,5,23,-29,-21,-8,-4
1537912228732849,1,-8,-26,-44,3,15,41,10
1537912228732849,1,1,8,1,-24,-42,-12,2
1537912228754791,-7,-16,-39,-56,-4,3,15,3
1537912228754791,1,8,24,34,24,2,22,-1
1537912228755788,1,8,40,-18,-18,-43,27,4
1537912228755788,-12,-5,-31,45,24,51,-5,-4
1537912228777730,10,0,8,-27,-51,-6,11,12
1537912228777730,-2,-4,-9,-5,4,3,-11,8
1537912228778727,3,0,-2,-20,-9,-20,-15,-9
1537912228778727,-8,-5,-2,19,-7,-10,24,4
1537912228791691,-3,-4,9,-21,17,-10,-12,-10
1537912228791691,-7,-8,-55,1,13,-5,-8,-17
1537912228792689,5,1,12,-6,-8,-16,-14,2
1537912228792689,0,8,21,-14,-1,-5,-8,-9
1537912228814629,-9,-2,-14,-2,-15,-14,-24,-2
1537912228814629,8,0,21,29,69,25,24,-5
1537912228815627,-4,-6,0,3,-36,-9,-8,1
1537912228815627,5,-3,-30,-50,-13,-8,-13,2
1537912228837568,3,5,40,19,11,-1,3,6
1537912228837568,-7,-7,-57,-47,7,-14,-13,-8
1537912228838565,3,5,28,60,-31,5,23,11
1537912228838565,1,1,14,-8,42,0,-1,7
1537912228852528,-4,3,-6,4,13,33,-11,-14
1537912228852528,10,7,27,-12,-27,-13,0,8
1537912228852528,-1,0,6,13,42,34,2,6
1537912228852528,0,-11,-37,33,-19,-41,-6,-2
1537912228874469,-13,-9,-14,-53,-11,-3,20,-29
1537912228874469,6,3,-6,-1,-18,12,-17,22
1537912228875467,-4,4,13,10,37,-16,-3,-12
1537912228875467,-9,2,22,-16,-35,-18,3,18
1537912228897408,26,9,-2,55,26,4,2,19
1537912228897408,-8,-7,-7,-41,-26,-3,-4,-10
1537912228898405,-2,1,-5,-1,9,-9,-13,-13
1537912228898405,-1,3,17,-19,1,8,12,-3
1537912228912368,-5,-4,-14,20,2,4,-11,-3
1537912228912368,-1,-1,12,-14,-22,-6,8,0
1537912228912368,-1,-7,-20,5,-11,-17,-15,1
1537912228912368,4,4,12,5,4,8,-5,-9
1537912228934309,-4,-4,-16,-7,15,26,-7,1
1537912228934309,-1,2,6,-28,-5,-47,9,0
1537912228935306,-1,5,6,4,4,31,-21,2
1537912228935306,4,1,8,11,12,5,13,2
1537912228958246,-2,-4,-12,-2,-16,-25,13,3
1537912228958246,-3,-4,10,16,4,40,14,7
1537912228958246,-8,-2,-5,0,-8,-22,-6,-5
1537912228958246,8,-8,-16,-11,-5,17,-2,-4
1537912228972208,1,2,3,-5,23,-2,1,5
1537912228972208,-3,-1,-9,5,-4,-10,-1,-6
1537912228973205,-1,0,8,2,-15,-11,4,2
1537912228973205,-2,2,4,-8,-16,21,-1,-4
1537912228994149,-3,-1,0,8,-21,-10,3,2
1537912228994149,-5,-2,-2,0,41,16,-7,-3
1537912228995146,3,6,6,32,-15,-3,-9,-3
1537912228995146,-3,-4,-11,-78,1,-16,-7,-4
1537912229018085,-1,-1,4,5,-8,-6,-13,-8
1537912229018085,-3,-5,-10,-1,-11,13,15,3
1537912229018085,3,3,9,23,29,11,-4,-1
1537912229018085,-1,0,-2,1,-28,-21,-11,-2
1537912229032048,-5,-6,-6,-16,-18,37,-7,-6
1537912229032048,1,0,-3,-6,0,-2,2,1
1537912229033045,-1,-1,-5,-4,13,-19,0,1
1537912229033045,-1,-2,9,21,4,2,2,0
1537912229054987,0,1,3,-8,13,-6,7,0
1537912229054987,-3,-1,-1,8,-29,-14,-12,-6
1537912229054987,0,-1,-6,-17,20,-2,5,1
1537912229054987,0,2,2,30,6,21,3,0
1537912229077925,2,-1,0,-17,8,-11,3,4
1537912229077925,1,-2,-3,8,-22,-20,-8,-2
1537912229078923,-7,-3,-4,-21,-18,-2,-2,-8
1537912229078923,0,3,3,12,37,11,1,1
1537912229091888,-4,-3,-3,13,7,2,2,-1
1537912229091888,1,2,0,-5,-13,-11,-5,-1
1537912229092885,1,-2,-1,-9,6,-2,4,0
1537912229092885,-1,-1,0,4,-20,7,-2,-2
1537912229114827,1,0,2,10,-12,-11,0,1
1537912229114827,0,1,1,-5,31,9,-1,-1
1537912229115824,1,-2,-6,-10,1,-9,2,3
1537912229115824,-2,-1,0,-10,-28,13,2,-3
1537912229137765,0,-1,1,7,-3,-7,-1,-1
1537912229137765,0,1,2,22,14,2,0,-1
1537912229138763,-1,-2,-4,-20,9,-8,4,1
1537912229138763,0,0,0,-10,-29,-14,0,0
1537912229152725,1,1,3,5,34,21,-10,-2
1537912229152725,-2,-2,-3,1,-3,-3,6,0
1537912229159706,0,0,3,-5,-37,-5,0,0
1537912229159706,-2,-3,-8,-41,8,-4,-4,-4
1537912229174666,-2,-1,1,5,-18,-5,-3,1
1537912229174666,-1,-1,0,2,14,2,-3,-2
1537912229175664,0,1,6,12,28,5,-4,0
1537912229175664,0,-2,-5,1,17,-1,-4,-2
1537912229197605,-1,-3,-3,-4,2,1,0,0
1537912229197605,0,0,-1,-7,-29,4,-1,-2
1537912229198603,0,-2,0,15,-5,-15,1,-1
1537912229198603,0,1,2,5,9,-4,-3,-1
1537912229211568,-1,-2,-1,-10,15,22,7,1
1537912229211568,-3,-4,-3,-11,-5,-2,4,4
1537912229219547,0,-1,1,15,-27,6,4,0
1537912229219547,0,-1,-1,8,9,-7,0,-1
1537912229234508,-1,-1,-4,-25,-5,-16,-5,-3
1537912229234508,0,2,3,8,-39,2,-9,-5
1537912229235504,0,-1,-5,-25,43,16,0,2
1537912229235504,-3,-3,-2,14,-21,-18,-5,-3
1537912229257445,0,0,1,-1,11,1,-3,0
1537912229257445,-1,1,0,-4,-4,-2,-7,-4
1537912229258443,-1,-3,-2,10,-25,4,-1,1
1537912229258443,0,1,1,10,41,6,-3,-1
1537912229271408,0,1,3,5,-32,-19,-3,1
1537912229271408,0,-2,-4,1,41,-3,0,-1
1537912229279387,-2,1,-1,-7,-21,0,-1,-3
1537912229279387,-3,-1,-1,-11,-17,9,4,0
1537912229294346,-2,-2,-1,23,11,-3,0,-2
1537912229294346,0,0,1,9,-6,-12,1,1
1537912229295344,-2,-1,-5,-33,-7,2,1,0
1537912229295344,0,1,4,0,6,16,-3,-3
1537912229318283,-2,0,-2,-9,13,-14,3,1
1537912229318283,2,0,1,31,-21,-10,-1,-1
1537912229318283,-3,-3,-6,-27,-50,-18,0,0
1537912229318283,0,2,4,7,52,15,9,1
1537912229331248,-1,-2,-2,-2,-18,14,14,4
1537912229331248,-1,-2,5,31,38,-3,-2,-2
1537912229339228,0,0,-5,-42,11,-6,-10,-4
1537912229339228,-1,-2,-2,-26,-30,-13,0,0
1537912229355186,0,1,-2,2,-28,-11,-4,-1
1537912229355186,-1,-2,-3,-10,-19,11,1,-2
1537912229355186,-2,0,6,22,55,6,2,-1
1537912229355186,-2,0,1,16,-9,2,-4,0
1537912229378123,-2,-1,-3,-16,10,0,2,-1
1537912229378123,-1,-2,-1,-11,-18,5,-4,-2
1537912229378123,-1,-1,-1,23,-1,-9,-1,0
1537912229378123,0,-1,0,0,-8,11,0,1
1537912229391088,2,2,1,12,32,5,-16,-6
1537912229391088,-1,-2,-3,-17,-28,-12,1,1
1537912229400065,1,-2,2,9,31,5,2,-1
1537912229400065,-1,0,1,15,-18,-2,-6,-1
1537912229415024,-2,-4,-1,1,-1,1,15,4
1537912229415024,-2,-1,-6,-19,2,-9,-4,0
1537912229415024,1,0,-2,-9,-12,5,-4,-3
1537912229415024,0,1,3,-10,4,-4,-3,-2
1537912229437963,-1,0,-2,9,-2,15,1,0
1537912229437963,-2,0,-3,-16,-13,-19,-4,-3
1537912229438960,-1,0,1,14,-21,6,2,2
1537912229438960,-1,-4,-3,3,24,0,2,-1
1537912229451926,-1,-1,0,-3,8,17,7,1
1537912229451926,1,-2,-1,-5,-17,-12,2,-1
1537912229459904,-1,1,0,6,4,18,0,0
1537912229459904,0,-1,-1,5,-45,-6,2,1
1537912229474864,-3,-1,-1,-11,59,-12,6,-1
1537912229474864,-1,0,1,11,4,12,6,1
1537912229474864,1,-1,-2,-5,-9,-5,3,2
1537912229474864,0,-3,0,2,13,-4,1,0
1537912229497803,0,0,-3,-2,-29,-8,-5,-2
1537912229497803,-1,-1,-2,-12,6,10,-4,-4
1537912229498801,0,1,2,13,10,5,-8,-3
1537912229498801,-1,-2,3,7,8,5,1,2
1537912229520742,-1,-1,0,-11,-14,-8,-5,-2
1537912229520742,0,1,-3,4,-17,3,0,-3
1537912229520742,0,-1,-1,-11,28,-6,-4,-1
1537912229520742,-1,-1,-5,-8,11,-1,-5,-4
1537912229534705,1,1,7,41,27,16,-14,-3
1537912229534705,-2,-4,-6,-55,-34,4,1,-1
1537912229535704,0,-2,-2,-8,-12,-14,-4,-2
1537912229535704,0,-1,-2,0,-4,-15,-6,-3
1537912229557644,0,0,0,-4,-13,-23,-5,-1
1537912229557644,1,3,4,26,41,17,0,1
1537912229558643,0,-6,-9,-9,-33,-15,0,-1
1537912229558643,-1,2,0,14,-16,3,3,-2
1537912229579585,-1,0,-2,1,-29,-5,-12,-6
1537912229579585,-3,-3,-2,-15,40,7,9,3
1537912229587564,-3,2,0,-2,-19,7,-14,-4
1537912229587564,0,0,6,34,36,-11,-11,-5
1537912229594546,-2,-3,-3,10,-27,-9,2,-5
1537912229594546,0,-4,-13,-87,22,14,2,4
1537912229595545,0,4,8,34,7,27,9,-1
1537912229595545,2,1,3,5,15,-4,-14,-3
1537912229617484,1,7,21,31,0,-16,-4,0
1537912229617484,-2,-6,-7,25,-29,1,8,5
1537912229618481,-4,-9,-24,-40,0,-19,23,7
1537912229618481,0,1,-4,-16,1,6,13,8
1537912229640421,-8,3,32,27,-3,-5,11,-2
1537912229640421,18,4,-7,47,4,15,1,2
1537912229641419,2,1,10,8,1,2,-28,-6
1537912229641419,-12,-14,-29,-20,-40,-30,58,7
1537912229654384,-1,-14,-34,-35,25,25,36,22
1537912229654384,-12,-14,2,-19,-21,-20,29,12
1537912229655382,-4,-7,-46,13,-14,-18,0,-6
1537912229655382,7,7,8,-63,6,-3,-13,5
1537912229678320,5,26,53,-8,43,19,-24,-15
1537912229678320,-7,4,26,33,-10,11,14,-10
1537912229678320,0,-9,-12,63,3,0,9,5
1537912229678320,-4,-4,-8,-28,-8,-2,-14,-9
1537912229708240,-2,-12,-31,-7,-1,-14,5,5
1537912229708240,-4,-2,-2,-18,-54,-8,-50,-19
1537912229708240,3,0,5,-23,55,22,53,24
1537912229708240,-15,0,-4,23,16,-1,-19,-21
1537912229714224,17,2,-4,-50,-26,-23,-27,1
1537912229714224,1,6,13,50,24,63,9,1
1537912229715222,7,9,18,-1,-25,-24,-17,-12
1537912229715222,-18,-1,22,14,-10,-1,19,20
1537912229738161,6,-2,-24,20,-3,-2,-4,-42
1537912229738161,-18,0,7,-16,-28,-34,-25,-15
1537912229738161,3,7,24,-3,56,21,-20,-5
1537912229738161,9,0,-15,10,5,14,10,9
1537912229760103,-10,-4,47,20,11,17,-13,-2
1537912229760103,-1,-22,-90,-38,-7,-38,4,7
1537912229761101,-11,-5,-29,-25,-45,-45,-36,-29
1537912229761101,5,8,52,-42,55,96,-22,-8
1537912229775062,-8,-2,-32,58,-40,-22,-10,-3
1537912229775062,8,7,36,-35,36,-23,55,20
1537912229775062,1,7,14,-13,-26,-9,-2,12
1537912229775062,6,-6,-25,43,18,1,3,-3
1537912229798001,-9,1,4,-23,6,-14,17,2
1537912229798001,13,15,44,39,22,-7,-29,5
1537912229798998,-7,3,-16,31,2,28,19,-5
1537912229798998,1,4,32,10,-25,-42,-6,-20
1537912229819943,-7,-21,-42,1,-2,17,-8,33
1537912229819943,-6,-9,-20,10,-8,-25,-10,-8
1537912229821938,3,-2,4,-53,0,12,-13,-7
1537912229821938,-7,-8,-57,-48,-32,-18,-2,-30
1537912229833907,0,-5,10,31,5,-7,25,-6
1537912229833907,-16,1,-3,-38,9,-3,8,4
1537912229842883,16,8,38,28,-12,-3,8,17
1537912229842883,10,10,15,22,7,24,-32,10
1537912229857842,0,-3,-4,-37,-17,-16,7,2
1537912229857842,-3,5,16,43,28,24,4,-6
1537912229858839,-4,-2,30,8,2,-8,-1,2
1537912229858839,0,-17,-49,26,-44,-13,9,13
1537912229880779,-5,2,-9,-90,6,5,-5,-10
1537912229880779,1,-3,21,53,-3,34,-3,0
1537912229881777,-2,-7,-52,-66,7,-11,-25,-5
1537912229881777,-10,-2,34,5,18,-3,-25,-17
1537912229895740,12,-2,-39,92,-9,-26,-7,11
1537912229895740,10,13,38,-104,-25,-26,3,0
1537912229902721,-5,6,10,16,-12,-16,5,17
1537912229902721,-8,-17,-36,11,2,0,-1,6
1537912229917681,-10,-2,7,-3,-17,-4,39,-2
1537912229917681,-2,2,4,32,47,12,-28,-36
1537912229919676,3,-4,-7,20,-44,-18,7,20
1537912229919676,6,19,65,1,13,23,2,-20
1537912229940620,16,0,-11,-9,0,-20,-3,53
1537912229940620,0,-16,-38,52,-2,4,0,35
1537912229941617,-7,-3,-8,-55,15,20,-10,-27
1537912229941617,1,0,5,47,13,45,-12,6
1537912229954582,-9,-2,-21,-66,-9,-36,-6,-12
1537912229954582,8,13,87,-36,-42,-27,-12,-7
1537912229961564,-5,-9,-74,41,49,60,-9,-13
1537912229961564,-9,-17,-16,-59,-28,-27,3,-2
1537912229977521,-3,8,59,19,-17,-8,-29,-22
1537912229977521,9,6,-15,25,22,25,1,0
1537912229979516,0,4,45,49,-22,-37,15,7
1537912229979516,-1,2,-10,-53,-8,-19,1,8
1537912230000461,-1,-7,-12,22,18,67,-54,-28
1537912230000461,-4,-6,-41,-30,1,-56,-6,7
1537912230001458,-8,3,22,-4,-3,-2,-8,-2
1537912230001458,0,9,-7,29,-1,-20,-1,-19
1537912230014422,7,12,38,10,9,53,-2,2
1537912230014422,-6,-7,4,27,-15,-4,-9,-29
1537912230022401,-9,-10,-28,-6,-2,7,-13,-2
1537912230022401,1,-8,-32,-19,-8,-18,-6,12
1537912230037361,-4,4,5,-24,-19,-6,13,7
1537912230037361,8,5,51,22,25,20,13,8
1537912230039355,-5,-9,-74,-10,20,-12,9,-5
1537912230039355,4,-5,20,-29,-16,-6,-16,-10
1537912230060299,0,6,-1,43,6,13,11,5
1537912230060299,4,10,-2,29,10,0,6,0
1537912230061297,-3,3,60,-55,-21,-2,-12,-16
1537912230061297,-6,-10,-31,17,28,-23,-11,3
1537912230074262,-7,-21,-63,-43,-20,-14,18,1
1537912230074262,-7,-6,-38,-17,-13,-39,-9,5
1537912230083238,5,13,50,37,11,18,11,2
1537912230083238,11,17,47,18,8,12,0,13
1537912230098198,-7,-8,-19,2,3,-5,62,20
1537912230098198,-6,-9,-27,4,-18,9,-19,-25
1537912230099195,0,-8,3,0,28,27,13,8
1537912230099195,0,1,-11,3,-6,9,21,-26
1537912230120139,-1,4,27,-4,0,-13,14,29
1537912230120139,-5,3,6,-8,-20,-7,17,12
1537912230122134,1,-7,-17,2,-13,-2,6,5
1537912230122134,-5,-7,-13,-14,-10,-20,0,-6
1537912230134103,-1,0,0,-6,-7,26,-9,-18
1537912230134103,-6,-1,-13,-13,15,27,-1,2
1537912230143079,17,11,34,25,-11,-42,-14,9
1537912230143079,-3,0,-2,16,-18,-2,19,6
1537912230158039,3,0,14,-11,46,-10,-21,-6
1537912230158039,-3,-7,-16,-19,-15,15,1,1
1537912230159036,-8,-10,-17,-1,30,27,-2,-11
1537912230159036,1,2,-9,-1,-22,-1,10,18
1537912230179980,0,-2,-4,-7,-12,-16,-5,-7
1537912230179980,-1,3,3,-14,5,11,-7,-5
1537912230181975,1,6,7,15,-41,-19,0,-3
1537912230181975,-2,0,40,10,16,-21,4,8
1537912230193943,6,-4,-57,-14,-12,10,4,-6
1537912230193943,2,-4,7,5,11,5,-6,7
1537912230202920,-1,-1,-3,-13,-4,-12,2,7
1537912230202920,-3,2,7,11,-16,9,2,-5
1537912230217879,-5,4,25,4,41,-10,-20,-11
1537912230217879,-3,-3,-21,1,4,-21,-10,-24
1537912230218877,-1,-1,8,4,5,23,25,26
1537912230218877,3,-4,-9,-8,-8,-1,-3,9
1537912230240818,-3,0,9,-10,-12,0,-10,-22
1537912230240818,2,-2,-4,5,0,1,6,18
1537912230241816,-2,-3,-6,-31,-8,-10,-9,-9
1537912230241816,-1,2,-2,-1,1,24,4,-5
1537912230253783,0,-8,-14,3,-6,-12,-7,0
1537912230253783,-1,-2,-6,-22,-7,-6,1,-1
1537912230262758,-3,6,16,30,10,30,-4,-12
1537912230262758,1,-1,3,-21,-32,-17,5,9
1537912230277718,-1,-2,4,14,24,7,-5,-1
1537912230277718,0,-1,-8,-5,4,18,3,0
1537912230279712,-1,1,1,-2,-11,-33,-17,-6
1537912230279712,-3,5,2,6,6,51,18,1
1537912230300657,8,0,14,1,-2,-7,2,5
1537912230300657,-2,-1,-7,0,0,-3,-1,2
1537912230301654,0,-1,0,-2,-1,-9,-26,-12
1537912230301654,-2,-2,-7,8,19,-10,-6,0
1537912230313622,-3,1,4,-10,-12,-9,-1,1
1537912230313622,3,0,-2,13,16,22,9,1
1537912230322598,1,-3,-5,-8,-4,-18,0,-5
1537912230322598,3,0,-1,4,-4,1,-9,3
1537912230336560,-6,1,3,-4,19,10,7,-1
1537912230336560,2,-2,-5,-3,-12,-4,-7,-4
1537912230345537,-3,-4,-3,-1,6,-5,5,-1
1537912230345537,4,-1,-5,0,3,-3,-1,5
1537912230360497,0,2,8,0,-19,-3,0,-3
1537912230360497,-2,0,-1,13,5,1,-1,-1
1537912230361494,1,0,0,-3,8,3,4,0
1537912230361494,0,1,2,17,-14,-14,0,0
1537912230373462,-3,-2,-7,-17,-12,13,-5,-3
1537912230373462,-1,-1,1,0,12,2,1,1
1537912230382438,-2,-2,-2,4,-35,0,6,2
1537912230382438,1,0,1,6,-7,-1,-4,-1
1537912230397398,-2,0,5,5,3,-10,2,-2
1537912230397398,0,-1,-2,-6,26,5,0,1
1537912230404379,0,-1,1,4,20,-4,0,-3
1537912230404379,-1,-2,-3,-5,-19,1,0,-1
1537912230420337,-1,-1,0,-5,-20,-5,-3,1
1537912230420337,-2,1,-1,1,2,-3,2,-1
1537912230422331,-2,1,0,-2,-7,12,1,-1
1537912230422331,-1,-1,-4,-9,14,-4,0,1
1537912230442278,-1,0,1,-2,0,5,3,0
1537912230442278,-1,-1,-1,-4,-30,-19,-2,2
1537912230444273,-1,-2,-3,-7,27,5,9,0
1537912230444273,0,0,2,8,12,-2,1,0
1537912230457238,-2,-2,-6,-12,-4,2,-1,-1
1537912230457238,-3,-2,0,17,-15,-5,-7,-5
1537912230464219,0,-2,-4,-16,11,11,-1,-1
1537912230464219,-1,0,-4,-12,-16,3,-2,-2
1537912230481174,1,-1,1,0,-11,-4,0,0
1537912230481174,0,0,1,-6,-8,-6,-1,0
1537912230483169,-1,-2,-4,18,-8,-2,-1,1
1537912230483169,2,1,1,-5,47,-3,-11,-5
1537912230503116,-1,-3,4,5,-32,4,3,2
1537912230503116,-1,-2,-4,-8,-30,0,1,-2
1537912230504113,-2,-1,-2,0,15,-12,-4,-3
1537912230504113,0,-1,-2,-1,11,1,4,0
1537912230518075,-2,-2,-4,-4,-27,-7,-6,-1
1537912230518075,-2,1,0,-4,57,-5,8,0
1537912230519073,0,0,-1,-8,-23,3,-1,0
1537912230519073,-2,-1,-3,-10,-9,22,-1,0
1537912230547995,1,-1,0,6,12,-8,7,-1
1537912230547995,1,-1,2,4,-4,4,-2,1
1537912230548993,-2,1,1,4,-37,-6,-6,0
1537912230548993,-1,-4,-8,-1,44,-14,5,1
1537912230562956,0,2,2,-4,4,19,1,-1
1537912230562956,-3,-4,-11,-24,78,3,5,0
1537912230563953,1,2,11,27,-33,-5,3,-1
1537912230563953,-1,1,2,24,-22,4,-4,-1
1537912230577915,0,-2,-2,-23,-75,-7,-2,-1
1537912230577915,-1,-4,-4,-17,36,-16,-6,0
1537912230578913,1,0,0,14,-16,23,6,1
1537912230578913,-2,-3,-3,-17,49,-25,-8,-4
1537912230599857,-1,-2,0,15,-57,17,9,2
1537912230599857,-1,1,3,10,51,5,-7,-2
1537912230601852,-2,-5,-7,-11,0,-29,1,0
1537912230601852,0,1,-3,-4,-25,-1,-1,0
1537912230622795,-2,2,5,2,15,1,-2,-4
1537912230622795,0,-4,-9,-3,-50,6,-3,-1
1537912230623793,0,-2,-1,-7,54,11,-5,-1
1537912230623793,-2,-2,-4,0,-56,0,5,4
1537912230636758,-2,-1,-2,-9,26,-10,-8,-3
1537912230636758,0,1,10,17,-4,13,6,2
1537912230645734,2,-2,-6,0,58,0,2,0
1537912230645734,0,-1,4,-1,-30,5,0,-3
1537912230660694,-1,-2,-6,-1,22,5,-3,0
1537912230660694,-1,1,2,-1,-50,-23,-8,-2
1537912230661692,-1,-1,-2,-10,-6,5,0,2
1537912230661692,-2,0,2,3,0,-11,-5,-1
1537912230682636,1,0,1,2,32,12,6,3
1537912230682636,1,0,0,4,-43,3,1,-1
1537912230684631,-2,-2,-2,-6,-22,-8,-8,-5
1537912230684631,-1,-1,0,16,84,5,-4,2
1537912230696598,-1,2,4,4,9,-5,9,6
1537912230696598,-1,-2,-2,-1,-28,-11,-2,-2
1537912230705574,-1,0,1,-10,28,1,2,0
1537912230705574,-1,-1,3,7,-38,-8,-8,-4
1537912230720534,0,-3,-3,5,37,6,-4,-1
1537912230720534,-1,2,2,3,13,6,1,-1
1537912230721531,-2,-1,1,-2,-31,-4,-4,-7
1537912230721531,0,-2,-3,-6,9,2,10,1
1537912230742475,1,-2,-1,4,10,-6,4,8
1537912230742475,-1,-6,-9,-14,-35,-2,-1,-3
1537912230744470,2,6,11,11,17,0,0,2
1537912230744470,0,-2,-3,-8,-11,1,-1,-2
1537912230756438,-1,-2,-1,0,-5,-2,-2,-4
1537912230756438,-2,-1,-4,-4,7,-6,-2,-4
1537912230765415,-1,0,-1,-7,-78,3,1,-1
1537912230765415,-1,-1,-1,-5,70,-7,-1,-1
1537912230780375,-1,0,1,14,50,10,2,-3
1537912230780375,-2,-1,-2,-1,-31,-1,-2,-4
1537912230781373,0,-3,-3,-5,1,-2,0,2
1537912230781373,-1,0,0,-4,-26,1,-2,0
1537912230803314,-3,-3,-5,-8,-30,-6,-7,-6
1537912230803314,1,0,1,4,19,0,-1,2
1537912230804312,-3,0,0,4,17,7,4,0
1537912230804312,2,5,5,-8,-32,-3,-7,1
1537912230816280,-3,-2,-1,5,22,-3,-3,-3
1537912230816280,-2,-1,-3,-2,-10,0,-2,-3
1537912230825257,-1,-5,-6,-5,12,-6,-6,0
1537912230825257,-1,-2,1,5,13,3,0,-2
1537912230840215,-2,-1,0,0,-18,-1,-5,-4
1537912230840215,1,2,3,-2,6,0,9,3
1537912230842210,-2,-4,-3,-4,-12,-9,-10,-6
1537912230842210,0,0,-3,-5,2,0,4,2
1537912230863154,1,0,-1,-4,-11,-3,0,-3
1537912230863154,0,2,5,6,3,3,1,1
1537912230864152,0,-1,-3,-3,14,-2,-6,-8
1537912230864152,3,-2,0,1,-23,-3,16,13
1537912230876120,-2,-3,-1,-9,-4,-12,-5,-4
1537912230876120,2,0,-2,0,-2,8,-1,5
1537912230885095,-1,-1,-2,-5,8,-3,0,-1
1537912230885095,-1,0,1,-1,-21,0,-5,-5
1537912230908033,-1,-2,-3,1,15,7,-1,-1
1537912230908033,-3,-2,-5,-4,7,-6,-2,-2
1537912230909031,-2,0,0,-4,-13,0,-3,-2
1537912230909031,-1,-3,1,1,-3,-3,-4,-5
1537912230922994,0,-2,-4,-2,-7,-7,-3,1
1537912230922994,-3,-2,-5,-8,-11,-11,-12,-6
1537912230923991,2,1,1,4,10,13,12,9
1537912230923991,-4,-1,-2,3,-1,8,4,-5
1537912230935959,1,1,1,1,-7,-3,-4,-4
1537912230935959,0,-2,-1,6,-2,-1,-2,2
1537912230944935,1,0,2,2,-5,-5,-3,5
1537912230944935,-4,-4,-5,0,7,3,-1,-4
1537912230959895,-2,-1,-1,5,3,-3,-5,-7
1537912230959895,4,7,6,8,6,11,17,10
1537912230961890,-1,-4,-6,-6,-1,-15,-20,-13
1537912230961890,-1,-3,4,-4,-4,8,6,-2
1537912230982834,1,-1,-1,1,3,1,3,9
1537912230982834,1,-4,1,-4,-12,-7,-15,-16
1537912230983832,6,4,-5,14,-3,-12,-5,7
1537912230983832,37,29,5,-19,-11,-9,11,14
1537912230996796,-96,-19,4,-11,-1,12,13,-23
1537912230996796,26,-59,-6,5,17,1,2,27
1537912231005773,-33,-25,-9,-9,-6,-11,-4,-18
1537912231005773,-15,1,-12,37,1,-10,-40,-86
1537912231020733,34,18,21,-4,-25,-28,30,81
1537912231020733,3,16,-11,-25,3,13,-7,-14
1537912231021731,-3,-13,-11,12,-2,-2,13,32
1537912231021731,-8,-2,16,-10,-6,-4,-18,-11
1537912231042673,18,32,8,48,11,12,24,22
1537912231042673,-12,-2,27,48,-8,10,-1,-16
1537912231044668,31,-5,-36,-35,12,-6,-3,34
1537912231044668,31,3,-28,-82,11,12,-4,-30
1537912231056636,-43,-21,-3,-4,-8,8,-4,-18
1537912231056636,18,20,9,11,-12,-10,-11,5
1537912231065612,-52,8,14,38,14,15,19,-2
1537912231065612,-26,-29,7,3,-14,-17,28,23
1537912231080572,68,9,-7,-4,3,-4,3,22
1537912231080572,-25,-1,1,5,-7,-13,-12,30
1537912231081569,21,8,-2,-15,-15,-9,-14,-32
1537912231081569,-27,-18,-32,-20,3,4,1,15
1537912231102514,-1,6,5,19,11,9,-3,-16
1537912231102514,-15,15,20,1,-1,-1,12,-26
1537912231104508,22,12,-16,-21,-15,-6,-2,6
1537912231104508,-7,-18,23,7,10,5,-16,41
1537912231116476,0,-11,-4,10,-8,-9,-1,0
1537912231116476,20,0,-52,-13,8,14,-11,-7
1537912231125452,-36,-13,5,-65,-9,5,-6,-18
1537912231125452,15,17,10,31,-1,-8,8,29
1537912231140412,5,-4,11,-16,3,1,-19,-39
1537912231140412,5,5,10,37,-3,-2,6,-1
1537912231141410,-28,-18,-32,6,8,18,2,8
1537912231141410,-15,-5,40,16,1,-6,-4,-32
1537912231162355,12,14,-20,24,1,-9,2,1
1537912231162355,-11,8,25,-41,-8,0,12,1
1537912231164351,9,8,34,11,1,6,1,-19
1537912231164351,2,-15,-76,23,0,-3,-2,3
1537912231176317,6,-8,0,-64,-6,-2,-11,11
1537912231176317,-3,-3,-5,4,-16,-8,4,5
1537912231185293,5,4,21,-1,18,-3,-16,-2
1537912231185293,-3,4,1,-3,-4,3,25,16
1537912231200253,15,0,-2,-14,-3,8,-6,-12
1537912231200253,-5,2,-10,-2,18,0,-8,-12
1537912231202248,15,15,32,42,1,3,7,35
1537912231202248,2,11,28,27,-9,-1,-5,-13
1537912231223193,-9,-13,-27,0,2,-6,-19,-23
1537912231223193,-8,-13,-10,-33,2,-1,15,12
1537912231224191,6,-1,-7,24,2,-7,-7,-13
1537912231224191,1,-1,-20,-40,-11,3,25,20
1537912231236158,4,11,22,-10,-10,1,-2,7
1537912231236158,-12,-10,4,14,-7,-3,-9,-14
1537912231245133,17,-3,-28,-5,0,3,7,-7
1537912231245133,1,5,-4,-32,0,-3,-8,12
1537912231260094,4,-1,12,10,3,0,7,-10
1537912231260094,-12,-5,-5,-13,1,-3,-2,-7
1537912231262090,3,5,6,18,3,5,8,-10
1537912231262090,-14,-3,14,21,3,-4,2,12
1537912231283032,-7,13,9,1,2,8,-2,-20
1537912231283032,31,8,-10,18,5,-5,-9,35
1537912231284029,14,10,22,-13,3,6,16,16
1537912231284029,-8,-10,19,58,2,-9,-37,-23
1537912231295996,-10,-30,-73,-69,0,-2,-12,0
1537912231295996,-8,1,1,-21,-3,-1,3,-34
1537912231304972,-12,3,13,3,-13,-7,-12,-23
1537912231304972,11,5,-16,-18,17,7,4,34
1537912231319932,11,1,20,24,2,-5,-4,22
1537912231319932,-23,3,7,42,3,-1,-11,-37
1537912231321927,-5,-15,-11,-32,-3,0,-6,4
1537912231321927,4,8,10,4,-1,3,2,-17
1537912231342871,-28,-12,2,5,-7,-6,-14,-18
1537912231342871,8,4,-20,-30,0,-3,2,10
1537912231343868,4,5,30,37,3,2,18,18
1537912231343868,-11,-1,-5,4,0,-1,-2,-2
1537912231356833,-9,-9,-32,2,-7,0,-2,-6
1537912231356833,5,-11,-12,-28,-2,-5,-5,-5
1537912231364812,16,16,31,25,18,15,-17,5
1537912231364812,-9,0,56,53,-16,-13,13,10
1537912231379772,-29,-4,-62,12,23,10,11,-10
1537912231379772,14,-21,-16,-73,-32,-11,-8,-22
1537912231381767,-16,-16,-108,-25,-1,-1,-6,9
1537912231381767,14,12,36,-24,1,3,-1,-2
1537912231402712,29,12,52,73,3,5,11,8
1537912231402712,3,17,8,21,17,7,-12,18
1537912231404707,-7,3,65,1,-2,-3,-5,-48
1537912231404707,-21,-13,-64,-4,-5,-1,24,14
1537912231424654,-16,-9,5,-2,-4,-11,-9,-26
1537912231424654,21,23,27,8,15,20,9,9
1537912231432632,2,9,53,40,0,-3,-2,10
1537912231432632,-5,-22,-47,20,4,-2,-12,-10
1537912231440612,-7,-11,-19,-47,-16,-7,-8,4
1537912231440612,-11,-20,-67,-67,-22,-5,17,15
1537912231441608,-1,-10,-38,-54,-4,1,-6,16
1537912231441608,-7,12,33,6,5,6,-16,-47
1537912231462552,11,11,37,25,11,2,6,-13
1537912231462552,-7,10,35,45,15,0,6,34
1537912231464548,6,-7,-12,29,1,8,2,11
1537912231464548,21,10,7,0,4,5,-12,13
1537912231485492,-7,-3,1,-21,-11,-5,14,21
1537912231485492,-9,9,25,46,1,-5,26,-35
1537912231486488,-23,-11,5,-2,-3,-3,-4,-2
1537912231486488,38,15,-15,9,-1,8,-2,1
1537912231500450,-8,-15,27,4,-9,-9,-8,4
1537912231500450,-26,-37,-97,-79,-10,-8,-21,-16
1537912231501448,22,6,-15,3,-9,-2,25,18
1537912231501448,-3,22,72,-57,-22,-6,-8,-9
1537912231530369,14,15,51,16,-1,-1,-10,8
1537912231530369,-8,-28,-74,58,-3,-8,-12,-10
1537912231531367,3,1,4,-44,1,-4,5,-8
1537912231531367,-12,-3,-13,4,7,1,-6,-20
1537912231545329,4,13,26,17,6,2,-4,6
1537912231545329,11,13,44,33,11,9,5,60
1537912231546327,3,-1,-20,5,-5,-5,2,-27
1537912231546327,25,1,2,18,9,9,6,26
1537912231559292,-2,8,29,-7,-2,2,-1,-17
1537912231559292,-8,-7,-49,15,0,1,-26,-30
1537912231566274,-16,-15,-27,-43,-20,-13,9,14
1537912231566274,-2,-2,49,-4,6,10,-4,-12
1537912231583229,7,-7,-91,18,20,4,5,23
1537912231583229,13,6,49,-41,-9,0,2,11
1537912231584227,1,4,-6,52,8,2,-20,-20
1537912231584227,-7,-4,-12,-17,-16,-9,15,-1
1537912231605170,1,5,-6,-76,-48,-19,1,-6
1537912231605170,-38,-11,28,15,13,11,15,-14
1537912231607165,41,13,10,3,-5,-7,2,16
1537912231607165,-22,-7,-12,42,13,-3,-10,-13
1537912231619132,13,11,24,29,8,6,10,27
1537912231619132,-20,-10,2,-22,-9,-8,10,-17
1537912231628108,5,-4,-41,8,-1,-7,-8,-15
1537912231628108,2,-1,25,-23,-6,-3,-9,-13
1537912231643068,-1,-15,-70,-16,0,3,7,16
1537912231643068,-3,11,42,-19,-1,-3,-20,-1
1537912231644065,-14,-11,-36,17,6,4,2,-2
1537912231644065,-6,-8,-20,-44,-7,-10,6,10
1537912231665011,6,5,26,16,3,11,-21,-15
1537912231665011,33,11,10,45,9,4,-7,7
1537912231667005,-23,2,15,-18,1,5,23,9
1537912231667005,-13,-9,-24,-1,-4,-5,4,-10
1537912231678972,20,10,21,6,10,-2,-8,31
1537912231678972,15,12,68,41,-1,-5,-3,18
1537912231687948,-53,-27,-32,19,-9,3,32,-22
1537912231687948,32,-12,-43,-70,-6,-7,4,11
1537912231702908,-9,1,13,1,1,-7,-3,-28
1537912231702908,6,13,25,14,1,-4,14,5
1537912231703905,6,-7,-33,-17,-8,-6,-13,8
1537912231703905,-30,-17,-5,22,14,4,6,16
1537912231724849,-1,-17,-22,-30,-11,-9,-29,-31
1537912231724849,-2,-16,-63,5,4,-3,19,6
1537912231726844,-3,8,55,-82,-16,-1,-12,-13
1537912231726844,10,16,22,55,0,3,-10,-11
1537912231738812,0,2,8,-4,6,5,-6,0
1537912231738812,-8,-3,-7,27,1,-6,6,3
1537912231747788,15,9,8,-11,8,10,-7,20
1537912231747788,-11,16,43,16,6,3,-4,-16
1537912231762748,22,5,-22,33,4,1,5,-36
1537912231762748,-24,-18,-15,-40,1,-2,-6,19
1537912231763746,11,14,52,27,5,-1,-14,-5
1537912231763746,-9,-15,-29,16,-7,0,-1,15
1537912231785687,-26,-10,-11,-4,-1,0,9,-13
1537912231785687,30,5,-39,-37,0,11,-9,29
1537912231786684,14,4,22,-30,-4,-8,-6,3
1537912231786684,-5,-3,-55,7,0,-4,-11,-4
1537912231798652,-20,-11,9,-9,-21,1,1,8
1537912231798652,10,7,-7,-32,7,2,-5,-18
1537912231807628,-1,5,34,12,0,-5,-5,2
1537912231807628,16,9,21,-5,-6,-1,-3,-1
1537912231822588,-19,-8,-26,24,6,1,-5,-22
1537912231822588,13,2,36,-3,-7,0,4,18
1537912231824583,-22,7,-3,39,9,-1,-1,-18
1537912231824583,13,-2,29,-6,0,2,-3,-29
1537912231845527,-10,-7,-39,2,1,-4,-3,2
1537912231845527,-5,3,-2,-21,-6,-3,7,-22
1537912231846524,13,-1,50,37,6,2,14,35
1537912231846524,4,-16,-86,-26,-10,-2,0,16
1537912231859489,1,-12,0,12,13,-2,10,27
1537912231859489,-16,-8,-34,-41,-11,-6,-2,-31
1537912231866471,7,-1,-14,-10,-5,4,-2,-12
1537912231866471,-7,13,31,-15,2,6,11,15
1537912231882429,14,15,38,37,6,0,5,23
1537912231882429,-5,5,13,24,-1,0,9,-14
1537912231884424,-7,-13,-17,4,2,2,4,-3
1537912231884424,-9,4,49,19,4,-2,3,-34
1537912231905367,8,-6,-76,-23,-5,2,10,44
1537912231905367,11,3,11,20,-4,-1,-16,-24
1537912231906364,-30,-15,-13,-45,-10,-8,-6,1
1537912231906364,6,-1,-17,-9,2,0,3,1
1537912231919330,10,13,85,4,0,0,-1,0
1537912231919330,-10,-19,-56,8,-4,-1,7,-5
1537912231928306,10,-11,-51,-17,-11,-3,-5,-9
1537912231928306,-12,-5,6,-31,7,2,-1,18
1537912231943265,-8,9,32,-11,-7,-4,-15,-29
1537912231943265,12,14,50,50,12,7,7,29
1537912231944263,-4,-3,-17,-12,-7,-10,21,-25
1537912231944263,-5,-4,-40,-12,-2,-2,-5,3
1537912231965207,17,9,53,-6,1,0,0,12
1537912231965207,-23,-3,-30,21,4,0,-7,-52
1537912231967202,-7,4,20,17,6,4,-11,25
1537912231967202,8,3,0,21,-1,3,5,9
1537912231979170,3,0,9,-10,2,2,2,-11
1537912231979170,-13,-12,-30,-11,-8,-5,-11,12
1537912231988146,18,-11,-26,-22,4,2,-8,-15
1537912231988146,-8,-9,-21,-13,-9,-9,-9,-10
1537912232003106,-7,3,-3,5,3,4,0,11
1537912232003106,6,15,93,3,1,-4,5,17
1537912232004103,-7,3,-44,89,-2,1,3,-6
1537912232004103,2,-14,-23,-100,-4,-6,0,6
1537912232025047,-1,-6,-24,-11,-2,-5,-2,-7
1537912232025047,9,8,26,4,0,0,5,-3
1537912232027042,-2,20,37,15,9,2,0,9
1537912232027042,5,10,60,54,2,0,6,-9
1537912232039010,-34,-12,-73,20,-4,0,-4,-58
1537912232039010,-3,-20,-32,-65,-11,-9,4,30
1537912232047986,3,7,23,-9,4,3,-23,-35
1537912232047986,1,5,-5,17,-3,-3,5,21
1537912232062945,15,-9,7,39,2,3,1,12
1537912232062945,-9,-3,-26,-41,-2,-1,-16,-4
1537912232063943,-5,0,8,-23,2,3,3,-8
1537912232063943,-10,-3,5,34,-2,-2,2,4
1537912232084887,7,-7,-6,-19,2,-3,-6,-6
1537912232084887,-4,3,-3,9,2,4,-12,-5
1537912232086881,18,9,6,-1,2,-5,-6,14
1537912232086881,-4,6,52,17,11,13,3,-7
1537912232098850,-12,-9,-45,-1,-10,-6,8,-4
1537912232098850,6,-2,-2,1,-1,0,0,4
1537912232107826,2,1,30,-30,-2,-3,6,5
1537912232107826,-4,5,-26,37,2,1,1,16
1537912232122787,3,1,58,-15,4,9,-13,0
1537912232122787,-4,-7,-61,17,-3,-4,-5,-26
1537912232123784,-11,-18,-22,-44,-12,-6,6,-11
1537912232123784,0,-6,-14,5,-2,-7,-6,-1
1537912232144727,9,3,18,-36,-6,-5,1,17
1537912232144727,7,17,44,13,2,5,2,5
1537912232146722,-7,1,-4,37,3,-1,-5,1
1537912232146722,3,1,-8,18,4,0,-3,18
1537912232158690,-12,-7,-22,-51,-9,-5,25,-25
1537912232158690,18,0,4,21,2,6,10,13
1537912232167666,7,6,0,-4,0,-1,-9,-6
1537912232167666,16,10,18,-8,1,4,-2,15
1537912232182626,-3,6,35,46,-1,-7,-12,-2
1537912232182626,-20,-17,-65,-4,-7,-6,5,1
1537912232184621,-12,-12,4,-44,-6,4,-10,-5
1537912232184621,6,-3,-37,-15,-5,5,-5,-10
1537912232205565,-3,5,13,-15,5,2,1,11
1537912232205565,8,4,37,33,3,-10,16,-28
1537912232206562,11,0,-27,23,0,4,19,31
1537912232206562,-17,-4,5,-40,-12,-8,-8,-34
1537912232218531,-1,-2,-10,-5,2,0,4,-5
1537912232218531,-19,0,-3,-3,0,-1,-20,-16
1537912232227507,6,-4,2,13,-2,-8,14,11
1537912232227507,-16,-10,-15,3,-1,-2,2,-9
1537912232242467,4,9,23,5,3,-3,3,-2
1537912232242467,22,9,32,6,3,0,5,39
1537912232244462,-20,-11,-28,16,-6,-2,-6,-22
1537912232244462,0,-6,-17,-57,-3,-2,-3,16
1537912232265405,-15,-6,-45,3,-1,0,-3,-23
1537912232265405,24,25,91,3,5,2,-2,21
1537912232266404,6,-4,-16,3,-1,-2,2,13
1537912232266404,-7,-12,-46,38,1,1,-3,-17
1537912232279367,-7,-2,13,-45,-5,4,-3,6
1537912232279367,6,-12,-39,-6,-5,1,7,22
1537912232287347,13,13,38,-19,1,4,-9,-10
1537912232287347,13,12,42,37,6,5,-9,9
1537912232303304,-4,-6,-25,-11,-6,-5,8,14
1537912232303304,9,-7,3,0,1,-1,1,-15
1537912232304302,-9,7,-2,20,5,4,-3,-6
1537912232304302,-5,-10,-9,-14,-8,-7,-9,-3
1537912232325245,14,-7,-37,-17,0,-1,2,21
1537912232325245,-15,-2,9,-9,-2,1,-1,-11
1537912232327240,-9,6,25,18,3,-3,-2,-24
1537912232327240,7,2,-4,5,0,-5,0,2
1537912232348184,-4,-6,8,11,-4,-2,-2,5
1537912232348184,-17,-10,9,-13,-3,1,3,-8
1537912232349182,24,4,-67,5,-3,-2,-2,13
1537912232349182,4,6,44,-15,-3,-4,-2,-10
1537912232363143,4,-2,-13,0,0,-5,-9,0
1537912232363143,-19,-6,-19,-14,-4,-4,-2,-38
1537912232364141,0,0,14,0,-2,1,12,54
1537912232364141,-1,0,13,-20,-6,-6,-1,-17
1537912232385085,8,0,-39,15,0,0,-10,3
1537912232385085,2,3,17,12,3,-2,-2,4
1537912232387079,-11,3,44,8,4,2,1,-19
1537912232387079,10,1,-27,14,1,-1,0,14
1537912232408023,2,-9,15,5,-5,-3,6,-7
1537912232408023,-32,-11,-49,-17,-10,-8,-8,-29
1537912232409021,9,-4,7,-36,-5,1,-4,3
1537912232409021,-4,4,-24,7,6,4,-7,-7
1537912232422983,4,2,65,-4,-6,-6,1,20
1537912232422983,4,-3,-65,10,3,6,-1,1
1537912232423981,-2,-7,8,0,-1,-2,0,-2
1537912232423981,4,-1,9,-3,-1,-2,3,-3
1537912232444925,-9,10,17,14,4,1,-1,-8
1537912232444925,14,12,28,13,4,2,0,12
1537912232446920,-22,-2,9,4,0,-4,-6,-14
1537912232446920,-3,-5,-29,-1,-2,0,2,-38
1537912232467865,4,-1,22,5,-1,-1,-4,20
1537912232467865,-1,-7,-23,-3,0,-4,0,12
1537912232468863,-3,-5,-10,-18,-2,-2,-1,-8
1537912232468863,-6,-5,12,4,-2,-1,4,-4
1537912232481828,-8,-4,-41,0,-1,-1,-5,-14
1537912232481828,6,6,28,-15,-3,-1,-4,7
1537912232488809,5,2,17,2,3,2,2,10
1537912232488809,-4,-3,-7,-8,-1,1,-4,5
1537912232505763,2,0,-15,7,1,1,5,3
1537912232505763,1,7,24,6,0,-1,0,-1
1537912232506762,6,-5,-6,7,1,-1,-2,0
1537912232506762,-17,-10,-1,10,0,-4,-6,8
1537912232527703,-24,0,-5,-14,-1,4,9,-7
1537912232527703,17,5,-5,-15,-6,-5,-3,-26
1537912232529698,9,10,12,10,1,-2,1,23
1537912232529698,2,3,31,3,2,5,0,-12
1537912232541666,-24,-20,-46,22,-2,-5,-7,-7
1537912232541666,-2,-7,-11,-54,-8,-3,-5,-2
1537912232548647,5,9,21,20,4,4,2,-6
1537912232548647,2,1,20,27,4,-2,2,22
1537912232565602,7,7,-16,-25,0,1,-9,-27
1537912232565602,-14,-13,-26,-8,-4,-4,8,4
1537912232566600,-2,-13,-46,-26,-7,-7,-11,-7
1537912232566600,0,6,14,-25,-8,1,7,14
1537912232587544,12,8,31,51,5,-2,-1,-15
1537912232587544,6,-4,3,-12,2,3,0,16
1537912232589539,-12,-7,-16,5,1,4,-5,-11
1537912232589539,1,4,8,-2,2,2,5,-10
1537912232602504,-6,-9,-5,-4,0,-1,-5,23
1537912232602504,12,20,36,36,6,0,-14,2
1537912232608487,-8,5,27,7,-3,2,8,-19
1537912232608487,-1,-16,-77,7,-7,-6,-2,3
1537912232625442,4,3,8,-67,-2,2,-7,-19
1537912232625442,-5,1,58,27,5,-2,3,31
1537912232626439,7,-10,-67,34,0,-3,6,4
1537912232626439,-6,-8,16,-38,-5,-2,3,0
1537912232647383,2,-11,-36,-1,-8,-2,3,-2
1537912232647383,-6,-8,-27,-52,-7,-1,-6,-10
1537912232649378,8,15,41,6,5,7,5,-15
1537912232649378,-1,8,39,30,10,6,-1,28
1537912232662343,3,-2,-24,21,0,-4,4,-9
1537912232662343,4,6,33,5,1,4,1,14
1537912232669324,3,-4,17,7,-7,-8,-4,11
1537912232669324,8,-9,-65,-12,-2,-1,-4,27
1537912232685282,-2,12,49,-4,3,6,-9,-61
1537912232685282,6,10,-1,22,0,1,10,23
1537912232686280,-22,-25,-17,-2,-3,-4,-7,-11
1537912232686280,2,-9,-27,5,-5,-6,-1,-10
1537912232708222,2,5,8,-56,-2,1,2,36
1537912232708222,-5,-3,-28,15,2,4,-4,-22
1537912232709219,10,11,10,-8,-2,-1,-2,10
1537912232709219,5,9,76,-13,2,2,-2,-9
1537912232722184,-3,-8,-59,27,4,3,-4,8
1537912232722184,-9,-20,-28,5,-5,-7,2,-3
1537912232729165,-3,-7,-21,-51,-11,-8,-7,-5
1537912232729165,-4,9,9,17,7,7,9,-22
1537912232745122,7,19,68,14,4,6,1,34
1537912232745122,11,-5,-19,10,2,4,1,-4
1537912232747117,-12,4,3,31,1,-3,-10,-6
1537912232747117,-2,-2,-22,-16,-6,-7,3,-2
1537912232768062,15,-2,-8,-31,-11,-11,-13,6
1537912232768062,-5,8,23,13,6,7,13,-8
1537912232769060,0,-4,6,1,1,-3,0,-1
1537912232769060,-15,-5,-23,-8,-4,1,-6,-10
1537912232782024,-2,-7,-13,-11,-1,-3,-3,1
1537912232782024,-9,3,25,5,3,1,-12,-18
1537912232789006,10,9,22,1,4,-6,-2,-6
1537912232789006,-1,-12,-67,39,-5,-4,-2,7
1537912232804963,-12,-12,-7,-42,-7,-3,3,-9
1537912232804963,7,6,9,-30,-4,-4,-9,5
1537912232806958,-5,3,22,7,-2,-5,21,10
1537912232806958,-3,-4,-2,1,0,-3,-5,8
1537912232827902,9,-1,-10,13,-1,-1,3,-5
1537912232827902,-14,0,1,3,0,-3,-2,-34
1537912232828899,7,5,12,5,1,3,-3,7
1537912232828899,6,2,-6,1,-3,-4,14,-8
1537912232841864,6,7,73,12,-4,-4,2,9
1537912232841864,-8,-11,-66,8,-1,-5,-5,5
1537912232849843,-6,-24,-68,-15,-5,2,-6,-10
1537912232849843,-11,-1,7,-55,-5,-5,-3,1
1537912232864803,19,6,53,26,6,5,4,12
1537912232864803,0,4,-20,16,-5,-6,-5,1
1537912232866799,-1,-6,-18,-29,-5,3,-4,1
1537912232866799,-8,-6,-12,-12,1,3,-3,-6
1537912232887742,-13,3,22,1,4,-1,-13,-27
1537912232887742,12,-1,7,30,-2,-4,10,41
1537912232888740,-5,-1,-17,-12,1,-2,-3,-15
1537912232888740,12,10,32,-7,3,5,4,26
1537912232901705,-4,1,-10,24,5,2,-3,-14
1537912232901705,7,-2,5,5,0,3,-2,0
1537912232910682,3,9,56,0,3,-3,-3,-12
1537912232910682,10,5,-21,14,2,0,-12,-6
1537912232925642,-12,-11,-20,21,0,4,9,23
1537912232925642,-10,-13,17,-32,-7,-2,-9,-10
1537912232926640,-15,-8,-105,-16,-8,-9,-10,-20
1537912232926640,4,-2,79,-39,-9,-7,-6,-9
1537912232947582,3,-9,-67,0,1,1,3,2
1537912232947582,1,4,26,-26,-5,1,6,3
1537912232949577,-7,13,35,26,4,0,-14,-7
1537912232949577,9,13,21,38,10,10,9,1
1537912232961544,-4,-3,-8,9,-2,-3,20,0
1537912232961544,-26,-8,1,-1,4,1,-10,-25
1537912232970521,42,9,22,3,1,-1,-1,45
1537912232970521,-5,-2,-1,6,-3,-4,-8,-10
1537912232985480,-8,-9,-43,-12,-3,-8,-11,15
1537912232985480,2,-7,-7,8,2,6,-4,-34
1537912232986478,-12,-9,-29,-42,-3,0,7,-5
1537912232986478,1,10,46,28,7,2,-3,3
1537912233007422,-6,1,2,12,-2,1,-12,-13
1537912233007422,0,1,-20,-17,-4,-7,-2,4
1537912233009417,-6,-7,15,-3,-7,-4,-7,-2
1537912233009417,9,-7,-40,-21,0,0,2,11
1537912233021384,-11,1,0,-12,-1,-3,-6,-8
1537912233021384,-2,5,17,8,2,1,8,5
1537912233030360,7,0,12,20,-1,1,-1,0
1537912233030360,-11,-2,-4,-6,2,0,-6,-13
1537912233045320,7,11,18,9,-2,-5,0,10
1537912233045320,-1,-7,-3,6,0,1,5,-2
1537912233046317,13,6,5,-7,3,2,-4,41
1537912233046317,-11,-3,5,13,-2,-4,7,-13
1537912233068258,7,6,-18,-15,-3,0,-3,-9
1537912233068258,5,3,15,-3,-2,0,0,11
1537912233069256,-7,-1,4,25,4,5,13,-10
1537912233069256,-2,-7,5,-13,0,-1,-3,5
1537912233089202,2,-10,-9,32,-4,-2,3,2
1537912233089202,-5,-10,-38,-84,-9,-4,-6,-1
1537912233090200,-7,-13,-24,-5,-6,-2,1,-10
1537912233090200,1,6,6,10,0,0,-1,1
1537912233104163,-2,4,29,-14,0,8,9,-4
1537912233104163,4,5,14,28,2,0,2,3
1537912233105160,-4,7,5,6,6,6,0,-5
1537912233105160,2,-5,2,14,1,1,3,1
1537912233127103,0,4,8,1,2,1,-2,1
1537912233127103,-2,-2,-7,14,0,-1,-3,4
1537912233128100,-1,2,10,-2,0,0,2,-5
1537912233128100,-2,-11,-20,-6,-7,-6,-4,-4
1537912233149043,-2,1,-5,-9,1,-1,3,2
1537912233149043,1,-2,-1,-4,-3,-3,-1,3
1537912233150040,-4,-1,4,8,1,-1,-1,-8
1537912233150040,1,-1,-17,-9,-3,-3,0,-1
1537912233164002,-3,-1,4,-9,-3,-2,-2,0
1537912233164002,4,4,5,10,-1,0,-1,3
1537912233171981,-4,-1,0,-2,2,0,1,-4
1537912233171981,-2,-5,-13,-10,-3,-1,-1,1
1537912233186941,0,-2,6,-3,-4,-3,1,0
1537912233186941,0,2,3,14,1,1,1,1
1537912233194920,-5,1,0,2,3,1,0,-4
1537912233194920,-4,-3,-6,-20,-6,-2,-1,-2
1537912233209880,3,-2,5,5,5,0,1,5
1537912233209880,-3,-8,-9,-8,-7,-2,-8,-4
1537912233209880,-1,1,-3,-13,-7,-1,-2,-2
1537912233209880,1,0,-3,4,0,-2,10,3
1537912233224839,-3,-3,0,-4,0,-1,-4,-3
1537912233224839,-1,3,1,0,0,1,-3,0
1537912233224839,0,-3,0,0,2,-1,-5,1
1537912233224839,-2,3,-1,2,-1,1,-5,-3
1537912233246781,-1,0,-2,4,0,-1,-1,0
1537912233246781,3,-1,1,0,-1,-2,3,2
1537912233247779,-3,-1,1,-2,-5,-3,2,-3
1537912233247779,-2,0,-5,-4,-1,0,0,-2
1537912233269720,-1,-2,-2,-4,-2,-1,-1,0
1537912233269720,1,1,2,10,4,2,-2,0
1537912233270717,-2,-3,0,-3,-3,-2,1,-2
1537912233270717,0,-1,-6,-1,1,-1,-6,-2
1537912233284680,1,-1,-3,-8,0,0,-2,-2
1537912233284680,-2,0,2,7,0,-1,0,2
1537912233285677,0,-2,-2,6,-4,-2,1,1
1537912233285677,-1,-2,-1,-10,4,-1,-3,-3
1537912233315597,-1,-2,-1,-2,-4,-2,-1,-1
1537912233315597,1,-1,0,1,1,-2,2,-1
1537912233315597,-1,-2,-1,3,5,-1,-1,-2
1537912233315597,-1,2,2,6,-3,-1,-3,-2
1537912233329560,-1,0,-1,-3,1,2,2,0
1537912233329560,-1,1,0,2,0,1,0,-1
1537912233330557,0,-4,-2,2,1,-1,-1,0
1537912233330557,-1,-1,-2,-7,-6,-1,0,0
1537912233344520,-1,-2,-4,-6,-1,-5,0,0
1537912233344520,-1,0,1,2,-6,0,2,0
1537912233345517,-3,-2,0,-5,-1,3,-4,-5
1537912233345517,0,-1,-2,6,4,-2,-1,-2
1537912233367460,0,0,2,1,-3,1,-2,-2
1537912233367460,0,3,5,6,5,-2,0,1
1537912233367460,-3,-5,-10,-16,-6,-3,0,1
1537912233367460,0,-2,-2,3,-1,3,-3,0
1537912233389400,-3,1,-2,-8,1,-4,0,-1
1537912233389400,-1,-2,-2,1,13,2,-1,0
1537912233390397,-2,0,0,-6,-16,-13,-3,-1
1537912233390397,-1,0,-1,8,0,-20,-3,-5
1537912233404360,2,0,0,-5,-3,31,4,3
1537912233404360,2,-1,-2,-6,1,-3,2,3
1537912233405357,1,1,-2,1,5,0,-1,-4
1537912233405357,-1,-3,-1,-3,-20,-4,-1,0
1537912233427298,-1,0,0,4,14,-15,-3,-2
1537912233427298,-2,-3,-4,-2,-16,-11,-6,-3
1537912233427298,1,1,-1,5,15,6,2,1
1537912233427298,1,1,-1,-1,7,9,2,1
1537912233449240,0,0,3,5,22,16,0,0
1537912233449240,0,0,-3,-6,-8,-1,-2,-1
1537912233450237,-3,0,-1,-2,-21,-12,3,3
1537912233450237,0,0,-1,0,17,-4,-2,-1
1537912233464200,-1,-2,-1,-2,-11,-7,-3,-1
1537912233464200,-2,-1,-2,-4,-1,-12,-4,-2
1537912233465197,-1,1,2,4,-6,1,1,0
1537912233465197,-1,-1,0,2,7,-5,2,1
1537912233487138,1,-2,-3,-4,-18,32,1,1
1537912233487138,0,0,4,8,9,8,2,-2
1537912233488136,1,-1,0,-1,6,-3,-1,-1
1537912233488136,-1,-1,-4,-12,-13,-13,-4,-2
1537912233509080,-3,-4,-2,3,0,-32,-5,-2
1537912233509080,-4,-1,-2,-3,-6,0,-1,-2
1537912233510077,0,-2,2,4,8,9,0,0
1537912233510077,0,-2,0,2,2,10,1,-2
1537912233524040,1,2,4,16,-7,-8,0,-2
1537912233524040,-3,-6,-9,-23,-11,6,1,-1
1537912233525037,-2,-3,-5,-24,6,-8,-3,-2
1537912233525037,-3,-1,-3,3,17,12,-5,-2
1537912233546978,-1,0,2,-1,-7,-3,3,-1
1537912233546978,2,2,6,16,4,3,0,-1
1537912233547976,1,-1,2,8,0,3,0,0
1537912233547976,-2,0,2,11,-8,-2,-1,0
1537912233569917,-3,-3,-10,-30,5,6,-2,0
1537912233569917,0,0,-2,-6,-18,-12,2,1
1537912233569917,-1,0,2,12,14,-19,-10,-3
1537912233569917,2,2,3,20,-9,29,7,0
1537912233584877,-1,-1,-4,-26,15,-10,0,0
1537912233584877,0,-1,0,2,-29,2,7,1
1537912233584877,0,-2,-5,-27,-20,-10,-1,0
1537912233584877,0,1,7,17,2,-8,-4,-1
1537912233606819,-3,0,2,20,11,-4,-1,-1
1537912233606819,-3,-4,-8,-31,7,2,-5,-2
1537912233607816,1,1,2,14,-1,6,2,-1
1537912233607816,0,-3,-5,-14,-8,0,1,0
1537912233629757,0,0,2,1,-19,1,-6,-6
1537912233629757,1,2,4,25,20,-2,-3,0
1537912233629757,-2,1,-3,-11,-2,9,2,-3
1537912233629757,-1,-1,-6,-19,-21,-3,2,1
1537912233644717,-1,-1,-2,-2,20,-8,1,1
1537912233644717,-1,1,2,16,7,3,-4,0
1537912233645714,-2,-1,0,6,5,7,-2,0
1537912233645714,1,0,-2,-8,-6,-8,0,-1
1537912233666659,0,-1,-1,-3,-11,-2,0,-1
1537912233666659,1,0,-1,1,11,-1,0,-2
1537912233667656,-1,1,0,-1,-12,4,2,1
1537912233667656,-1,0,-2,-1,1,-1,-2,-1
1537912233689597,-1,-1,2,17,18,-7,-2,-1
1537912233689597,0,-1,-5,-14,4,1,0,-1
1537912233690595,1,-3,-2,5,15,7,0,0
1537912233690595,0,-1,2,-8,-19,-8,-6,0
1537912233704558,2,-1,-2,1,-7,-2,-2,0
1537912233704558,0,-1,2,6,2,1,5,1
1537912233705555,-2,0,1,0,2,3,1,0
1537912233705555,0,0,0,2,4,-1,-1,-1
1537912233727497,-1,-1,-2,0,-5,1,0,-1
1537912233727497,-2,-2,-1,2,0,-4,-2,-2
1537912233727497,-3,-1,-1,0,-3,2,-3,-1
1537912233727497,0,-3,-1,-6,11,1,-1,0
1537912233749439,-1,-1,-2,-5,-14,-2,1,-1
1537912233749439,0,-1,-1,-2,1,0,-2,-2
1537912233750436,0,-2,0,-2,-3,-4,2,-2
1537912233750436,-1,-1,-2,3,4,3,-1,-2
1537912233764401,1,1,1,-3,-9,-1,0,0
1537912233764401,-1,0,-3,2,3,2,-5,-1
1537912233765398,0,0,-1,-2,-1,-2,-2,-1
1537912233765398,-1,-3,-3,0,0,-4,0,-2
1537912233787337,0,0,2,2,-3,2,0,2
1537912233787337,-1,-1,0,-3,-4,1,-4,-2
1537912233787337,1,0,0,-2,-5,-4,9,1
1537912233787337,-1,-2,-2,-5,1,-1,3,1
1537912233809278,2,0,-1,-2,-3,4,-1,0
1537912233809278,-1,1,0,5,2,2,-9,-5
1537912233810275,-2,-1,-4,-3,-1,-1,-5,-1
1537912233810275,-1,3,-2,-4,3,-2,1,0
1537912233824238,2,2,4,4,4,1,-13,-4
1537912233824238,2,7,22,15,3,6,3,4
1537912233825235,4,8,4,23,9,7,-7,-1
1537912233825235,-1,9,20,17,38,5,-6,-5
1537912233847176,4,13,55,48,-40,5,-12,2
1537912233847176,-9,-18,-40,85,28,-21,-1,-5
1537912233848174,-2,-11,-34,-96,-47,0,11,4
1537912233848174,0,-4,58,87,-3,-18,-46,-23
1537912233869118,-20,-50,-118,-5,-11,-39,-24,-4
1537912233869118,-7,-18,7,-101,-17,27,1,1
1537912233870116,9,13,-81,-17,-9,11,5,0
1537912233870116,8,1,7,-63,48,21,8,22
1537912233884079,-8,44,119,-28,-26,-49,16,-51
1537912233884079,15,5,22,126,6,0,65,92
1537912233892057,14,15,8,2,0,-7,-2,21
1537912233892057,-25,-8,-3,-7,-25,-72,-30,-49
1537912233914996,43,50,54,71,30,57,4,21
1537912233914996,1,-56,-34,-38,-5,18,-14,-27
1537912233915994,-58,-11,18,32,7,19,12,-31
1537912233915994,-8,4,-88,-12,-13,12,-2,26
1537912233929956,-31,-22,-18,-44,5,-27,22,-62
1537912233929956,33,61,61,-10,-5,6,-7,66
1537912233929956,6,2,37,39,10,-37,-24,-15
1537912233929956,2,-28,-27,48,-11,-1,-2,-7
1537912233943918,-4,-15,-53,-26,10,41,-4,24
1537912233943918,2,16,9,-37,-24,10,55,-5
1537912233951898,21,6,60,-16,30,-22,-62,-43
1537912233951898,3,12,26,6,-22,28,66,94
1537912233966859,-25,-17,-102,-95,5,41,6,-65
1537912233966859,-10,-12,23,85,-5,-19,-31,21
1537912233967856,1,-12,13,-64,-7,-35,1,27
1537912233967856,11,4,-45,21,5,43,4,-98
1537912233989795,-10,0,23,-38,-3,-44,27,61
1537912233989795,-3,-3,9,26,5,-28,-13,-55
1537912233989795,-29,-3,-3,44,2,35,27,-22
1537912233989795,37,8,10,-52,-15,-4,-11,46
1537912234003758,-34,-3,-3,45,7,27,9,-4
1537912234003758,24,38,8,-69,-5,-19,-15,11
1537912234011737,15,-17,48,74,14,-4,-12,32
1537912234011737,-14,-9,17,47,-4,-11,18,30
1537912234027694,19,-19,-62,30,-5,9,-14,12
1537912234027694,-22,-11,-54,-98,-5,-14,-17,-52
1537912234028692,-11,-1,-45,-30,-16,3,6,-11
1537912234028692,3,8,18,-75,4,14,11,-12
1537912234050633,15,18,90,81,2,-43,-15,9
1537912234050633,-4,4,0,67,12,21,-7,6
1537912234050633,4,-8,-23,-18,-2,-19,-30,-20
1537912234050633,-21,-18,-53,-58,-6,6,-18,-39
1537912234063599,4,-1,-5,16,5,15,12,34
1537912234063599,1,2,22,-18,-1,-9,-19,-38
1537912234072574,11,11,-13,45,3,15,6,33
1537912234072574,3,21,103,40,4,4,1,-15
1537912234086537,-1,-19,-44,-2,1,-6,-44,-17
1537912234086537,4,-8,-15,-27,-1,25,-3,-15
1537912234087534,-3,6,19,-8,18,15,16,6
1537912234087534,-15,0,2,100,-8,3,-8,-43
1537912234110473,5,-28,-4,-53,-1,-26,-8,22
1537912234110473,7,3,-72,-46,-4,-2,1,0
1537912234110473,-11,7,38,-34,-10,-2,8,4
1537912234110473,4,-13,-59,66,15,-5,-19,-22
1537912234123438,1,9,14,-71,-17,-6,15,-15
1537912234123438,-22,-4,65,4,8,54,-5,-3
1537912234132414,29,3,-73,21,1,-15,11,7
1537912234132414,23,0,17,-64,-9,-20,17,101
1537912234147374,29,3,6,41,1,-36,6,25
1537912234147374,-32,5,3,9,2,0,-9,-40
1537912234147374,1,6,45,15,-5,-1,12,33
1537912234147374,-8,-18,-31,-6,-3,-20,-1,-3
1537912234170313,12,4,30,-7,13,3,-2,7
1537912234170313,9,12,32,30,-3,-6,7,10
1537912234171311,-33,-27,-12,51,0,-23,-23,-56
1537912234171311,-4,-15,-108,-86,-7,32,-9,1
1537912234193251,-5,5,33,-65,-31,20,3,-7
1537912234193251,4,4,-1,43,21,-25,2,12
1537912234193251,-1,15,41,-5,6,67,18,3
1537912234193251,11,2,15,-15,-17,-24,-17,-14
1537912234207214,-41,-11,-44,26,12,5,-19,-63
1537912234207214,18,4,-2,-29,-5,-18,-7,11
1537912234208212,-5,7,25,63,5,-1,-1,-8
1537912234208212,10,2,15,-18,5,-11,12,58
1537912234230153,3,0,-21,-2,-1,-7,-11,13
1537912234230153,1,-11,-19,8,-8,13,12,21
1537912234231151,6,8,16,-30,6,-2,4,-39
1537912234231151,-11,15,68,57,6,-5,-4,-32
1537912234253092,-1,-5,-29,12,-1,15,1,5
1537912234253092,-7,-16,-76,-39,-3,-37,-16,-58
1537912234253092,-4,-23,15,-31,-21,2,13,36
1537912234253092,2,5,23,21,13,10,-1,-9
1537912234267055,10,-10,-36,-48,-14,17,0,19
1537912234267055,-20,-7,-21,-16,3,-4,-7,-19
1537912234268053,2,10,4,-14,4,34,3,-27
1537912234268053,8,29,92,24,7,-22,-8,23
1537912234289993,1,5,22,49,-5,-13,3,-2
1537912234289993,6,-25,-79,-18,0,-21,-11,-15
1537912234290991,-2,-8,-27,-72,-5,21,15,37
1537912234290991,-10,-10,-25,-19,-6,-11,-14,-3
1537912234312932,3,21,51,21,14,19,-19,7
1537912234312932,5,23,63,21,-2,15,6,4
1537912234312932,16,-6,1,44,-5,-57,-19,-10
1537912234312932,-29,-21,-56,-31,-3,28,12,-21
1537912234326895,-11,-5,-25,12,9,-2,4,-53
1537912234326895,-15,-14,-5,-31,-13,13,1,3
1537912234327893,23,1,9,-6,7,-17,3,36
1537912234327893,6,18,45,40,-4,-9,4,13
1537912234350831,-4,-28,-89,-27,-10,20,-2,-6
1537912234350831,10,-3,5,-40,-8,-39,11,51
1537912234351828,-22,3,-10,1,-2,22,10,-41
1537912234351828,-3,12,59,-10,3,13,1,-26
1537912234372771,9,14,14,76,9,7,12,29
1537912234372771,-6,-3,31,23,3,-15,-4,19
1537912234373769,6,-8,-57,-24,1,7,-10,32
1537912234373769,-9,-5,-26,-10,-2,-7,-2,1
1537912234386734,10,13,43,-2,2,-4,-2,-31
1537912234386734,-2,5,31,27,2,38,9,1
1537912234387732,0,5,5,-4,-5,-33,-24,-7
1537912234387732,-7,-15,-64,2,-3,29,19,-7
1537912234410670,1,-5,11,-31,-1,6,12,43
1537912234410670,12,13,54,7,4,8,-6,-38
1537912234410670,-13,-2,-21,66,2,-8,-1,3
1537912234410670,-9,-27,-53,-26,-20,-27,-13,-32
1537912234432612,-3,0,-1,-67,2,-1,1,-2
1537912234432612,-1,5,-11,16,-12,-18,0,-4
1537912234433609,6,10,42,-28,8,22,3,-25
1537912234433609,3,0,-14,4,-6,-3,5,19
1537912234446574,-10,-6,-19,6,0,-11,2,-22
1537912234446574,-3,-2,9,7,-1,-37,6,13
1537912234447572,-7,-1,-8,-5,-4,12,2,9
1537912234447572,-1,3,33,20,4,-25,-8,-27
1537912234470511,-5,2,21,16,1,24,5,41
1537912234470511,6,-8,-42,-10,-2,2,-2,-11
1537912234470511,1,-1,3,6,-1,-5,19,36
1537912234470511,3,12,68,3,4,9,-2,-11
1537912234492453,-11,-9,-63,67,1,-24,-8,5
1537912234492453,-10,-1,11,-85,0,22,-8,13
1537912234493451,5,-17,-24,7,-13,-8,-6,2
1537912234493451,-9,-13,-43,-58,0,-11,-13,-14
1537912234507413,6,-1,21,30,-3,10,10,8
1537912234507413,-2,0,-7,-6,-1,3,-13,-21
1537912234507413,3,5,-3,2,4,-9,21,20
1537912234507413,16,16,29,7,7,29,20,22
1537912234530351,-5,4,24,12,-5,-30,-8,-17
1537912234530351,5,3,18,38,10,12,10,15
1537912234531349,-9,2,-2,-20,-4,-6,-19,-28
1537912234531349,5,-7,4,27,-3,2,3,18
1537912234552291,-14,-22,-74,2,-2,-7,-24,-2
1537912234552291,-1,-5,22,-46,-5,21,5,-5
1537912234553289,3,-9,-27,-20,-6,-23,-11,-44
1537912234553289,11,12,3,14,4,21,12,67
1537912234566255,5,7,51,-21,-4,0,-1,9
1537912234566255,-2,3,-2,53,12,-12,25,1
1537912234575231,-3,-3,3,-38,-33,9,-8,5
1537912234575231,-11,-25,-71,-14,12,-15,8,-27
1537912234598169,7,-3,-5,-51,-6,0,-19,-2
1537912234598169,-3,2,-5,-1,-2,-24,-1,15
1537912234599166,10,8,44,44,11,4,2,-3
1537912234599166,-1,6,9,20,-2,-1,-11,-8
1537912234613129,9,5,9,-23,1,-3,17,11
1537912234613129,-23,-2,14,21,1,-2,-32,-56
1537912234614126,-16,-9,-25,7,1,-4,-11,-7
1537912234614126,10,-2,-8,-13,-4,15,1,-22
1537912234626094,-4,2,19,4,4,9,2,-6
1537912234626094,11,-3,-25,1,-8,9,3,17
1537912234635070,2,-1,-6,3,7,-7,0,3
1537912234635070,-7,-1,39,-14,-8,-5,-7,-14
1537912234650030,2,2,-29,35,6,-2,0,-19
1537912234650030,-8,-11,-2,-20,-8,-5,-6,-31
1537912234652025,0,7,15,-15,2,14,6,47
1537912234652025,8,5,-23,31,8,-21,6,26
1537912234672968,-6,6,72,-16,3,7,-4,-29
1537912234672968,-10,-10,-53,21,-14,-9,13,-8
1537912234673966,-17,-22,-58,-47,-9,-26,-2,-8
1537912234673966,30,13,18,-24,6,28,2,2
1537912234685934,0,15,57,25,7,16,-7,-21
1537912234685934,-2,3,9,31,6,-21,-8,28
1537912234702889,-5,1,-11,22,4,12,10,-72
1537912234702889,1,0,24,-27,-8,3,-3,19
1537912234709870,4,-6,-25,33,0,-22,-1,28
1537912234709870,14,1,-19,-48,-7,-3,-4,21
1537912234711865,-16,-7,22,16,0,9,-3,7
1537912234711865,-5,-6,-20,41,-4,-8,-11,-18
1537912234732809,-6,-10,-23,-58,-2,6,-11,-34
1537912234732809,-5,-4,-19,-52,0,-9,7,19
1537912234733806,24,17,27,48,3,8,1,12
1537912234733806,-3,4,28,-14,5,8,20,13
1537912234746771,-6,1,-15,11,-7,-7,34,17
1537912234746771,-2,-2,11,21,-1,7,-5,3
1537912234754750,8,9,2,-29,7,7,-2,-4
1537912234754750,-10,10,97,38,0,-5,17,2
1537912234769710,-3,-20,-92,5,-8,3,-1,8
1537912234769710,-8,-27,-35,-53,-4,0,-6,-30
1537912234771705,-6,-8,-32,-14,-7,-23,-1,-33
1537912234771705,-2,9,8,-18,1,8,-6,10
1537912234792649,7,25,61,42,5,-18,-21,19
1537912234792649,-13,-3,9,5,1,16,0,-27
1537912234794643,15,-4,-34,-11,0,-6,-9,39
1537912234794643,7,6,-19,-15,-1,33,6,-7
1537912234806611,7,11,44,-4,2,-30,11,10
1537912234806611,1,8,60,90,6,48,0,10
1537912234815587,2,-18,-58,7,-8,-31,-11,-2
1537912234815587,-14,-17,-57,-97,-9,-4,-22,-14
1537912234830547,9,-1,-9,-4,5,13,5,14
1537912234830547,7,13,53,16,8,-4,-1,-5
1537912234831545,-3,-8,-40,23,-9,2,6,16
1537912234831545,-9,-12,-28,-7,-5,-18,-1,-1
1537912234852489,-9,-5,6,-37,-4,16,-7,0
1537912234852489,-5,10,7,4,4,-9,0,-20
1537912234854483,24,15,56,17,9,29,5,18
1537912234854483,-6,-4,-21,21,-1,-42,-16,-34
1537912234866451,-3,4,17,-10,-3,-15,2,-8
1537912234866451,-14,-7,-20,-1,-1,6,-2,-14
1537912234875427,8,-7,4,-5,-5,-15,15,45
1537912234875427,-2,-10,-24,5,-6,-6,10,3
1537912234890387,3,-1,-2,-21,0,13,5,-7
1537912234890387,5,1,-6,12,-3,-17,-5,10
1537912234891385,-10,-1,8,-12,8,18,-10,-19
1537912234891385,0,0,-6,-3,-1,-10,-1,-1
1537912234912329,-4,0,10,18,0,-4,-1,1
1537912234912329,7,0,-18,-11,-7,4,0,15
1537912234914323,-6,2,18,5,2,-4,-3,-11
1537912234914323,-4,-3,-6,-12,-4,7,-5,0
1537912234926291,1,-4,-3,-5,-4,4,3,-4
1537912234926291,3,-1,-14,1,-1,2,-4,7
1537912234935267,-4,4,16,-4,1,-3,-3,-9
1537912234935267,-5,-3,-3,15,0,-7,-3,-6
1537912234950227,2,-4,-5,2,-1,-8,-1,-2
1537912234950227,5,0,-3,2,1,-5,3,9
1537912234951225,-7,-1,9,-2,-1,9,-5,-4
1537912234951225,-1,-1,-4,3,1,-2,-3,-1
1537912234973166,2,-2,3,-4,-4,1,0,-2
1537912234973166,2,0,-4,2,-6,4,2,7
1537912234974164,-3,-2,1,-1,7,-28,-6,-7
1537912234974164,-1,0,-1,2,9,11,0,1
1537912234986131,-1,-3,3,8,10,-11,-6,-2
1537912234986131,1,-5,-11,-18,-67,16,5,2
1537912234995107,-3,0,0,-16,31,13,0,-4
1537912234995107,0,3,9,36,9,-15,-4,-2
1537912235009070,-2,-1,-1,-5,43,-8,-1,0
1537912235009070,1,0,0,-7,-44,-32,-3,5
1537912235016051,-2,-3,1,-12,-7,31,0,-2
1537912235016051,-3,-2,-8,-6,18,-21,-5,-3
1537912235033006,-3,-2,3,21,-52,28,-1,-4
1537912235033006,1,1,0,4,45,14,0,5
1537912235034004,2,2,5,-11,-28,16,3,-1
1537912235034004,-1,-2,1,0,-44,-28,5,1
1537912235045971,-2,-2,-6,-18,28,-36,-13,-4
1537912235045971,-3,-3,-4,18,58,-53,-1,-2
1537912235054948,-5,-1,1,4,7,54,-8,-6
1537912235054948,-1,1,-2,-5,-11,10,14,4
1537912235069907,1,-2,-5,-18,-71,15,11,9
1537912235069907,-2,1,1,5,-22,9,-1,0
1537912235075892,-4,-4,-4,-12,-27,-103,-5,-4
1537912235075892,2,2,3,18,60,81,5,0
1537912235092846,9,6,13,21,48,45,20,9
1537912235092846,-17,-8,-11,-27,-38,20,-7,-3
1537912235093844,9,1,-3,3,96,-14,-2,-20
1537912235093844,-4,1,7,12,-60,-74,-26,5
1537912235106809,0,-5,-9,-10,-33,-36,-7,15
1537912235106809,7,7,6,23,80,77,15,11
1537912235114788,-11,-4,-6,-14,-87,-30,-2,-16
1537912235114788,3,0,-3,-20,-41,-3,1,1
1537912235129748,1,3,2,2,54,22,1,-6
1537912235129748,4,0,0,-8,-94,-62,-1,-3
1537912235136730,-2,-6,-5,0,-38,30,6,11
1537912235136730,0,-2,-7,-13,62,-33,-5,-8
1537912235152688,0,5,11,40,-18,36,10,3
1537912235152688,3,1,6,26,-77,-41,-7,-4
1537912235154683,0,-3,-9,-45,44,38,4,3
1537912235154683,-4,-4,-6,-6,-30,3,-8,-5
1537912235175627,-4,-6,-6,-18,-17,-4,2,-8
1537912235175627,4,-1,-4,-7,76,7,-2,1
1537912235176625,-2,2,10,19,-16,-21,-10,1
1537912235176625,1,0,1,-1,-14,-11,3,3
1537912235189589,-3,-3,-5,0,-30,-14,0,-4
1537912235189589,2,2,1,-20,58,15,-2,-2
1537912235196570,-1,1,4,19,0,27,-7,2
1537912235196570,-1,-4,-5,-16,-4,-3,6,-4
1537912235212528,-2,0,4,7,10,-16,-10,-7
1537912235212528,-1,-2,-3,3,38,10,-1,1
1537912235214523,0,0,-1,13,-7,0,-7,0
1537912235214523,-2,-2,1,-3,1,15,-1,-1
1537912235235465,-2,-2,-8,-25,-2,-5,11,1
1537912235235465,-1,-1,-2,-2,34,6,-2,0
1537912235236463,1,1,5,3,-25,-6,1,1
1537912235236463,1,1,3,20,19,21,-3,-3
1537912235249428,-1,-1,0,-2,-34,-9,-6,-4
1537912235249428,0,-5,-9,-36,-20,-13,-7,-3
1537912235257407,2,3,3,23,39,19,13,5
1537912235257407,0,-3,-3,-12,-18,-2,-4,-5
1537912235272367,-1,-1,0,-2,19,-5,0,-2
1537912235272367,-1,0,-1,7,-12,-10,3,-2
1537912235274362,-2,-1,1,10,-38,-11,-6,-1
1537912235274362,-1,-2,-9,-36,5,29,0,1
1537912235295305,0,0,-1,-4,30,-7,-2,0
1537912235295305,-1,0,2,31,-46,-5,-2,-3
1537912235296303,-2,-3,-5,-30,-27,-15,-7,0
1537912235296303,0,2,2,11,1,-1,2,0
1537912235309268,-1,-4,-3,-14,-10,8,1,-4
1537912235309268,-1,-3,-3,-6,17,-19,-9,-1
1537912235316250,1,2,5,10,61,15,0,0
1537912235316250,2,0,4,12,-39,-25,0,-1
1537912235333205,0,1,-1,-7,-1,3,-4,-1
1537912235333205,1,-2,-1,4,-18,5,1,1
1537912235334204,-3,-3,-3,0,43,-11,2,-1
1537912235334204,-3,-1,-4,2,16,9,-1,-3
1537912235355146,-2,0,-1,5,-23,-11,-6,-2
1537912235355146,-2,-1,-2,-6,25,-3,3,0
1537912235357143,0,1,3,4,-50,7,7,3
1537912235357143,-1,-2,2,10,33,-14,4,2
1537912235369109,-3,-3,-7,-6,28,30,-4,-4
1537912235369109,0,0,-1,-8,-34,-14,-3,-1
1537912235378086,0,-2,-2,-12,-5,3,0,-1
1537912235378086,-2,-1,-1,11,31,1,-1,-2
1537912235393047,0,0,1,-10,-19,-23,-2,1
1537912235393047,-2,-1,-2,0,28,25,3,0
1537912235394044,-1,-2,-3,-3,-17,-3,-2,-2
1537912235394044,2,-1,1,23,8,8,-4,-2
1537912235414985,-1,-3,-2,-26,2,-14,2,0
1537912235414985,0,-1,1,6,-17,1,-10,-6
1537912235416981,1,-2,-1,4,14,-14,6,4
1537912235416981,0,0,-3,-11,-14,13,-1,1
1537912235428948,0,1,1,10,5,-11,-5,-3
1537912235428948,0,0,1,-3,5,10,-1,-2
1537912235437924,-2,0,3,2,-14,-4,-1,-2
1537912235437924,0,-1,-4,-9,-10,-14,-2,0
1537912235452884,0,0,1,6,-8,13,1,0
1537912235452884,0,0,-2,-4,-4,0,7,2
1537912235453881,-1,-1,-4,-5,-48,-20,-3,-4
1537912235453881,-3,-1,-3,9,90,23,2,-2
1537912235474825,2,3,5,9,-37,8,1,2
1537912235474825,0,0,0,-6,-2,-9,-8,1
1537912235476820,0,-2,-3,-2,-20,-3,-3,0
1537912235476820,0,-1,-1,-5,-59,-10,-5,-2
1537912235489786,-3,-3,-5,-10,48,0,-5,-3
1537912235489786,0,-2,-1,4,4,11,6,0
1537912235496767,0,-1,-2,-9,13,-12,-1,0
1537912235496767,0,1,1,-2,-51,-12,-4,-2
1537912235512725,0,-1,-2,12,13,17,0,-1
1537912235512725,0,-1,0,-3,-17,3,-3,0
1537912235513722,-1,0,2,6,22,6,-1,0
1537912235513722,-1,-1,-2,-8,-9,-8,-3,-1
1537912235535663,0,-1,1,8,-2,-23,-2,0
1537912235535663,0,-1,-5,-1,-2,5,2,-2
1537912235536661,0,0,-1,4,20,11,2,2
1537912235536661,-1,1,0,-6,-23,8,-1,-1
1537912235549626,-1,1,-1,2,-6,13,-6,-2
1537912235549626,-2,-3,-2,-9,-9,-5,5,0
1537912235556608,0,0,2,12,60,-7,-3,-2
1537912235556608,0,-3,-2,-3,-26,-2,2,1
1537912235572564,-1,-2,-1,-12,-28,-2,2,-1
1537912235572564,0,-1,1,0,-15,-5,1,-1
1537912235574559,-2,-1,-2,-4,-28,-3,-1,-2
1537912235574559,-3,-1,0,15,31,-6,-3,0
1537912235595502,-1,-1,-1,-2,-13,10,6,2
1537912235595502,-1,2,-2,-5,-32,-21,0,1
1537912235596500,-1,0,3,17,8,-3,1,0
1537912235596500,0,1,-2,-29,9,11,0,-1
1537912235609465,-3,-3,-4,-4,2,-22,-6,-2
1537912235609465,0,-3,0,7,0,2,-1,-1
1537912235616446,1,-3,-3,-10,-16,-13,-3,-1
1537912235616446,0,0,1,14,5,13,1,0
1537912235632404,0,1,1,7,13,-4,-2,-1
1537912235632404,-1,-3,-3,-11,-68,1,4,1
1537912235634399,0,-1,-4,7,64,-6,4,-2
1537912235634399,-1,0,2,-1,0,-1,0,-2
1537912235655342,-2,-2,0,-4,-3,-7,4,2
1537912235655342,-1,-1,0,12,36,13,-1,0
1537912235656340,-2,-2,-1,-12,-59,-9,-4,-2
1537912235656340,1,1,-1,-6,18,28,5,3
1537912235669305,0,-2,0,1,-10,-10,-3,-3
1537912235669305,-2,0,-1,6,9,-12,-3,-2
1537912235677284,-3,0,-2,-9,-28,16,3,1
1537912235677284,-1,-1,0,4,43,-9,-4,-2
1537912235692244,1,-1,0,2,5,-12,1,0
1537912235692244,-1,-1,-1,4,16,3,-6,-1
1537912235694239,0,0,-2,-9,2,7,0,1
1537912235694239,-1,-4,-3,-5,-22,-6,5,-2
1537912235715182,0,-1,-2,-2,-13,-4,-10,-4
1537912235715182,-1,-1,1,2,14,-3,7,3
1537912235717178,-1,0,-1,4,0,-1,0,0
1537912235717178,-1,-1,0,1,-4,-4,-2,-1
1537912235729145,-2,-1,0,2,6,7,-3,-2
1537912235729145,0,-1,-2,-5,1,3,-4,-3
1537912235738121,0,1,-1,-7,0,-2,13,4
1537912235738121,-2,-4,-6,-3,-19,-6,2,2
1537912235753081,1,0,1,10,27,4,3,2
1537912235753081,-1,2,4,15,-32,-13,-4,-1
1537912235754079,0,-3,0,-12,21,13,-1,-2
1537912235754079,-2,-1,-2,-8,-20,-4,-2,-3
1537912235775023,-1,-2,-3,-14,-25,-8,3,1
1537912235775023,-1,-1,1,4,52,7,-1,-3
1537912235777017,1,0,3,6,-28,-7,1,1
1537912235777017,-3,1,-1,0,7,-6,-3,-2
1537912235788986,-1,-1,0,-3,-21,6,-9,-3
1537912235788986,-2,-2,-2,-4,13,-19,-1,-2
1537912235797962,-1,0,2,3,6,15,-10,-4
1537912235797962,2,1,0,0,29,4,-1,1
1537912235812921,-3,0,0,0,-6,-4,-2,-1
1537912235812921,-1,0,-2,-4,8,8,-4,-1
1537912235813919,-1,-2,-1,2,-11,-9,2,2
1537912235813919,1,-1,0,-6,-15,1,-4,-2
1537912235834863,0,-1,-1,0,17,-3,11,1
1537912235834863,0,-1,-1,-4,-28,12,2,-1
1537912235836858,-1,0,-1,2,25,-3,-3,-4
1537912235836858,-1,0,3,11,-19,-7,-5,-4
1537912235848826,-2,-2,-2,-13,24,5,-6,-2
1537912235848826,0,2,1,0,-38,2,-2,0
1537912235857802,-2,-2,-4,-9,-26,0,2,0
1537912235857802,-1,-2,-7,-16,11,-3,-7,-3
1537912235872762,1,1,3,8,20,-1,-2,-2
1537912235872762,0,-2,2,15,-14,-8,2,1
1537912235873760,-1,-1,-2,8,16,9,-6,-4
1537912235873760,-1,1,2,5,8,13,6,1
1537912235894704,-1,0,-1,-6,-5,-22,-6,0
1537912235894704,-2,-1,-5,-18,-20,8,-3,-4
1537912235896699,0,1,9,43,49,24,-6,-5
1537912235896699,3,4,10,16,-15,-8,20,8
1537912235908666,-3,-4,-8,41,0,-19,-8,-4
1537912235908666,-5,-6,-10,-43,-18,24,9,-5
1537912235917643,-3,-7,-19,-44,-2,-95,-29,-7
1537912235917643,7,11,33,109,25,73,13,7
1537912235931605,-6,-10,-21,-86,9,8,2,-9
1537912235931605,-4,0,8,63,0,-17,-24,-15
1537912235938587,-10,-17,-31,-49,-53,68,9,-5
1537912235938587,5,11,21,46,-43,-66,20,23
1537912235955541,-3,6,7,-17,87,77,1,15
1537912235955541,0,-8,-9,-110,-26,-71,-18,11
1537912235956539,-14,-4,12,61,-12,-72,8,-29
1537912235956539,9,-15,-61,-106,4,3,-15,-11
1537912235969504,4,7,14,63,-51,16,-16,-20
1537912235969504,19,1,-19,-79,21,21,12,28
1537912235977482,-6,33,56,56,38,13,13,-18
1537912235977482,-69,-27,49,61,1,-2,45,-5
1537912235992443,79,23,8,102,53,-81,5,18
1537912235992443,6,-26,-66,-45,3,-31,-55,11
1537912235998427,-85,-29,-22,51,44,8,43,23
1537912235998427,112,42,15,16,-34,28,-20,-36
1537912236015381,-32,12,54,76,-59,-47,1,-17
1537912236015381,2,5,29,17,127,74,11,10
1537912236016379,-19,-16,-95,-104,-107,-115,-73,2
1537912236016379,-32,-17,-25,5,-16,39,17,-41
1537912236028345,-30,-17,-26,22,23,23,-10,-26
1537912236028345,5,9,30,35,12,-38,23,24
1537912236037322,-4,17,70,34,-46,-5,-23,-11
1537912236037322,35,9,16,-32,-15,67,-25,12
1537912236052282,-62,-7,-18,-11,34,0,30,-14
1537912236052282,54,6,-27,-63,-13,-32,-12,30
1537912236059263,-61,-33,13,24,-8,66,-7,-35
1537912236059263,53,17,-27,25,-10,-103,-1,18
1537912236075220,-40,11,-8,62,-44,-21,14,18
1537912236075220,6,-2,2,-66,-48,7,13,-20
1537912236076217,16,10,-2,56,-21,-27,11,-2
1537912236076217,8,8,21,-72,104,56,-32,30
1537912236097161,-20,-21,59,28,-47,-63,-12,-14
1537912236097161,-25,-1,-71,127,118,62,9,-17
1537912236099156,26,-11,14,-106,-31,-9,-1,5
1537912236099156,-17,-9,-27,87,44,35,17,4
1537912236112121,23,-8,-27,-128,-33,-30,3,17
1537912236112121,-119,-25,-35,47,-1,34,-17,-89
1537912236119103,127,59,53,-26,50,0,-12,67
1537912236119103,-3,6,-11,-11,27,22,-42,-22
1537912236135060,-43,-14,25,34,0,41,20,10
1537912236135060,34,12,18,42,0,-6,-7,-10
1537912236137055,-19,6,-25,-58,37,-12,12,10
1537912236137055,-65,-11,13,-62,-64,-100,-14,-11
1537912236157999,57,10,54,98,9,93,37,28
1537912236157999,-22,7,4,-68,8,-7,32,10
1537912236158996,27,-26,-35,78,2,-48,-45,-25
1537912236158996,-111,-43,-94,-128,-69,13,16,22
1537912236171962,107,36,-15,-43,-33,28,-19,10
1537912236171962,24,6,95,12,25,-16,1,-12
1537912236178943,-4,-6,-68,49,-7,25,15,-6
1537912236178943,-29,-18,1,-66,-40,-10,16,2
1537912236194900,-9,-19,-26,-11,-10,-62,-25,-22
1537912236194900,0,18,24,91,-34,16,10,22
1537912236196895,12,17,43,48,68,38,6,32
1537912236196895,32,-7,-11,48,33,10,-3,-28
1537912236217839,-4,3,5,-35,-27,-30,22,29
1537912236217839,2,-15,16,-21,-31,-22,-43,-29
1537912236218836,5,-4,-70,20,6,24,18,16
1537912236218836,-28,-11,-5,-20,-23,-30,31,5
1537912236231801,-29,-10,1,-32,0,52,-20,-16
1537912236231801,49,28,43,31,5,20,-1,18
1537912236238783,-16,2,0,45,-39,4,-19,-21
1537912236238783,32,9,33,-34,0,-29,8,0
1537912236254740,-21,14,-4,98,-2,-35,-5,16
1537912236254740,9,-12,-7,-19,-2,-2,5,-17
1537912236256735,-25,-20,-14,-87,3,57,-16,-2
1537912236256735,-4,14,3,-5,4,6,-17,18
1537912236277679,-32,-21,25,70,72,-53,-8,-20
1537912236277679,-23,6,-2,94,-78,-44,-7,2
1537912236278676,26,-1,-19,-123,45,69,26,21
1537912236278676,7,-6,17,71,29,-87,-22,-10
1537912236291641,-20,-2,-65,-117,6,7,-19,-31
1537912236291641,3,25,69,17,-22,-58,22,26
1537912236298623,61,28,108,64,-57,-37,-17,-22
1537912236298623,-16,-33,-74,88,9,29,-21,-16
1537912236315578,-45,-19,-12,-96,-22,-34,-29,-27
1537912236315578,8,-6,-32,22,7,17,20,30
1537912236316575,-33,-10,27,-55,-23,12,17,-4
1537912236316575,5,24,66,94,31,24,2,8
1537912236337519,20,13,-20,-6,-29,-53,-4,6
1537912236337519,-5,-13,-55,10,2,-1,-26,-19
1537912236339514,10,-4,-2,-70,-36,16,29,6
1537912236339514,-48,-24,39,87,-16,-14,-17,-31
1537912236351482,103,17,-78,-25,40,63,59,38
1537912236351482,-19,-4,30,-13,-25,6,-13,3
1537912236358463,-13,-13,-45,-55,-43,-60,21,24
1537912236358463,-46,8,39,-42,8,53,27,-10
1537912236382399,36,0,5,4,-3,42,-19,-25
1537912236382399,-14,-1,-36,-31,37,12,23,-5
1537912236384394,6,8,34,20,-20,-8,-7,-8
1537912236384394,-42,-14,-26,-29,-22,-22,-29,15
1537912236399354,37,-9,-7,-95,-33,52,-6,-11
1537912236399354,8,8,16,32,26,-26,-18,9
1537912236400351,-34,-3,-22,17,9,-70,1,-6
1537912236400351,-8,6,22,14,-10,34,21,6
1537912236412319,-9,-4,96,61,35,12,17,-4
1537912236412319,67,-10,-105,63,-39,49,22,16
1537912236418303,-13,-8,-10,-31,30,-4,-24,-10
1537912236418303,-31,4,15,-67,-18,-38,3,-16
1537912236435258,37,2,-68,-6,-16,6,-20,10
1537912236435258,-48,-7,15,-42,-15,9,12,-21
1537912236436255,0,0,35,14,5,18,-46,-8
1537912236436255,47,6,-79,15,27,35,34,31
1537912236457199,-40,-5,31,-36,-4,6,-7,-14
1537912236457199,18,17,53,34,39,33,-7,7
1537912236459194,17,12,16,40,-1,53,43,46
1537912236459194,14,-6,37,45,13,-27,-22,-19
1537912236472159,-115,-32,-59,-41,-70,-63,-13,-13
1537912236472159,53,4,-36,-78,-13,-18,8,-6
1537912236479140,-38,-4,29,97,24,-8,10,-5
1537912236479140,43,10,66,-46,-45,25,-15,25
1537912236495098,23,-1,-81,127,24,7,13,-3
1537912236495098,-49,-16,-21,-128,-61,-9,-17,-9
1537912236497092,0,0,-12,-42,70,-33,-4,-21
1537912236497092,36,17,49,38,22,22,15,10
1537912236518037,-10,-6,-3,36,21,10,-1,-7
1537912236518037,-33,-7,16,-21,-10,-29,4,4
1537912236519034,22,6,10,45,-1,25,-10,30
1537912236519034,34,16,-36,-34,5,16,-19,-51
1537912236531999,-1,10,80,-17,9,-31,-17,41
1537912236531999,-28,-27,-46,65,30,-3,1,-30
1537912236538981,-38,0,-11,-67,-1,26,22,0
1537912236538981,37,-8,-59,-46,-41,-59,-22,9
1537912236554939,-8,7,33,-18,-32,4,9,12
1537912236554939,-21,9,69,28,2,26,6,-1
1537912236556934,15,-16,-62,34,-15,3,-17,-35
1537912236556934,-29,-6,-20,-74,-3,-59,-33,3
1537912236577878,22,7,29,20,22,23,40,33
1537912236577878,36,6,33,-27,-30,34,34,16
1537912236578875,15,-3,-36,63,0,-9,-39,-3
1537912236578875,-9,-10,-15,-40,12,14,-4,-17
1537912236590843,-17,19,36,-26,-15,23,-15,-5
1537912236590843,13,9,0,33,14,10,18,-4
1537912236599821,-2,1,11,28,3,-9,1,-2
1537912236599821,-74,-15,6,-15,1,30,5,-1
1537912236614778,92,2,-46,11,-36,-18,-29,-3
1537912236614778,-26,-15,17,-54,11,-15,-7,-10
1537912236616773,7,-2,-15,37,-19,4,1,-12
1537912236616773,0,-4,-5,62,-15,24,8,-1
1537912236637717,-16,-2,-16,-66,-5,3,31,9
1537912236637717,3,4,-9,15,8,-57,-7,0
1537912236638714,-10,-2,32,-31,8,66,24,-9
1537912236638714,24,12,9,27,9,2,3,27
1537912236651679,25,10,-9,25,21,-40,-2,-5
1537912236651679,-28,-17,-1,21,-5,38,-19,8
1537912236660655,-14,4,26,49,-8,-7,11,-8
1537912236660655,11,1,-12,-76,35,-41,1,-17
1537912236675615,-6,-4,-33,-22,8,17,-4,-6
1537912236675615,-11,-3,-25,-48,-19,-43,-14,8
1537912236676613,-18,-1,41,28,-22,-11,7,-7
1537912236676613,88,21,12,64,42,9,11,15
1537912236697557,-25,-15,-29,-36,-45,-13,-30,-5
1537912236697557,-12,-23,-9,-38,15,-3,-6,-19
1537912236699552,-2,4,-36,-14,7,28,-7,-15
1537912236699552,-15,8,24,-38,-34,-8,24,6
1537912236711520,-1,2,16,13,34,-14,22,3
1537912236711520,0,10,18,77,12,-7,-9,18
1537912236720497,-29,-13,-1,-47,-43,-9,22,6
1537912236720497,22,-10,-32,3,37,-5,-13,2
1537912236735457,-23,0,16,-13,18,16,8,-23
1537912236735457,-10,-8,-3,10,1,14,-10,16
1537912236736454,48,8,-20,-30,-26,-38,-6,9
1537912236736454,-20,2,-3,6,-23,21,15,-4
1537912236757398,-11,-2,19,13,-1,32,-8,5
1537912236757398,10,7,28,5,18,-35,10,-8
1537912236759392,1,-8,-46,-4,46,10,-7,-5
1537912236759392,-8,-1,-3,-19,-33,-3,-10,1
1537912236771360,4,-5,7,7,2,2,-16,-7
1537912236771360,6,5,-5,7,-13,8,6,1
1537912236780336,-3,7,16,-5,3,10,0,3
1537912236780336,0,-3,6,45,47,0,4,-3
1537912236795296,-9,-2,-1,-13,-19,-17,4,6
1537912236795296,1,-2,-17,-25,-3,-32,-7,-8
1537912236796293,-2,-2,5,0,5,-18,6,-3
1537912236796293,3,0,-5,9,5,-9,-8,6
1537912236817237,-9,-2,12,7,2,47,1,-4
1537912236817237,2,0,-10,15,5,15,-1,-4
1537912236819232,7,0,3,-22,0,17,-2,1
1537912236819232,-5,-4,-7,8,-24,-3,-1,2
1537912236831200,-9,-3,4,7,10,3,-1,0
1537912236831200,3,5,-1,14,-2,26,5,-3
1537912236840176,1,2,9,-11,-2,30,-3,6
1537912236840176,-5,-5,-9,-33,-17,36,-1,0
1537912236854140,-7,-5,0,-3,0,46,-7,-6
1537912236854140,6,1,-4,-3,2,110,-5,-1
1537912236861120,-1,1,8,13,15,76,-9,-3
1537912236861120,-3,-2,-6,-10,-24,97,4,-1
1537912236878074,2,0,6,14,16,107,6,1
1537912236878074,0,0,-5,-14,23,9,-9,-6
1537912236879073,-2,-3,-3,1,-5,2,-8,-5
1537912236879073,1,1,-2,16,-4,-84,3,3
1537912236891040,-4,-3,-2,-1,-7,-78,-9,-3
1537912236891040,0,0,-1,0,-11,-97,6,2
1537912236900016,-2,1,1,-5,14,-85,7,-1
1537912236900016,-7,-4,-6,-6,-6,0,-6,-2
1537912236914976,10,0,2,4,-4,15,-2,0
1537912236914976,-2,-1,-2,7,-9,70,0,-1
1537912236920960,2,0,1,-8,-3,51,3,3
1537912236920960,-2,1,-1,4,-8,82,-7,-3
1537912236937915,-6,-2,0,3,4,46,-3,0
1537912236937915,1,-1,-2,-6,-5,-39,2,-3
1537912236938913,-1,-2,-1,8,-1,-110,2,2
1537912236938913,2,-1,-1,-1,-24,-128,0,-1
1537912236951878,-3,-2,-2,-1,24,-128,4,0
1537912236951878,2,1,4,20,31,-88,2,-2
1537912236959856,-1,4,4,3,-9,-68,-2,0
1537912236959856,-2,-4,-4,-18,-3,-61,1,1
1537912236975814,0,-1,-2,-30,-22,-52,-1,-1
1537912236975814,-3,-2,-1,-3,-2,-18,3,-1
1537912236981797,0,-2,-3,6,-10,-19,-3,-1
1537912236981797,1,1,1,11,18,15,-1,-2
1537912236997755,-2,-3,1,11,-2,-23,0,2
1537912236997755,0,1,-2,-9,-12,2,-6,-2
1537912236998753,0,-3,-2,-7,4,40,4,0
1537912236998753,0,2,3,9,7,4,-7,-1
1537912237019696,-2,-1,0,-1,1,-5,-1,-1
1537912237019696,0,-3,-2,3,-34,20,1,-1
1537912237021691,2,2,6,8,39,15,1,0
1537912237021691,-5,-7,-12,-23,-12,1,-5,-5
1537912237034657,-3,-2,-12,-14,13,6,-1,-2
1537912237034657,2,2,4,11,-8,14,4,4
1537912237041638,-2,-1,-2,-7,-46,9,-3,0
1537912237041638,-1,1,6,11,-6,2,0,-1
1537912237057597,-2,0,-1,-1,-8,6,-1,-2
1537912237057597,-1,0,-4,0,-9,2,-4,-4
1537912237059591,0,-2,-1,-4,29,10,0,-2
1537912237059591,2,2,5,13,13,-17,2,3
1537912237080533,0,0,3,6,-13,18,4,1
1537912237080533,0,-1,-3,-12,-18,2,-3,-3
1537912237081531,-1,-3,-3,-13,14,7,-2,0
1537912237081531,0,-1,0,4,-17,-1,-1,0
1537912237094496,0,0,4,13,27,0,-3,-2
1537912237094496,-1,-2,-1,-5,42,0,1,0
1537912237101478,-2,-1,-3,-4,-59,1,-1,-1
1537912237101478,0,0,-1,-2,-9,13,4,2
1537912237117435,-1,-2,-2,-6,-46,-7,-1,-1
1537912237117435,0,0,0,4,48,9,-3,-3
1537912237119429,0,0,1,4,-47,-2,4,1
1537912237119429,0,-1,0,3,59,4,-3,-3
1537912237140374,0,1,3,30,45,5,0,0
1537912237140374,-1,-2,-7,-33,-51,-3,-2,0
1537912237141371,-1,-2,-2,-4,4,0,-1,-2
1537912237141371,-1,-1,0,-11,-13,3,0,0
1537912237154336,-1,1,2,8,-4,1,1,2
1537912237154336,-3,0,0,12,3,2,0,-1
1537912237161318,-1,-2,-8,-6,8,-4,-1,-1
1537912237161318,-2,-2,-3,-10,4,5,1,-2
1537912237177276,-1,-1,2,-5,-1,-2,-2,-2
1537912237177276,-1,-2,-3,-13,-11,-2,-1,0
1537912237179272,-3,1,1,11,12,2,-1,-1
1537912237179272,3,2,1,13,4,8,5,3
1537912237200215,-2,-3,-3,-2,-26,-2,-6,-5
1537912237200215,1,2,1,13,31,2,2,0
1537912237201213,-1,-1,-3,-13,-25,-4,0,-1
1537912237201213,-1,-2,0,10,21,2,-3,-2
1537912237214177,1,2,2,7,26,-1,3,1
1537912237214177,-2,-2,-4,-30,-21,-5,-2,-2
1537912237223154,-2,-4,-2,-13,2,9,0,1
1537912237223154,-2,-2,-4,-4,-27,-5,-5,-3
1537912237238112,0,0,1,23,13,2,4,-1
1537912237238112,1,-1,4,11,-15,2,-2,0
1537912237239112,-3,-2,-5,5,18,-7,-4,-2
1537912237239112,1,-1,-2,-24,-57,-4,-4,-1
1537912237260055,-3,-2,-2,15,64,0,1,0
1537912237260055,0,-2,-2,-2,-16,-1,-3,0
1537912237262049,-1,-1,0,-2,9,0,-12,-6
1537912237262049,0,-2,-3,16,2,4,8,1
1537912237274019,0,-2,-3,-19,-25,-3,4,2
1537912237274019,1,1,2,8,2,-1,-3,-3
1537912237282992,0,1,3,4,9,1,-1,0
1537912237282992,-3,-2,-2,-5,22,0,-7,-3
1537912237297952,0,-1,-2,-18,-29,-2,-1,0
1537912237297952,0,-3,-5,-16,-8,1,1,1
1537912237298949,0,1,2,1,15,-1,1,0
1537912237298949,1,1,6,8,3,1,1,0
1537912237319893,-3,-2,-3,6,-39,-5,-3,-1
1537912237319893,-2,-2,-3,-4,25,3,-1,-1
1537912237321888,2,-1,-2,1,35,7,8,4
1537912237321888,-2,-2,-2,-8,-1,-4,-2,-1
1537912237333857,0,1,3,5,-29,-1,-1,-1
1537912237333857,-2,-2,-2,4,-28,-5,-1,-4
1537912237342833,-1,-2,0,-3,35,2,1,1
1537912237342833,-2,-1,-3,4,-4,-5,-2,-2
1537912237357793,-1,1,-3,-9,4,10,2,-1
1537912237357793,0,-1,1,8,-6,-3,-1,0
1537912237358791,0,-1,-2,-14,-8,0,2,0
1537912237358791,0,-1,1,17,11,2,0,0
1537912237379733,-1,-1,-3,-24,-11,-2,-3,-4
1537912237379733,-1,0,1,2,10,-2,0,0
1537912237381729,-1,0,1,2,-15,-9,-2,-2
1537912237381729,1,-2,-6,-16,-9,3,2,2
1537912237393696,0,1,5,11,2,1,-1,-1
1537912237393696,-2,-2,-6,11,5,0,-1,-2
1537912237402672,-2,-1,-2,11,9,-4,-5,-4
1537912237402672,-2,-2,-3,-19,-18,3,31,-3
1537912237417632,-1,0,-4,-7,26,1,31,0
1537912237417632,2,1,4,9,-20,54,16,-12
1537912237418630,-2,1,-1,-4,-20,-3,-8,-13
1537912237418630,-4,-2,1,9,6,4,-24,4
1537912237440571,-4,1,2,-3,-13,-14,-27,8
1537912237440571,-1,3,0,11,36,-2,-17,19
1537912237441568,0,5,0,3,-7,14,-12,12
1537912237441568,0,2,4,1,11,-15,-12,2
1537912237453537,-1,-3,0,-11,-6,-34,-8,0
1537912237453537,-3,-1,1,3,-3,-39,-4,-5
1537912237462512,-4,-4,-3,2,-9,-20,4,-4
1537912237462512,-2,-1,2,46,14,-2,3,-4
1537912237477472,1,-11,-12,-54,-13,25,4,-7
1537912237477472,-1,-4,-1,6,25,33,3,-10
1537912237479467,1,2,-3,-9,14,59,18,-2
1537912237479467,2,21,0,7,-7,60,10,-3
1537912237500411,0,107,6,49,14,42,10,-7
1537912237500411,-1,122,-2,-25,-29,18,9,-2
1537912237501408,-3,93,2,1,-8,28,17,2
1537912237501408,2,-7,7,-24,-1,111,14,3
1537912237513376,16,-87,6,14,16,127,11,3
1537912237513376,67,-120,1,-33,-11,118,23,22
1537912237522352,64,-112,17,14,-5,-14,68,38
1537912237522352,4,-100,17,-14,37,-92,120,56
1537912237537312,-21,-101,19,-11,-12,-120,127,77
1537912237537312,-5,-85,17,-2,2,-127,99,97
1537912237539306,57,-87,24,-11,48,-95,30,114
1537912237539306,95,-115,70,36,-18,-95,-23,125
1537912237552272,72,-126,113,-7,-33,-78,-54,127
1537912237552272,23,-128,127,28,20,-75,-46,127
1537912237554267,-20,-128,127,46,-52,-47,-24,127
1537912237554267,-32,-122,123,4,41,-46,-3,120
1537912237566234,-24,-121,43,85,47,-36,11,-11
1537912237566234,-21,-100,-41,57,-20,-48,12,-97
1537912237575210,-20,-89,-101,109,46,-110,8,-128
1537912237575210,-20,-51,-128,47,-13,-125,-5,-128
1537912237589173,-8,-39,-121,84,-11,-128,1,-119
1537912237589173,-19,-26,-108,117,46,-106,-9,-112
1537912237596155,-41,-8,-106,45,2,55,-38,-110
1537912237596155,-42,17,-95,55,-26,111,-61,-99
1537912237612112,-40,32,-83,50,56,127,-64,-70
1537912237612112,-36,37,-68,10,-20,127,-35,-56
1537912237614106,-31,55,-49,-8,-11,118,-49,-41
1537912237614106,-18,73,-45,21,62,124,-68,-41
1537912237626074,-8,56,-43,-74,-50,115,-90,-28
1537912237626074,-5,38,-26,-38,-45,91,-126,-12
1537912237635051,6,24,-13,-37,89,74,-125,-9
1537912237635051,23,54,-18,-16,-102,62,-128,-19
1537912237649013,24,79,-19,31,88,41,-128,-9
1537912237649013,15,90,-4,-84,16,36,-127,2
1537912237663973,7,91,-2,-26,35,35,-128,-3
1537912237663973,-4,81,-10,-48,-45,13,-128,-12
1537912237672949,-7,71,-6,-25,-63,9,-128,-1
1537912237672949,-12,62,1,-37,-104,15,-126,3
1537912237673946,-16,47,-2,-67,-128,10,14,-4
1537912237673946,-13,39,-6,-51,-79,-1,107,-6
1537912237685915,-13,30,-2,-68,-128,3,127,0
1537912237685915,-13,22,0,-34,-113,10,127,0
1537912237694890,-12,33,-2,-43,-118,1,118,-2
1537912237694890,-10,97,-2,-28,35,2,119,-3
1537912237709850,-21,101,-2,-37,86,115,127,-1
1537912237709850,-17,66,-1,-16,127,124,120,-1
1537912237715834,-11,17,1,-9,127,-37,94,0
1537912237715834,4,-71,-1,-17,81,-101,76,-3
1537912237732789,10,37,-3,-20,4,-128,51,-1
1537912237732789,6,103,-1,6,-24,-128,72,-109
1537912237733787,8,127,0,-7,-128,-49,84,-123
1537912237733787,5,127,-2,-9,-122,-3,110,-128
1537912237745754,6,115,-3,-8,-123,0,122,-128
1537912237745754,15,117,0,-25,-120,40,127,-117
1537912237754731,-16,127,0,-52,-128,36,108,-100
1537912237754731,110,127,-7,-103,-117,32,-11,-128
1537912237787643,116,117,-100,-37,-18,33,-66,88
1537912237787643,123,-57,-119,32,-23,8,42,-22
1537912237788640,-75,-107,-128,-40,-99,16,-118,11
1537912237788640,-74,-33,-128,57,-94,19,-59,-1
1537912237792629,-128,-128,-45,45,-120,12,-70,41
1537912237792629,-42,43,-111,54,-128,-2,-128,127
1537912237794624,68,-117,-48,95,-65,8,-48,127
1537912237794624,71,-94,-11,94,75,22,-42,127
1537912237806592,99,-14,106,23,90,-2,-2,115
1537912237806592,78,16,127,-10,127,-5,50,116
1537912237813573,102,34,127,-53,127,14,24,91
1537912237813573,65,-88,127,-92,107,5,27,108
1537912237829530,76,35,119,-27,125,-4,47,40
1537912237829530,38,-42,124,-86,113,0,30,43
1537912237836512,61,-79,114,47,97,8,33,32
1537912237836512,30,-116,108,84,84,3,10,55
1537912237844491,32,-45,75,89,48,-9,30,0
1537912237844491,20,-33,68,54,34,-55,-7,9
1537912237851472,33,74,65,25,43,-24,1,41
1537912237851472,15,77,56,-38,36,-11,20,8
1537912237867429,19,0,29,-41,0,-3,-2,-24
1537912237867429,8,39,38,-13,1,16,-3,-17
1537912237873413,21,97,29,-31,29,8,14,-10
1537912237873413,1,6,110,-13,9,-1,10,2
1537912237889371,9,25,112,-34,-12,9,8,-20
1537912237889371,2,64,127,-2,7,87,-2,12
1537912237896352,9,127,127,-14,15,116,12,4
1537912237896352,1,127,113,-8,-1,127,-4,8
1537912237904331,115,94,104,-7,-5,127,-2,5
1537912237904331,-103,-42,23,-9,7,122,6,29
1537912237912309,119,-47,-13,2,5,-3,0,6
1537912237912309,104,54,-94,3,-2,-87,1,112
1537912237927269,-49,-117,-65,-13,1,-128,28,-44
1537912237927269,-85,-123,-20,5,2,-128,-5,-78
1537912237934251,-128,-128,-16,-1,3,-119,2,-61
1537912237934251,-128,-128,-15,2,4,-120,-6,-38
1537912237949210,-61,-37,-99,-10,-1,-128,0,8
1537912237949210,26,11,-116,0,0,-128,2,22
1537912237964171,19,46,-125,4,4,-9,2,17
1537912237964171,53,69,-121,-5,3,10,6,2
1537912237972149,21,54,-117,-4,-2,-90,-3,21
1537912237972149,50,48,-98,3,-1,-34,2,10
1537912237979131,53,57,-80,-2,6,-49,1,22
1537912237979131,15,40,-83,1,2,111,5,1
1537912237988107,9,20,-64,-5,-2,110,-1,-5
1537912237988107,56,117,-49,1,38,48,-1,12
1537912237994092,22,-101,-38,-2,97,74,5,9
1537912237994092,0,-31,-34,-1,124,-37,0,-11
1537912238010049,3,102,-28,-1,-28,127,-5,-3
1537912238010049,37,49,-11,-2,-12,-46,0,7
1537912238016032,100,124,-9,0,-51,37,-3,4
1537912238016032,-120,77,-11,0,-65,73,74,-15
1537912238032987,117,62,-8,-4,-31,84,-34,18
1537912238032987,-102,-123,-6,1,2,12,127,-5
1537912238047947,-124,-119,-13,-1,-49,-108,-34,-10
1537912238047947,-89,-121,-111,0,-39,-85,-128,-10
1537912238048952,-68,-128,-74,-3,-73,-105,-45,-5
1537912238048952,14,-128,-122,0,-93,-81,-128,3
1537912238053931,7,-33,-120,0,-27,-41,-52,-1
1537912238053931,42,23,-116,-55,-19,-59,-2,-9
1537912238069888,-20,1,-128,-113,29,68,9,-4
1537912238069888,53,46,-110,-128,43,127,77,-1
1537912238075872,-8,59,-116,-128,23,97,25,-1
1537912238075872,42,106,-117,-123,4,97,104,-2
1537912238090832,-2,98,48,-102,34,98,127,-9
1537912238090832,7,127,21,29,14,101,127,0
1537912238107787,105,127,-41,114,1,127,62,76
1537912238107787,127,111,50,127,-10,88,-74,111
1537912238108784,118,27,78,127,20,-77,-127,127
1537912238108784,11,-64,127,118,-5,-75,-128,127
1537912238113771,-120,-120,127,121,-9,-128,-116,114
1537912238113771,-111,-128,127,127,0,-123,-119,-48
1537912238129728,-128,-128,113,125,50,-128,-114,-106
1537912238129728,-110,-103,127,107,76,-128,-128,-128
1537912238136709,-123,-125,119,82,49,-124,-88,-128
1537912238136709,-125,-128,126,62,0,-125,-72,-115
1537912238151670,-128,-128,36,70,30,-48,-79,-127
1537912238151670,-94,-128,-30,49,6,-49,-64,-128
1537912238158651,-93,-118,-48,22,14,-35,-43,-121
1537912238158651,-68,-123,-13,24,36,23,-39,-104
1537912238167628,-81,-128,-32,33,2,-37,-20,-78
1537912238167628,-42,-104,-33,16,-9,2,-30,-38
1537912238173611,-42,-81,4,1,-16,7,-8,-31
1537912238173611,-25,-63,-5,10,-22,2,-10,-2
1537912238190567,-36,-35,-39,15,31,0,-1,34
1537912238190567,-20,6,-16,1,-6,10,-10,36
1537912238204529,-72,5,12,1,-1,6,-9,45
1537912238204529,-102,-91,0,5,-21,-108,1,73
1537912238211510,-98,-110,-21,5,6,-127,-3,103
1537912238211510,-12,-89,-7,0,4,-118,-13,86
1537912238218492,13,-16,-13,0,-6,-124,0,102
1537912238218492,111,-58,-34,1,-7,-123,-1,32
1537912238227467,104,-28,-12,2,-32,85,1,127
1537912238227467,117,67,-7,2,-35,107,-7,-30
1537912238233453,60,97,2,1,-54,127,1,27
1537912238233453,2,127,12,-1,-56,-62,1,122
1537912238250409,-42,127,-100,3,-109,-71,-3,56
1537912238250409,-122,110,-120,1,-128,-121,-3,127
1537912238256391,-81,127,-128,-2,-64,-91,-1,61
1537912238256391,30,124,-73,0,-17,-4,-3,103
1537912238271351,114,91,-32,3,64,43,1,-40
1537912238271351,127,90,-110,0,21,1,-4,-111
1537912238279330,127,59,-4,-2,-7,41,0,-123
1537912238279330,126,-35,-67,1,-28,127,-1,-106
1537912238287309,122,117,24,2,-22,-39,1,-2
1537912238287309,-93,-87,83,0,39,-71,-2,102
1537912238294289,-83,29,106,0,117,75,-2,85
1537912238294289,100,98,127,0,127,119,0,78
1537912238310250,28,127,122,38,126,127,-24,94
1537912238310250,2,121,127,111,127,127,-113,115
1537912238316231,-26,-79,125,127,116,85,97,127
1537912238316231,-124,-121,55,127,127,-82,99,-4
1537912238325206,-114,-128,-109,114,32,-128,127,-106
1537912238325206,-33,-120,-105,52,-73,-128,127,-128
1537912238339168,-47,-128,-128,1,-117,-128,100,-128
1537912238339168,-63,-95,-126,-41,-123,-84,124,-118
1537912238348144,-42,-128,-117,-78,-128,-126,116,-128
1537912238348144,-28,-93,-90,-47,-91,-57,37,-125
1537912238354129,-1,-31,-65,-95,-121,-33,-15,-90
1537912238354129,-44,-6,-52,-55,-56,-49,-32,-128
1537912238370086,-56,-34,-25,-53,-74,-65,-50,-102
1537912238370086,-15,-80,-20,-63,-50,18,-32,-40
1537912238376070,9,-71,-26,-53,-45,-38,-75,-17
1537912238376070,-69,-61,-31,-52,-67,-3,-44,45
1537912238385046,-128,-56,17,-47,-34,44,-49,41
1537912238385046,-87,56,49,-56,11,-18,-7,32
1537912238407985,-82,104,-29,-42,-4,-128,99,11
1537912238407985,-83,-96,-17,-38,-17,96,50,35
1537912238408984,-60,91,4,-34,-2,97,20,31
1537912238408984,-7,-93,-15,-46,-18,62,-29,53
1537912238413970,-9,84,27,-23,-12,-28,-128,-2
1537912238413970,7,116,1,-7,3,-16,-74,22
1537912238429927,0,-99,2,-5,-8,-25,-19,12
1537912238429927,11,7,-4,0,3,23,123,3
1537912238435912,15,-107,-25,13,10,11,87,12
1537912238435912,3,44,21,-1,-1,7,-87,-6
1537912238444887,12,-35,17,17,-10,-40,-111,-5
1537912238444887,26,56,-62,-3,14,3,-61,3
1537912238458850,29,-43,44,8,14,-33,33,1
1537912238458850,-1,-13,26,-4,2,-37,-16,-4
1537912238467827,4,20,38,-8,-12,21,-64,-2
1537912238467827,12,27,31,-7,-4,30,1,7
1537912238473810,19,11,-10,-8,10,65,-20,-1
1537912238473810,28,13,-8,-12,-14,-15,16,7
1537912238489767,21,-3,-23,-5,12,-12,26,14
1537912238489767,18,-11,-5,1,0,14,13,3
1537912238496748,13,12,-13,14,4,3,-47,-2
1537912238496748,12,-7,8,0,5,16,4,1
1537912238504729,10,-18,4,16,-24,7,33,12
1537912238504729,16,56,33,16,-11,0,-3,-6
1537912238518692,16,-41,117,20,8,5,-20,6
1537912238518692,23,33,105,-10,21,-10,10,3
1537912238527666,65,55,110,-27,7,-29,52,31
1537912238527666,-28,-90,-24,22,85,-47,-48,-36
1537912238533652,-52,90,-124,-117,-81,-86,-93,-44
1537912238533652,96,-128,-120,-123,-116,-121,100,96
1537912238550603,32,42,-65,-34,-121,93,-14,-16
1537912238550603,47,-97,50,90,-47,-119,-43,-16
1537912238564566,-90,-14,63,127,70,127,-14,-18
1537912238564566,-128,-13,49,-52,127,-108,-128,-128
1537912238571547,71,16,63,-114,51,-37,-22,21
1537912238571547,94,107,65,-128,90,-109,68,105
1537912238578529,127,83,49,-77,-96,-88,42,123
1537912238578529,34,116,50,49,-126,32,6,46
1537912238587505,-44,78,30,78,-19,74,-110,30
1537912238587505,-82,104,47,50,24,127,-115,-5
1537912238601468,-53,50,16,87,-34,119,-74,15
1537912238601468,-65,94,25,93,-8,91,-123,9
1537912238610443,-87,27,13,26,69,-38,-118,-90
1537912238610443,-101,67,9,62,-35,-97,-113,-78
1537912238616427,-47,10,16,-43,-67,-120,-6,-58
1537912238616427,-38,32,8,-90,-95,-83,92,-83
1537912238631387,-121,11,0,-109,-86,-128,127,-36
1537912238631387,-123,13,9,-128,-14,-101,127,22
1537912238638368,44,-9,4,-25,101,-28,117,32
1537912238638368,50,13,7,98,-79,114,99,43
1537912238655323,116,-5,-6,-33,-103,98,79,38
1537912238655323,127,14,6,104,-128,-51,-24,44
1537912238656320,119,-16,3,-128,-120,70,-108,-29
1537912238656320,106,13,-3,-94,-40,-2,1,-21
1537912238670283,11,-7,0,-81,18,55,-93,95
1537912238670283,-2,2,2,-116,31,-6,-107,51
1537912238676267,-85,-6,0,125,117,-62,27,-27
1537912238676267,-87,1,1,110,117,17,85,-68
1537912238691227,-73,-6,-2,7,97,1,60,-61
1537912238691227,-45,2,4,61,59,127,-53,-120
1537912238699206,-50,-7,-2,40,60,86,-128,-100
1537912238699206,-42,5,0,-14,62,117,-64,1
1537912238707184,-19,-7,-1,-69,47,-127,27,-31
1537912238707184,-23,5,-1,-98,-6,127,-26,-27
1537912238714166,-26,-3,3,-11,11,66,-90,17
1537912238714166,-114,3,1,-36,38,-98,-128,8
1537912238730123,-128,-1,-1,-25,31,-49,-38,53
1537912238730123,-128,-1,0,-115,95,37,127,-92
1537912238744086,-128,-6,-1,-86,115,96,120,15
1537912238744086,-98,1,0,2,127,107,-14,104
1537912238751068,36,-3,-3,105,81,-65,-109,29
1537912238751068,114,2,0,60,-109,-128,-34,127
1537912238759046,127,-5,0,61,-120,-128,-29,-89
1537912238759046,127,2,-2,40,-128,-96,24,-51
1537912238774006,113,4,-1,6,-128,-6,28,-67
1537912238774006,127,78,-1,-42,-124,8,127,-64
1537912238775003,106,117,-3,-107,-120,-38,126,127
1537912238775003,108,-89,0,-32,-84,-11,-84,122
1537912238789963,87,39,-1,59,104,-80,99,1
1537912238789963,69,79,1,46,121,12,83,-104
1537912238795947,51,-104,-3,21,57,33,-91,118
1537912238795947,60,-34,0,-2,-40,18,-126,-106
1537912238810907,47,73,110,60,-99,-22,62,-46
1537912238810907,25,71,124,51,-96,34,81,-68
1537912238818887,14,102,127,-19,-80,56,110,24
1537912238818887,34,-82,18,-58,-50,127,127,-12
1537912238834846,11,-17,-111,-89,-62,127,97,-92
1537912238834846,-1,-46,-128,-65,-94,55,65,-83
1537912238834846,4,-86,74,86,-109,17,-51,-128
1537912238834846,11,-63,37,127,-113,-48,-93,-31
1537912238849803,-1,-128,-33,70,-128,-84,-128,45
1537912238849803,1,-127,-107,-45,-128,-113,-128,101
1537912238864763,6,-128,-128,-95,-38,-90,-124,74
1537912238864763,5,-78,-116,-108,-24,-45,-66,73
1537912238870747,-2,-83,-105,-114,58,1,-104,43
1537912238870747,3,-120,-120,-75,110,-15,-128,106
1537912238878726,-2,-108,-128,-118,121,-50,-93,88
1537912238878726,-3,-54,-120,-128,127,-27,-74,91
1537912238894683,111,-127,-33,-111,117,61,-128,127
1537912238894683,124,16,82,23,8,100,-128,127
1537912238894683,127,4,91,83,127,74,-106,84
1537912238894683,-51,127,106,106,31,49,-76,-112
1537912238910640,-111,121,108,127,-122,34,75,-106
1537912238910640,61,-85,124,127,114,-18,108,85
1537912238916625,-128,-21,114,63,45,-30,-57,-70
1537912238916625,-7,10,120,119,26,9,-95,-72
1537912238931585,85,41,38,-76,-5,-9,-128,96
1537912238931585,-127,66,-85,-119,-102,38,-128,-86
1537912238938566,-79,-34,66,-128,-92,5,125,-95
1537912238938566,-125,-19,70,-128,-46,-23,127,-101
1537912238953526,-128,2,18,-79,-55,-56,127,-128
1537912238953526,-118,-31,47,-120,-100,-63,-47,-100
1537912238961504,-71,-36,-128,-117,-68,-27,-114,-72
1537912238961504,-52,-41,-120,-117,-61,-30,-90,-49
1537912238976465,-35,-40,-112,-14,-30,32,-128,-8
1537912238976465,109,-95,-101,4,-11,7,-123,-2
1537912238977462,-123,-125,-122,65,-37,-11,-91,-55
1537912238977462,-56,-55,-121,14,-22,-31,-7,44
1537912238991424,89,-34,4,47,11,7,3,26
1537912238991424,-64,-128,72,100,-24,9,74,3
1537912238998406,-32,127,67,74,-38,-8,127,-15
1537912238998406,-14,118,53,61,-17,-4,103,43
1537912239007382,-79,-58,51,41,19,2,60,15
1537912239007382,79,-63,92,40,-1,23,35,-25
1537912239021344,127,-88,75,13,-26,1,17,23
1537912239021344,70,-25,56,18,-2,15,1,30
1537912239030321,-8,-21,86,38,-1,0,-36,-11
1537912239030321,-26,30,96,30,-2,4,-13,7
1537912239036305,-13,17,45,15,-2,0,-42,20
1537912239036305,23,28,-20,1,15,-6,-69,-2
1537912239051265,1,10,34,15,2,-7,-29,-18
1537912239051265,-44,14,10,-6,4,-10,-5,-10
1537912239059243,-35,59,64,-5,-17,-8,118,11
1537912239059243,23,9,25,-11,-21,-8,-14,-5
1537912239067222,-14,-18,73,8,-7,-11,114,32
1537912239067222,-128,111,72,104,-102,-8,106,4
1537912239081184,-59,110,107,119,-117,82,20,91
1537912239081184,-114,119,82,127,-128,39,-8,119
1537912239090161,-126,41,-71,-27,-58,60,-128,-99
1537912239090161,-28,-85,-106,-116,89,-11,-128,-91
1537912239096145,85,-128,-108,-128,117,-29,-104,-98
1537912239096145,47,-106,-56,-128,103,-26,-95,-80
1537912239111104,23,91,-74,96,-98,-25,-69,75
1537912239111104,7,84,-58,101,-128,-19,53,63
1537912239119084,44,43,-93,115,-128,-31,65,36
1537912239119084,97,-18,-78,127,-116,-24,120,86
1537912239128059,58,-65,-52,10,13,-1,84,61
1537912239128059,49,-103,-35,-96,80,-20,76,48
1537912239142022,63,-113,-65,-123,127,-37,58,55
1537912239142022,50,-89,-30,18,127,-56,127,41
1537912239149003,26,27,-3,123,112,-54,127,22
1537912239149003,42,127,-38,59,105,14,-2,28
1537912239155985,13,127,-31,-20,97,-88,-103,32
1537912239155985,90,127,0,-95,69,20,-105,2
1537912239170945,-94,101,-10,-97,56,97,-128,-1
1537912239170945,-70,127,-17,-76,63,127,-128,24
1537912239178923,-69,117,-11,-112,24,127,-124,-3
1537912239178923,-8,107,6,-128,19,41,-27,14
1537912239187899,59,57,-8,-128,40,112,32,2
1537912239187899,21,58,-5,-128,32,-115,75,-40
1537912239200865,15,57,2,-104,53,-86,115,-111
1537912239200865,12,47,-8,-8,-92,70,105,-70
1537912239209841,27,12,-4,-43,-96,-128,-67,31
1537912239209841,-4,14,1,-98,-94,-21,113,61
1537912239215825,25,21,-6,-81,-23,-5,100,-96
1537912239215825,-38,17,-4,-123,51,0,-1,106
1537912239230785,59,-9,-106,-6,24,52,-71,-39
1537912239230785,-68,4,-114,121,31,65,-4,-127
1537912239238763,-22,8,-128,127,15,33,91,-100
1537912239238763,-28,3,-128,127,27,38,66,-106
1537912239247739,5,-8,27,117,16,35,19,-8
1537912239247739,46,72,98,120,18,-4,-111,99
1537912239261702,10,-36,123,127,-2,49,-112,-63
1537912239261702,-12,-32,127,98,-3,5,-84,-87
1537912239268684,-2,110,126,73,22,-15,-81,-81
1537912239268684,22,-56,117,57,32,84,-83,-24
1537912239276662,-21,6,127,75,9,41,-80,63
1537912239276662,-69,-57,126,45,127,101,-66,-66
1537912239291622,-73,67,124,14,127,98,-24,-128
1537912239291622,-41,-46,-49,45,-111,19,-33,-44
1537912239298603,-13,127,96,50,-123,-61,-33,-76
1537912239298603,26,-85,47,55,75,20,-29,-15
1537912239307579,-6,-75,127,34,59,94,12,10
1537912239307579,0,67,-3,44,13,-61,-6,-12
1537912239321542,16,-26,-128,66,-103,-71,-33,127
1537912239321542,15,127,-75,-3,-128,16,-8,-112
1537912239328524,-8,-3,43,-26,-128,-123,13,-41
1537912239328524,-23,8,-77,-23,122,-29,-10,-126
1537912239336502,-57,41,88,-40,127,-54,-16,38
1537912239336502,-27,-75,75,50,127,-128,76,-76
1537912239351463,-128,-128,-128,41,-47,7,-2,99
1537912239351463,-39,35,-7,106,-115,-39,-102,42
1537912239358443,-20,34,64,127,109,-14,-115,8
1537912239358443,-6,-6,99,109,127,-13,-128,127
1537912239367419,99,46,58,116,13,-29,72,100
1537912239367419,15,-128,-10,112,-47,21,-58,80
1537912239382379,41,-25,-128,84,-107,127,48,57
1537912239382379,-27,-13,-103,55,-128,86,102,58
1537912239388363,121,-54,-128,34,-79,101,127,0
1537912239388363,-85,55,-39,-114,-75,96,127,-128
1537912239396342,-83,-87,-103,-116,-105,-73,127,-127
1537912239396342,116,-113,-62,-128,62,53,-92,81
1537912239411302,-52,-58,-51,-73,-110,-128,-117,-98
1537912239411302,-60,-102,99,-20,77,-2,-10,-109
1537912239418283,-70,41,127,5,97,93,24,-57
1537912239418283,-121,127,79,-1,-128,68,117,-51
1537912239427260,-30,109,86,8,-80,127,59,33
1537912239427260,44,65,125,17,6,-81,76,110
1537912239442219,11,-10,81,8,72,-88,71,56
1537912239442219,32,42,36,14,104,-52,54,43
1537912239448204,5,96,63,5,118,-51,29,43
1537912239448204,43,-44,67,28,51,-3,53,42
1537912239456182,41,-67,21,-39,109,127,64,47
1537912239456182,10,-28,27,-51,-90,-107,114,4
1537912239471143,-4,-83,37,-30,-16,-65,127,-9
1537912239471143,12,23,18,-40,16,-125,127,19
1537912239479121,24,-40,16,20,30,53,17,30
1537912239479121,-47,-68,16,17,37,-47,-88,-4
1537912239494081,-128,-43,1,-12,82,-82,-111,-27
1537912239494081,-78,-3,-1,21,57,-102,-128,21
1537912239502060,-64,-7,13,13,13,-14,-128,19
1537912239502060,-10,23,4,4,11,-81,-105,-23
1537912239509041,27,-76,-11,10,58,-9,-126,-14
1537912239509041,37,101,6,1,60,117,-120,8
1537912239516022,38,-10,11,4,-27,7,16,2
1537912239516022,4,-80,-6,-5,7,36,-93,-16
1537912239530983,17,-112,-3,7,55,17,-106,-6
1537912239530983,26,-53,7,-4,2,52,93,8
1537912239538961,11,-115,0,-9,-28,10,-128,-4
1537912239538961,6,-36,-8,13,3,-127,-92,-6
1537912239553921,45,66,1,113,28,-30,106,-4
1537912239553921,127,2,4,-105,-7,13,-128,-2
1537912239561900,127,56,-4,50,-54,-119,-34,2
1537912239561900,127,-42,-2,90,100,14,72,106
1537912239568881,127,29,-28,112,119,94,49,114
1537912239568881,38,-83,-13,127,104,113,127,127
1537912239575862,-83,17,-7,8,127,105,127,-18
1537912239575862,-128,12,13,-102,-57,-79,-119,-124
1537912239590823,-128,-16,119,-128,-120,56,-117,-128
1537912239590823,-119,113,-96,-128,-111,23,-87,-128
1537912239598802,-123,50,-102,-128,-128,-89,50,-106
1537912239598802,-128,127,-78,-51,-124,70,-36,-128
1537912239613762,-123,102,83,66,-111,-113,4,-128
1537912239613762,1,-128,127,116,88,-93,-128,-127
1537912239621741,-111,100,-66,66,104,127,36,-91
1537912239621741,-66,74,-127,-88,38,-39,127,10
1537912239628723,61,110,37,-89,-26,16,33,-15
1537912239628723,100,127,-98,-126,-128,24,25,-25
1537912239636701,127,-68,72,114,40,17,6,-20
1537912239636701,37,-47,-77,124,64,103,122,-49
1537912239651660,-26,85,41,15,21,-59,111,-33
1537912239651660,-97,-128,-65,-10,-36,-90,-10,-29
1537912239658641,-112,42,127,-111,-113,-102,13,-21
1537912239658641,-94,112,127,-110,-84,-45,83,-28
1537912239675596,-128,-28,-128,-95,-56,104,29,-17
1537912239675596,64,82,106,113,-116,-128,-3,-28
1537912239681580,115,-44,74,110,47,127,-128,1
1537912239681580,102,-82,95,-63,107,127,-128,-11
1537912239688561,4,-98,-85,98,127,-89,-16,-11
1537912239688561,-86,-79,-99,30,42,19,27,-6
1537912239696540,-57,-128,-128,-9,-75,-37,-7,7
1537912239696540,-44,-101,-64,-39,-65,-96,51,-7
1537912239712498,-37,-128,-128,-128,-39,-57,-8,-10
1537912239712498,-70,-107,-128,-128,-30,62,47,-3
1537912239718482,-39,-50,-68,-99,-75,-24,-8,5
1537912239718482,-35,-64,-98,-50,-51,-52,10,-12
1537912239733441,-17,-63,-93,-96,-48,72,-36,-4
1537912239733441,-37,-19,-9,-48,-15,14,-11,-1
1537912239741420,-39,5,-58,-76,-31,-69,2,2
1537912239741420,-12,-2,-32,-1,-44,55,3,-4
1537912239750396,8,-18,-26,9,-8,21,-48,-1
1537912239750396,-24,22,13,1,17,32,30,-2
1537912239756380,-18,15,-34,-25,-30,-66,-11,0
1537912239756380,1,-8,-25,46,-9,9,-4,-3
1537912239771340,13,-1,-6,38,13,-21,-9,-2
1537912239771340,-18,8,-40,-9,30,19,19,-5
1537912239778321,-10,7,-59,-10,-18,32,-17,1
1537912239778321,5,6,-7,53,-10,43,16,-2
1537912239794279,1,6,-20,7,9,64,0,-2
1537912239794279,-11,8,-13,-17,-1,0,14,-1
1537912239802259,-2,-7,-20,0,-10,24,-13,1
1537912239802259,2,-6,-70,-51,24,-69,21,-2
1537912239809240,2,-96,-48,60,72,-71,5,-2
