timestamp,emg1,emg2,emg3,emg4,emg5,emg6,emg7,emg8
1537920431284232,2,0,-2,-2,0,-5,-6,6
1537920431284232,-2,3,-1,-1,-3,-5,-8,-11
1537920431285230,-4,-5,-1,-1,-1,-5,-12,-1
1537920431285230,-3,6,-4,-4,-5,-7,-32,-8
1537920431288222,1,-14,0,1,5,7,40,23
1537920431288222,-1,2,0,2,5,27,22,-10
1537920431289219,1,0,-1,2,1,-11,-9,9
1537920431289219,-3,0,1,1,-3,1,-5,-5
1537920431296201,-1,1,-1,-3,-4,-12,-19,-9
1537920431296201,1,-2,-1,-4,-7,-4,2,4
1537920431305176,1,0,0,0,1,-2,-5,-3
1537920431305176,-5,-4,0,-2,0,2,12,-7
1537920431311161,0,0,-2,-4,-8,-26,-14,2
1537920431311161,1,-4,-1,-1,-1,52,-4,1
1537920431325123,1,5,3,4,7,-11,38,0
1537920431325123,3,-3,-2,1,4,16,11,2
1537920431336094,-1,2,-1,2,1,5,35,-9
1537920431336094,-3,0,0,0,-1,-47,-46,-4
1537920431356041,-5,-3,-3,-4,-5,-12,-18,-6
1537920431356041,3,-1,0,-1,1,14,16,9
1537920431358035,-6,0,-2,-1,-1,8,-13,-5
1537920431358035,-3,-3,-1,-1,-1,-12,-1,3
1537920431402916,1,1,0,-1,-1,-9,-12,-2
1537920431402916,1,-1,-1,-1,-3,-26,-4,-3
1537920431403913,-2,-3,0,0,4,50,-9,-1
1537920431403913,-3,-1,-2,-1,0,-2,-3,-1
1537920431404910,-5,-4,-1,-1,-2,-19,8,-4
1537920431404910,3,-2,-3,-2,-4,11,-50,4
1537920431406905,0,0,0,-1,0,-9,77,1
1537920431406905,3,0,-1,1,1,-8,-9,3
1537920431415881,-6,-1,-1,0,1,-2,-29,-13
1537920431415881,1,0,-1,-1,0,4,54,11
1537920431421865,1,0,-2,-4,-6,-31,-23,-1
1537920431421865,3,-2,0,-1,-3,-11,-17,-5
1537920431430841,1,1,-1,-2,1,40,7,2
1537920431430841,-2,0,2,1,1,-10,-17,-9
1537920431444803,-3,1,-1,1,2,-14,-11,-7
1537920431444803,-4,-2,0,-4,-6,22,18,9
1537920431453779,2,-2,-1,-1,-1,-20,-22,2
1537920431453779,-2,0,-3,-2,0,10,9,-4
1537920431475721,-1,-4,-2,-1,-2,10,-51,6
1537920431475721,1,-1,0,1,0,-31,5,1
1537920431477716,-1,0,-1,0,-2,-11,2,5
1537920431477716,0,0,1,1,1,11,6,4
1537920431490681,-1,0,0,-1,1,-9,-17,-6
1537920431490681,2,0,0,0,-1,2,-18,-1
1537920431497662,0,-1,-2,0,1,14,24,6
1537920431497662,-3,-1,1,-2,-4,-15,-7,-5
1537920431513619,2,0,0,-1,-2,-4,-14,-2
1537920431513619,-3,-1,-2,-2,2,11,-30,1
1537920431514617,0,1,-2,0,2,4,77,6
1537920431514617,-1,-3,-2,-2,-5,-4,-18,1
1537920431536558,1,4,3,5,2,6,-9,-12
1537920431536558,-4,0,0,-1,0,6,-1,-7
1537920431537555,0,-1,-2,0,-2,4,0,-2
1537920431537555,-3,-1,-2,-2,1,-6,7,1
1537920431550521,-2,-1,0,-1,0,4,7,5
1537920431550521,-3,1,-1,-1,-2,6,0,-6
1537920431557502,-1,1,0,-1,1,-17,-22,-1
1537920431557502,2,0,0,0,-2,34,-1,2
1537920431581438,2,-2,-2,-3,-7,-26,-1,0
1537920431581438,-5,-2,0,-2,-2,3,18,1
1537920431582436,3,2,-1,2,3,13,-11,0
1537920431582436,-6,-3,0,1,3,-2,5,-2
1537920431596398,-4,0,-2,0,0,-4,0,-6
1537920431596398,-1,-2,-2,-1,0,3,13,0
1537920431597395,0,-2,-1,-3,-4,-15,-31,-4
1537920431597395,-2,0,-2,0,1,-6,12,0
1537920431610361,-1,1,0,-1,-1,8,-8,-4
1537920431610361,8,-1,-1,-2,-9,-31,30,10
1537920431617342,-6,-4,-1,1,3,37,-28,-9
1537920431617342,1,2,1,0,2,-7,8,-4
1537920431633299,-2,-5,-1,-1,-3,2,7,4
1537920431633299,1,0,0,0,4,-12,21,4
1537920431635295,5,-1,-2,-2,-5,10,-16,-1
1537920431635295,2,0,0,-2,-3,-8,2,4
1537920431656240,0,1,1,-1,2,20,15,6
1537920431656240,-2,-3,-2,-2,-1,-27,-38,-7
1537920431657236,0,-1,-1,-1,-1,24,45,9
1537920431657236,-1,-1,0,1,1,-8,-27,0
1537920431670201,2,0,-2,-2,-2,-9,16,-1
1537920431670201,6,-1,-1,-2,-1,2,-17,5
1537920431677182,-2,-1,-1,-3,-4,-8,-35,-4
1537920431677182,-1,0,0,1,1,-1,15,-11
1537920431693140,4,0,-1,-1,-4,-26,-4,13
1537920431693140,-7,0,-1,-1,3,24,17,-7
1537920431695134,-5,0,-1,0,1,16,-29,-13
1537920431695134,1,1,-1,-2,-3,-10,1,-2
1537920431716078,-5,-2,0,-1,-1,-2,4,-4
1537920431716078,1,-1,-2,-2,-8,-36,-14,3
1537920431717076,-2,-1,1,3,9,45,41,0
1537920431717076,2,-2,-1,0,-1,-2,-21,-4
1537920431730041,-10,-2,-1,-1,3,25,28,-13
1537920431730041,4,2,1,1,-2,-36,-3,2
1537920431737022,-4,-2,0,-1,-2,-28,17,-5
1537920431737022,-1,-1,-1,-2,0,5,-12,3
1537920431753977,-3,-1,-1,-1,1,-1,-6,-6
1537920431753977,0,-2,0,-2,-4,-2,-16,4
1537920431754974,-2,-3,-4,-1,6,48,74,-2
1537920431754974,-2,-1,0,2,-3,-30,-35,-2
1537920431775918,3,1,-2,-2,-3,7,5,14
1537920431775918,-8,0,1,1,5,21,0,-15
1537920431777913,3,-3,-2,-3,-9,-53,-39,4
1537920431777913,0,-2,-2,-2,0,9,29,0
1537920431789882,-1,-2,0,2,4,18,-14,-2
1537920431789882,-2,0,0,1,1,10,5,-5
1537920431798860,-1,0,-2,-2,-4,-27,-5,11
1537920431798860,-4,0,-1,-1,-1,2,9,-5
1537920431813819,4,1,0,0,-3,-21,-42,-4
1537920431813819,-5,-1,0,1,-3,17,-10,-3
1537920431814815,2,1,2,1,1,-11,62,3
1537920431814815,0,-1,-2,-2,-4,-4,-22,1
1537920431835760,1,-1,0,0,3,9,22,6
1537920431835760,1,-1,1,-3,-5,4,-19,-7
1537920431837755,-1,1,0,0,-3,-24,-29,-3
1537920431837755,-4,0,-1,-2,-1,-2,-2,-5
1537920431849722,3,-1,-2,-3,-1,1,1,13
1537920431849722,-2,-1,-2,-1,3,-1,-4,-4
1537920431858699,1,0,0,-2,-4,-19,9,6
1537920431858699,-1,0,1,2,1,3,12,5
1537920431873659,0,-2,-1,-2,-5,4,-20,-8
1537920431873659,0,0,-1,0,4,31,51,7
1537920431874656,0,-3,-1,-1,-2,-9,-37,-12
1537920431874656,-1,-1,0,-1,1,-3,4,4
1537920431896597,-3,-2,-1,-1,-3,-10,7,5
1537920431896597,4,-1,-3,0,0,4,-2,-2
1537920431897595,-1,-1,0,-2,1,-6,-14,-3
1537920431897595,-2,-1,-2,-1,-1,13,-25,-4
1537920431909561,-3,-1,0,-1,-2,-44,2,-3
1537920431909561,-1,0,0,-1,0,28,57,4
1537920431918537,-1,-2,-1,-1,-2,-1,-24,0
1537920431918537,4,1,0,0,1,1,6,4
1537920431933497,-8,1,0,-1,-2,-13,-16,-15
1537920431933497,3,-2,-3,-3,0,-2,-17,-1
1537920431935492,-2,0,2,-1,-3,-12,-1,-1
1537920431935492,0,-2,-2,-3,-1,14,-2,-1
1537920431956436,-2,0,1,1,3,-9,18,-6
1537920431956436,-5,-1,-1,-1,1,0,-18,-7
1537920431957434,1,0,0,-1,2,23,29,8
1537920431957434,-3,1,-1,0,2,4,3,-5
1537920431969402,4,1,0,2,-1,5,-4,8
1537920431969402,-4,-1,0,-1,-4,-12,-10,-7
1537920431978378,0,-2,-4,0,-1,-39,-6,6
1537920431978378,1,-2,-2,-1,-4,30,-32,-3
1537920431993338,1,2,0,-2,-1,2,25,-2
1537920431993338,-3,-2,0,2,3,6,47,7
1537920431995333,-3,-2,-1,0,-1,-7,-11,-11
1537920431995333,-3,0,-1,-3,-3,-5,20,-4
1537920432016277,-1,0,-1,-4,-4,10,-20,-8
1537920432016277,4,0,-2,-2,-2,-7,-36,5
1537920432017275,-3,2,0,-1,0,1,-11,0
1537920432017275,-1,-2,-1,1,2,7,17,0
1537920432030239,0,0,-2,0,-1,-2,15,7
1537920432030239,-1,1,0,-1,-1,-2,-8,-3
1537920432038219,-4,-2,-1,0,2,-3,2,-5
1537920432038219,1,0,0,-1,-2,-9,-4,-5
1537920432053179,0,-2,-1,-2,-3,-17,-4,-2
1537920432053179,-2,-3,-1,0,1,23,-4,-3
1537920432055174,3,1,-1,-2,-3,5,-8,0
1537920432055174,-2,1,1,1,1,-33,2,-5
1537920432076116,-1,0,-2,0,1,44,-8,2
1537920432076116,-2,-3,-1,-1,-3,-27,-6,-8
1537920432077115,-2,-4,-2,-4,-3,7,-27,-6
1537920432077115,6,1,-1,0,2,-20,42,16
1537920432090081,-4,0,0,0,2,4,25,-12
1537920432090081,2,-1,0,-3,-5,-13,-26,7
1537920432099056,-2,-2,-1,0,0,29,21,-1
1537920432099056,-1,-3,-2,-3,-4,-2,-15,1
1537920432114015,-3,-1,-1,-1,-1,-7,-25,-2
1537920432114015,-1,1,1,-1,1,5,-16,-4
1537920432115013,-4,-1,0,1,-1,-14,26,2
1537920432115013,3,0,-2,-1,0,5,8,2
1537920432135956,0,-2,0,1,1,0,-9,-3
1537920432135956,1,-1,-2,-1,-2,0,8,4
1537920432137951,0,0,-2,-1,-3,-12,-15,-8
1537920432137951,-4,-3,-2,-2,-2,-6,-19,-4
1537920432158895,1,-2,0,-2,-1,-8,19,3
1537920432158895,-3,3,0,1,0,12,1,-2
1537920432159892,-4,0,1,1,0,15,0,-6
1537920432159892,-2,-2,1,0,1,-8,0,-2
1537920432173854,-1,-1,-3,-3,-6,-14,-30,-6
1537920432173854,0,-1,-1,0,0,-12,-14,4
1537920432174852,2,2,0,0,2,7,16,6
1537920432174852,1,2,1,1,-5,-9,-8,4
1537920432195796,-1,-1,-1,0,-1,8,-10,2
1537920432195796,-1,-1,-1,0,-2,-31,5,-6
1537920432197792,2,-1,-1,-4,5,34,-6,0
1537920432197792,-4,-1,-2,-3,-1,3,-9,0
1537920432218736,0,1,1,0,-1,-5,-24,2
1537920432218736,0,2,0,0,2,2,57,-13
1537920432219734,1,1,0,0,-4,-11,-11,3
1537920432219734,-1,-3,-2,-2,-2,-11,15,3
1537920432233696,1,-1,-2,0,-2,11,-1,-4
1537920432233696,-5,-2,-3,-2,0,9,-1,1
1537920432234694,2,-2,-1,-1,-3,-9,2,0
1537920432234694,-1,0,0,-2,-5,5,11,-1
1537920432255637,0,0,-1,1,2,0,-18,-2
1537920432255637,0,0,0,-1,-1,1,30,-1
1537920432257633,-1,0,-1,1,-1,-2,16,-1
1537920432257633,2,-3,0,-1,3,14,-30,-4
1537920432278576,3,-1,-1,0,2,-8,8,29
1537920432278576,1,-1,0,-3,-5,-21,-48,-11
1537920432280571,0,-2,-1,-4,-6,13,19,-8
1537920432280571,-2,-1,0,1,0,-3,6,-7
1537920432293536,-1,0,-1,1,2,17,-1,-8
1537920432293536,0,-3,-2,1,1,-34,-27,-4
1537920432295530,0,0,-2,1,6,17,7,3
1537920432295530,-10,-6,-4,-5,-13,-3,-61,-24
1537920432316473,7,2,1,-3,0,28,70,14
1537920432316473,2,2,2,5,1,1,-1,-7
1537920432317471,0,1,0,0,11,-14,-17,-44
1537920432317471,8,1,-2,3,12,8,10,74
1537920432338415,-9,-2,0,4,4,-6,-27,-33
1537920432338415,-1,-3,-4,-14,-24,-19,-8,-31
1537920432340410,6,2,1,4,1,-22,81,52
1537920432340410,-4,0,0,-5,-17,17,-5,-50
1537920432352378,0,-2,-2,-4,3,-18,-15,3
1537920432352378,13,2,0,3,17,49,83,45
1537920432361354,14,-2,-5,-7,-6,-26,-38,15
1537920432361354,-7,-2,0,1,9,-5,23,-8
1537920432374320,-6,-1,2,-1,-8,-7,1,-10
1537920432374320,-5,-2,0,0,1,2,-16,-20
1537920432384294,4,1,-3,-2,-6,4,-14,19
1537920432384294,-15,-3,0,3,2,7,27,-17
1537920432398256,9,-2,-5,-4,-4,-7,-36,10
1537920432398256,7,0,-1,-4,-2,18,-65,11
1537920432400252,11,4,7,1,-2,-32,37,50
1537920432400252,17,3,0,3,4,2,19,9
1537920432421195,-4,-6,1,-2,-2,-5,53,-24
1537920432421195,-4,0,-2,2,1,-5,-13,4
1537920432422194,-9,-1,-3,-4,-5,8,-77,-19
1537920432422194,-3,-1,3,0,2,2,14,-6
1537920432435157,-6,-1,-6,0,0,3,8,13
1537920432435157,5,-5,-11,-7,-5,-19,-57,6
1537920432444133,-2,-1,1,-3,-10,0,20,-15
1537920432444133,-7,-3,-1,3,1,-26,-16,-15
1537920432466075,-1,0,1,-1,1,42,12,-3
1537920432466075,-5,-7,-5,-5,1,26,-3,-12
1537920432468069,-5,1,6,8,5,-18,-47,22
1537920432468069,8,0,-5,-3,1,-29,80,5
1537920432481035,7,-3,-1,-3,-5,-19,-70,31
1537920432481035,-1,-1,2,2,1,-5,63,11
1537920432483029,-3,-2,-4,-3,-3,48,37,-10
1537920432483029,4,0,-1,-5,-12,-16,-47,4
1537920432503973,3,3,0,2,6,41,-2,-10
1537920432503973,-9,0,3,5,9,-12,-2,4
1537920432504970,-2,-6,-5,-3,-8,20,-28,-12
1537920432504970,-21,-1,1,5,4,-7,-9,-37
1537920432517935,2,-2,-4,-4,1,-28,31,16
1537920432517935,-18,-2,1,-1,-9,5,-1,-11
1537920432524916,8,3,2,4,10,-17,-25,-9
1537920432524916,6,-1,0,-2,-6,38,22,18
1537920432548852,-7,1,3,-1,-11,-22,2,-22
1537920432548852,-6,1,2,2,-5,-60,-26,-9
1537920432549850,-8,-4,-4,-5,4,79,32,-11
1537920432549850,5,-2,-5,-6,0,-14,-23,13
1537920432554836,1,-2,-1,1,6,13,10,10
1537920432554836,6,3,2,4,0,-33,-11,-4
1537920432563813,-12,-5,-2,-1,-2,-35,-3,-22
1537920432563813,13,4,1,3,6,33,-1,18
1537920432585754,-5,0,1,0,-7,-52,-11,-12
1537920432585754,23,6,1,3,4,16,-32,19
1537920432587748,-9,-2,-2,-4,-16,-21,7,-23
1537920432587748,12,1,1,0,4,-16,-28,24
1537920432600714,-5,-2,-3,-2,2,34,22,17
1537920432600714,1,-4,-2,0,7,12,11,8
1537920432602708,-6,-11,-2,0,4,-8,9,6
1537920432602708,-11,-11,-7,-8,-13,-22,-55,23
1537920432614676,2,-5,4,0,-2,-7,-1,-18
1537920432614676,13,-21,-1,-1,3,28,25,-2
1537920432631631,-23,9,7,4,-1,-8,-18,-21
1537920432631631,-18,-8,-7,1,-4,8,10,-20
1537920432637615,39,13,-3,-3,1,2,2,-4
1537920432637615,-9,-4,11,-2,-5,0,23,-36
1537920432644596,8,-9,-8,5,4,-37,-45,-5
1537920432644596,7,5,1,-7,1,32,-15,-6
1537920432661551,-18,-8,-4,-3,-5,17,32,-9
1537920432661551,0,6,-3,-5,-6,6,-19,12
1537920432662548,-20,2,0,-2,-7,-36,-27,-58
1537920432662548,7,3,6,4,8,27,14,74
1537920432684489,11,5,-1,0,3,-25,-31,21
1537920432684489,-5,0,-1,2,-1,26,-27,-17
1537920432689476,4,4,1,-2,0,15,-5,19
1537920432689476,-26,-8,-5,-2,-1,-5,32,-10
1537920432697455,15,2,0,-2,-2,4,-4,-14
1537920432697455,4,6,-4,-3,-1,-32,-4,21
1537920432704436,-2,-4,-1,1,1,-13,21,10
1537920432704436,-1,17,1,-2,-3,27,24,-42
1537920432721391,-12,0,2,6,5,-15,67,34
1537920432721391,-18,4,-5,-4,-7,6,20,10
1537920432722388,18,-10,0,3,7,24,23,12
1537920432722388,4,0,1,-1,-3,-39,-9,-13
1537920432743332,-20,-29,-8,-2,-7,-13,-26,-41
1537920432743332,24,53,9,0,2,12,4,-31
1537920432745327,-13,-25,-6,-6,-5,5,25,43
1537920432745327,14,-9,3,3,3,-14,-25,33
1537920432758292,-7,6,-1,-2,0,3,19,-2
1537920432758292,-13,-32,-5,-3,-6,4,-18,-18
1537920432764276,12,19,-3,-2,-2,3,-61,-11
1537920432764276,8,18,-3,-1,0,13,46,-15
1537920432788212,-10,-15,-3,-4,-4,-37,-77,-53
1537920432788212,-16,-5,-1,2,5,31,65,25
1537920432790207,9,3,-4,-4,-2,-2,-18,-17
1537920432790207,-3,-10,2,-1,-3,-22,17,11
1537920432803172,-3,24,13,4,11,23,-21,-20
1537920432803172,8,-12,-10,-4,-11,-24,-5,17
1537920432805167,1,-3,-5,-6,-8,-12,1,8
1537920432805167,-5,-10,-2,-4,-4,-4,-51,-44
1537920432826111,-6,-6,1,-4,-12,16,-27,24
1537920432826111,-14,-9,-3,6,8,2,66,-4
1537920432827108,3,21,8,0,5,21,20,11
1537920432827108,14,6,-19,-6,0,-12,-27,20
1537920432841071,-7,9,18,0,-1,9,43,28
1537920432841071,11,3,2,3,2,2,-32,0
1537920432842068,-14,-11,-19,-2,-4,-19,7,-25
1537920432842068,-12,-7,10,1,3,9,10,-5
1537920432864009,-12,-3,-12,-3,3,16,-13,0
1537920432864009,2,-5,0,-3,1,3,-9,-22
1537920432865007,33,9,3,1,-1,8,30,96
1537920432865007,-24,0,3,4,2,-4,-42,-24
1537920432876975,6,-16,-7,-2,-9,-31,67,24
1537920432876975,7,19,9,4,3,21,-14,-27
1537920432885951,-22,-9,0,2,15,27,-8,-32
1537920432885951,8,1,-2,-5,-21,-30,-35,29
1537920432908889,13,11,2,0,-2,-23,38,0
1537920432908889,-16,-7,-8,-5,1,23,12,-41
1537920432910885,6,4,4,2,-3,-31,-62,31
1537920432910885,1,-1,5,6,10,20,45,18
1537920432923850,-5,-2,-7,2,13,41,5,-12
1537920432923850,-8,-7,-5,-10,-13,-23,-18,0
1537920432924847,4,-2,4,1,-8,-19,-68,-12
1537920432924847,-13,-17,-1,2,-8,-50,62,-37
1537920432937812,23,3,-1,1,5,9,-84,1
1537920432937812,-11,-9,-8,-3,-1,62,60,21
1537920432945791,-4,-2,9,0,1,-33,28,-8
1537920432945791,6,-1,-13,-1,-2,10,-24,1
1537920432960751,-1,20,10,-1,-9,-25,-25,-18
1537920432960751,3,-15,-10,-4,0,-21,-30,16
1537920432962746,-8,-10,-6,-7,-10,5,1,2
1537920432962746,-13,19,6,-2,1,11,44,1
1537920432983690,-9,-18,-10,-2,3,-19,-32,-5
1537920432983690,13,4,0,4,8,-7,-16,35
1537920432984687,0,3,2,3,12,48,4,-22
1537920432984687,16,-3,-4,0,-2,-17,37,6
1537920432997652,-23,-3,-3,-7,-6,19,-7,-19
1537920432997652,1,9,6,2,-4,-24,12,21
1537920433004633,8,2,0,2,2,9,63,0
1537920433004633,3,1,4,-2,0,-26,-36,-6
1537920433020592,-2,-5,-2,1,-6,-47,10,-1
1537920433020592,-8,-12,-1,-2,3,59,-8,-16
1537920433022586,-2,0,5,-3,0,-24,1,11
1537920433022586,-18,-25,-4,-1,10,81,-25,-7
1537920433043531,10,-4,-7,2,-2,5,25,6
1537920433043531,-6,1,-2,2,-1,-52,-34,19
1537920433045524,15,6,4,0,-3,15,40,-8
1537920433045524,-4,-14,-16,-5,-1,-1,-17,-25
1537920433066469,-9,12,10,2,-3,5,8,4
1537920433066469,6,14,-2,-4,-4,-14,-10,-16
1537920433067466,-11,-2,-2,-1,-1,15,50,-1
1537920433067466,-2,1,4,2,0,-57,-45,-25
1537920433081429,4,-6,-5,2,9,67,68,27
1537920433081429,8,7,4,0,-9,-19,-23,-1
1537920433082427,2,-1,-2,-1,-1,-1,2,-14
1537920433082427,-8,-9,-2,1,4,40,15,8
1537920433103370,6,-1,-3,-3,-4,-54,-16,-13
1537920433103370,1,8,7,6,7,4,13,-8
1537920433105364,-8,-10,-6,0,-3,-2,-25,-13
1537920433105364,5,12,5,0,-3,17,0,-8
1537920433126309,7,-9,-3,-4,-1,11,-32,1
1537920433126309,-10,1,3,-2,-6,-24,-4,2
1537920433127306,8,4,-2,0,1,-17,-16,-4
1537920433127306,-3,-2,-2,0,2,24,8,-6
1537920433141268,-10,0,4,-4,-7,-10,-13,19
1537920433141268,1,-2,-16,0,7,17,16,-2
1537920433142266,2,5,9,1,-4,-3,-10,-32
1537920433142266,12,8,7,3,0,-41,19,14
1537920433163210,-18,-19,-1,-3,-3,25,28,-4
1537920433163210,-3,4,-1,0,-6,-42,-10,-11
1537920433165204,-6,-1,-5,-2,-2,22,20,3
1537920433165204,-5,-3,1,0,1,20,8,50
1537920433186148,-15,-6,-6,-4,-9,-26,-39,-13
1537920433186148,7,15,3,0,4,31,22,-30
1537920433187146,-2,-5,0,2,2,-18,17,13
1537920433187146,-27,-9,0,0,4,23,-6,-24
1537920433201108,6,0,-5,-4,4,-29,13,4
1537920433201108,-24,-12,1,-1,-1,37,-4,7
1537920433202106,4,6,-6,-3,-5,6,7,-17
1537920433202106,8,5,4,3,7,-11,-34,19
1537920433224047,-10,2,0,0,-3,-5,-34,-12
1537920433224047,0,-12,-8,-3,-2,-21,17,-9
1537920433225045,-19,-18,3,-2,1,22,-11,-34
1537920433225045,28,11,-4,-1,-7,-11,22,64
1537920433245989,4,23,3,4,2,22,66,15
1537920433245989,6,-9,-8,-4,-4,-22,-45,11
1537920433247983,4,16,1,2,1,-6,16,-4
1537920433247983,8,8,2,-1,2,-3,-8,-29
1537920433259951,-2,-16,-6,2,0,-11,-44,-3
1537920433259951,-20,-6,4,-4,-7,-44,-22,-6
1537920433266933,-8,0,-9,-3,4,75,8,-2
1537920433266933,-2,-12,-6,-3,-7,-22,8,-38
1537920433283887,8,7,0,1,3,3,-8,12
1537920433283887,-4,-6,2,0,-1,-22,-26,-27
1537920433284885,-2,-4,1,0,-3,-16,16,6
1537920433284885,5,5,1,-3,0,13,10,-3
1537920433305829,-6,-4,1,-3,0,11,9,-9
1537920433305829,0,-2,6,-1,-3,20,9,14
1537920433307824,3,3,0,3,3,-35,-9,17
1537920433307824,3,-3,-1,-1,-1,5,15,2
1537920433320789,-17,-3,-4,-1,0,0,25,-15
1537920433320789,0,-14,2,3,5,15,-10,5
1537920433322783,4,-10,-1,1,-2,-24,-9,37
1537920433322783,7,17,0,-2,-3,-4,-27,-3
1537920433343728,11,-9,3,0,-3,-1,3,-14
1537920433343728,-3,7,-8,2,-1,-16,10,22
1537920433344725,-15,-6,9,-1,-3,-16,-4,22
1537920433344725,3,-3,-3,-3,-3,16,-51,-17
1537920433357691,7,3,-1,1,5,14,15,4
1537920433357691,10,7,4,-3,0,-6,21,16
1537920433366667,-7,-7,-4,-2,-1,-9,-22,-21
1537920433366667,0,12,-3,-4,-6,6,-13,1
1537920433381628,2,1,1,1,1,-3,-19,2
1537920433381628,0,8,1,5,8,2,3,13
1537920433382625,0,-5,-9,-6,-6,-8,-9,-16
1537920433382625,-6,-5,10,4,8,-1,-14,13
1537920433403567,18,4,-4,2,0,16,8,22
1537920433403567,0,2,-4,-5,-12,7,31,-10
1537920433404565,1,0,-8,-2,-1,5,-62,6
1537920433404565,-3,-3,8,-1,1,11,34,-38
1537920433417530,0,4,-3,0,-2,-17,-22,-18
1537920433417530,-11,-3,-1,0,4,10,-35,-15
1537920433426506,8,4,-6,-3,-5,-21,-26,3
1537920433426506,1,-2,-6,-2,-5,-29,23,-9
1537920433441466,-1,0,3,-1,5,38,-29,7
1537920433441466,1,-6,5,-2,-3,-32,-22,-4
1537920433442463,-8,-3,-12,0,4,29,81,-12
1537920433442463,-17,-7,6,2,0,0,21,3
1537920433463407,-2,-16,-4,-2,-1,-9,7,1
1537920433463407,12,5,-3,0,3,37,15,24
1537920433465402,1,11,4,1,2,-33,-29,-11
1537920433465402,-14,-8,-8,-1,1,-6,14,2
1537920433486346,-5,2,3,-2,-7,-7,-12,24
1537920433486346,-7,-4,1,-4,1,12,14,-47
1537920433487344,8,-10,-5,-5,-2,-6,-45,58
1537920433487344,4,-1,4,-2,-4,-1,-6,-1
1537920433500309,8,-1,1,1,2,-19,23,-16
1537920433500309,6,1,-4,-1,1,26,-12,16
1537920433507291,-4,8,4,-2,-4,-3,-9,-27
1537920433507291,-6,-12,-7,-3,-2,-18,-43,7
1537920433523249,0,9,3,2,3,9,40,3
1537920433523249,4,-12,-4,-2,-5,-20,-9,29
1537920433525243,-7,-13,-7,-3,-4,15,-4,-31
1537920433525243,17,37,11,4,3,-10,-41,9
1537920433537211,-3,2,-1,-2,-3,2,10,-18
1537920433537211,-1,-1,-7,0,-3,20,11,-3
1537920433546187,-5,-2,5,3,4,9,22,-6
1537920433546187,4,-8,-9,-5,-7,-17,-17,26
1537920433560149,0,0,-2,-1,2,-4,3,0
1537920433560149,-2,1,4,-1,2,-12,10,-26
1537920433561146,7,0,-3,-2,-3,-8,11,1
1537920433561146,3,-5,-2,-4,-1,55,34,0
1537920433583088,-6,-3,0,0,-2,-31,-5,27
1537920433583088,-7,-6,-2,2,-1,-4,-21,-16
1537920433584085,-2,2,9,-1,0,-3,4,1
1537920433584085,0,-1,-4,1,1,-31,-22,-15
1537920433605029,-7,-4,-8,-4,-3,19,21,-8
1537920433605029,-4,-12,4,2,-2,-4,7,8
1537920433606026,-1,0,-5,0,-1,0,1,-1
1537920433606026,6,-6,9,-1,-6,7,7,4
1537920433619989,-24,-5,-3,0,-1,-3,-22,-13
1537920433619989,44,16,-12,-6,-2,-6,5,17
1537920433620987,1,-11,-4,3,1,8,19,10
1537920433620987,6,-10,-3,-1,0,-4,8,-5
1537920433642929,-5,0,0,-1,0,10,42,10
1537920433642929,-7,-6,8,0,3,-5,4,2
1537920433643926,10,22,2,-1,-1,0,-9,-15
1537920433643926,-6,-6,-6,2,1,14,19,-1
1537920433665867,-1,4,4,0,-3,-25,-37,-7
1537920433665867,-5,1,1,-1,-1,-36,21,10
1537920433665867,3,-3,0,-1,4,59,19,6
1537920433665867,-13,-4,0,1,0,-12,-13,-30
1537920433681824,15,7,-2,-1,3,11,0,4
1537920433681824,5,-2,-1,-1,-3,-9,-22,7
1537920433682822,-4,-8,-9,-7,-13,-25,-17,-1
1537920433682822,-2,-8,-1,-3,-5,-25,12,1
1537920433702767,6,-4,1,4,11,85,13,11
1537920433702767,-21,3,-3,-1,3,16,3,-5
1537920433703765,-4,-8,1,1,-3,-33,-3,-7
1537920433703765,8,11,-3,-1,3,7,-23,-38
1537920433725706,-4,-2,-4,-7,-8,-40,-45,-11
1537920433725706,-10,-4,-3,-1,1,9,-11,-20
1537920433725706,-2,5,3,-1,1,13,-3,22
1537920433725706,-5,-5,-5,-2,-2,4,11,-21
1537920433740666,6,0,-3,-3,-5,-36,-72,7
1537920433740666,-1,5,3,0,-2,-6,22,19
1537920433741663,15,4,2,0,-2,-2,-36,-24
1537920433741663,4,3,-2,1,2,6,5,14
1537920433762608,0,0,-3,1,-1,7,1,1
1537920433762608,-6,-4,-1,-2,-4,3,0,-49
1537920433763605,3,-3,-5,-9,-10,-17,53,103
1537920433763605,6,0,0,0,4,-1,31,-7
1537920433785547,4,-1,1,1,1,15,5,-30
1537920433785547,-11,-7,-2,-4,-9,-18,-24,-30
1537920433786544,-5,5,4,5,6,-15,4,58
1537920433786544,2,2,2,1,2,22,19,14
1537920433800506,3,8,-3,-4,-8,-34,17,7
1537920433800506,3,-1,1,2,3,15,-23,22
1537920433801503,-8,1,2,3,7,10,11,-62
1537920433801503,-4,1,-2,-1,-4,-1,2,38
1537920433822447,-3,-6,-3,-3,-1,-15,-16,-7
1537920433822447,3,0,0,1,3,47,13,12
1537920433823445,-7,-5,0,-4,-4,-8,-61,-25
1537920433823445,6,4,1,2,0,-8,11,-6
1537920433845386,-10,-6,-2,-2,-9,-22,28,-24
1537920433845386,9,4,0,-1,-1,-5,1,26
1537920433846383,-18,-5,-3,-2,1,35,48,-15
1537920433846383,-7,-6,-1,1,5,2,-43,57
1537920433860346,8,3,0,-2,-4,-25,-9,22
1537920433860346,-2,-1,-4,0,-2,-16,37,-3
1537920433861344,6,5,10,0,-4,-17,-29,4
1537920433861344,-22,-2,-8,-4,-5,-5,-23,-31
1537920433883285,-2,-6,3,2,7,66,19,3
1537920433883285,6,-3,5,3,4,-47,10,15
1537920433883285,0,-15,-6,2,4,30,35,-28
1537920433883285,-3,3,0,-2,-6,-27,-17,10
1537920433905226,-10,-8,-4,-2,-2,-1,-28,-39
1537920433905226,13,4,-3,-2,2,9,8,20
1537920433906224,-3,-2,13,0,-4,-25,22,7
1537920433906224,-11,0,-1,-1,6,43,-34,-66
1537920433920186,-3,3,-1,2,6,0,5,9
1537920433920186,-11,-4,-2,-2,-1,-10,17,-10
1537920433921184,1,7,-4,-2,-3,33,-11,-9
1537920433921184,4,-3,-2,-5,-13,-91,24,11
1537920433943125,0,3,5,5,14,66,44,-8
1537920433943125,4,8,5,6,9,12,47,19
1537920433943125,-11,-5,-8,-3,-3,-12,-42,-48
1537920433943125,1,-5,-7,-8,-14,-60,8,28
1537920433973045,-10,-23,-5,-12,-16,-13,-107,-28
1537920433973045,7,44,-2,8,19,48,50,31
1537920433974042,-5,-12,-5,6,2,-38,-107,-45
1537920433974042,0,7,4,8,14,87,119,5
1537920433980026,26,0,-3,-1,-9,-61,6,1
1537920433980026,-16,-18,1,-8,-13,-9,-37,0
1537920433981024,-4,4,-3,-9,-9,-22,-79,-50
1537920433981024,-6,-4,0,2,6,7,-42,7
1537920434002965,-4,5,1,-1,-6,-15,-77,-16
1537920434002965,16,3,9,12,17,47,75,-35
1537920434003962,8,8,1,4,3,-12,12,48
1537920434003962,-13,-12,-4,-10,-14,-21,-91,-35
1537920434024906,-11,-1,-2,1,8,27,94,7
1537920434024906,-3,-10,-7,-6,-5,-40,-117,-8
1537920434025903,-6,-8,-1,1,-11,16,44,1
1537920434025903,10,3,-3,-5,1,26,31,9
1537920434039866,-4,3,-2,-1,-5,-1,12,18
1537920434039866,-11,-7,-2,-5,-11,-27,-73,-31
1537920434040864,-1,3,5,7,25,25,74,26
1537920434040864,-1,-2,4,5,-2,9,-1,7
1537920434062805,-5,2,3,4,25,10,-56,-16
1537920434062805,4,-5,2,8,-7,15,79,33
1537920434063803,-1,-1,-8,-20,-34,-41,-27,-3
1537920434063803,3,3,-1,-6,-4,14,22,-20
1537920434085744,-1,-4,-4,-3,9,3,-32,17
1537920434085744,-4,-5,1,6,22,42,-28,-4
1537920434085744,1,-1,-3,-2,2,14,27,10
1537920434085744,3,1,5,9,3,-9,-48,1
1537920434100704,3,1,-3,-7,-31,-64,17,14
1537920434100704,-4,-6,-8,-15,-22,-8,-16,-7
1537920434100704,6,3,-3,2,7,4,6,1
1537920434100704,-3,-3,7,2,4,23,-5,-7
1537920434122645,-2,0,3,5,10,-4,33,4
1537920434122645,-1,-1,-1,-3,-7,-9,-3,-8
1537920434123642,-1,-1,-2,-3,-3,-2,-33,4
1537920434123642,0,-3,-5,2,5,-8,22,2
1537920434145584,-1,-1,-2,0,1,5,-27,2
1537920434145584,-2,-2,-2,-5,-6,7,20,-1
1537920434145584,4,0,4,4,10,1,16,10
1537920434145584,0,-1,-4,-1,2,-9,-42,-1
1537920434168522,-11,-1,-1,-1,-7,0,-10,-79
1537920434168522,7,1,-2,-5,-5,-16,-32,32
1537920434169520,-1,2,-1,2,4,-2,-19,-11
1537920434169520,-2,2,-4,-5,-5,12,31,8
1537920434182485,-4,-10,-1,1,-1,-4,1,10
1537920434182485,-3,-3,-1,-2,1,4,-8,-17
1537920434183482,0,1,1,-1,-1,-13,-4,0
1537920434183482,1,-2,-4,-4,-5,8,-10,-1
1537920434205424,2,5,8,0,1,6,5,19
1537920434205424,-1,-4,7,3,3,-2,32,-7
1537920434212405,-1,-4,-11,-7,-9,-1,9,15
1537920434212405,-2,2,4,-1,-6,2,-5,-14
1537920434219386,4,4,1,2,1,5,29,21
1537920434219386,-2,-4,-4,-1,-1,-5,-7,-7
1537920434227365,-1,3,0,0,5,-7,-31,-18
1537920434227365,-2,-7,-3,-1,-6,9,10,-3
1537920434252299,3,1,4,0,-1,-6,25,6
1537920434252299,3,3,-1,2,1,-8,-34,13
1537920434253296,-6,-2,1,1,3,8,52,-1
1537920434253296,5,2,-10,-1,2,-7,-6,-11
1537920434265264,4,1,0,1,0,3,-11,17
1537920434265264,-7,-3,-1,-2,-3,3,-13,-15
1537920434266261,0,1,0,2,7,8,7,5
1537920434266261,-1,-1,1,-1,5,4,-7,3
1537920434288202,-1,0,-5,-5,-6,-11,9,1
1537920434288202,-2,-1,-2,-7,-8,-7,-5,-7
1537920434289200,2,-2,0,2,-5,9,1,4
1537920434289200,1,1,10,0,-4,-11,-19,0
1537920434303162,2,0,-4,6,12,15,28,11
1537920434303162,-3,-2,-2,-5,-5,-13,-3,-3
1537920434303162,1,1,6,2,1,11,17,0
1537920434303162,0,3,2,3,8,5,8,5
1537920434333082,-4,-6,-2,-1,-4,-7,-36,4
1537920434333082,3,0,2,1,-2,-2,9,2
1537920434334080,4,1,4,1,-2,-9,-11,5
1537920434334080,-4,-2,-9,-6,-4,-5,30,-8
1537920434340064,16,2,0,-2,-5,11,-7,18
1537920434340064,-1,-1,-2,0,4,1,-12,-2
1537920434348042,-4,1,2,1,-3,-9,19,-9
1537920434348042,5,-4,0,-4,-7,-14,2,12
1537920434370981,-5,2,-1,1,5,23,-2,2
1537920434370981,-6,-4,-2,3,6,2,17,-2
1537920434371978,-11,-3,-2,-4,-6,8,-6,-2
1537920434371978,12,0,-4,-6,-7,-11,-2,0
1537920434384944,-12,-1,-3,-4,1,-2,14,-19
1537920434384944,-6,1,2,2,-7,-13,-52,-26
1537920434385941,2,-2,-6,1,6,7,29,75
1537920434385941,-11,-2,1,3,3,7,25,-16
1537920434399904,13,4,-2,-3,-5,-11,-37,-7
1537920434399904,-2,-3,1,-2,1,10,36,0
1537920434407882,0,-3,-7,-4,-6,-18,-25,-13
1537920434407882,-7,-2,-1,1,-1,-21,-13,0
1537920434422842,0,1,3,1,3,44,30,9
1537920434422842,-7,-3,-1,1,4,2,-16,-10
1537920434423840,4,0,2,2,-2,13,-18,-15
1537920434423840,1,-2,-7,-8,-5,3,8,7
1537920434445781,-5,-1,-5,-4,-8,-24,-20,-14
1537920434445781,1,-2,-5,-3,-8,-14,0,3
1537920434445781,1,-1,4,2,7,6,20,-7
1537920434445781,2,1,-2,0,-2,0,-22,6
1537920434459744,-5,-2,-4,-5,-9,-13,13,-3
1537920434459744,2,0,-6,-3,1,10,20,6
1537920434467722,1,-1,3,0,-1,-7,-8,-8
1537920434467722,-7,-2,-2,3,6,5,1,-7
1537920434482682,-6,-3,-1,-3,-1,1,-15,-9
1537920434482682,11,1,1,2,3,-14,44,25
1537920434483680,-3,-1,-2,-1,2,25,3,-9
1537920434483680,-12,-3,3,-2,-4,-19,8,-18
1537920434505621,13,0,-3,-1,-1,-8,-6,32
1537920434505621,8,-1,-1,-4,-3,-5,-26,2
1537920434505621,1,0,-2,1,5,-17,-11,-1
1537920434505621,-5,-1,-2,-3,-11,30,-17,-11
1537920434519584,-9,-1,-2,-4,-3,-45,3,2
1537920434519584,-2,-5,0,1,3,71,4,-3
1537920434527563,1,-1,0,-1,1,-16,-3,-2
1537920434527563,3,0,2,2,6,5,-6,8
1537920434542522,-4,0,2,-1,-2,-14,11,-6
1537920434542522,-1,2,-3,-1,-2,-19,-4,4
1537920434543521,-5,-6,-6,-6,-3,3,-35,-18
1537920434543521,3,0,3,0,1,-8,11,3
1537920434565461,1,-2,1,0,0,23,-13,15
1537920434565461,-4,2,0,-1,1,-4,59,-1
1537920434566459,0,1,0,-2,-4,6,12,0
1537920434566459,3,0,-3,-1,2,-15,-11,4
1537920434588400,-5,-2,-1,1,4,11,-1,-5
1537920434588400,13,1,-1,-2,0,-16,-36,-5
1537920434589397,-2,-3,-2,-5,-15,-16,1,7
1537920434589397,7,1,2,3,4,-7,-10,13
1537920434602363,-5,2,2,6,14,22,49,-27
1537920434602363,-15,-3,-1,-2,-5,17,-54,-24
1537920434603360,2,-3,-4,-3,-2,16,43,14
1537920434603360,9,0,0,-1,0,-9,-57,-18
1537920434625302,4,1,0,0,-3,-16,30,26
1537920434625302,-6,0,-1,1,5,0,-13,-21
1537920434626299,-6,-1,0,3,2,-15,-29,-58
1537920434626299,-5,0,1,-1,0,0,-6,59
1537920434648241,7,0,-2,-3,-4,0,-11,-11
1537920434648241,-5,-2,-2,-1,-4,-6,54,15
1537920434649240,3,0,-1,-2,-3,1,-58,-35
1537920434649240,-7,-3,0,0,5,8,20,-26
1537920434663202,5,0,-1,-1,1,-1,-11,16
1537920434663202,-10,-4,0,-1,-5,-6,-7,-2
1537920434663202,12,2,2,2,10,9,-23,30
1537920434663202,2,1,0,-1,-4,-1,68,5
1537920434685141,-3,-1,-3,-2,-5,4,-17,-44
1537920434685141,-1,-1,1,1,2,-9,6,-10
1537920434686139,-5,3,1,5,4,-1,-5,8
1537920434686139,-9,-4,-2,-3,-3,-2,-10,-21
1537920434708080,-6,-2,-2,-2,-7,-1,13,10
1537920434708080,12,-4,-3,-4,-5,-10,-62,-18
1537920434709077,4,-1,-2,-4,-5,-16,-17,-15
1537920434709077,-5,0,-1,1,4,22,95,54
1537920434723040,-2,-2,-2,-2,-3,-6,1,5
1537920434723040,-10,-1,-2,-1,-4,-5,-25,-26
1537920434723040,-2,-3,-1,-1,0,22,55,14
1537920434723040,10,1,-1,-2,-3,-10,-41,6
1537920434744981,-8,-2,-2,-3,-4,-17,-82,-35
1537920434744981,1,-1,2,0,1,1,38,43
1537920434745979,-2,-1,-4,-5,-6,-5,3,-6
1537920434745979,-9,-1,3,4,4,-2,30,26
1537920434768917,-1,2,1,0,1,27,16,2
1537920434768917,9,-5,-8,-8,-7,-31,-23,16
1537920434768917,3,3,-3,1,-3,9,-10,6
1537920434768917,8,-2,1,-3,-1,-5,-19,2
1537920434783877,14,5,4,2,1,18,109,30
1537920434783877,-2,4,1,-1,5,4,-5,-25
1537920434783877,-11,-2,0,1,-1,-4,2,-36
1537920434783877,20,-4,-9,-8,-12,-11,-53,10
1537920434805819,4,4,3,1,2,-2,41,31
1537920434805819,9,5,2,5,4,3,-57,13
1537920434806817,1,-1,4,2,8,5,-24,35
1537920434806817,-19,0,2,-3,-5,19,46,-71
1537920434828759,12,1,-5,3,5,-7,-47,13
1537920434828759,-9,3,5,5,3,10,97,2
1537920434829756,-4,-7,-2,-2,-6,-13,-14,17
1537920434829756,-10,-3,0,3,3,29,-23,-34
1537920434842721,3,-2,-3,-2,-3,7,0,0
1537920434842721,-27,-12,-3,-3,-4,-17,-25,-9
1537920434843720,21,5,-1,-2,-5,-47,27,0
1537920434843720,10,2,-4,-1,7,80,-22,-12
1537920434865660,-9,-4,-4,-3,-1,-14,-5,-43
1537920434865660,3,-1,0,3,12,10,12,41
1537920434866658,-10,-6,-3,-8,-21,-21,3,-33
1537920434866658,4,1,1,-3,-21,-76,-80,-17
1537920434888599,10,-1,2,4,17,92,-25,5
1537920434888599,17,5,-2,-3,-5,6,-15,-4
1537920434889597,-4,0,-1,2,9,8,32,3
1537920434889597,-7,-2,-2,-4,0,-13,4,-6
1537920434902562,-8,-6,-1,-4,-11,-27,-38,6
1537920434902562,-4,0,1,2,4,-8,5,-13
1537920434903560,-2,2,1,1,7,5,13,7
1537920434903560,-2,-2,-8,-1,-8,-54,3,-5
1537920434926498,-15,0,11,5,3,31,6,-3
1537920434926498,5,0,-2,-4,0,5,4,16
1537920434926498,-1,-2,1,0,-8,9,-28,12
1537920434926498,4,-1,-3,1,6,-15,26,6
1537920434948439,-13,-2,-6,-4,-3,10,-14,-47
1537920434948439,-11,-6,-3,-5,-2,-5,20,2
1537920434949437,7,2,0,1,5,-5,-70,15
1537920434949437,-2,2,3,2,5,0,7,-2
1537920434962402,5,-3,-4,-1,-7,-13,15,-12
1537920434962402,4,4,-1,-1,-4,-15,40,21
1537920434963399,-16,-6,-4,-1,5,16,-4,-9
1537920434963399,-5,-2,2,2,1,-9,-44,-22
1537920434986336,-1,-3,-5,-4,-8,-33,-7,21
1537920434986336,9,-5,-3,-3,-4,16,-20,11
1537920434986336,-7,0,-1,0,0,0,8,-16
1537920434986336,-8,-8,-1,-2,5,20,-8,-7
1537920435008278,11,0,2,1,-1,-28,25,28
1537920435008278,0,3,-2,3,-3,-11,-24,-15
1537920435009275,-3,5,5,-1,3,16,-9,-17
1537920435009275,-1,-3,1,0,1,-6,5,2
1537920435023238,-11,-4,-3,-3,-3,-18,-26,1
1537920435023238,-4,0,0,0,-2,-9,42,-10
1537920435023238,9,-4,-3,-3,1,44,12,29
1537920435023238,2,0,-1,2,6,15,19,6
1537920435046176,-4,-1,-3,-5,-8,-15,1,-2
1537920435046176,2,1,0,-1,-10,-18,-34,8
1537920435047174,-13,-5,-3,-1,1,0,28,-8
1537920435047174,7,1,1,-3,-3,-5,-11,20
1537920435068120,3,4,-1,-3,1,-15,-12,-2
1537920435068120,4,1,2,2,5,9,-25,-19
1537920435069117,4,-2,-3,-2,-4,-13,67,28
1537920435069117,-10,0,-1,-1,-1,19,25,8
1537920435083079,-22,-7,2,1,-1,-30,-38,-56
1537920435083079,0,-2,1,0,2,49,61,26
1537920435083079,5,0,1,0,0,-22,-6,1
1537920435083079,7,0,1,0,-1,-30,-34,3
1537920435106018,-4,0,-1,0,0,41,49,-14
1537920435106018,-5,-4,-4,-3,-4,-17,-24,-17
1537920435107016,2,-2,0,0,-4,-15,-16,-8
1537920435107016,-1,2,0,4,3,1,35,-2
1537920435128956,4,-1,-2,-4,-3,-12,-18,10
1537920435128956,-6,-2,-2,-1,0,16,-30,-20
1537920435129955,4,2,-2,0,0,-26,-1,15
1537920435129955,-2,0,-3,-4,-4,5,-6,-10
1537920435150897,-1,0,-2,-1,-3,-1,-21,15
1537920435150897,-2,1,0,0,1,11,19,-4
1537920435152891,2,2,0,0,2,-5,-12,-8
1537920435152891,4,0,-1,-1,-1,-13,1,29
1537920435164859,4,0,1,1,3,8,-20,-4
1537920435164859,-12,0,-1,-1,-3,-3,-22,-63
1537920435173835,-4,-5,1,1,-4,5,46,25
1537920435173835,-1,-1,0,1,1,9,20,-14
1537920435188795,-4,-2,0,-2,-1,-2,-7,0
1537920435188795,-1,2,0,-3,-3,-14,-38,-7
1537920435189793,0,-4,-2,-2,2,9,12,-2
1537920435189793,-6,-2,-2,-4,-3,4,-9,-5
1537920435202758,-5,-5,-3,0,-2,-6,-23,-10
1537920435202758,-4,-2,0,-1,-1,-38,25,-10
1537920435210737,-4,0,-1,-2,0,34,-43,-12
1537920435210737,1,1,2,1,1,8,45,17
1537920435225696,4,1,0,3,8,12,6,22
1537920435225696,5,0,-3,-5,-5,-16,-9,35
1537920435239659,-1,2,-1,2,-1,-1,-30,-23
1537920435239659,-14,-3,0,0,-4,-9,-21,-24
1537920435248635,4,2,-1,0,-3,-6,24,-22
1537920435248635,5,-3,-2,-1,3,22,27,26
1537920435249632,-5,-1,-2,-3,-4,-22,-1,-19
1537920435249632,2,0,1,-1,1,17,-16,1
1537920435262598,-3,-4,-5,-6,-1,-10,6,-11
1537920435262598,-6,-3,-2,-4,-7,7,9,-1
1537920435288529,3,0,-1,-2,-1,-23,-1,6
1537920435288529,4,-1,-1,-2,-4,0,-29,-7
1537920435288529,0,-3,-1,1,2,28,15,10
1537920435288529,-1,0,1,2,1,-21,-16,-9
1537920435292518,-5,-2,-1,-2,-1,-11,20,-11
1537920435292518,1,2,1,0,2,32,-17,30
1537920435308476,0,-1,0,0,-1,-8,30,12
1537920435308476,7,-2,-2,1,0,-22,-42,23
1537920435310471,0,-1,-2,-2,-5,18,4,-23
1537920435310471,-7,-2,-3,-3,-1,-25,-10,-11
1537920435322439,7,2,0,-2,2,19,19,30
1537920435322439,-4,0,-1,0,-4,-1,-13,-19
1537920435331416,-2,-1,-1,0,4,27,18,8
1537920435331416,-2,0,-1,-3,-2,1,6,2
1537920435346376,-6,-3,0,0,0,-42,-26,1
1537920435346376,1,-1,1,0,4,31,37,50
1537920435347374,-3,-1,-2,0,0,-22,-27,1
1537920435347374,2,0,-1,0,-1,6,16,-9
1537920435368316,-4,0,1,2,-1,-14,-9,-16
1537920435368316,4,-1,-2,-1,-1,14,8,3
1537920435370310,-1,-1,-2,0,1,33,-3,-3
1537920435370310,2,0,-1,1,5,-11,11,8
1537920435382278,-6,0,0,0,-3,6,-5,-31
1537920435382278,9,1,-1,-1,1,-20,-22,28
1537920435391254,-2,-2,1,0,0,0,12,18
1537920435391254,-3,0,-1,0,-4,-17,14,-33
1537920435406214,0,0,-1,-4,-1,-11,16,10
1537920435406214,-1,0,1,0,6,28,-25,-40
1537920435407211,1,4,0,-1,-3,-15,-5,-7
1537920435407211,0,-2,-2,-1,0,4,-10,1
1537920435428155,0,-3,-1,-1,-2,-18,12,3
1537920435428155,15,-1,-5,-6,-5,9,16,42
1537920435430150,0,-1,-1,0,0,-9,-20,-47
1537920435430150,1,-2,2,0,1,9,2,16
1537920435442118,2,1,1,-2,-6,-33,12,5
1537920435442118,-12,1,-2,-1,1,17,2,-46
1537920435451094,4,-8,3,2,2,-21,-5,31
1537920435451094,-1,1,-2,-1,-6,15,3,-11
1537920435466055,2,-1,-4,-1,1,0,-6,7
1537920435466055,-6,-2,0,1,-1,-7,36,-22
1537920435467052,-3,1,-3,-4,-4,0,-20,-10
1537920435467052,-5,0,1,-1,1,-20,-22,-15
1537920435488993,-2,-3,-1,0,0,41,-4,16
1537920435488993,-1,0,0,0,0,-4,-11,-2
1537920435489991,-1,1,-1,0,0,0,-9,15
1537920435489991,1,-1,0,0,-1,-9,24,7
1537920435510935,0,1,-1,0,-3,3,-24,-18
1537920435510935,-5,-2,0,0,2,-5,1,-2
1537920435511940,6,-1,-2,-3,-7,2,3,20
1537920435511940,1,7,0,0,1,6,-29,7
1537920435525894,-2,-2,-2,-2,0,13,34,-14
1537920435525894,-5,-3,-2,-1,-2,-14,-2,32
1537920435527889,3,1,-1,-1,1,-4,6,11
1537920435527889,0,-5,-3,1,1,8,49,-2
1537920435548833,4,0,-1,-1,-3,-7,-6,6
1537920435548833,-6,-1,0,0,-5,-21,-12,-6
1537920435549830,-5,-3,-3,-1,2,36,27,-13
1537920435549830,5,0,-3,-4,-6,-30,-32,18
1537920435570774,-6,-1,1,-1,3,21,-4,6
1537920435570774,0,-1,-2,0,-3,-3,-16,-14
1537920435572769,-7,-2,-1,-1,-1,-10,-10,-9
1537920435572769,1,-2,0,-2,-1,16,22,-5
1537920435585734,6,0,-1,-1,-3,-38,-18,14
1537920435585734,-5,-4,-1,-1,3,34,-5,-17
1537920435587729,3,0,-1,0,2,-3,21,15
1537920435587729,2,-4,-2,0,-5,-35,-30,-15
1537920435608672,-3,-1,-2,0,-1,27,2,-2
1537920435608672,0,1,0,0,-2,-24,0,-13
1537920435609670,0,1,1,3,5,-6,-59,-12
1537920435609670,-1,-2,-4,-4,-7,5,16,-11
1537920435630614,-1,-2,-1,-4,-4,0,30,6
1537920435630614,-3,-3,-2,-2,1,11,-5,-15
1537920435632609,1,-3,-2,-1,-1,5,-4,10
1537920435632609,1,9,-1,0,-2,-6,2,-13
1537920435645574,-3,3,1,0,-3,-18,-18,3
1537920435645574,-3,0,-1,-1,-3,-3,-9,9
1537920435652555,-1,-2,-2,-3,-2,-1,16,2
1537920435652555,-1,-5,-2,-1,3,47,3,-1
1537920435668513,-2,-1,-1,0,0,1,0,-9
1537920435668513,0,1,-1,1,-1,-5,-4,-21
1537920435669510,1,-1,0,0,0,-1,-11,13
1537920435669510,-11,-3,0,0,-2,-12,14,8
1537920435691451,9,0,-1,-1,-1,-1,-47,2
1537920435691451,0,1,0,-1,-3,1,33,-1
1537920435692449,-2,-2,-4,-4,-3,3,34,-11
1537920435692449,-10,-2,1,0,3,13,9,-3
1537920435705414,-6,-4,-1,-3,-4,-23,-43,15
1537920435705414,-4,2,1,4,3,8,28,-9
1537920435712395,10,2,0,-3,-3,1,5,26
1537920435712395,-4,-2,0,0,0,-14,-10,6
1537920435728353,3,-1,-2,-2,0,16,-30,-2
1537920435728353,-4,-3,0,-1,-1,-25,-4,-11
1537920435730347,-9,0,1,0,-2,-9,11,-1
1537920435730347,-1,-2,-1,-2,4,14,-15,-10
1537920435751291,0,1,0,0,1,1,11,-3
1537920435751291,5,0,-4,-2,1,7,-12,15
1537920435752289,-4,-7,1,0,-5,-8,6,-20
1537920435752289,4,11,0,0,1,-2,-1,6
1537920435765254,-6,-1,-1,-2,-5,-37,19,-9
1537920435765254,-1,0,-2,-2,2,17,-49,5
1537920435772235,-2,5,0,2,2,9,22,-26
1537920435772235,3,-4,-2,0,-1,4,0,22
1537920435788193,-3,0,1,2,5,28,30,-10
1537920435788193,-1,-1,-2,1,-5,-20,-21,-21
1537920435790187,-6,-3,-2,-2,-2,-5,-29,-7
1537920435790187,-7,-4,-3,0,2,10,11,-4
1537920435811132,-1,-5,0,1,-2,-12,-14,-10
1537920435811132,1,-6,-1,-2,-1,-18,17,6
1537920435812129,6,3,-2,-2,-5,13,-23,19
1537920435812129,1,-2,-1,1,0,-20,-1,-1
1537920435825094,-3,4,1,-2,2,39,28,9
1537920435825094,0,1,1,-1,-5,-21,-26,0
1537920435832075,-17,-5,-1,0,-5,3,23,-19
1537920435832075,19,2,0,1,4,4,2,-1
1537920435848033,-7,-2,-1,0,1,17,1,-19
1537920435848033,-1,2,2,-1,1,5,36,20
1537920435850027,3,1,0,0,-1,-16,-14,6
1537920435850027,-6,-2,0,0,2,7,-4,-6
1537920435870971,2,0,-2,1,-1,-18,-12,-6
1537920435870971,-4,-1,-1,0,2,8,26,0
1537920435871969,4,-2,-1,-2,0,9,3,27
1537920435871969,0,-2,-1,-2,-4,3,12,-12
1537920435884934,0,-3,-2,1,-2,-13,-5,7
1537920435884934,-3,-3,0,-1,-1,10,-1,-7
1537920435891915,-4,-2,-1,1,-1,-10,-20,-20
1537920435891915,7,-2,0,-3,-2,-1,27,68
1537920435908870,-10,1,1,-1,0,14,10,10
1537920435908870,12,1,-2,0,-4,-36,-16,8
1537920435909868,-10,-10,-4,0,1,24,4,-20
1537920435909868,-14,15,0,-1,-2,-5,-16,-16
1537920435930811,-2,-4,-3,-1,-2,1,21,0
1537920435930811,-3,-2,-1,-2,-2,7,19,2
1537920435932806,1,-1,0,-1,1,-4,-36,-15
1537920435932806,-2,-4,-2,1,-1,-20,-9,-6
1537920435944774,10,0,-3,-2,-3,-17,-2,24
1537920435944774,0,2,-1,-1,-6,35,4,-23
1537920435953750,1,1,-2,-1,-2,-27,57,5
1537920435953750,1,-4,0,-3,-4,10,-18,-7
1537920435968710,3,3,1,2,7,7,-1,4
1537920435968710,-2,-4,-1,1,-2,-11,-22,-8
1537920435969707,7,3,0,0,1,26,-20,39
1537920435969707,-1,-2,0,0,-5,-18,21,-3
1537920435990652,-2,0,-1,-2,-2,-10,-22,-12
1537920435990652,-3,0,-1,0,2,28,23,-4
1537920435992646,-2,0,-1,0,1,-26,9,-5
1537920435992646,-1,-2,0,1,2,24,15,-29
1537920436004614,4,-1,-2,0,-2,14,-23,-6
1537920436004614,4,3,-1,0,2,-9,-1,21
1537920436013590,-1,-3,-2,-1,0,-11,23,-19
1537920436013590,-19,-18,-1,-3,-6,0,-40,4
1537920436028550,14,13,4,2,-1,6,12,-16
1537920436028550,-1,2,2,-1,1,-12,-25,-2
1537920436029548,0,0,-2,-2,0,15,6,-10
1537920436029548,-2,-6,-1,-2,0,-19,-7,0
1537920436051489,-7,-4,-1,-3,-7,21,-6,3
1537920436051489,0,-1,0,1,2,-6,-27,9
1537920436052488,5,4,-2,-3,-7,-18,-10,3
1537920436052488,-2,-1,-1,1,5,29,27,-11
1537920436064455,-2,-2,-1,-1,-2,-26,-5,-3
1537920436064455,0,0,0,0,4,12,-18,-3
1537920436073432,-1,-3,0,-3,-6,-9,-10,4
1537920436073432,11,2,-2,-3,-6,-30,-23,7
1537920436088392,-5,-3,-1,0,2,-16,-5,-14
1537920436088392,-5,-4,-1,0,-2,38,16,4
1537920436090387,2,1,-2,-4,-2,-38,-3,1
1537920436090387,4,2,-1,-1,-1,9,0,11
1537920436111330,-3,-7,0,1,1,51,-14,-3
1537920436111330,2,5,0,1,0,-32,3,0
1537920436112328,2,2,1,4,-5,8,11,0
1537920436112328,-2,-2,-1,-2,-1,-8,-4,-2
1537920436124296,-5,-5,-2,-3,-8,-28,-7,-14
1537920436124296,3,-5,-4,-5,-6,14,23,12
1537920436133272,-4,-1,2,2,5,27,16,-3
1537920436133272,-3,1,0,2,3,-26,1,-11
1537920436148231,1,11,0,0,-2,-4,7,-5
1537920436148231,-5,-4,-2,-2,0,-5,-6,-9
1537920436150227,-2,0,-1,-1,-3,-20,-20,9
1537920436150227,0,-3,-2,-3,-4,21,5,-9
1537920436171169,10,9,1,-1,3,10,-25,31
1537920436171169,0,2,0,1,-1,-27,5,-23
1537920436172167,-5,-5,-1,0,-1,0,-7,16
1537920436172167,-2,3,-1,0,4,35,-8,0
1537920436185132,-6,-12,-1,2,1,-13,-5,-11
1537920436185132,2,1,0,0,-1,-7,-3,2
1537920436193111,2,1,-1,0,0,4,-2,-1
1537920436193111,3,-2,1,0,-2,-10,-23,-12
1537920436208070,3,-1,0,-1,-1,-10,32,5
1537920436208070,-5,-11,-1,-3,-1,9,5,6
1537920436210066,-2,0,-2,1,5,6,-25,-11
1537920436210066,1,-1,-1,0,-3,-4,8,1
1537920436231010,-5,0,-1,-3,-4,-18,-7,-10
1537920436231010,3,5,-1,1,2,-1,10,17
1537920436232007,-4,-2,-3,-3,0,18,-5,-15
1537920436232007,11,-1,-2,0,-3,-31,-17,5
1537920436244972,7,-1,0,0,2,18,25,8
1537920436244972,4,-3,-4,-2,-6,-31,-8,8
1537920436253948,-7,-4,0,0,-2,52,2,-15
1537920436253948,-8,2,1,0,3,-38,0,-3
1537920436268908,3,-6,-1,-1,2,14,-9,16
1537920436268908,-1,1,1,0,-1,1,0,-9
1537920436269905,2,-1,0,0,0,-6,5,-2
1537920436269905,-3,-2,-3,0,-5,-2,38,4
1537920436290849,-6,-3,-2,-1,1,2,16,-4
1537920436290849,-3,-4,-2,-2,-5,-34,-20,-10
1537920436296833,-4,-4,0,2,7,61,-18,-3
1537920436296833,0,0,0,0,5,37,14,-9
1537920436304812,4,15,2,-1,0,-5,44,4
1537920436304812,-2,-1,0,0,3,2,12,2
1537920436313789,-2,-3,-2,-3,-8,-42,2,6
1537920436313789,1,4,-1,0,1,11,-32,-14
1537920436328749,-7,-11,-3,0,0,-3,-1,-7
1537920436328749,-5,2,0,-1,0,10,-15,-8
1537920436329746,1,0,1,0,-2,-27,2,-13
1537920436329746,-3,-5,-1,-3,0,12,4,22
1537920436350691,-2,1,1,3,-1,-6,2,-5
1537920436350691,-1,-2,-1,1,4,9,11,5
1537920436352686,0,2,2,1,0,3,-20,-1
1537920436352686,6,-3,-4,0,-5,-7,26,1
1537920436364653,-9,-5,-2,-3,0,3,8,-14
1537920436364653,-3,-1,-2,1,4,19,7,-7
1537920436373628,1,-1,-1,-3,-2,-21,3,7
1537920436373628,1,3,0,0,0,4,-7,2
1537920436388588,0,-1,-2,-1,-3,-34,3,4
1537920436388588,-4,-4,-1,-1,1,30,10,-9
1537920436389586,5,2,-1,-2,-2,-4,27,21
1537920436389586,-10,-3,2,-1,-3,1,0,-9
1537920436410530,0,-3,0,-1,-2,-13,-35,-11
1537920436410530,2,-2,-2,2,1,3,-11,10
1537920436412525,5,0,-3,-2,-3,-10,-4,6
1537920436412525,3,-8,-2,0,1,-10,5,23
1537920436433468,-4,0,-1,1,0,16,3,-3
1537920436433468,3,3,0,-2,1,21,-1,1
1537920436434465,-6,-6,-2,2,-1,-13,5,-10
1537920436434465,-2,2,0,-1,0,0,-17,-15
1537920436448428,3,-6,0,0,5,-10,-8,19
1537920436448428,1,-3,-2,-5,-10,-23,7,-2
1537920436450422,4,3,0,0,-1,16,-32,15
1537920436450422,5,1,0,-1,2,-26,-10,27
1537920436471366,-3,2,0,1,1,27,0,-10
1537920436471366,-6,0,-2,-2,-2,-11,-5,-5
1537920436472364,2,0,-1,-1,1,8,8,9
1537920436472364,-2,2,-1,-2,-4,-28,16,-8
1537920436493308,-4,-2,-2,-1,2,13,-23,1
1537920436493308,0,-1,0,1,-1,-4,2,5
1537920436495303,-3,1,-2,-1,0,-14,3,-12
1537920436495303,0,1,-2,-1,1,0,-13,-10
1537920436508268,-3,-1,-2,-4,-4,-1,18,5
1537920436508268,1,0,2,-1,0,3,0,-9
1537920436510264,2,2,0,1,3,-15,4,8
1537920436510264,-2,-1,0,-2,-4,-10,-2,-12
1537920436531208,4,-3,-4,-1,-7,-21,-21,13
1537920436531208,-4,-2,1,3,3,18,8,-22
1537920436532205,6,10,-1,0,2,-9,1,8
1537920436532205,-3,-6,-3,-4,-6,-8,-36,15
1537920436553149,9,-10,0,-2,-3,0,20,-17
1537920436553149,-4,19,-2,1,3,17,4,49
1537920436555144,-46,-37,-4,-3,-3,9,30,-13
1537920436555144,37,24,6,4,1,0,-8,-6
1537920436568108,-17,-21,9,-8,-6,-23,-64,7
1537920436568108,20,29,15,8,4,2,43,-20
1537920436575090,-26,-5,-17,-5,1,2,-14,-18
1537920436575090,-17,0,-1,-1,0,9,1,7
1537920436591047,-20,-43,-25,-3,-2,9,7,-15
1537920436591047,-3,6,-5,-2,-3,-10,-30,-4
1537920436592045,14,8,5,-2,-4,-1,4,-2
1537920436592045,5,3,3,-2,-2,-14,9,-1
1537920436613986,4,21,2,-3,-6,18,3,28
1537920436613986,-6,-20,-3,-2,-1,-47,-3,-20
1537920436614983,12,10,1,-4,-14,-85,-21,10
1537920436614983,-17,-14,-7,2,26,120,19,-3
