timestamp,emg1,emg2,emg3,emg4,emg5,emg6,emg7,emg8
1537912662038074,-1,6,3,-3,-2,0,3,0
1537912662038074,0,0,-5,-2,0,2,-1,-1
1537912662038074,-1,4,4,1,2,3,-1,-1
1537912662038074,-2,11,13,3,0,-3,-2,-1
1537912662039072,3,-5,11,2,0,-4,-3,0
1537912662039072,-3,-4,-25,-8,-1,-2,0,-2
1537912662042063,0,0,2,-3,-1,1,2,-3
1537912662042063,-2,-2,2,0,0,0,-3,-1
1537912662050042,-2,1,5,3,1,1,2,-1
1537912662050042,0,3,9,1,-3,-1,0,0
1537912662059018,-1,-6,-7,-2,-4,-3,-1,-1
1537912662059018,0,-7,1,-2,-2,0,0,-1
1537912662064004,-2,-2,-11,-2,-2,0,-1,-2
1537912662064004,-1,-9,-22,-3,0,-1,-1,-1
1537912662078964,-2,4,7,-1,0,-2,0,0
1537912662078964,-1,1,3,0,0,-2,-2,-2
1537912662089935,0,-2,2,-1,-1,1,-1,-1
1537912662089935,1,11,23,2,-1,1,0,0
1537912662093924,-1,-5,-18,-1,-2,-3,-2,-1
1537912662093924,-1,-6,-3,-3,-3,-1,0,1
1537912662109881,-3,1,4,3,1,3,-3,-3
1537912662109881,-3,3,8,5,0,0,-2,-2
1537912662117860,-3,-9,-9,-5,-5,-3,-3,-3
1537912662117860,6,5,-20,-6,1,1,2,2
1537912662157754,-2,-6,4,-2,0,-2,-1,-1
1537912662157754,-3,-2,8,3,1,-2,0,-2
1537912662157754,-5,1,16,5,3,1,-2,-3
1537912662157754,3,5,-1,-1,-4,-5,-2,-1
1537912662158751,-3,4,-5,-1,-1,0,1,-1
1537912662158751,-4,-8,-17,-3,1,-1,-2,-1
1537912662161743,-1,-5,-13,-10,-3,-1,0,2
1537912662161743,-2,0,4,-6,5,5,3,-1
1537912662169722,0,4,33,9,-5,-3,-6,-5
1537912662169722,7,8,-20,3,5,13,9,8
1537912662176703,-3,-6,-11,-2,-6,-5,-5,-3
1537912662176703,-1,-6,-7,-3,1,-3,-4,-1
1537912662183684,-3,-3,-2,0,-4,-1,0,-1
1537912662183684,-3,-2,13,3,0,-5,-5,-4
1537912662198644,0,7,16,3,3,2,0,0
1537912662198644,-1,-2,-15,-2,-5,-4,-1,1
1537912662207620,-1,-4,-8,-4,1,-4,-2,0
1537912662207620,0,-1,2,-2,-5,-3,-2,0
1537912662214601,1,1,-7,-3,0,-1,0,-2
1537912662214601,-1,0,10,0,-2,-2,-2,1
1537912662229562,-1,1,-6,0,2,-1,0,-1
1537912662229562,0,-1,-1,-3,-3,-5,-1,-2
1537912662236543,0,0,2,0,-3,-5,-1,1
1537912662236543,0,1,4,5,2,5,-1,0
1537912662244522,2,1,-6,2,0,3,1,3
1537912662244522,-4,-2,0,-7,-4,6,0,-1
1537912662259481,1,0,1,2,-4,-4,0,1
1537912662259481,-1,-3,-3,0,14,2,0,-4
1537912662267460,0,0,-5,-3,-5,-5,0,1
1537912662267460,0,2,5,2,-5,-21,-6,-3
1537912662274442,-2,-4,-6,-1,1,14,-2,-5
1537912662274442,2,0,0,1,1,5,5,4
1537912662289402,-2,-1,0,-1,0,-4,-4,-1
1537912662289402,-2,-2,1,-1,1,1,0,-1
1537912662304362,0,-1,-1,2,-1,-11,-2,1
1537912662304362,-1,-1,3,0,-5,-5,-2,-2
1537912662305359,-1,-2,-2,-3,1,6,2,-2
1537912662305359,3,1,3,3,-1,-5,-2,0
1537912662319321,1,1,-5,-3,-1,1,1,0
1537912662319321,-2,0,0,-1,-2,2,-2,-3
1537912662327300,-1,-1,1,-2,0,-1,-2,-1
1537912662327300,-3,-2,-9,-2,-1,4,0,-2
1537912662334281,-1,0,5,-3,-1,-1,-2,1
1537912662334281,-3,-9,0,2,0,-1,0,-1
1537912662350239,1,4,-12,-2,-1,-2,0,-2
1537912662350239,3,7,0,-5,-2,1,-2,1
1537912662356223,-2,-5,-2,-1,2,1,-1,-2
1537912662356223,-3,-2,3,-1,-5,-6,-3,0
1537912662364202,-1,-2,4,1,1,-1,-3,-3
1537912662364202,0,-2,-4,0,-1,1,-1,0
1537912662379162,3,4,1,2,0,-3,1,1
1537912662379162,1,3,-2,-1,-3,-2,-1,-1
1537912662387140,-1,-2,1,-2,-1,0,1,1
1537912662387140,-2,-3,0,1,2,0,0,-2
1537912662394122,-2,-4,-2,-2,0,-1,-1,-2
1537912662394122,1,-2,0,0,-3,-1,-1,-1
1537912662410079,-1,-2,-2,-3,0,2,0,0
1537912662410079,-1,0,2,0,0,-2,0,1
1537912662417060,-3,-3,2,-1,-1,0,0,0
1537912662417060,-1,1,-1,0,-1,-1,-1,-2
1537912662424042,1,-1,-3,-1,-1,0,-1,0
1537912662424042,-2,-1,0,0,0,-1,0,-1
1537912662439002,0,0,-2,3,1,0,-1,-2
1537912662439002,-1,1,-2,-3,-3,-3,1,-1
1537912662446981,0,0,0,0,-3,-2,-1,-2
1537912662446981,-2,-2,0,-1,0,-1,0,0
1537912662461941,0,0,-3,-3,-2,2,2,2
1537912662461941,1,0,4,-1,-1,0,-3,-1
1537912662469919,0,-3,-6,0,3,-1,1,0
1537912662469919,0,-2,-1,0,-2,-2,-4,-1
1537912662476900,0,0,-2,0,0,0,0,1
1537912662476900,-3,1,1,0,-8,-2,0,-2
1537912662483882,-1,2,10,1,3,0,1,1
1537912662483882,0,-3,-6,0,3,5,1,-1
1537912662498842,-2,-3,-1,-2,0,-3,0,0
1537912662498842,-1,0,-5,-3,-2,1,-1,-1
1537912662506820,0,-1,-2,0,-2,-1,-2,1
1537912662506820,-2,-2,-1,-3,-1,-4,-2,-2
1537912662521780,1,0,2,0,-2,-3,-3,-2
1537912662521780,-3,-2,2,1,0,0,1,0
1537912662529759,0,3,2,0,-2,-2,-1,-1
1537912662529759,0,0,0,-2,1,4,1,0
1537912662536740,-2,-5,-11,-2,-1,-3,-3,-3
1537912662536740,-3,0,1,0,-1,-3,-2,-1
1537912662543722,-1,-3,12,1,0,0,0,-2
1537912662543722,0,-10,-13,-2,-5,-3,-4,-2
1537912662558682,-1,4,-6,-4,-2,3,2,1
1537912662558682,0,-7,-5,1,4,-1,1,0
1537912662567658,-1,2,0,-3,-5,-2,-2,0
1537912662567658,-2,9,19,4,2,0,-2,-1
1537912662581620,0,-5,-5,0,-3,-5,-3,-2
1537912662581620,2,2,-4,-4,-1,-1,-1,0
1537912662589599,-1,-4,-4,0,-1,1,0,-1
1537912662589599,-1,8,8,3,3,-2,-1,0
1537912662596580,-2,-5,0,-1,-1,1,-2,-1
1537912662596580,-3,-5,-9,-4,-3,3,0,1
1537912662603562,-3,-4,-5,-5,-2,-2,0,-5
1537912662603562,2,-1,6,0,-6,-4,-1,5
1537912662619519,0,6,1,-2,2,4,2,-1
1537912662619519,3,0,-2,-1,-6,-2,-4,0
1537912662627497,-2,-4,-5,-1,4,-1,-1,-3
1537912662627497,-6,-3,-1,-3,1,5,1,-4
1537912662641460,-1,-1,2,3,1,-4,0,-1
1537912662641460,-2,-2,1,2,-1,-1,-1,0
1537912662657418,-2,2,-3,-1,-1,1,-1,-3
1537912662657418,0,-4,-2,-2,-5,-7,0,-2
1537912662657418,1,1,5,2,-1,-4,-4,-3
1537912662657418,-5,-1,0,1,0,-5,-4,-5
1537912662673375,5,-1,-1,-4,2,6,1,10
1537912662673375,4,1,-1,-2,-3,7,3,0
1537912662679360,1,1,3,9,9,-9,-2,-1
1537912662679360,-10,-8,-8,-11,-4,18,3,-6
1537912662688335,12,8,9,3,3,8,10,11
1537912662688335,-3,-6,-10,1,-1,-1,-4,-2
1537912662701300,1,3,-8,-6,-8,-1,-2,-3
1537912662701300,0,1,5,7,7,-11,-5,-5
1537912662710276,-7,2,1,1,-1,-10,-5,-7
1537912662710276,-2,-13,-4,-9,-12,3,1,-2
1537912662716260,-4,22,10,0,3,3,2,0
1537912662716260,4,-13,1,0,7,-2,-3,3
1537912662733215,0,-18,-41,-11,-15,-4,1,1
1537912662733215,-6,-6,0,4,-8,-21,-7,-7
1537912662739199,-14,-12,-2,-9,9,9,-7,-4
1537912662739199,5,22,36,11,13,7,0,4
1537912662748175,10,22,12,4,-12,-14,-4,-4
1537912662748175,-5,-19,-27,-2,-1,4,1,-2
1537912662761141,-3,-1,9,2,0,4,12,-3
1537912662761141,1,-3,-19,-12,7,-10,-19,1
1537912662770116,-7,-12,-5,-9,11,13,14,-5
1537912662770116,4,10,10,0,-3,-6,-12,3
1537912662776100,12,0,-1,4,16,6,10,12
1537912662776100,4,5,4,7,-13,19,12,4
1537912662793055,0,2,5,6,-7,-33,-5,0
1537912662793055,-7,5,1,-15,-1,-21,-3,-7
1537912662799039,-6,-10,-9,0,-15,1,-2,8
1537912662799039,14,0,-6,4,8,-16,0,23
1537912662808015,-9,6,11,6,13,26,-5,-22
1537912662808015,-24,3,26,-12,-20,-50,-63,-57
1537912662821978,3,0,-8,9,9,35,29,-3
1537912662821978,-12,-11,-30,-14,-4,-30,-13,-10
1537912662830954,-1,-28,-40,-31,-32,-2,7,22
1537912662830954,2,-1,-3,2,-3,19,5,8
1537912662836938,8,14,33,10,8,14,-2,-4
1537912662836938,1,10,10,5,4,23,15,-1
1537912662852895,-2,-4,-8,12,15,10,5,8
1537912662852895,7,21,25,6,8,7,9,8
1537912662858879,-5,-28,-14,-16,-29,-35,-11,-2
1537912662858879,1,-4,-30,13,11,23,12,-3
1537912662867856,-7,4,18,-11,-24,-42,-29,-10
1537912662867856,4,7,-7,7,18,37,18,8
1537912662881819,7,6,11,8,6,33,18,10
1537912662881819,-11,-12,2,-8,17,11,-18,-2
1537912662890794,-15,-6,-11,-1,36,-4,-14,-20
1537912662890794,11,15,15,-1,-17,3,2,20
1537912662896778,22,7,0,6,-31,-13,3,4
1537912662896778,-5,-5,-6,-12,-36,-9,11,-13
1537912662912735,-4,5,10,12,38,39,3,5
1537912662912735,0,-11,-1,-12,49,46,18,5
1537912662918719,1,2,-19,11,-5,-19,-22,-5
1537912662918719,8,10,16,-6,-22,-14,-1,-1
1537912662927695,1,-5,11,20,-15,8,25,9
1537912662927695,-20,-14,-4,2,33,-2,-17,-7
1537912662941658,-4,1,7,-10,-8,-21,-27,-5
1537912662941658,13,7,-2,14,32,33,31,16
1537912662950634,6,0,-9,-24,-53,-48,-34,-24
1537912662950634,-4,-4,-12,3,15,43,11,-5
1537912662956618,2,-5,-14,-21,-12,-32,-10,15
1537912662956618,-15,3,18,-2,-4,-5,-2,-9
1537912662972575,5,3,6,16,23,20,17,17
1537912662972575,12,-15,-35,-4,-20,-21,5,-1
1537912662978560,6,45,65,17,25,18,9,2
1537912662978560,-6,-23,-10,20,8,-18,-2,3
1537912662987535,-1,-15,-39,-3,-12,7,-1,-4
1537912662987535,-5,1,-1,-9,-23,-43,4,11
1537912663001498,-12,-21,-13,-7,17,21,-3,-16
1537912663001498,-16,7,18,3,40,2,-8,-9
1537912663010474,24,14,20,-20,-29,-51,-42,4
1537912663010474,12,4,-16,10,26,37,16,0
1537912663016458,-2,3,-2,-16,-48,-9,7,2
1537912663016458,-18,-5,6,5,36,32,-6,-29
1537912663033413,-17,-19,-29,-32,-10,-53,-5,1
1537912663033413,21,13,14,-19,-35,-28,-8,12
1537912663039397,5,6,16,34,45,30,20,3
1537912663039397,17,11,-20,6,-58,-14,8,11
1537912663055354,-18,-16,5,10,21,34,4,-4
1537912663055354,-6,-3,13,4,-5,-3,-22,-26
1537912663061338,-11,-16,13,-16,29,8,10,-1
1537912663061338,-6,-15,-34,-4,-21,10,9,4
1537912663070314,0,3,7,9,-18,-31,-15,-3
1537912663070314,25,27,11,12,-2,55,29,24
1537912663076298,-13,-15,-16,-5,-22,-7,-1,-18
1537912663076298,-6,10,14,-34,5,-76,-19,-5
1537912663093253,4,5,0,13,11,37,5,6
1537912663093253,-1,3,-6,3,-9,-34,-18,1
1537912663099237,-3,4,62,1,31,51,-5,-7
1537912663099237,13,-26,-89,-33,-58,-10,13,9
1537912663108213,-10,-1,-13,14,26,20,18,-5
1537912663108213,-2,-12,-1,15,5,-9,0,3
1537912663121178,-4,-20,-45,-8,0,-17,0,10
1537912663121178,-19,-4,32,6,17,-3,-17,-14
1537912663130154,-3,12,15,-16,-3,14,-7,-12
1537912663130154,16,13,-8,15,5,18,18,16
1537912663144117,-10,12,21,35,65,-6,-8,-11
1537912663144117,1,-2,18,5,-28,30,-16,3
1537912663153093,9,16,4,-28,-83,-51,-21,9
1537912663153093,0,-12,3,-17,7,51,20,-6
1537912663175034,-8,-5,-14,-5,-4,-7,-16,-24
1537912663175034,-3,1,2,-11,20,7,-5,-6
1537912663177029,-7,-9,-12,-8,-1,18,19,2
1537912663177029,0,42,68,22,-7,-13,2,-1
1537912663182015,8,1,-38,15,16,4,4,4
1537912663182015,-4,-57,-80,-8,3,-17,-9,2
1537912663190991,-4,-42,27,-5,7,2,4,7
1537912663190991,3,32,-29,-1,-7,-13,-9,-5
1537912663203957,10,11,-16,8,34,23,50,30
1537912663203957,0,12,37,5,-78,-72,-47,16
1537912663212933,-1,5,6,0,34,31,-24,-47
1537912663212933,-13,-16,16,-15,-15,-22,-29,-27
1537912663227893,11,12,-6,-38,-38,18,2,6
1537912663227893,-7,10,11,17,40,37,44,-1
1537912663228891,-8,-7,-1,1,-34,-39,-19,7
1537912663228891,-15,-23,30,11,36,13,-1,7
1537912663241855,10,-2,-62,-2,-22,-1,-3,0
1537912663241855,15,7,0,-11,24,19,-1,7
1537912663250832,3,4,-5,25,19,48,23,7
1537912663250832,-3,-21,-36,-17,-22,-44,-4,-1
1537912663264794,-9,-13,31,4,6,2,-2,4
1537912663264794,-9,2,24,9,-15,-17,-2,-15
1537912663271775,2,19,2,7,33,1,-11,-16
1537912663271775,-13,-30,-40,-23,-50,-22,-3,1
1537912663287733,-2,-1,14,-7,-17,-17,-23,-8
1537912663287733,16,28,17,9,-1,22,18,7
1537912663289728,1,9,7,6,-6,-7,20,15
1537912663289728,-1,-13,-16,5,35,20,7,6
1537912663301696,-1,-4,-3,-6,8,5,2,2
1537912663301696,1,9,16,8,6,7,4,-2
1537912663310671,1,-6,-14,-9,16,5,1,2
1537912663310671,3,2,5,5,-17,0,8,5
1537912663324634,-5,3,7,-16,-61,-52,-29,-13
1537912663324634,4,-18,-14,0,16,20,6,2
1537912663331615,-1,0,-5,8,16,12,9,1
1537912663331615,-3,-5,-5,-1,-1,-14,-2,-3
1537912663347573,-6,-1,1,-1,-18,-1,-3,1
1537912663347573,2,27,13,-1,6,13,-4,-5
1537912663349568,4,-9,0,0,-4,-2,5,3
1537912663349568,-10,-5,-7,-5,2,2,1,-1
1537912663361536,-2,0,-8,5,-6,-20,-9,-3
1537912663361536,2,2,6,-10,2,-7,-7,-2
1537912663370512,2,9,7,4,8,5,8,4
1537912663370512,3,0,1,4,3,-3,-2,1
1537912663384474,-4,-10,-5,-5,-2,-7,-7,-6
1537912663384474,1,-1,2,-2,-9,-11,-3,0
1537912663391456,6,6,0,-2,0,10,10,4
1537912663391456,-7,-10,-5,0,2,-2,-1,-6
1537912663407413,-1,-6,-9,-7,-11,-10,-6,-2
1537912663407413,1,3,10,1,2,-1,0,2
1537912663409408,1,0,0,4,3,0,2,2
1537912663409408,-2,1,0,0,4,-3,-2,-6
1537912663421375,-1,2,1,-3,-1,-2,0,0
1537912663421375,2,-4,-3,-1,1,0,-2,1
1537912663430352,-3,2,-3,1,1,-1,-2,-3
1537912663430352,-1,2,0,-1,-1,-5,-4,-3
1537912663444314,-1,-5,-11,-5,-7,-8,-1,-1
1537912663444314,-1,-7,-4,-2,-2,1,-1,-1
1537912663453290,1,7,7,0,-1,-6,0,1
1537912663453290,2,4,6,2,2,1,3,0
1537912663468251,-3,-5,7,2,0,-3,-3,-3
1537912663468251,-2,6,-14,-6,-2,-6,-5,-4
1537912663469248,1,-5,-3,-1,-3,1,2,2
1537912663469248,-4,-1,-5,-2,1,1,-1,-2
1537912663481216,1,-2,2,1,1,-1,0,1
1537912663481216,0,3,11,1,-3,0,1,-1
1537912663490194,2,5,2,2,-1,1,0,1
1537912663490194,-3,-10,1,-1,3,3,2,0
1537912663504154,1,6,-7,-3,-3,-2,-1,-2
1537912663504154,1,1,2,1,-3,-2,-1,-1
1537912663513131,0,-1,-4,-2,0,2,0,-2
1537912663513131,0,-2,-3,-1,2,-3,-1,1
1537912663528090,-1,-5,-6,-4,-3,-7,-1,1
1537912663528090,-3,-1,4,1,-1,-2,-2,-4
1537912663529088,-1,2,-2,0,1,2,-1,-2
1537912663529088,0,3,-1,-1,-4,3,3,-2
1537912663541056,-4,-3,-6,-3,-2,-2,-4,-2
1537912663541056,2,0,4,2,2,-1,3,0
1537912663551029,-2,-2,0,-1,-3,3,-1,0
1537912663551029,-1,4,4,1,1,0,-1,-1
1537912663563994,-1,-4,-6,-2,-1,-2,1,-1
1537912663563994,0,-6,-8,-1,-1,-5,-1,-1
1537912663572971,1,1,4,1,-1,0,0,1
1537912663572971,-1,1,-4,-2,-2,-1,-3,-1
1537912663587930,0,-2,3,-1,-3,-2,-1,-1
1537912663587930,-2,-3,1,-2,-3,-1,-2,-3
1537912663588928,1,-1,-1,1,0,-2,1,0
1537912663588928,-1,0,-1,-1,-2,-3,-1,0
1537912663601893,-2,-2,-2,2,2,-2,-2,-1
1537912663601893,-1,1,2,-1,2,3,-1,-1
1537912663610869,-1,1,0,-1,1,0,-2,-2
1537912663610869,0,-1,-4,-3,-1,-1,1,1
1537912663624832,0,-2,-1,-1,-3,-3,-2,0
1537912663624832,0,-2,-1,0,-1,-2,-2,0
1537912663631813,-3,0,0,0,-2,-4,-3,-1
1537912663631813,1,-2,-1,1,1,-1,1,0
1537912663647770,1,1,-1,-1,0,1,-2,-3
1537912663647770,-2,0,1,-2,-4,-2,-1,-2
1537912663649765,2,1,1,-2,-2,-1,3,2
1537912663649765,-3,-2,-4,-1,-1,0,0,-3
1537912663661733,-3,-2,-1,-1,1,-1,-4,-3
1537912663661733,-1,1,1,-1,-1,0,1,1
1537912663670709,-2,-2,-1,-1,-1,-3,-1,-2
1537912663670709,0,0,-2,-2,0,1,0,0
1537912663684672,0,-2,-1,0,-2,-1,1,-1
1537912663684672,0,-1,-1,-1,3,-3,-3,-2
1537912663691654,-2,0,-2,-1,1,1,1,-1
1537912663691654,-1,-1,1,-1,0,-2,-3,-3
1537912663707611,-1,1,0,1,-3,-2,-1,1
1537912663707611,-1,0,2,-2,1,-1,-1,1
1537912663713595,0,0,0,0,-2,-3,0,1
1537912663713595,-1,-3,-9,-1,-3,-3,-3,-3
1537912663721573,-1,0,2,0,-2,-2,0,1
1537912663721573,-1,-1,-1,2,3,0,0,1
1537912663730549,0,-2,1,-3,2,5,0,-2
1537912663730549,0,0,2,0,0,8,2,0
1537912663744512,0,0,-2,0,-1,-3,-1,-3
1537912663744512,0,-1,0,1,-2,-2,-2,-1
1537912663751494,0,-1,-1,0,0,-1,-4,-2
1537912663751494,-1,1,1,1,-2,-2,0,1
1537912663767450,-2,-3,-3,-1,-3,-1,1,-1
1537912663767450,0,-1,-2,-2,-1,-2,-1,-2
1537912663774432,-1,-3,-4,-3,-3,0,1,-1
1537912663774432,0,-1,-1,-1,0,-1,0,0
1537912663781413,-2,0,2,-2,-7,-5,-1,-2
1537912663781413,-2,-1,-1,0,0,2,1,-1
1537912663790390,-2,-2,-3,-1,2,-2,-2,-2
1537912663790390,-2,0,6,1,0,-2,-1,-1
1537912663804352,-2,-3,-7,-1,2,2,-2,0
1537912663804352,-1,-4,-3,-2,1,1,3,1
1537912663811334,-1,0,-1,-2,-3,0,-1,-1
1537912663811334,-1,0,2,-2,-1,-1,-1,-2
1537912663827290,2,2,3,2,2,0,0,2
1537912663827290,1,0,-1,-1,-4,-4,-2,-2
1537912663834272,-1,-3,0,-2,4,5,2,0
1537912663834272,0,-2,-2,-1,-2,-6,-3,0
1537912663841253,-2,-3,-2,-4,-1,4,1,0
1537912663841253,-1,0,-1,-1,0,-1,-2,-1
1537912663850229,0,0,0,0,-4,-4,-2,-1
1537912663850229,0,-1,-2,-2,-4,-2,-1,0
1537912663865190,-1,1,-3,-2,0,1,1,2
1537912663865190,-2,-2,0,-1,-1,2,-1,0
1537912663871173,2,0,0,-1,-1,-5,0,-1
1537912663871173,-1,-2,-1,0,-2,0,-2,-1
1537912663887131,-1,-1,0,-1,2,0,-1,-1
1537912663887131,-1,0,-1,1,-1,-1,-1,-2
1537912663894112,-1,-1,-2,3,-2,-3,-1,-1
1537912663894112,-1,0,-2,-1,-2,-2,0,1
1537912663910069,0,-2,-1,-2,-3,-2,0,-1
1537912663910069,1,-1,-1,0,4,3,-1,0
1537912663912065,0,-1,-1,0,-1,-3,-2,0
1537912663912065,-1,-2,1,-1,0,0,-2,-1
1537912663925029,0,0,1,3,1,-1,0,0
1537912663925029,-1,-1,7,0,-3,1,1,0
1537912663932010,-1,-4,-19,-4,-2,-1,0,-1
1537912663932010,0,-3,0,-1,1,1,0,0
1537912663946971,1,15,3,-1,-2,-1,-2,-2
1537912663946971,-4,-19,0,0,-1,-1,-3,-3
1537912663953952,-4,-3,-2,0,2,1,-1,-2
1537912663953952,2,-3,-9,-3,-2,0,-1,0
1537912663969909,3,1,2,1,0,-3,-2,2
1537912663969909,0,10,5,0,0,-1,0,1
1537912663971904,-5,-2,5,-1,1,6,2,-4
1537912663971904,-4,-8,-4,0,1,-3,-3,-3
1537912663984870,-1,1,-8,-3,-2,-3,-3,-1
1537912663984870,6,11,4,-2,-6,-8,-2,-1
1537912663991851,1,-2,5,5,2,-2,0,3
1537912663991851,-8,-5,0,-1,1,6,2,-4
1537912664007808,0,-8,0,-3,-9,-14,-7,-1
1537912664007808,-5,-5,-13,-9,14,26,7,-1
1537912664013792,1,2,-2,-1,1,-12,-8,1
1537912664013792,-4,3,7,-1,-10,-18,-14,-11
1537912664030747,10,4,2,10,6,0,12,9
1537912664030747,4,1,-1,6,21,7,1,10
1537912664031744,-1,0,3,2,-21,6,6,-4
1537912664031744,2,-2,-3,2,29,32,20,12
1537912664044710,-4,-5,-2,0,-9,-38,-23,-8
1537912664044710,-3,11,23,13,-12,15,-6,-6
1537912664051691,-9,-2,4,5,32,-20,-7,-7
1537912664051691,-6,-10,-41,-26,-29,-33,-12,-4
1537912664067648,-2,-14,-14,-7,7,23,8,-3
1537912664067648,-5,-1,-13,-7,-2,-12,-2,0
1537912664073632,-4,-2,11,6,11,22,2,-1
1537912664073632,10,22,40,33,42,-2,-4,-2
1537912664090587,-18,-10,-7,-4,-26,-8,3,-9
1537912664090587,0,-15,-11,-23,-25,-6,-11,1
1537912664091584,12,8,-7,-15,-24,41,16,3
1537912664091584,0,12,8,-5,42,-3,1,4
1537912664104549,0,-5,9,9,2,2,-10,-3
1537912664104549,0,4,-4,6,20,7,11,3
1537912664111531,-17,-9,-11,-15,-13,-34,-17,-13
1537912664111531,8,-17,-11,26,6,31,6,0
1537912664127488,3,19,28,5,2,26,19,9
1537912664127488,-9,-19,-7,-21,-47,-62,-23,-12
1537912664134469,-1,-1,-37,12,-12,-1,10,7
1537912664134469,13,6,1,-10,-11,-6,2,8
1537912664150427,-8,-2,10,-12,3,-14,-5,-5
1537912664150427,4,4,11,24,27,26,24,4
1537912664151425,-12,-6,6,-32,-88,-50,-30,-7
1537912664151425,-12,-9,-17,1,2,39,12,-6
1537912664164389,12,9,1,-6,-15,3,-11,-6
1537912664164389,7,8,7,-1,19,-15,20,12
1537912664173365,2,-3,7,16,58,10,-5,6
1537912664173365,-1,-1,-3,-16,-105,-53,-3,5
1537912664187328,-9,-16,-19,-8,17,21,-16,-11
1537912664187328,-11,4,0,9,-30,-13,-7,-14
1537912664194309,11,8,6,14,23,12,7,5
1537912664194309,3,9,11,-29,-36,-14,-1,6
1537912664210266,-4,-9,-5,9,14,7,-1,2
1537912664210266,-1,-7,-15,-28,-14,12,-2,1
1537912664212261,1,-7,-8,9,20,12,2,-4
1537912664212261,0,-1,-7,20,47,23,3,0
1537912664224229,1,2,8,10,-59,-18,10,5
1537912664224229,-20,5,20,-17,4,7,-14,-17
1537912664233206,7,-7,-10,-5,-26,-35,-8,-7
1537912664233206,5,9,-3,-5,39,33,9,-2
1537912664247168,-8,-20,-17,3,20,-24,-1,2
1537912664247168,-12,-4,-2,-7,17,61,-4,-9
1537912664254149,0,9,13,-21,-19,-9,-4,2
1537912664254149,-2,-1,2,24,30,23,-4,-5
1537912664270107,9,6,4,5,-21,-27,16,8
1537912664270107,0,-4,4,14,18,-38,-28,-5
1537912664272101,-15,-10,0,-7,18,9,6,-5
1537912664272101,11,8,-7,10,-34,11,5,-1
1537912664284069,6,11,1,-14,31,18,8,9
1537912664284069,6,-13,-8,7,58,44,-2,10
1537912664293045,-11,0,3,-17,-20,28,-14,-17
1537912664293045,-14,-10,19,-1,-6,-8,-12,-8
1537912664307008,3,11,-28,-30,-10,15,2,-6
1537912664307008,-1,-21,-44,0,-12,11,18,0
1537912664313989,5,5,22,15,6,0,-6,16
1537912664313989,-16,-2,15,-7,37,-62,-15,-10
1537912664329947,-2,-4,17,29,8,3,-16,-8
1537912664329947,16,28,12,7,-7,-20,12,9
1537912664331942,5,-9,-12,13,22,6,4,4
1537912664331942,9,3,18,2,-44,-39,0,5
1537912664343909,-16,-11,-13,-13,24,-4,-19,-11
1537912664343909,-8,-14,-39,-48,23,12,-4,-7
1537912664352886,10,19,16,15,-18,7,14,-1
1537912664352886,-15,-11,6,32,4,-8,-2,1
1537912664366848,17,13,9,-4,-31,-16,-11,15
1537912664366848,12,4,15,14,-17,-6,-1,3
1537912664373830,-9,2,-9,-44,-17,39,5,-2
1537912664373830,-16,-33,-42,-32,10,-6,-9,-16
1537912664390785,-3,1,2,-3,7,19,3,-8
1537912664390785,-2,8,11,30,1,-35,-5,1
1537912664391782,-6,-5,-25,-14,31,7,11,2
1537912664391782,11,9,-1,-4,-23,-14,-7,7
1537912664403749,10,17,23,27,53,66,36,3
1537912664403749,-10,-11,10,-13,-75,-92,-29,-7
1537912664412726,3,2,14,27,32,25,-4,2
1537912664412726,-5,0,-4,-11,-58,-16,2,4
1537912664426688,-1,-2,0,-15,75,37,9,-2
1537912664426688,11,9,4,20,-1,7,11,7
1537912664433670,-8,-13,-12,1,20,-20,-13,-13
1537912664433670,5,3,3,-11,-26,9,4,8
1537912664450624,-1,-3,1,-17,-2,3,1,2
1537912664450624,2,2,6,19,-1,1,7,-3
1537912664451622,8,5,-17,-1,20,3,8,10
1537912664451622,2,6,-2,0,30,17,2,-1
1537912664463590,0,-6,6,5,-85,-28,-5,-2
1537912664463590,-7,-1,12,5,74,63,10,-2
1537912664472565,3,-6,7,-7,-94,-66,-9,4
1537912664472565,10,18,2,-2,49,26,5,1
1537912664487526,-15,-7,4,-6,-7,-20,-17,-8
1537912664487526,-3,-7,-29,-5,-16,0,-10,-9
1537912664494507,6,5,11,17,38,15,20,12
1537912664494507,-3,-9,-5,-8,-13,3,-3,0
1537912664510464,-1,-3,-2,1,0,1,0,0
1537912664510464,4,23,9,-7,-8,2,0,-1
1537912664511462,-7,-24,-15,-6,1,-2,0,-4
1537912664511462,-1,-4,-6,-8,-4,-25,-9,-2
1537912664524427,-1,2,0,8,12,-8,-2,-3
1537912664524427,-8,-9,-4,-2,-4,3,-1,-3
1537912664533403,5,14,12,4,-6,7,1,0
1537912664533403,0,-1,4,4,11,16,1,-3
1537912664547366,0,-1,-6,2,-9,-10,2,4
1537912664547366,2,-2,0,-2,3,-5,4,6
1537912664554347,-10,-4,1,-1,-23,-21,-13,-15
1537912664554347,-5,-8,-15,-9,3,14,2,-3
1537912664570304,-6,-8,-13,-7,-2,-18,-5,-3
1537912664570304,1,-4,1,-3,-19,-13,-6,0
1537912664572299,3,5,9,3,2,1,0,2
1537912664572299,1,10,5,1,1,13,4,1
1537912664584267,-3,-12,-13,2,11,8,0,-2
1537912664584267,1,-6,-2,1,1,-3,-3,1
1537912664593243,5,2,2,-3,0,-1,4,7
1537912664593243,-5,0,5,5,10,-6,-4,-4
1537912664607206,-1,0,-1,0,-5,2,1,1
1537912664607206,2,1,5,0,-4,-4,0,1
1537912664614187,-3,3,-1,-1,1,-1,-3,-3
1537912664614187,-3,-11,-19,-2,-5,2,-1,-1
1537912664630147,3,-7,-10,-3,-3,-3,-4,0
1537912664630147,-3,2,-3,-4,-17,-3,4,3
1537912664636128,2,9,5,-2,6,-2,-2,-1
1537912664636128,-2,-1,10,0,-6,-1,1,-2
1537912664644107,1,2,1,2,-4,-9,-1,1
1537912664644107,-4,-6,-3,-2,-1,8,2,-2
1537912664653083,-2,-3,0,0,0,2,-2,-2
1537912664653083,0,1,4,1,0,-1,-2,-2
1537912664667046,1,0,-1,1,-3,-1,-1,-2
1537912664667046,2,-4,-12,-7,-4,6,6,5
1537912664674027,2,-5,-5,2,11,7,-5,3
1537912664674027,-3,-4,0,-2,1,0,-7,-8
1537912664689984,-3,2,1,-1,-5,-16,-5,-3
1537912664689984,1,1,3,3,8,8,0,-2
1537912664696966,1,0,-2,-1,0,-5,4,3
1537912664696966,-2,0,0,1,9,6,2,2
1537912664703947,0,0,-1,-3,-1,9,2,-1
1537912664703947,-1,2,3,-1,-1,-7,-3,-2
1537912664712925,0,-1,-2,-1,-9,-5,-4,-3
1537912664712925,2,-12,0,2,1,0,3,3
1537912664726888,-2,1,-2,-3,-2,-2,-1,-1
1537912664726888,1,-1,6,-1,-13,-7,-2,-1
1537912664733869,-2,8,1,1,2,3,3,-1
1537912664733869,-2,-2,-9,-2,-6,-8,-4,-1
1537912664749826,1,-1,-6,-1,3,7,3,4
1537912664749826,-4,-3,-3,-2,9,1,1,-3
1537912664756807,1,0,6,-1,-3,0,-8,-4
1537912664756807,2,6,0,-2,-5,-2,4,1
1537912664763789,-4,-5,-3,1,-1,-6,-2,0
1537912664763789,-1,0,-1,0,-3,5,1,-2
1537912664772764,0,-2,-1,0,4,-6,-2,0
1537912664772764,-3,-4,0,-6,-12,-8,-2,-4
1537912664786726,0,2,0,1,0,1,-2,-2
1537912664786726,0,0,1,0,-8,-7,-5,-1
1537912664793707,0,-3,-3,-2,1,12,4,1
1537912664793707,-2,3,0,-2,1,2,-2,1
1537912664809665,-1,-1,2,-1,-4,-3,-3,-2
1537912664809665,-1,-4,-1,1,0,-6,-3,0
1537912664816646,-2,-3,-5,-3,-4,-5,-4,-2
1537912664816646,0,2,3,1,0,-1,-1,-1
1537912664832604,-2,0,0,-1,-5,-2,-1,-3
1537912664832604,1,-3,-3,-2,-1,0,0,-1
1537912664834598,-2,0,-1,-2,-3,0,1,1
1537912664834598,-1,-1,3,0,0,5,-1,-1
1537912664847563,0,-1,-1,-1,-4,-5,-1,-1
1537912664847563,-1,-1,-2,-2,2,5,1,0
1537912664853548,-1,-2,-1,-2,-2,-3,1,-1
1537912664853548,-1,2,3,0,-1,-2,0,1
1537912664869504,-3,-2,3,0,-1,-3,-3,-2
1537912664869504,-2,-4,-11,-3,-4,-1,-1,-3
1537912664877483,1,-1,-1,-1,6,0,-2,1
1537912664877483,-2,-1,-2,-1,1,0,-2,-1
1537912664892444,2,1,2,-2,0,1,0,-1
1537912664892444,1,1,4,0,-3,-4,-1,-1
1537912664894438,-1,-3,-2,0,-1,-4,-1,-2
1537912664894438,1,-1,0,0,-2,1,1,-1
1537912664907404,-3,0,-3,-1,-1,1,1,-1
1537912664907404,-1,0,1,-1,-2,-3,-2,-3
1537912664914384,-1,0,-3,0,-3,-1,0,0
1537912664914384,-2,0,0,-1,-1,-6,-3,-2
1537912664929345,1,-3,-1,0,1,2,0,-1
1537912664929345,-2,-1,-2,1,1,-1,-1,0
1537912664936326,-1,-2,-2,0,-1,0,-1,0
1537912664936326,1,0,-1,-1,-1,-4,-2,1
1537912664953281,0,0,-3,0,2,3,1,0
1537912664953281,-1,-2,-1,-3,-5,-5,0,-1
1537912664954279,-1,0,-1,-2,-2,1,1,-3
1537912664954279,0,0,-1,0,0,-1,-1,-1
1537912664967244,-1,-1,-2,-1,0,0,-2,2
1537912664967244,1,1,6,1,1,1,-2,1
1537912664974225,-1,-3,-7,0,-2,-2,-2,-1
1537912664974225,-1,-4,-5,-2,0,2,-1,-2
1537912664990182,-2,-1,0,-1,-2,-1,0,-3
1537912664990182,-1,1,0,1,1,0,0,-1
1537912664996166,0,1,5,0,0,0,1,-1
1537912664996166,0,0,-3,-1,-1,1,1,0
1537912665013121,0,0,-8,-1,0,-1,-1,-2
1537912665013121,0,-1,1,-2,-2,0,-1,1
1537912665014118,-1,0,-1,0,-1,0,0,-2
1537912665014118,0,-1,3,0,0,-1,1,0
1537912665027083,-1,1,1,0,-3,-2,-2,0
1537912665027083,-1,-1,-4,0,-1,-3,-2,-3
1537912665034064,0,-1,1,0,0,-2,1,-2
1537912665034064,-2,-1,0,-1,-1,1,0,-2
1537912665050022,1,-2,-1,-1,-1,-1,0,-2
1537912665050022,0,-2,-2,-1,-1,-2,-1,0
1537912665057003,-1,-1,-1,-2,-3,-1,-2,0
1537912665057003,-1,2,1,1,0,-1,-3,-2
1537912665071963,-1,0,-1,-1,2,-2,-2,1
1537912665071963,-2,-2,0,-2,-3,-1,-1,0
1537912665072961,-2,-2,-2,-1,0,-1,-1,0
1537912665072961,1,-1,-2,-3,-4,0,0,-3
1537912665087921,0,0,7,0,-2,-4,-3,-2
1537912665087921,0,-1,-7,1,0,2,0,-1
1537912665093904,-4,-5,-5,-2,-1,-4,-1,0
1537912665093904,-1,0,-2,0,1,0,0,0
1537912665108865,-2,0,0,-2,-1,0,0,-2
1537912665108865,-1,1,1,-1,-1,0,0,0
1537912665116843,1,0,1,0,-1,1,-2,-1
1537912665116843,0,-3,-2,-2,-2,-1,-3,1
1537912665131803,-3,-1,0,1,0,1,1,2
1537912665131803,1,-2,0,-1,-4,-7,-3,-1
1537912665132801,0,-3,-4,-2,1,2,-1,-3
1537912665132801,-1,1,8,0,-1,0,-1,2
1537912665155739,-1,10,-4,-1,-2,-1,-2,0
1537912665155739,-2,-13,-5,1,1,0,1,-3
1537912665156737,-1,-5,-3,-1,-2,-1,-2,-1
1537912665156737,0,0,0,1,-1,-4,-1,1
1537912665168705,-1,-7,-2,-4,0,5,4,-1
1537912665168705,-1,6,2,-2,2,6,2,0
1537912665176683,-1,0,0,0,-1,-3,-3,-4
1537912665176683,0,-1,-2,-1,1,0,1,-1
1537912665192640,0,1,3,2,-2,-2,-2,-1
1537912665192640,1,-1,-6,-1,1,3,-1,-1
1537912665192640,-1,-2,0,-2,1,0,-2,2
1537912665192640,-4,-1,-3,-3,-5,-7,-4,-2
1537912665207601,-1,-3,1,-1,-1,-1,-1,-1
1537912665207601,-1,0,3,-1,2,-3,-3,-1
1537912665213585,2,1,5,4,1,5,1,1
1537912665213585,0,6,4,-3,-1,6,2,-1
1537912665230539,-1,-5,-5,-2,6,-1,-3,-1
1537912665230539,-5,-10,-11,-8,-3,3,0,-2
1537912665236523,-2,10,-2,1,-6,-8,-2,-1
1537912665236523,-1,-6,-7,1,1,-2,-1,-1
1537912665252481,-2,1,11,7,-11,-8,-4,-3
1537912665252481,-1,1,6,6,10,-1,-3,-2
1537912665252481,-1,-1,-1,-4,0,0,1,-1
1537912665252481,-1,0,-1,-2,1,7,1,-2
1537912665267441,0,2,-6,-5,1,-2,-2,-1
1537912665267441,-1,2,2,0,-10,-11,-2,-2
1537912665274422,-6,-6,-3,-5,1,17,3,-2
1537912665274422,-1,-3,-4,-3,0,-9,-3,-1
1537912665290379,0,-5,-4,-7,9,12,2,0
1537912665290379,-1,3,2,4,-8,-11,-4,-4
1537912665296363,1,-3,4,0,8,11,8,4
1537912665296363,-4,-7,-6,-10,-6,27,11,-3
1537912665312321,-1,-2,-7,-7,-4,0,0,0
1537912665312321,1,1,2,-1,2,-6,-5,-1
1537912665313318,1,2,2,4,-4,-8,-4,-1
1537912665313318,2,3,5,13,-7,-20,-9,-1
1537912665328278,-2,-4,-1,5,11,14,9,2
1537912665328278,0,2,4,-10,1,10,2,1
1537912665334262,1,0,0,2,-14,-18,-8,-1
1537912665334262,-2,-2,-9,4,0,-5,-2,2
1537912665349222,-1,-1,-1,1,0,-18,-10,-7
1537912665349222,-1,-1,-5,-4,5,9,7,3
1537912665356203,-3,-5,-2,-9,9,12,3,0
1537912665356203,3,-1,5,4,-8,-15,-8,-1
1537912665372161,1,3,3,0,2,22,8,3
1537912665372161,-5,-4,2,-6,1,-7,1,-3
1537912665373158,-1,1,-3,-11,-6,-7,-1,0
1537912665373158,5,3,-4,5,-8,-9,-4,1
1537912665388118,-1,-5,-6,17,-6,-18,-7,-3
1537912665388118,1,-3,-2,4,11,22,10,3
1537912665394102,-3,0,-2,-6,-2,-10,0,-1
1537912665394102,-7,-2,-2,-12,7,6,-2,-3
1537912665409062,1,3,2,-9,-9,0,-1,1
1537912665409062,1,6,10,9,-22,-37,-11,-2
1537912665416044,-2,-5,-4,4,26,23,-1,-4
1537912665416044,-2,0,3,3,-15,12,14,4
1537912665432001,-3,-5,-5,-14,4,3,2,1
1537912665432001,3,-1,-9,5,-1,-7,-4,1
1537912665432998,0,2,9,11,-35,-52,-17,-3
1537912665432998,2,1,4,3,-3,7,2,2
1537912665447958,-3,-7,7,-1,-2,4,-2,0
1537912665447958,-2,11,-14,-20,14,9,-4,-4
1537912665453942,6,7,3,11,-5,-14,-4,-1
1537912665453942,8,0,8,8,37,22,15,12
1537912665468902,-4,-10,-12,-6,-12,-9,-4,-1
1537912665468902,2,-1,7,3,13,11,7,7
1537912665476881,-5,1,4,11,-24,-28,-19,-10
1537912665476881,-5,24,8,-7,1,4,-3,-11
1537912665491841,4,-12,-1,0,-2,-3,0,3
1537912665491841,-3,-17,-26,-9,-8,19,9,-1
1537912665492838,0,-5,-10,-12,-4,17,5,3
1537912665492838,-4,-6,-2,-2,19,4,-2,-2
1537912665507799,4,20,24,12,3,-10,-4,1
1537912665507799,-7,-7,-7,-1,4,3,-2,-3
1537912665513782,-5,-4,3,6,-10,-4,8,-1
1537912665513782,5,0,-2,-8,-5,-7,-3,0
1537912665528743,-1,7,7,8,-6,-5,-4,-2
1537912665528743,-2,-3,11,15,5,-3,-2,-2
1537912665536721,-6,-4,8,-16,10,22,9,1
1537912665536721,-5,-10,-22,-7,25,-1,-10,-7
1537912665551683,-2,-3,-13,2,-28,-4,-4,-6
1537912665551683,-2,-10,-3,0,-25,-12,4,3
1537912665552680,0,0,-5,0,18,-15,-5,-3
1537912665552680,-2,-11,8,-14,-19,23,6,2
1537912665567640,2,14,8,10,29,12,13,3
1537912665567640,-10,5,1,-14,-50,-43,-27,-14
1537912665573624,6,-2,-5,0,5,23,13,9
1537912665573624,-2,-12,-20,-17,9,-5,-4,-4
1537912665589581,8,5,7,7,22,14,9,2
1537912665589581,-5,2,17,10,-16,-5,-2,-4
1537912665596562,0,19,0,1,16,34,2,1
1537912665596562,2,-14,6,11,-27,-32,-9,-5
1537912665611521,-1,-15,-41,-16,8,13,6,1
1537912665611521,4,-1,2,5,16,13,0,-1
1537912665619500,3,3,8,9,5,4,3,3
1537912665619500,-7,4,10,7,-13,-27,-3,1
1537912665627478,-3,1,11,1,42,-14,-7,-6
1537912665627478,-6,-9,-15,-21,-75,0,8,-7
1537912665634460,1,-5,-11,-13,0,-5,0,4
1537912665634460,2,3,-2,-1,35,53,16,0
1537912665649420,-7,-1,8,2,-29,-32,-17,-6
1537912665649420,11,6,3,4,36,36,1,12
1537912665656401,16,11,23,6,34,7,21,15
1537912665656401,-10,-3,-10,-8,-31,-45,-18,-11
1537912665671361,-1,-5,-29,-9,-16,-10,-8,-3
1537912665671361,-6,-14,-6,34,55,30,9,-2
1537912665679340,-2,5,14,-6,-50,-21,-7,-8
1537912665679340,-5,-6,-6,-20,1,-13,-11,-1
1537912665688316,9,14,16,5,-22,12,-4,1
1537912665688316,15,22,17,6,43,16,9,7
1537912665694300,-14,-26,-20,-11,-78,-76,-23,-16
1537912665694300,-2,1,7,4,0,50,4,2
1537912665709261,-12,7,-11,-35,-22,-9,-10,-3
1537912665709261,0,-25,-8,-14,-15,-17,-8,-1
1537912665716242,14,11,2,30,-2,34,16,7
1537912665716242,-5,-11,-16,7,59,4,-2,0
1537912665731203,9,3,6,1,-35,-54,-5,7
1537912665731203,-11,3,-10,-19,23,15,-2,-6
1537912665739181,2,1,0,-1,-9,2,-6,-6
1537912665739181,3,0,6,19,18,5,9,-1
1537912665748158,0,-6,4,4,-24,28,13,2
1537912665748158,-8,4,-1,-19,-23,-30,-7,-4
1537912665754142,-6,-10,-4,3,11,19,-4,-5
1537912665754142,2,11,7,18,4,-6,0,-8
1537912665769101,-12,-14,-4,5,47,9,10,-1
1537912665769101,20,12,21,-22,-26,-23,-6,24
1537912665777081,2,-11,-45,-8,-7,6,-5,-7
1537912665777081,17,18,21,21,12,-5,18,15
1537912665791043,-21,-17,-6,-8,-2,29,-9,-24
1537912665791043,-19,-11,-14,-8,-12,-15,-10,-12
1537912665799020,-10,-1,10,1,25,7,-8,-2
1537912665799020,22,21,16,6,25,36,11,9
1537912665814977,-2,-12,-27,1,-25,-81,-12,-4
1537912665814977,7,6,20,23,-1,-3,-2,7
1537912665814977,2,-4,1,-15,1,40,14,15
1537912665814977,-19,-7,-7,-19,-10,-33,-16,-21
1537912665828940,-3,0,18,34,39,15,2,5
1537912665828940,-17,-12,-20,-29,-64,-88,-43,-28
1537912665836919,7,3,2,-16,-1,4,7,9
1537912665836919,-4,-15,-34,-47,-66,13,15,-1
1537912665851878,15,23,5,-12,24,58,10,14
1537912665851878,7,-2,30,58,19,6,19,-2
1537912665858860,-18,-8,-7,2,30,-18,-6,-10
1537912665858860,10,1,12,12,-5,-7,1,13
1537912665874817,-14,2,18,-18,-14,-2,-4,-7
1537912665874817,3,2,-33,17,41,57,10,-5
1537912665875815,10,6,-24,2,-52,15,12,4
1537912665875815,-6,-15,-1,-3,-33,-29,-16,4
1537912665888780,7,-3,-9,-12,2,50,5,4
1537912665888780,-7,10,20,-17,-11,-35,-11,-6
1537912665896758,8,7,19,9,34,37,15,12
1537912665896758,-10,-6,-19,0,-12,-9,-9,-9
1537912665911719,0,-1,17,15,12,-20,-2,0
1537912665911719,-7,-3,4,-16,-4,-7,-21,-5
1537912665918700,2,4,-11,-7,-9,-28,-9,-7
1537912665918700,8,-1,-10,2,32,14,10,12
1537912665934658,-12,-12,-3,-3,-18,-64,-23,-16
1537912665934658,-2,-8,-13,6,44,50,19,0
1537912665935655,2,5,21,5,-12,-7,-1,4
1537912665935655,-5,1,3,-12,-68,-92,-27,-8
1537912665948620,10,1,-8,-20,-4,32,20,11
1537912665948620,-7,-3,1,3,0,1,-7,-8
1537912665956598,-7,1,-3,0,32,-3,-8,-4
1537912665956598,5,-7,-4,24,10,62,17,1
1537912665971559,-6,-17,-15,-1,-11,4,3,-8
1537912665971559,8,5,-10,-14,22,-12,-4,15
1537912665979537,4,5,24,15,19,-4,-2,4
1537912665979537,-12,-3,-8,10,-24,17,0,-6
1537912665994497,0,-8,-20,-29,-15,-52,-17,-4
1537912665994497,9,0,4,-1,21,58,20,7
1537912665995496,4,9,12,-2,-33,-58,-10,-3
1537912665995496,-8,6,11,-2,5,2,2,-3
1537912666009457,-4,-8,-4,28,23,1,-18,-8
1537912666009457,13,15,9,-7,-35,-10,10,8
1537912666016438,-5,-13,-11,-6,67,27,19,5
1537912666016438,-4,-5,4,-11,-38,-17,-20,-9
1537912666031399,3,13,4,-4,4,43,14,7
1537912666031399,-3,-2,-12,7,1,-10,-11,-10
1537912666039377,-4,-8,-3,1,-15,-11,-8,-12
1537912666039377,-2,-6,-6,-15,15,16,12,6
1537912666056332,3,-7,5,12,6,17,9,3
1537912666056332,1,10,4,10,1,10,8,7
1537912666056332,-11,-13,-23,0,-27,3,-12,-7
1537912666056332,6,3,-2,1,16,0,-1,1
1537912666069297,12,10,4,-7,29,23,14,12
1537912666069297,-2,-6,10,-1,-17,-39,1,0
1537912666076278,-2,9,12,11,2,-1,-15,-2
1537912666076278,-6,-10,-15,-5,56,6,-11,-9
1537912666091238,0,8,19,1,-41,-46,-9,-8
1537912666091238,11,3,-1,-4,-6,13,10,8
1537912666107196,1,-11,-28,-6,15,16,7,4
1537912666107196,2,2,15,21,28,21,6,8
1537912666114177,-1,4,-2,-1,30,-1,-4,-6
1537912666114177,-6,-3,1,-4,15,21,-1,-9
1537912666115175,-2,16,8,-7,-18,-38,-15,-3
1537912666115175,2,-13,-2,-3,-2,4,3,1
1537912666129138,-7,-8,-13,2,-10,-1,-4,-3
1537912666129138,-1,-12,-14,-3,8,-2,-8,-1
1537912666136119,0,5,18,7,-8,-23,-4,-3
1537912666136119,0,9,4,-2,4,2,-2,-2
1537912666151079,3,2,6,0,-18,-11,-4,-2
1537912666151079,0,4,-1,6,8,21,12,2
1537912666159057,-10,-14,-16,-17,-9,12,-4,-13
1537912666159057,-1,4,4,-5,1,-11,0,2
1537912666175015,4,-3,-1,3,-14,-2,0,4
1537912666175015,-7,-3,-9,-9,-24,-36,-5,-5
1537912666175015,6,-1,5,0,13,13,7,4
1537912666175015,0,1,2,-1,-17,-12,-1,0
1537912666188977,1,2,0,3,41,38,11,4
1537912666188977,0,-2,-4,-5,-70,-37,-3,-1
1537912666196956,-4,-6,0,-1,18,0,1,-4
1537912666196956,1,2,-1,2,24,6,-10,-3
1537912666211917,1,1,-2,-4,-17,-11,3,2
1537912666211917,-2,3,11,3,12,6,-3,-4
1537912666218897,-4,-6,-2,-5,1,15,2,-1
1537912666218897,0,-5,-4,12,-15,-16,-3,-1
1537912666234855,-7,-2,2,-6,-2,-3,-6,-4
1537912666234855,3,-9,-27,-5,3,4,0,1
1537912666234855,4,2,-4,-9,4,11,8,5
1537912666234855,-2,3,9,-1,-12,-6,1,-1
1537912666248817,-1,2,5,1,11,5,-3,-1
1537912666248817,-5,2,9,-1,4,6,-3,-2
1537912666256796,-1,-6,-4,-3,-10,-14,-7,-2
1537912666256796,4,6,-1,-6,-10,0,5,0
1537912666271756,-2,-5,-1,7,1,11,-3,-2
1537912666271756,0,3,2,-1,-2,-17,-8,-2
1537912666278738,0,-3,-5,-3,14,7,-5,-6
1537912666278738,-2,-3,-3,-6,-18,-6,3,-2
1537912666294695,-2,3,3,12,1,2,-11,-10
1537912666294695,0,-4,-1,-3,15,12,7,3
1537912666295692,-9,-8,-3,2,-12,-6,-6,-7
1537912666295692,8,4,1,-5,-12,-3,-1,9
1537912666308658,4,4,4,-1,-8,-4,12,8
1537912666308658,-5,11,0,8,5,-1,-11,-14
1537912666316636,-10,-22,-13,-9,0,1,5,-2
1537912666316636,5,0,-3,-2,6,3,-11,-5
1537912666331596,1,-7,-12,-5,-3,-3,12,5
1537912666331596,1,-2,4,3,7,8,0,6
1537912666338578,-2,7,3,0,-3,-2,1,-2
1537912666338578,-5,0,0,-1,2,-1,-1,-4
1537912666354535,2,-2,2,-2,-12,-5,1,2
1537912666354535,0,0,-1,0,-7,-3,-1,2
1537912666355533,3,2,3,0,6,16,4,1
1537912666355533,-1,-3,0,-2,1,-1,0,-1
1537912666369495,3,6,1,0,-6,0,-4,0
1537912666369495,-2,-6,-4,-1,4,4,3,-1
1537912666376476,1,2,1,-1,-6,-2,1,1
1537912666376476,-4,-4,-1,-1,-7,-9,-5,-5
1537912666391437,-4,-2,-3,-2,-1,-4,-5,-4
1537912666391437,2,-1,1,2,4,9,7,6
1537912666399415,5,2,1,1,-2,-12,-5,1
1537912666399415,-4,0,-2,-1,7,8,4,-3
1537912666414375,1,-2,-4,-5,-18,-11,-5,0
1537912666414375,0,-3,1,1,6,6,4,1
1537912666415373,0,0,1,-2,-6,-8,-2,-1
1537912666415373,-2,1,-2,-1,2,4,1,-3
1537912666429335,-1,-3,-3,0,9,7,1,-1
1537912666429335,0,-4,-3,-5,-3,-20,-8,2
1537912666436316,1,4,4,3,-1,7,7,-1
1537912666436316,-4,0,-1,-1,9,-2,-9,-7
1537912666451276,-1,-1,-2,0,0,-2,2,-2
1537912666451276,-4,-2,-2,0,3,4,-1,-5
1537912666459255,1,0,4,0,3,1,-1,2
1537912666459255,0,-3,-5,-3,-6,-17,-1,1
1537912666474215,0,-3,-8,1,2,4,2,0
1537912666474215,-2,-5,-4,-6,-5,-1,1,-5
1537912666475212,-1,-1,1,2,-7,-13,-4,0
1537912666475212,-2,1,4,0,5,24,10,3
1537912666489175,-2,0,-1,-1,0,-6,-9,-5
1537912666489175,-5,-3,-3,-3,-4,-6,-4,-4
1537912666496156,2,0,1,-1,3,11,0,0
1537912666496156,-4,0,-1,-1,-15,-18,-4,-2
1537912666511116,-2,-1,-2,-4,-3,-1,4,1
1537912666511116,-3,-1,-2,0,16,15,2,-4
1537912666519095,2,0,-1,0,-3,-17,-5,-1
1537912666519095,0,1,2,0,-8,0,-5,-5
1537912666543031,0,-2,-4,-3,-14,-5,3,1
1537912666543031,1,3,5,2,2,-13,-17,-3
1537912666544028,-2,-1,-3,-4,-19,9,7,3
1537912666544028,-1,-3,-3,-2,-4,-12,-7,-3
1537912666549015,-3,-2,-1,0,4,-9,-3,-4
1537912666549015,2,0,-1,0,0,8,-4,2
1537912666555996,-3,-3,-4,-3,3,-4,-3,-3
1537912666555996,1,3,1,3,-4,4,8,3
1537912666570956,-2,-1,2,-1,3,2,1,-1
1537912666570956,0,-1,-5,-1,-4,5,9,5
1537912666578935,-1,-1,0,-1,1,-5,-7,-1
1537912666578935,0,0,-1,-3,1,6,5,2
1537912666593895,0,-1,1,2,3,-2,-7,-1
1537912666593895,3,2,2,3,3,5,9,4
1537912666601874,-2,-1,-1,-2,2,5,0,-2
1537912666601874,-2,6,-3,0,6,-2,-1,0
1537912666608855,-1,-6,-5,-7,-22,-2,3,3
1537912666608855,-2,-4,0,-3,-5,-2,1,-1
1537912666616834,6,2,1,6,8,11,8,6
1537912666616834,0,-2,0,-3,-1,-5,-3,1
1537912666631793,-1,2,1,0,3,2,-2,-2
1537912666631793,-3,2,0,2,-5,-8,-1,-4
1537912666638775,-3,-4,-2,0,7,13,3,-3
1537912666638775,-4,-5,-5,-5,-10,-21,-17,-5
1537912666653735,4,4,4,4,7,4,-1,2
1537912666653735,-1,-5,-4,-6,-18,-1,-2,-3
1537912666661713,-1,0,-4,-2,-1,-4,1,1
1537912666661713,1,-1,0,2,3,8,12,15
1537912666668695,-4,-2,-2,-4,1,2,-6,-11
1537912666668695,-3,1,1,2,-3,-15,-8,-11
1537912666676673,-2,-2,-3,-2,0,-5,3,1
1537912666676673,2,-2,0,-6,-14,-1,3,-1
1537912666691634,3,0,2,1,-2,-4,1,8
1537912666691634,5,3,2,4,20,13,6,8
1537912666698615,-3,1,1,2,-4,-12,-6,-8
1537912666698615,-2,-3,-1,1,5,4,5,0
1537912666713575,6,2,1,0,4,10,0,5
1537912666713575,2,-1,-2,0,6,11,4,1
1537912666722551,-5,-4,-5,-8,-16,-16,-1,-2
1537912666722551,-1,-3,0,0,-8,-11,-7,-6
1537912666737511,-1,0,0,-2,-3,-1,-1,-2
1537912666737511,-2,-3,-4,-5,-2,-4,3,-1
1537912666737511,0,0,1,2,-2,-5,-5,4
1537912666737511,-5,-3,-2,-1,5,7,-7,-9
1537912666751473,-1,-1,-3,-3,-3,9,6,1
1537912666751473,0,0,5,4,5,-17,-8,3
1537912666758455,6,2,3,0,2,11,8,2
1537912666758455,3,1,0,2,-2,-3,3,6
1537912666774412,-3,-1,1,1,3,-12,-11,-8
1537912666774412,-1,-1,-3,-1,2,7,5,1
1537912666782391,-3,-3,-1,-1,0,1,-4,-4
1537912666782391,2,0,-1,-2,-4,-11,-1,2
1537912666797351,0,1,-1,0,5,3,-2,-2
1537912666797351,-3,-3,-2,-1,-2,3,-4,-6
1537912666797351,-3,-2,-2,-2,1,-5,0,-1
1537912666797351,0,-1,-2,-3,-7,-3,3,1
1537912666811314,0,-1,1,1,8,10,0,-7
1537912666811314,0,0,-2,-3,-9,-4,3,1
1537912666819292,-3,-4,-3,-3,-4,-7,-8,-3
1537912666819292,-2,1,4,5,4,-17,-11,-3
1537912666834252,0,-1,-3,-4,-4,2,9,0
1537912666834252,3,0,1,2,2,9,4,5
1537912666842231,0,-1,0,1,4,10,0,-1
1537912666842231,2,0,1,3,14,3,2,2
1537912666857191,-3,-2,-2,0,-11,-14,-6,1
1537912666857191,0,2,1,1,6,9,2,-2
1537912666858188,2,1,-2,-2,5,7,-2,0
1537912666858188,-6,-3,-1,-2,2,1,-1,-8
1537912666871154,0,-3,0,-1,2,0,0,1
1537912666871154,-2,-1,0,0,6,-7,2,3
1537912666879132,1,1,0,2,8,-2,-1,1
1537912666879132,-6,-2,-3,-3,3,25,-2,-8
1537912666894092,-3,-5,-5,-10,-8,-14,-3,-3
1537912666894092,3,0,1,-1,-4,-4,-7,3
1537912666902071,-1,2,-3,0,-5,-8,-1,0
1537912666902071,4,0,-1,1,13,30,19,9
1537912666917031,-3,-2,0,1,-9,-36,-5,6
1537912666917031,-6,-5,-3,-8,-6,16,0,-14
1537912666918029,6,4,2,-1,-3,-8,-5,-1
1537912666918029,2,3,1,3,5,-1,3,1
1537912666930994,1,-1,0,3,10,11,8,5
1537912666930994,-8,-6,-3,-3,-25,-12,-7,-6
1537912666938973,4,0,1,2,-1,-9,-5,5
1537912666938973,-3,-5,-4,-6,-2,11,2,-8
1537912666953932,-4,-3,-2,-5,-6,-5,1,1
1537912666953932,3,3,2,3,5,-4,4,7
1537912666961911,-5,-3,2,1,-1,7,-6,-8
1537912666961911,1,1,-1,1,-1,12,4,2
1537912666976871,-6,-1,0,3,16,10,4,-5
1537912666976871,-4,-3,-3,-3,-17,-9,0,1
1537912666977869,-5,-2,0,-1,2,4,-11,-2
1537912666977869,5,2,2,2,-1,-2,-6,-6
1537912666991831,-6,-1,-2,-5,1,10,7,-4
1537912666991831,4,1,1,1,0,-13,-7,2
1537912666999810,-3,0,0,2,-3,-8,0,-1
1537912666999810,-2,-3,-1,2,6,4,-9,-9
1537912667013772,0,-4,-5,-7,-11,-25,-11,5
1537912667013772,6,2,1,1,5,7,10,11
1537912667021751,-9,-3,-2,-2,6,2,-4,-20
1537912667021751,-7,-3,-2,-4,-5,7,0,-4
1537912667036711,-1,-2,-1,7,20,9,2,-3
1537912667036711,-2,-3,-2,-5,-10,1,8,8
1537912667037709,4,-1,-4,-6,6,-11,-21,3
1537912667037709,-2,2,2,3,-3,-17,1,3
1537912667051671,6,-2,0,0,-6,-9,-6,10
1537912667051671,-3,0,0,9,34,37,33,15
1537912667059650,1,0,1,1,-2,1,-8,-9
1537912667059650,4,1,2,-1,-2,5,-4,-12
1537912667073613,1,-1,-3,-5,-6,-4,-8,-3
1537912667073613,0,1,-1,1,5,0,-1,-7
1537912667082589,-7,-6,-5,-5,-16,30,31,11
1537912667082589,2,-4,-5,-9,-11,-44,-16,15
1537912667097551,-4,4,6,7,9,18,-6,-23
1537912667097551,1,2,0,-3,-12,-25,-16,-1
1537912667097551,-2,-4,-5,-5,5,-5,5,1
1537912667097551,-11,-6,-4,-4,-1,7,-11,-12
1537912667111512,-6,-6,-5,-4,-8,12,5,0
1537912667111512,3,-1,0,-5,-7,-73,-37,5
1537912667119492,11,5,3,7,0,12,17,8
1537912667119492,8,3,1,1,2,6,9,12
1537912667134451,-18,-5,-1,4,2,41,20,-17
1537912667134451,8,7,3,-1,3,17,-19,-21
1537912667142430,12,1,-1,0,2,3,8,21
1537912667142430,-6,-2,-2,1,-4,-3,12,-1
1537912667157391,-4,-4,-3,-5,-5,-35,-2,7
1537912667157391,9,5,3,1,-1,35,10,15
1537912667158387,-9,-7,-4,-5,-8,6,-3,-14
1537912667158387,5,4,1,3,-2,-28,-16,-1
1537912667171352,4,1,-2,-4,4,-9,-8,0
1537912667171352,-13,-8,-4,0,1,12,7,-13
1537912667179331,-3,-2,1,11,-5,13,21,-9
1537912667179331,-20,-7,-6,-24,-40,-67,-36,-11
1537912667194290,26,14,8,7,4,21,-2,22
1537912667194290,-8,-10,-11,-7,6,-10,-13,-18
1537912667202271,-9,3,7,14,-8,47,41,0
1537912667202271,31,15,9,12,23,28,49,35
1537912667217229,8,4,1,1,-9,7,-10,-6
1537912667217229,-12,-4,-4,4,10,-5,19,-7
1537912667218227,-25,-9,-2,3,-5,18,6,-32
1537912667218227,21,8,4,-8,3,15,-22,31
1537912667231193,14,9,6,10,13,-41,27,27
1537912667231193,24,4,1,10,27,66,9,24
1537912667239170,-24,-14,-15,-36,-43,-83,-71,-20
1537912667239170,-2,-1,-6,-6,4,29,43,-11
1537912667254130,-8,-5,-2,-2,4,17,11,-12
1537912667254130,-29,-13,-6,-1,14,2,-10,-33
1537912667262110,3,-1,-4,-5,24,-56,-24,-1
1537912667262110,-15,-9,-3,1,-43,-76,-25,-11
1537912667277069,-17,-7,-2,-7,-49,32,3,-17
1537912667277069,-55,-14,-5,1,-6,-6,-31,-74
1537912667278067,73,27,14,2,18,-35,8,93
1537912667278067,7,1,1,-2,2,-26,9,24
1537912667291032,5,10,6,6,-11,-71,-49,-7
1537912667291032,52,18,5,-19,-78,-13,41,70
1537912667300008,-53,-20,-7,26,72,111,41,-86
1537912667300008,1,0,3,3,31,66,-23,24
1537912667313971,37,19,11,19,28,55,3,19
1537912667313971,-29,-14,-9,-13,4,67,-4,-24
1537912667321949,3,7,1,-4,-24,14,-28,-3
1537912667321949,8,-2,-4,9,28,95,69,-1
1537912667336910,-31,-16,-5,15,54,19,2,1
1537912667336910,41,26,22,18,42,-1,-31,34
1537912667337907,-1,-5,-11,-19,-12,-7,2,-7
1537912667337907,-56,-22,-6,10,-7,62,-24,-81
1537912667351870,37,13,3,-7,-5,-66,-41,41
1537912667351870,9,-3,-7,-24,-60,-40,29,7
1537912667359848,-14,0,4,10,35,51,24,7
1537912667359848,47,21,13,11,0,-35,-9,34
1537912667374809,-37,-22,-15,-16,33,61,17,-43
1537912667374809,-48,-18,-3,34,43,100,24,-68
1537912667381790,-7,0,-5,-21,-6,-64,-85,-2
1537912667381790,74,28,11,6,32,-9,-5,64
1537912667396750,-25,-19,-17,-20,-81,42,22,-32
1537912667396750,-13,-11,-12,-22,-35,-32,-21,-25
1537912667397747,7,-2,-3,-15,-46,-44,13,32
1537912667397747,-61,-15,-7,9,26,-9,9,-48
1537912667411711,5,-1,3,12,5,-3,-66,-25
1537912667411711,50,17,8,4,16,-4,63,77
1537912667419688,-95,-32,-8,17,14,23,2,-101
1537912667419688,85,26,4,-48,-81,-96,-16,114
1537912667433651,30,14,10,25,-2,113,68,22
1537912667433651,-87,-44,-27,-27,-4,-128,-120,-63
1537912667442626,56,23,4,-14,1,-13,48,71
1537912667442626,-21,-13,0,56,127,107,39,-45
1537912667456589,-52,-32,-20,-21,1,6,-83,9
1537912667456589,85,41,13,-52,-36,98,49,30
1537912667464568,-90,-33,-13,18,-10,9,-43,-99
1537912667464568,29,6,0,-25,13,-23,-9,91
1537912667480525,-19,0,3,15,-82,-53,-3,-37
1537912667480525,7,-3,-5,-7,2,-20,-41,41
1537912667481522,24,8,5,-6,19,36,-2,-1
1537912667481522,-29,-8,-5,-12,-60,7,-7,-70
1537912667493490,18,9,7,15,34,53,55,45
1537912667493490,-36,1,12,48,-16,49,46,-61
1537912667502466,84,16,1,-14,-37,-89,-7,127
1537912667502466,-36,-3,-3,-2,-43,10,-67,-94
1537912667516429,18,1,-1,-8,41,56,14,23
1537912667516429,-3,6,11,48,20,44,26,-42
1537912667525405,4,-5,-6,-20,35,-36,-34,28
1537912667525405,-20,-13,-11,-24,-57,-32,-15,-15
1537912667531389,-28,-5,-2,-9,42,11,18,-46
1537912667531389,9,13,11,14,-29,-14,31,54
1537912667540365,48,9,8,41,-8,-20,-47,15
1537912667540365,-6,-2,-3,-29,-100,-113,-54,15
1537912667554327,-3,7,1,-6,-10,-31,47,-25
1537912667554327,2,-7,-9,-23,-42,-27,-18,16
1537912667563303,23,12,5,4,29,12,39,39
1537912667563303,-47,-17,-4,38,101,20,62,-40
1537912667576269,42,18,10,-15,-12,-123,-108,35
1537912667576269,-5,-5,-2,13,25,-13,5,-10
1537912667585245,-39,-12,-6,1,-45,56,12,-49
1537912667585245,-17,-5,-1,9,-23,-5,12,-35
1537912667591229,29,6,5,27,35,64,62,76
1537912667591229,11,0,-11,-30,0,-108,-40,12
1537912667600205,20,11,8,10,-26,55,33,-18
1537912667600205,-67,-29,-18,-37,-45,-19,4,-6
1537912667614168,40,13,10,12,41,4,-12,1
1537912667614168,-27,-11,-6,-1,16,9,-20,-51
1537912667623144,-20,-9,-5,-11,-23,84,55,8
1537912667623144,57,21,15,29,46,41,30,49
1537912667636109,-30,-12,-10,-19,-20,41,39,-24
1537912667636109,17,3,-2,-7,19,-20,-35,31
1537912667645086,-72,-27,-17,-24,-8,-35,-56,-105
1537912667645086,56,20,13,23,34,45,45,50
1537912667660045,-14,-3,-8,-25,1,-67,-59,-57
1537912667660045,28,9,2,4,34,50,48,45
1537912667662040,-42,-13,-6,1,-19,-91,-33,-45
1537912667662040,6,-2,-4,-1,71,55,-2,24
1537912667674008,2,8,3,-1,-14,-65,-20,12
1537912667674008,-29,-16,-5,0,-4,-21,-34,-45
1537912667682984,27,15,9,-2,-1,85,84,53
1537912667682984,7,7,10,22,42,51,6,-5
1537912667696946,33,7,-2,-5,-8,-15,9,31
1537912667696946,-19,-9,-7,-5,52,87,14,11
1537912667704925,33,15,12,20,48,-26,5,27
1537912667704925,-26,-13,-14,-24,-13,10,-16,-46
1537912667719886,-39,-15,-3,3,-49,-46,-31,-40
1537912667719886,17,6,4,10,14,-13,23,29
1537912667721881,-8,-11,-9,-29,-67,-4,-9,-2
1537912667721881,20,11,2,-10,-51,-38,-25,23
1537912667733849,-27,-13,-7,2,17,49,26,-20
1537912667733849,45,21,8,-6,-19,13,1,60
1537912667742825,-7,1,2,6,3,17,-3,-33
1537912667742825,-30,-14,-7,-5,-9,-55,-44,-34
1537912667756787,-4,1,1,5,7,44,27,-13
1537912667756787,-7,-6,2,2,0,-50,-9,-10
1537912667765764,-9,1,0,5,26,-30,-19,-21
1537912667765764,6,-6,-10,-30,-89,5,-4,17
1537912667780724,-4,0,-5,-9,18,-7,-16,-21
1537912667780724,-32,-14,-2,24,42,87,35,-14
1537912667781722,50,28,15,2,-9,-74,-38,53
1537912667781722,-14,-4,-3,4,-19,13,7,-23
1537912667793689,-8,-4,-1,9,-35,-7,-1,-1
1537912667793689,-2,-5,-6,-16,-49,5,-9,3
1537912667802664,15,7,3,-2,14,72,24,0
1537912667802664,-28,-8,-2,10,52,32,-17,-46
1537912667816628,8,2,0,-2,-11,-27,19,15
1537912667816628,8,2,2,3,2,-8,15,23
1537912667825604,1,2,2,4,4,-5,0,5
1537912667825604,-3,-6,-4,-1,-3,37,22,6
1537912667840564,-1,-6,-9,-39,-74,-71,-63,-5
1537912667840564,-8,-2,-3,-6,-20,-17,-25,-39
1537912667841561,2,-4,-4,0,29,25,9,7
1537912667841561,1,2,1,4,10,-6,2,-7
1537912667853528,-6,-2,3,9,22,45,33,10
1537912667853528,-8,-8,-5,-3,-19,-62,-4,25
1537912667862505,19,2,-2,-2,26,69,-9,-2
1537912667862505,1,1,2,1,3,-10,-6,-12
1537912667876466,-2,-4,-2,-5,13,17,1,10
1537912667876466,-28,-9,-7,-4,-25,26,4,-33
1537912667885443,27,6,3,9,0,-1,48,53
1537912667885443,3,0,0,-3,-10,-43,-9,-5
1537912667900402,-17,-7,-5,-10,0,-4,-15,-43
1537912667900402,-2,-1,-2,-1,14,7,-8,-30
1537912667901400,-15,-7,-7,-3,-6,-13,-8,-4
1537912667901400,10,4,3,6,28,14,9,28
1537912667914365,6,2,1,6,5,2,26,18
1537912667914365,12,6,4,-7,-5,6,32,26
1537912667929325,-3,-2,-2,-11,-15,-44,-39,11
1537912667929325,-4,-4,-3,3,21,17,-7,-17
1537912667936306,-8,1,-1,-1,5,-3,-16,-22
1537912667936306,16,4,1,1,3,-11,8,17
1537912667945282,-12,-6,-2,-4,-7,-18,7,-8
1537912667945282,-3,-2,-1,4,3,24,14,7
1537912667960242,0,-2,2,6,22,29,17,20
1537912667960242,4,2,2,0,-2,6,-5,17
1537912667962237,-12,-5,-1,3,-29,-32,-1,-40
1537912667962237,-16,-8,-6,-9,-21,20,-3,-17
1537912667974205,19,8,6,10,11,46,2,6
1537912667974205,0,3,0,0,21,7,-6,-8
1537912667983181,9,2,-1,0,3,25,29,28
1537912667983181,-1,-1,2,5,20,11,7,-8
1537912667996146,-11,-6,-5,-3,0,-6,2,-6
1537912667996146,0,-3,-1,1,-5,11,8,-1
1537912668005122,3,-1,0,-1,-22,-4,5,9
1537912668005122,2,1,0,-2,3,-3,0,2
1537912668020082,1,-3,0,-1,-4,-3,4,10
1537912668020082,0,-2,-2,1,-7,-18,-21,-18
1537912668022077,-1,0,-1,-1,6,2,4,21
1537912668022077,8,2,0,-2,-23,-22,3,13
1537912668034045,-15,-7,-4,-7,-12,-23,-18,-36
1537912668034045,-2,0,-1,-2,-13,-14,-6,-8
1537912668043021,-3,-2,-1,-2,7,2,-8,-10
1537912668043021,8,2,0,1,-3,-1,15,26
1537912668055986,-1,-2,-2,-1,-12,3,16,7
1537912668055986,-4,-2,2,-1,5,23,-8,1
1537912668064962,7,-1,-3,-1,7,15,-12,-5
1537912668064962,-10,-5,-3,-5,-25,-38,-29,-12
1537912668079922,2,2,0,-2,-6,-18,-2,-7
1537912668079922,-7,-3,-4,0,-1,-7,-11,-19
1537912668081917,-6,-4,0,3,6,-12,-8,-8
1537912668081917,1,1,2,-1,-4,-1,4,2
1537912668093885,1,-1,-2,2,0,9,11,14
1537912668093885,2,0,-3,-2,-6,-10,-5,0
1537912668102861,-4,-3,0,1,8,17,4,-8
1537912668102861,1,2,0,2,3,2,0,-3
1537912668116824,2,1,-1,-2,-1,-2,1,12
1537912668116824,2,-2,0,-1,2,-3,-2,-4
1537912668125800,7,2,-2,-2,3,-4,10,26
1537912668125800,-13,-6,-4,-2,0,-3,-23,-53
1537912668140760,2,1,2,1,8,1,-6,8
1537912668140760,-2,-1,-2,0,-9,-13,-2,-6
1537912668141757,-1,0,0,-1,-6,-4,-9,-9
1537912668141757,5,1,-1,-1,5,6,10,18
1537912668153725,0,0,0,2,4,14,11,6
1537912668153725,-2,-2,-1,1,6,-3,3,-1
1537912668162701,-1,-2,1,2,15,22,14,6
1537912668162701,3,2,1,0,-2,-9,-17,-6
1537912668176664,0,-2,-1,-2,-2,-10,-4,-4
1537912668176664,1,0,0,-2,0,1,-2,0
1537912668185640,-8,-1,-3,1,-1,-8,-8,-13
1537912668185640,1,1,-2,0,-2,-3,7,7
1537912668200600,1,0,0,2,9,23,13,14
1537912668200600,0,2,1,1,2,-3,-5,-10
1537912668201597,-3,0,-2,-1,0,0,-2,0
1537912668201597,2,-3,0,0,0,1,6,3
1537912668213565,12,2,3,6,12,25,45,51
1537912668213565,-16,-5,-1,-10,-17,-61,-71,-60
1537912668222541,-8,-3,-3,-2,3,0,-3,-17
1537912668222541,4,-1,-3,-2,1,2,3,8
1537912668236504,0,1,-1,-1,-6,-20,-7,-1
1537912668236504,6,0,0,1,5,18,28,27
1537912668245480,1,-1,2,-1,-5,-3,-6,-3
1537912668245480,-1,-1,0,-1,-6,-8,-1,5
1537912668260440,-3,-3,-1,-4,-2,2,-4,-7
1537912668260440,2,0,-2,1,-4,10,7,8
1537912668261437,0,-1,-1,-1,-2,-3,0,4
1537912668261437,-1,0,-1,1,-1,6,7,7
1537912668274402,-5,-2,-2,-4,-13,-19,-21,-23
1537912668274402,4,-1,-1,3,23,33,18,20
1537912668282381,-12,-5,-3,-1,-6,-16,-11,-21
1537912668282381,4,1,1,0,2,-7,7,3
1537912668296344,3,1,-2,-1,1,-3,-7,5
1537912668296344,0,-1,-1,-1,-8,-13,-11,-15
1537912668305320,3,1,1,3,13,9,13,28
1537912668305320,-6,-1,1,1,4,15,2,-18
1537912668320280,-4,-2,-1,-5,-13,-35,-12,-9
1537912668320280,4,1,2,4,3,15,26,17
1537912668321277,0,-6,-5,-8,4,15,-14,10
1537912668321277,-3,1,2,2,11,1,-12,-23
1537912668334242,-5,-2,-2,-5,-11,-13,-10,-6
1537912668334242,0,-2,0,-2,-5,-5,2,3
1537912668343219,0,0,-2,0,-10,1,-3,-8
1537912668343219,3,-1,-1,0,-3,4,13,17
1537912668356184,4,2,-1,-2,-1,4,7,20
1537912668356184,-15,-5,-3,-1,1,3,-13,-29
1537912668365160,0,1,0,-3,-10,-20,-15,-17
1537912668365160,-2,-4,-2,-3,-17,-15,-12,-5
1537912668379123,-2,-3,0,0,6,7,4,-6
1537912668379123,5,2,-1,-1,-7,-7,5,23
1537912668386104,-3,1,-1,2,13,-3,-3,-14
1537912668386104,-2,-1,-1,1,12,16,3,6
1537912668394083,1,0,-1,-1,2,0,-2,8
1537912668394083,2,-1,-1,0,7,2,5,3
1537912668403060,-1,0,0,-1,-6,-5,2,-13
1537912668403060,-1,2,0,0,4,-3,-7,0
1537912668417022,-3,-2,-2,0,-6,-7,-3,-8
1537912668417022,2,0,-1,0,-2,5,2,3
1537912668424004,1,-3,-1,0,-6,-8,-7,-2
1537912668424004,1,0,-2,-1,-6,-3,8,7
1537912668439961,-3,-2,0,-1,-1,-1,-3,0
1537912668439961,3,3,1,-1,-8,-18,-6,0
1537912668446943,-7,-4,-2,-3,-2,-3,-13,-26
1537912668446943,-7,-4,-2,-2,4,3,-1,-9
1537912668453923,-1,-2,-3,-2,-6,-9,-24,-24
1537912668453923,5,0,1,1,4,8,14,17
1537912668462899,4,0,1,0,-3,4,11,18
1537912668462899,-3,0,1,0,-3,-5,-1,3
1537912668476862,5,2,0,0,4,5,11,7
1537912668476862,-10,-5,-2,-2,-5,-8,-20,-30
1537912668483843,2,-1,0,0,0,2,8,6
1537912668483843,-1,-1,-1,-2,-5,-2,-4,-1
1537912668499800,1,-1,-1,0,1,6,3,2
1537912668499800,2,-1,-1,-3,-6,-3,2,3
1537912668506781,1,2,-1,1,-1,5,3,2
1537912668506781,2,0,0,-1,-2,1,-2,2
1537912668513762,-4,-1,-1,-1,1,3,-5,-9
1537912668513762,3,1,-2,1,1,4,6,9
1537912668522739,-1,-2,-1,-1,1,4,7,0
1537912668522739,1,-2,-2,-2,-1,2,-3,-6
1537912668536702,-9,-3,1,-1,-9,-15,-15,-18
1537912668536702,-3,-2,1,-2,-1,7,8,-7
1537912668543683,3,1,-1,0,-2,0,3,14
1537912668543683,3,1,-2,-1,-3,-1,5,11
1537912668559640,-1,-1,1,2,5,6,8,3
1537912668559640,-2,-1,-2,0,2,-3,-6,1
1537912668566621,1,-1,1,0,0,-2,4,5
1537912668566621,-1,-1,-1,-1,-1,-1,0,-3
1537912668582579,-1,1,0,0,2,6,1,2
1537912668582579,-2,-3,-2,-2,-3,-6,-7,1
1537912668584574,-1,-1,0,-1,1,2,0,-5
1537912668584574,-2,-4,0,0,-4,-10,-5,0
1537912668596543,6,0,-1,1,7,-1,13,15
1537912668596543,-14,-3,-2,-2,-1,-3,-35,-46
1537912668605519,-1,0,0,-1,-2,-5,1,0
1537912668605519,-2,0,-1,0,-1,0,1,-1
1537912668619481,5,-1,0,0,2,3,5,7
1537912668619481,7,1,1,1,1,1,13,24
1537912668626462,-2,-2,-1,-1,-2,5,-3,-8
1537912668626462,-3,1,0,1,5,4,0,-7
1537912668642419,-4,-1,-2,-2,-4,-4,-17,-15
1537912668642419,0,-2,-1,0,-1,5,7,4
1537912668644415,7,1,-1,2,-1,-1,3,13
1537912668644415,-6,-4,-1,-5,-7,4,-8,-3
1537912668656383,-5,-1,-3,0,-2,3,-1,-9
1537912668656383,2,1,0,0,0,-2,-8,-2
1537912668665359,-9,-6,-4,5,9,29,19,0
1537912668665359,-6,-14,-14,-30,-63,-72,-23,26
1537912668679320,2,7,3,-1,-3,-10,-33,-29
1537912668679320,-1,-1,-5,-6,-3,5,-11,-13
1537912668686301,-4,-5,-3,9,20,71,46,-11
1537912668686301,14,7,6,-6,-2,-27,-38,17
1537912668703256,-7,-4,-3,-4,-13,8,0,1
1537912668703256,-25,-6,-5,-6,-7,-22,-30,-46
1537912668704253,17,8,4,6,4,20,25,33
1537912668704253,15,5,3,8,23,98,72,19
1537912668716222,-9,-4,-2,9,22,28,-8,-15
1537912668716222,-2,-2,-4,-18,-52,-55,-56,-3
1537912668725197,-19,-9,-6,-10,-12,-38,-24,-22
1537912668725197,4,3,3,12,6,-19,0,-8
1537912668739160,-4,-5,-3,4,51,59,33,31
1537912668739160,-25,-9,-1,20,34,45,39,-47
1537912668746142,11,8,5,-17,-29,-107,-69,17
1537912668746142,9,6,2,1,6,12,-13,17
1537912668763096,18,5,7,22,29,21,47,8
1537912668763096,-20,-15,-12,-16,-11,-64,-37,1
1537912668764094,18,-2,-6,-20,-40,-3,-16,39
1537912668764094,-12,-5,1,34,45,108,58,-44
1537912668777059,4,-3,-9,-60,-99,-87,-47,43
1537912668777059,35,18,16,42,90,127,127,38
1537912668784040,-27,-5,-7,-22,-19,-82,-28,-50
1537912668784040,11,3,1,5,15,27,1,17
1537912668799997,-46,-23,-17,-18,-77,73,15,-65
1537912668799997,16,8,4,-14,-40,40,31,42
1537912668805982,-34,-20,-12,-6,3,-14,-54,-83
1537912668805982,24,10,5,-16,-68,-93,3,60
1537912668822936,-37,-7,0,14,19,-3,-6,-62
1537912668822936,-2,-4,-3,-8,-37,-41,-47,-15
1537912668823934,87,41,27,20,0,-22,41,116
1537912668823934,-23,-8,-7,4,61,85,23,-42
1537912668836899,-13,-9,-2,13,-11,-82,-20,6
1537912668836899,21,12,4,-9,-3,4,-5,13
1537912668844877,-11,-6,-2,3,4,29,10,-3
1537912668844877,-55,-18,-9,-5,-56,-18,-11,-99
1537912668859837,49,13,1,-43,-46,-26,10,99
1537912668859837,21,10,6,21,78,19,-21,-24
1537912668866819,-22,-14,-11,-4,-41,17,20,-13
1537912668866819,10,4,1,-5,-71,-1,7,12
1537912668882776,-81,-34,-21,-24,10,56,-14,-93
1537912668882776,62,20,12,13,43,12,11,95
1537912668883774,-14,0,1,12,41,64,36,-32
1537912668883774,36,2,-8,-21,-37,-43,15,53
1537912668896739,5,11,12,31,-2,-30,28,-15
1537912668896739,-39,-17,-13,-21,46,44,-5,-1
1537912668905715,25,14,10,13,25,-22,-51,-2
1537912668905715,-52,-22,-9,6,23,99,49,-65
1537912668919678,61,21,7,3,32,-60,-21,66
1537912668919678,0,1,3,14,-29,-28,1,15
1537912668926659,-40,-21,-15,-10,-24,-8,-11,-80
1537912668926659,-14,1,5,-4,23,-3,-14,34
1537912668942616,84,32,19,13,32,118,62,80
1537912668942616,-31,-11,-5,7,-4,-27,-14,-39
1537912668944611,-20,-7,-2,17,13,80,6,-48
1537912668944611,-9,-5,-2,9,68,-70,-53,2
1537912668956579,-9,-1,-3,-5,-25,4,8,-15
1537912668956579,-20,-10,-4,-8,-21,32,45,2
1537912668965555,36,5,-3,-6,63,48,27,65
1537912668965555,37,15,7,3,-6,-20,1,25
1537912668979518,-29,-11,-3,15,-3,-54,-17,-26
1537912668979518,0,3,5,-4,-9,-41,-16,-10
1537912668986499,-37,-17,-7,0,-5,91,30,-11
1537912668986499,19,14,8,1,-24,-18,-33,-1
1537912669002456,-31,-13,0,34,11,44,17,-64
1537912669002456,38,16,5,-41,-64,-127,-78,31
1537912669004451,20,10,7,11,68,-30,-29,40
1537912669004451,-39,-14,-11,-11,14,22,-50,-67
1537912669016419,30,8,5,6,1,-24,26,40
1537912669016419,-57,-35,-21,2,-1,-15,-46,-72
1537912669025395,10,15,10,-5,-24,11,6,-4
1537912669025395,-19,-12,-7,5,1,-46,-33,-26
1537912669039358,39,13,10,10,55,55,-3,52
1537912669039358,-52,-23,-16,-11,9,79,38,-27
1537912669046339,37,10,9,1,8,26,26,48
1537912669046339,29,9,0,-10,-50,-72,-7,36
1537912669062297,-59,-32,-25,-44,-33,49,-3,-69
1537912669062297,55,22,10,10,50,-13,8,49
1537912669064291,-28,-6,-2,6,-24,16,-4,-45
1537912669064291,-14,-13,-9,-10,6,60,6,-11
1537912669076259,-37,-13,-14,-36,-31,29,-6,-53
1537912669076259,90,37,23,23,-7,113,79,108
1537912669085235,-36,-18,-16,-21,-7,-7,-21,-63
1537912669085235,-21,-14,-9,-4,14,-80,-27,-19
1537912669099198,19,12,11,27,13,36,44,33
1537912669099198,-43,-22,-9,4,13,-32,-32,-67
1537912669106179,29,16,10,-6,-25,-50,16,24
1537912669106179,44,20,15,3,-9,-9,24,53
1537912669123134,-9,-5,-5,-8,-2,-54,-37,-28
1537912669123134,18,10,8,-4,-42,-18,46,58
1537912669124131,-23,-9,-3,9,36,21,-26,-49
1537912669124131,-2,-2,-1,-8,-58,-49,-5,-6
1537912669136099,-30,-10,-4,14,8,-23,-54,-45
1537912669136099,15,4,-2,-12,34,-14,-34,5
1537912669145075,26,11,0,-9,-17,-93,-40,53
1537912669145075,-27,-9,-7,-3,1,73,9,-30
1537912669160035,-2,0,1,7,52,4,17,10
1537912669160035,-4,-6,-1,13,20,74,49,4
1537912669166019,-12,-2,1,-1,-16,-21,-13,-19
1537912669166019,41,16,6,0,21,43,16,58
1537912669182974,-1,0,-2,-4,-30,5,20,-2
1537912669182974,-38,-16,-13,-4,-36,-24,-4,-49
1537912669183971,-52,-32,-21,-23,-25,27,-2,-27
1537912669183971,71,38,24,23,26,18,18,71
1537912669195939,1,-3,-6,3,-2,10,-2,-3
1537912669195939,3,-3,-3,-17,-42,-5,22,15
1537912669204915,-47,-17,1,47,36,81,49,-47
1537912669204915,42,13,4,-32,-56,-48,-26,36
1537912669219875,15,12,7,1,18,18,0,12
1537912669219875,-20,-7,-5,0,-53,60,32,-38
1537912669226856,30,10,8,0,8,-64,-2,45
1537912669226856,-40,-17,-9,11,39,52,16,-38
1537912669242814,45,11,8,4,33,37,10,65
1537912669242814,-46,-14,-9,-9,-24,-41,-58,-86
1537912669243812,60,22,15,20,26,53,98,114
1537912669243812,-23,-5,-4,-5,4,3,-15,-72
1537912669256776,-8,-6,-4,4,34,-6,-28,6
1537912669256776,-48,-17,-9,4,0,-65,-36,-85
1537912669265753,21,7,-1,-24,-23,13,7,32
1537912669265753,-28,-12,-5,11,50,3,-36,-30
1537912669279715,28,14,7,5,-20,-13,24,22
1537912669279715,2,1,-1,-3,7,20,6,20
1537912669286696,-1,-1,0,-1,-16,-15,-14,-2
1537912669286696,-14,-7,-2,6,-9,1,3,-21
1537912669302654,-21,-10,-7,-15,-26,-11,-12,-24
1537912669302654,36,13,8,6,-8,-3,14,58
1537912669304649,-2,1,-2,-13,-36,-43,-30,-3
1537912669304649,-19,-5,-2,0,-15,21,12,-36
1537912669316617,6,2,2,0,-5,-26,-16,20
1537912669316617,16,7,2,8,21,3,13,17
1537912669325593,-3,-2,-2,-3,-19,3,-4,-17
1537912669325593,-7,-6,-5,-3,-4,-1,10,11
1537912669339555,1,-1,1,-3,-12,-20,-20,-14
1537912669339555,7,2,0,-1,5,-4,-4,10
1537912669346537,-12,-7,-5,-4,-4,-5,-8,-18
1537912669346537,0,0,-2,-3,10,2,-2,8
1537912669362494,-3,-2,-3,-2,-2,-10,-7,-8
1537912669362494,-1,0,0,-1,-1,7,0,0
1537912669368478,-1,-2,-4,-2,-4,-11,-13,-5
1537912669368478,-3,-1,-1,2,4,1,6,0
1537912669376457,3,3,0,0,-7,-7,2,2
1537912669376457,1,0,0,-3,1,-5,-3,3
1537912669385433,-4,-1,-2,-4,-6,-5,-11,-10
1537912669385433,0,-2,-2,-1,-3,3,4,6
1537912669399395,-2,-1,0,0,-1,-4,8,12
1537912669399395,1,-1,1,-3,5,-6,-14,6
1537912669406377,-11,-7,-6,-7,-6,-6,-26,-44
1537912669406377,-4,-2,-1,0,-2,1,-1,-2
1537912669422334,0,-1,0,-1,-4,-9,-4,1
1537912669422334,6,1,1,0,1,-1,5,13
1537912669429316,3,0,1,1,-1,5,11,16
1537912669429316,-5,-4,-2,-2,-6,-24,-15,-5
1537912669436297,0,1,1,-1,-4,-7,-8,-3
1537912669436297,-1,-2,-2,-1,8,-2,1,-1
1537912669445273,-3,-2,-2,0,0,-1,-2,-4
1537912669445273,-2,-3,-2,-2,2,-1,-3,-3
1537912669459236,-1,0,0,1,6,2,2,-2
1537912669459236,-1,-1,-3,-3,-1,2,-4,-7
1537912669466217,0,1,-1,-2,-6,-3,0,3
1537912669466217,1,0,-2,0,2,5,5,4
1537912669482174,-2,-3,-1,-1,5,7,-2,-6
1537912669482174,0,-1,-2,-1,-3,-9,-4,-7
1537912669489155,0,0,-1,-2,0,-1,0,1
1537912669489155,3,2,2,-1,1,8,10,10
1537912669496137,11,2,1,3,3,1,34,63
1537912669496137,-11,-3,2,3,3,5,-34,-74
1537912669505113,-4,-1,-3,-4,-5,-11,-6,-6
1537912669505113,-2,-1,-1,-2,-3,1,1,-3
1537912669520073,1,1,-1,-3,-6,-5,-7,-2
1537912669520073,9,1,-2,-4,-4,-6,27,40
1537912669526057,3,1,2,4,5,7,4,8
1537912669526057,-3,-2,-2,0,2,4,-5,0
1537912669542014,-1,-3,0,-1,-3,-1,-4,-15
1537912669542014,1,-2,-1,-1,-3,0,-2,5
1537912669548996,-3,-2,-1,0,-2,0,-8,-14
1537912669548996,1,1,-2,-2,1,1,9,13
1537912669564952,-1,0,0,3,-1,0,-6,-6
1537912669564952,-10,-3,-1,0,-1,-4,-20,-28
1537912669566947,-3,-1,-2,-2,-3,-5,-4,-1
1537912669566947,1,1,1,-1,3,8,8,6
1537912669579913,1,-2,-1,-1,-3,-9,-1,1
1537912669579913,-5,-3,-1,-3,-10,-31,-16,-18
1537912669586894,2,3,2,1,2,0,-7,-1
1537912669586894,-4,-2,-3,-2,-6,-3,2,-8
1537912669601854,-3,-4,-1,-2,4,2,-11,-12
1537912669601854,8,2,-1,1,1,10,20,34
1537912669608835,0,-4,-1,-1,-11,-1,3,-2
1537912669608835,0,1,0,1,-2,1,-1,11
1537912669624793,-3,0,-1,-2,-4,-9,-8,-18
1537912669624793,-2,-2,-1,-2,-2,3,1,2
1537912669626787,-2,0,0,-2,1,1,3,1
1537912669626787,1,-1,1,-1,-1,2,-1,4
1537912669639753,-2,-1,-2,-1,-2,0,0,-2
1537912669639753,1,-1,1,-3,-1,-2,-8,-4
1537912669646735,4,-2,-2,0,2,3,8,17
1537912669646735,-6,-3,-2,2,2,0,-8,-21
1537912669661694,-13,-4,-2,-4,-6,-10,-23,-31
1537912669661694,3,2,-1,0,2,8,6,13
1537912669668675,1,-1,0,0,1,2,4,0
1537912669668675,6,0,-1,-1,2,7,8,21
1537912669685630,-5,0,-1,0,5,-23,-14,-16
1537912669685630,0,-1,-1,-1,-4,3,-6,2
1537912669686627,0,-3,-1,-2,-4,-11,0,6
1537912669686627,1,-1,-1,0,1,8,11,3
1537912669699593,-1,1,0,1,5,7,-3,-6
1537912669699593,1,1,-1,-5,-28,-19,-8,9
1537912669706574,-8,-1,-2,1,8,6,-3,-17
1537912669706574,-4,-2,-1,-1,-5,-2,-7,-14
1537912669722532,-1,-3,-3,-4,-7,2,7,4
1537912669722532,1,1,-1,0,5,3,5,5
1537912669728516,10,3,1,-1,-4,12,14,28
1537912669728516,-8,-2,-1,-1,-5,-11,-10,-23
1537912669745470,-7,-3,-1,0,9,9,-6,-21
1537912669745470,-1,-1,-1,0,12,2,5,2
1537912669746468,-3,-1,-3,-4,0,1,-2,2
1537912669746468,8,3,2,1,0,24,17,24
1537912669759433,1,0,-2,-1,5,-23,-12,-6
1537912669759433,0,0,1,0,-18,1,5,1
1537912669766414,2,0,0,-2,-14,1,6,7
1537912669766414,-3,-3,-2,0,12,0,-6,-3
1537912669782371,6,1,1,-5,-28,12,17,16
1537912669782371,-6,-2,-2,-3,14,-22,-21,-14
1537912669789353,3,1,0,-1,-17,-1,13,3
1537912669789353,-3,-2,-1,1,9,10,-5,-8
1537912669805310,0,0,0,-1,-12,12,11,-7
1537912669805310,2,0,-1,2,10,-1,6,9
1537912669806307,2,1,2,4,10,12,2,2
1537912669806307,-1,-1,-1,1,10,8,14,7
1537912669819273,3,0,1,-1,-9,-36,-17,0
1537912669819273,3,0,0,1,2,23,18,14
1537912669826254,-11,-6,-3,-1,10,-3,-17,-26
1537912669826254,3,2,-1,-1,-8,-17,-4,3
1537912669842212,-3,-4,-2,1,2,15,7,9
1537912669842212,0,0,-1,-3,0,0,-8,-15
1537912669849193,-2,-1,-3,-1,4,-8,-7,0
1537912669849193,-3,-2,0,-3,-15,-5,1,1
1537912669865150,0,-1,-1,0,-1,-5,1,1
1537912669865150,-1,-1,-1,2,6,18,13,8
1537912669871135,-2,-1,-1,-4,-10,-9,-12,-18
1537912669871135,-1,0,-1,-2,-2,-8,-2,0
1537912669880111,0,-1,-1,1,7,6,-7,1
1537912669880111,2,-2,0,-1,-2,6,13,14
1537912669886094,-8,-1,-1,-2,-4,-31,-22,-14
1537912669886094,1,1,-1,0,0,1,-3,0
1537912669903049,0,-1,0,0,2,7,2,1
1537912669903049,-2,0,-1,-3,-3,3,2,-1
1537912669909033,0,-2,-3,-4,-27,-53,-32,-12
1537912669909033,-7,-4,-5,-3,3,-10,-13,-21
1537912669924990,-4,-2,-3,-3,-6,1,3,10
1537912669924990,-4,0,-1,0,0,2,-11,-14
1537912669924990,2,-1,-2,-1,-12,8,17,12
1537912669924990,7,2,3,4,11,8,12,30
1537912669939951,-5,-2,1,1,8,-4,-12,-29
1537912669939951,-4,-4,0,-2,5,3,1,-1
1537912669945935,-2,0,0,1,1,14,1,-6
1537912669945935,0,-1,0,-1,-7,-1,-5,-1
1537912669960895,4,2,0,-1,-12,14,18,16
1537912669960895,1,0,0,0,-2,-24,-17,-5
1537912669968873,-4,-4,-1,-1,17,14,2,2
1537912669968873,6,1,0,0,-16,1,17,16
1537912669984830,-8,-5,-3,-3,4,16,-14,-22
1537912669984830,-1,-1,0,4,-13,-4,4,-13
1537912669984830,7,3,-1,-2,12,24,7,22
1537912669984830,-12,-3,-2,1,-2,1,-20,-34
1537912670000787,18,5,1,1,23,28,38,38
1537912670000787,1,0,-2,-9,-24,-52,-5,2
1537912670006771,-1,-2,1,4,15,24,11,-5
1537912670006771,2,-3,-3,2,5,18,11,10
1537912670022729,-9,-3,-6,-5,-6,-13,-24,-19
1537912670022729,0,3,2,1,8,20,-8,-16
1537912670028713,3,-1,0,-1,-1,-8,-3,-2
1537912670028713,-12,-4,-3,-4,0,-25,-10,-18
1537912670044670,3,-2,-2,6,-11,42,30,11
1537912670044670,12,8,6,3,11,-5,4,37
1537912670045669,-3,2,0,0,-8,-19,-8,-17
1537912670045669,1,1,-1,-1,-2,15,5,-2
1537912670066611,-2,-1,0,3,4,-18,-13,-3
1537912670066611,-19,-7,-6,2,22,38,2,-28
1537912670067609,10,3,2,0,-13,-18,-14,12
1537912670067609,6,1,1,0,3,7,4,-8
1537912670082569,-8,-7,-7,-15,-36,-63,-39,3
1537912670082569,1,0,1,4,8,13,4,-15
1537912670088553,-16,-11,-9,6,32,18,5,-17
1537912670088553,-7,1,1,-18,-31,0,-27,16
1537912670104510,-12,-6,-5,-9,9,-16,-22,-13
1537912670104510,5,-3,-3,-8,-4,-7,-7,2
1537912670105508,0,-5,-3,-8,-41,-67,-3,3
1537912670105508,-35,-11,-2,13,17,-16,-57,-48
1537912670127449,-12,-11,-12,-24,9,8,-9,-6
1537912670127449,36,14,9,12,16,14,26,50
1537912670127449,-16,-9,-7,-7,20,21,-11,-33
1537912670127449,-19,-13,-12,-13,-73,-19,19,-59
1537912670151385,17,13,12,14,6,-11,-11,51
1537912670151385,-23,-10,-5,7,-17,-31,-40,-44
1537912670151385,22,11,6,-1,-35,13,50,47
1537912670151385,19,1,-10,-16,-15,-29,-43,3
1537912670164350,-1,-1,1,3,69,85,29,17
1537912670164350,1,3,-1,0,-6,49,24,-2
1537912670165348,-20,-6,-3,3,-7,17,-21,-37
1537912670165348,-5,-1,2,-2,8,35,39,21
1537912670180308,-24,-9,-4,11,1,-34,-9,-51
1537912670180308,19,2,-4,-28,-62,-51,-59,18
1537912670186292,17,10,7,10,27,-32,29,31
1537912670186292,20,5,-1,1,22,65,59,38
1537912670203246,13,4,6,26,-7,-38,9,0
1537912670203246,-23,-8,-6,-31,-69,1,7,-27
1537912670209230,-44,-14,-5,1,12,87,-12,-95
1537912670209230,45,26,21,9,-11,38,40,96
1537912670224190,79,36,19,18,24,35,64,54
1537912670224190,-36,-24,-15,8,84,75,26,-45
1537912670225188,17,11,10,6,33,14,-12,25
1537912670225188,-17,-6,-3,0,13,11,-15,-28
1537912670240148,-47,-18,-11,-20,-52,33,-3,-49
1537912670240148,21,11,9,15,4,87,63,64
1537912670246132,14,2,-2,-21,-1,-33,-26,13
1537912670246132,-4,-4,1,14,21,24,2,-16
1537912670263087,-50,-22,-11,1,13,17,-8,-43
1537912670263087,72,29,14,-7,-48,-58,-14,76
1537912670269071,-37,-13,-7,11,-26,-2,-11,-56
1537912670269071,39,19,7,-20,-25,-78,-45,38
1537912670284031,3,0,-1,12,-2,39,15,-17
1537912670284031,-74,-28,-18,-12,9,-34,-19,-75
1537912670291012,21,7,3,-2,0,47,25,21
1537912670291012,-17,-12,-6,11,39,40,20,-15
1537912670306969,-51,-15,-6,1,3,-30,-34,-96
1537912670306969,92,35,15,-9,9,-8,16,111
1537912670307967,22,4,-3,-5,-4,-18,21,16
1537912670307967,-52,-24,-13,-6,15,17,7,-76
1537912670322927,11,3,2,-6,14,-9,-8,-5
1537912670322927,-19,-2,4,12,-8,19,43,6
1537912670328911,6,4,6,10,28,8,-50,-26
1537912670328911,13,7,5,22,48,-12,25,7
1537912670343871,-9,-3,-3,-21,-55,-107,-59,11
1537912670343871,19,3,2,8,0,-29,-7,24
1537912670351849,-15,-6,-4,-2,-37,40,25,-7
1537912670351849,-5,-5,-2,-14,-13,62,4,19
1537912670359828,34,8,-3,-25,-23,-16,-1,56
1537912670359828,-41,-12,-7,5,23,25,-4,-54
1537912670366809,-5,-8,-4,-7,-7,-16,-20,6
1537912670366809,-6,-5,-4,-2,-21,-38,-30,-28
1537912670381769,-5,-4,-3,-7,-17,88,33,0
1537912670381769,14,5,5,-1,-18,-58,-7,16
1537912670388751,-19,-7,-2,12,7,48,69,5
1537912670388751,-14,-5,-1,-1,-40,-73,-68,-49
1537912670403710,78,38,21,-2,-18,-1,23,94
1537912670403710,-31,-12,-6,21,44,90,-11,-56
1537912670411689,-24,-8,-7,-19,8,-88,-47,-17
1537912670411689,28,8,3,8,25,7,31,34
1537912670426649,-31,-15,-7,2,17,69,8,-39
1537912670426649,28,12,11,11,26,-31,-9,27
1537912670427647,-21,-10,-6,8,-50,-23,-26,-31
1537912670427647,13,6,2,-11,-27,44,-12,37
1537912670441609,-5,0,-1,7,31,12,24,-23
1537912670441609,-23,-13,-13,-12,-11,6,7,-17
1537912670448591,-6,-2,7,42,34,24,32,-29
1537912670448591,43,22,7,-44,-48,-90,-76,48
1537912670463550,13,4,1,6,7,14,21,21
1537912670463550,-39,-16,-7,-5,-15,90,34,-42
1537912670471529,29,15,9,9,28,78,46,51
1537912670471529,9,3,1,17,34,36,36,12
1537912670487486,-25,-8,1,22,24,20,-11,-49
1537912670487486,48,20,12,-28,-95,-120,-83,83
1537912670487486,-15,-8,-8,-15,-24,44,-16,-34
1537912670487486,-34,-17,-8,11,-6,40,26,-44
1537912670501449,5,1,-2,-24,-21,-25,-37,1
1537912670501449,-19,-8,-3,17,49,33,11,-29
1537912670508431,4,-4,-7,-12,-4,-46,-4,26
1537912670508431,1,7,4,-20,-79,-76,-6,11
1537912670524388,2,-2,3,35,62,2,8,-4
1537912670524388,-16,-9,-5,-12,-15,-29,-44,-22
1537912670531369,32,16,4,-7,7,-13,4,51
1537912670531369,-26,-15,-11,-1,17,30,1,-44
1537912670547327,-15,-7,-4,-7,-24,8,6,-6
1537912670547327,-6,-10,-10,-13,-38,-46,-25,-1
1537912670547327,14,4,2,-3,15,-25,-19,15
1537912670547327,-9,-3,-1,9,27,32,24,-11
1537912670561289,14,2,-1,-7,-26,5,-5,25
1537912670561289,-15,-7,-5,9,72,8,-22,-50
1537912670569268,-13,-6,-6,-17,-47,9,10,-14
1537912670569268,14,6,5,3,10,-58,-26,24
1537912670584228,7,1,-2,-13,-26,1,0,18
1537912670584228,-13,-3,-3,-9,34,50,22,-20
1537912670591209,-3,1,-1,-4,7,16,-22,-7
1537912670591209,1,-2,-2,1,14,24,17,4
1537912670607166,-8,-6,-4,-4,-16,-34,-23,-13
1537912670607166,6,2,0,6,-17,-14,20,20
1537912670608164,-5,-4,-3,-10,-4,4,-6,-10
1537912670608164,-4,-2,1,5,28,13,1,-7
1537912670621129,-3,-3,-4,-7,-25,-12,-5,-4
1537912670621129,1,1,-2,7,10,17,25,4
1537912670629108,-3,-1,1,0,33,-21,-9,1
1537912670629108,13,2,2,4,-9,6,38,26
1537912670644068,-6,0,-3,-2,16,16,-43,-42
1537912670644068,-16,-8,-8,-15,-26,24,-4,-17
1537912670651049,11,4,2,10,10,36,28,10
1537912670651049,7,1,1,-1,-3,-17,7,11
1537912670668004,1,1,1,0,-5,-31,3,13
1537912670668004,-4,-2,0,7,11,16,-1,-17
1537912670669002,-1,0,-1,1,5,-4,2,3
1537912670669002,-7,-6,-5,-2,-1,10,10,8
1537912670680970,8,5,3,6,11,28,12,12
1537912670680970,1,0,1,-2,-18,-19,10,-18
1537912670688948,-4,-6,-5,-2,-17,47,30,-1
1537912670688948,-4,1,-1,-8,3,-60,-36,-15
1537912670703908,16,6,4,4,7,38,28,27
1537912670703908,-3,-2,-2,2,4,14,7,4
1537912670710889,3,0,2,-2,-11,-5,-4,15
1537912670710889,-19,-10,-5,3,-1,30,6,-31
1537912670726847,-4,-4,-2,-6,-15,-35,-3,8
1537912670726847,5,2,4,5,19,5,-2,1
1537912670727844,3,-1,0,-1,3,-2,2,9
1537912670727844,-12,-3,-2,5,7,5,-18,-32
1537912670741807,5,1,2,3,8,11,5,12
1537912670741807,5,-1,-2,-10,-24,-58,-7,34
1537912670748788,0,3,2,2,9,-16,-64,-36
1537912670748788,-6,-5,-5,-4,-2,14,-7,-9
1537912670763748,-7,-3,-1,7,12,4,13,-20
1537912670763748,-2,-2,-3,-7,-26,6,15,5
1537912670771727,4,2,1,-8,-22,-5,18,22
1537912670771727,6,4,3,3,6,5,-14,16
1537912670786687,-9,-7,-6,-5,-14,14,5,-19
1537912670786687,-1,-3,0,5,10,5,-21,-20
1537912670787684,3,0,0,-1,-5,-15,0,19
1537912670787684,3,2,-1,-1,-15,15,9,3
1537912670801647,-2,-2,-1,-2,-2,-8,3,17
1537912670801647,-4,1,2,5,12,18,-10,-17
1537912670808628,-1,0,-1,0,0,-8,0,2
1537912670808628,-3,-2,-3,0,3,3,3,-7
1537912670823588,2,0,-2,-4,-6,-13,-7,7
1537912670823588,5,0,2,4,11,9,15,17
1537912670831567,-7,-2,-1,-1,4,9,-2,-24
1537912670831567,5,-2,-2,1,7,-3,9,13
1537912670847524,-9,-4,-3,-5,-4,-11,-46,-30
1537912670847524,7,4,4,6,11,32,31,16
1537912670847524,-8,-2,-1,-2,-8,-42,-20,-6
1537912670847524,-4,-1,0,0,2,9,5,-9
1537912670861487,-2,1,-2,-2,0,-3,9,5
1537912670861487,-1,0,-1,0,5,8,4,-1
1537912670868468,5,0,-2,-2,0,4,5,13
1537912670868468,1,1,-1,0,0,-2,-3,1
1537912670883428,0,-1,-1,-1,3,-6,2,9
1537912670883428,-3,-1,-3,0,-1,-2,-7,-12
1537912670891407,3,-1,-2,0,0,3,8,8
1537912670891407,-1,-3,0,-1,-6,-3,-8,-10
1537912670907364,2,0,1,-1,-1,8,11,20
1537912670907364,0,-1,-1,-1,-1,7,21,6
1537912670907364,-10,-4,-2,-3,4,9,-31,-29
1537912670907364,-4,-2,-1,1,-1,-23,-19,4
1537912670921327,-1,-3,0,-2,2,0,-1,-23
1537912670921327,-5,-3,-2,-3,-2,-2,-12,-23
1537912670929305,3,0,1,1,8,10,23,24
1537912670929305,-1,-3,-3,-5,-5,1,6,-3
1537912670944265,1,-2,1,-1,-5,-6,3,22
1537912670944265,2,1,2,2,1,-4,-3,9
1537912670951247,-3,-1,-2,-1,-3,0,-1,-19
1537912670951247,-4,-1,-1,-1,1,1,-3,1
1537912670967204,0,-2,0,0,-4,-4,-5,-4
1537912670967204,1,-1,0,-1,1,1,-3,-1
1537912670968202,1,-2,1,1,0,-5,0,-2
1537912670968202,0,-1,0,0,-1,3,5,1
1537912670981167,-6,0,-1,-1,2,1,-8,-19
1537912670981167,-3,-2,-2,-1,-2,-3,-6,-13
1537912670989146,-2,-2,-2,-4,-5,-10,-7,3
1537912670989146,-2,1,1,3,5,21,9,3
1537912671004106,9,-2,-1,-1,-14,-6,23,25
1537912671004106,-8,1,2,1,2,-21,-39,-30
1537912671011087,10,5,2,4,9,6,17,22
1537912671011087,-3,-3,-3,-2,-6,5,-2,-13
1537912671027044,2,1,-1,1,1,4,4,11
1537912671027044,0,-2,-2,-2,-2,4,6,5
1537912671028041,3,-1,-1,-2,-7,-2,7,24
1537912671028041,3,0,2,2,3,1,-4,-15
1537912671041007,-6,-1,0,-1,2,0,1,-8
1537912671041007,0,0,0,-3,-7,-3,4,11
1537912671048986,-2,-1,-1,-2,10,4,1,-12
1537912671048986,-3,-2,-3,-1,-1,2,-1,4
1537912671063946,-6,-1,1,0,-1,2,-2,-4
1537912671063946,-5,-2,-1,2,21,20,-6,-13
1537912671070927,12,3,1,1,-3,22,22,19
1537912671070927,4,1,-2,-3,-4,-4,3,7
1537912671086884,-2,0,0,1,5,0,-5,-9
1537912671086884,-1,-1,-1,0,-12,-17,2,2
1537912671087882,-1,-2,-2,1,13,14,10,7
1537912671087882,-3,-3,-1,-5,9,-32,-15,-8
1537912671101844,-7,1,0,-1,-8,-14,-16,-21
1537912671101844,5,2,-2,-1,-5,3,12,12
1537912671108826,-6,-3,-3,-2,4,-10,-4,-14
1537912671108826,2,2,0,-3,-10,18,10,11
1537912671123785,1,-1,1,2,9,5,-3,0
1537912671123785,4,-1,-2,0,3,7,9,17
1537912671131764,-10,-2,-1,-2,-14,-26,-25,-25
1537912671131764,-2,0,0,3,8,11,5,-3
1537912671146724,3,0,-2,-2,-2,2,4,10
1537912671146724,-2,0,0,-1,-8,3,5,1
1537912671147722,7,2,0,0,-9,16,4,11
1537912671147722,-8,-3,-1,2,3,-16,1,-6
1537912671161684,1,-2,-3,-5,-5,-12,-3,4
1537912671161684,-5,-1,-2,0,6,-13,-15,-21
1537912671168665,-8,-2,-4,-7,-9,-25,-19,-6
1537912671168665,-2,-2,-1,-1,9,35,0,-2
1537912671183626,4,-1,-1,6,3,-21,-7,7
1537912671183626,-8,-2,0,-4,-12,-1,8,-4
1537912671191604,6,-2,-1,6,31,55,7,-2
1537912671191604,-5,2,-2,-12,-25,-33,-19,-14
1537912671206564,-9,-9,-9,-11,-39,-13,-7,8
1537912671206564,2,4,2,-2,25,-39,0,8
1537912671214543,12,9,6,10,-2,-14,-10,4
1537912671214543,-1,0,-1,-4,-14,-8,0,-1
1537912671221524,-11,-7,-5,-6,21,61,23,-11
1537912671221524,-5,-3,-2,11,-35,-34,-3,-21
1537912671228506,-11,3,3,-26,-85,-87,-27,-30
1537912671228506,2,5,4,21,90,70,18,10
1537912671243466,31,12,3,7,57,-3,-25,17
1537912671243466,-10,-13,-13,-19,4,3,0,8
1537912671251444,0,-2,-1,14,-1,51,45,0
1537912671251444,-11,3,11,24,40,88,48,-1
1537912671266404,3,2,7,12,-39,-119,-46,-4
1537912671266404,14,15,9,-9,-47,-55,0,6
1537912671274383,-8,-9,-9,-9,20,-9,-14,-2
1537912671274383,-5,-7,-7,-10,0,35,20,2
1537912671281364,20,11,6,9,62,66,16,21
1537912671281364,-7,-9,-5,3,24,65,30,-10
1537912671289343,-29,-16,-9,-9,47,-48,-92,-27
1537912671289343,30,10,4,12,-30,-7,40,30
1537912671304303,-44,-21,-17,-26,-48,-10,-5,-23
1537912671304303,22,6,6,8,41,68,40,8
1537912671311285,-33,-15,-8,-7,-37,-12,-4,-48
1537912671311285,46,11,1,-22,-59,-110,-49,79
1537912671326245,-12,-4,-2,1,-23,33,20,-29
1537912671326245,-17,-10,-4,6,-55,-25,-29,-16
1537912671334223,22,18,13,32,31,72,32,27
1537912671334223,-42,-14,-6,-16,11,18,-1,-44
1537912671341205,36,13,6,-15,34,-83,-77,5
1537912671341205,-5,-9,-11,-22,-49,-18,14,14
1537912671349183,-7,-3,-2,-1,9,50,26,-17
1537912671349183,24,8,4,19,39,79,53,48
1537912671364143,-3,1,1,13,-2,56,54,7
1537912671364143,-32,-14,-2,21,68,61,-1,-36
1537912671379103,49,24,15,1,-22,-35,12,77
1537912671379103,-20,-15,-13,-10,29,-16,11,-21
1537912671386085,-18,-7,-6,-9,-11,9,-29,-44
1537912671386085,-9,1,1,-1,5,-12,-54,-28
1537912671395061,24,13,9,11,8,38,27,34
1537912671395061,-16,-16,-14,-30,-6,-107,-106,-16
1537912671409023,34,14,9,11,-10,27,28,46
1537912671409023,-29,-8,1,29,47,60,13,-26
1537912671410020,5,0,-2,-4,-2,-65,2,-9
1537912671410020,14,7,6,1,-18,37,-15,5
1537912671423983,-22,-9,-5,-3,50,64,22,-20
1537912671423983,7,-2,-3,-2,7,-24,-6,21
1537912671430964,-10,-7,-4,2,47,95,34,18
1537912671430964,21,4,0,5,-35,-3,1,-3
1537912671445925,-43,-15,-9,5,42,67,17,-56
1537912671445925,50,24,17,6,41,-5,16,73
1537912671454901,-19,-8,-8,-8,35,-20,-10,-13
1537912671454901,-6,-3,-3,-3,-19,38,16,-26
1537912671469861,1,0,5,11,15,64,36,10
1537912671469861,33,8,0,-6,-19,-74,-21,45
1537912671469861,-24,-13,-6,-5,-51,-6,-10,-45
1537912671469861,-22,-5,-4,-6,5,-61,-43,-39
1537912671483823,3,-2,0,-1,-2,32,37,-9
1537912671483823,-25,-15,-12,-12,-10,3,-31,-22
1537912671491802,63,30,15,-2,-28,-77,-7,100
1537912671491802,-39,-10,-2,11,14,67,19,-70
1537912671506762,4,1,-4,-31,-59,-12,-23,22
1537912671506762,3,3,1,-6,-16,20,29,-4
1537912671514740,-1,-7,-5,-7,26,45,-27,-18
1537912671514740,5,-1,0,4,-12,-17,14,22
1537912671537679,-18,-6,-1,7,-15,1,-11,-27
1537912671537679,-6,-4,-7,-22,-35,-70,-28,-11
1537912671538677,-3,-1,1,5,8,27,11,4
1537912671538677,-4,1,2,5,11,-8,-5,-11
1537912671543663,-11,-11,-10,-20,-37,-93,-43,6
1537912671543663,12,10,10,9,7,91,15,-11
1537912671551642,-40,-23,-17,-22,15,-22,-23,-35
1537912671551642,29,12,4,1,10,2,21,45
1537912671566602,-12,-4,-1,4,-30,-70,-32,-34
1537912671566602,2,-2,-5,-22,-9,70,30,27
1537912671574581,11,2,2,10,-2,68,42,1
1537912671574581,-29,-16,-12,-14,-47,-55,-35,-22
1537912671589541,29,9,4,10,38,17,32,44
1537912671589541,-20,-3,1,20,57,-15,0,-30
1537912671590538,11,1,-1,-1,4,35,16,30
1537912671590538,9,4,4,14,33,33,1,-1
1537912671603504,-11,-6,-5,-2,-11,6,3,-4
1537912671603504,5,1,-1,9,-30,-46,-21,-11
1537912671611483,-17,-4,-3,-12,-36,-102,-35,-47
1537912671611483,18,9,3,-11,4,10,24,62
1537912671626443,-6,-2,-2,2,8,5,-25,-39
1537912671626443,6,3,1,1,-25,19,20,18
1537912671634422,-1,0,-1,5,-12,9,17,3
1537912671634422,-29,-9,-2,9,2,-11,-21,-74
1537912671649382,31,15,9,6,-15,28,51,71
1537912671649382,19,4,3,1,40,51,5,35
1537912671650380,9,5,5,7,8,-2,-9,0
1537912671650380,-25,-9,-6,1,-27,-9,-48,-87
1537912671664341,1,-3,-3,-9,45,51,40,32
1537912671664341,-11,0,2,13,38,14,-8,-34
1537912671672320,-1,-1,-3,-7,17,57,49,54
1537912671672320,27,9,7,17,37,20,17,14
1537912671686282,-9,-2,-2,0,-14,-29,-19,-17
1537912671686282,-10,-5,-5,-14,-44,-15,-7,-22
1537912671694261,6,0,0,7,8,18,25,28
1537912671694261,-5,0,0,-5,-14,22,16,19
1537912671709221,1,3,7,25,-19,-37,-25,-24
1537912671709221,15,9,2,-16,-35,-28,-13,32
1537912671710218,-7,-7,-5,-1,-3,-2,-28,-38
1537912671710218,18,7,4,2,17,-49,21,52
1537912671724181,-11,-1,-2,-1,-11,-19,-24,-34
1537912671724181,19,0,1,5,15,27,36,31
1537912671732159,-21,-9,-7,-6,-21,-26,-23,-41
1537912671732159,6,0,1,6,22,21,19,34
1537912671746122,11,4,2,-9,-32,-15,31,43
1537912671746122,-11,-5,-6,-2,-12,0,-29,-47
1537912671754101,23,20,16,11,-8,-20,1,31
1537912671754101,-4,-3,-6,-19,-5,-17,-40,-16
1537912671769061,-15,-9,-8,-13,-7,-6,10,-1
1537912671769061,-24,-15,-11,-9,3,-40,-47,-59
1537912671770058,22,8,4,-1,-16,-37,-12,12
1537912671770058,-19,-5,-3,-4,-25,-17,-5,-24
1537912671784021,16,5,4,7,25,6,6,17
1537912671784021,-2,-3,-2,-8,-14,-8,4,13
1537912671792000,-21,-13,-8,-5,-12,17,4,-22
1537912671792000,8,4,0,-6,-14,-26,-13,6
1537912671805963,-3,-2,-3,0,-4,-10,-3,-1
1537912671805963,0,-1,0,-1,-14,-24,-14,-1
1537912671814939,-15,-7,-5,-3,-2,-14,-15,-20
1537912671814939,4,0,-1,-2,-15,17,15,9
1537912671829900,2,-2,0,-2,-1,-12,-10,0
1537912671829900,1,1,2,-2,-9,5,11,11
1537912671829900,-3,-2,-2,-4,4,2,-3,-8
1537912671829900,-4,-4,-3,-1,-1,-1,-3,-5
1537912671843863,7,3,0,-1,4,-2,-3,11
1537912671843863,-5,-1,-1,-2,4,-4,7,11
1537912671851841,-10,-4,-3,-2,-1,-1,-13,-32
1537912671851841,-1,-4,0,-1,-5,-4,6,4
1537912671866801,-1,1,0,-2,0,-3,-11,-11
1537912671866801,-2,0,0,2,2,26,8,3
1537912671874780,1,0,-1,-3,-17,-16,-8,9
1537912671874780,-2,1,-2,-3,-5,2,-4,-5
1537912671889740,1,1,0,1,11,-6,-5,-2
1537912671889740,0,-1,-2,0,5,5,15,11
1537912671890737,-5,-5,-2,-1,2,15,-2,-10
1537912671890737,-2,-2,-3,-1,-1,7,-8,-5
1537912671903703,-2,-2,-3,-2,-3,-3,-6,-5
1537912671903703,-1,2,2,0,-1,-2,3,5
1537912671911682,1,-1,-2,0,3,-7,4,13
1537912671911682,10,2,2,1,-1,7,26,47
1537912671926641,-9,-4,-2,-2,-3,-7,-33,-53
1537912671926641,-12,-4,-1,-3,-6,-18,-25,-29
1537912671934620,3,-1,-1,0,5,10,9,17
1537912671934620,4,-2,1,2,0,13,32,17
1537912671949580,-1,-2,-2,3,-7,3,-18,10
1537912671949580,6,3,3,-4,-16,-60,-38,-7
1537912671950577,10,5,1,-13,-28,-35,20,30
1537912671950577,-12,-3,-1,0,2,-4,-41,-47
1537912671963541,-4,-2,-2,-4,3,-10,6,1
1537912671963541,2,0,-1,1,0,11,11,1
1537912671971520,-7,-6,-2,3,-2,14,21,21
1537912671971520,7,1,0,-1,-1,-14,-20,-11
1537912671986480,2,2,1,-6,-15,-25,-5,11
1537912671986480,-10,-5,-4,0,12,13,4,-3
1537912671994458,1,3,4,4,19,27,14,-8
1537912671994458,-5,-1,0,1,-3,-7,-2,-7
1537912672009418,10,2,0,-2,6,32,9,11
1537912672009418,0,-3,-4,-1,-1,12,12,11
1537912672010416,-1,-2,-3,1,3,-4,-19,-18
1537912672010416,-4,-2,0,-1,5,33,6,-5
1537912672023381,3,1,1,0,8,-21,11,15
1537912672023381,1,4,4,2,1,7,21,15
1537912672031360,0,-2,-2,-2,-2,1,-18,-20
1537912672031360,-6,-4,-4,-2,-2,0,-3,-4
1537912672046320,2,-2,-1,-2,-2,1,18,16
1537912672046320,-2,-5,-4,-2,-17,22,3,-13
1537912672054298,-7,1,0,-4,-6,-21,-25,-20
1537912672054298,11,3,0,-1,7,-10,-3,21
1537912672069259,-2,0,-1,4,2,13,11,-15
1537912672069259,-2,-3,0,1,2,-1,-2,-9
1537912672070256,-7,-5,-3,-1,2,7,-6,-10
1537912672070256,-5,-2,-2,-4,-11,-12,-1,1
1537912672084218,3,1,0,0,-3,5,9,16
1537912672084218,-1,0,-1,-3,-1,8,5,-3
1537912672091200,-8,-5,-3,6,20,17,-15,-24
1537912672091200,14,8,5,2,2,-14,9,18
1537912672106160,-6,-2,-5,2,6,-18,-4,-4
1537912672106160,-5,-1,-1,0,4,18,-18,-16
1537912672115138,1,-1,-3,-4,7,-22,5,10
1537912672115138,1,3,2,1,-1,15,10,-3
1537912672129100,-5,-6,-1,-1,4,23,0,-8
1537912672129100,4,0,0,3,8,7,5,10
1537912672137077,-1,-4,-2,-4,-13,-20,-4,-1
1537912672137077,-5,-4,-3,1,-4,-6,-5,-4
1537912672144059,1,1,0,-3,15,-3,-3,-8
1537912672144059,3,1,1,0,10,-19,3,7
1537912672152037,2,-3,-1,7,12,23,10,1
1537912672152037,-11,-6,-4,-6,-13,-29,-28,-29
1537912672165999,-2,-4,-3,-2,-8,43,15,11
1537912672165999,10,5,1,-2,-3,-22,9,19
1537912672174976,-8,-1,-1,-1,-3,-8,-7,-25
1537912672174976,4,3,0,0,-9,4,10,14
1537912672188938,-4,-4,-2,-5,0,-11,-6,4
1537912672188938,6,1,0,-1,9,-15,-28,-5
1537912672196917,4,0,0,1,-2,9,19,15
1537912672196917,-6,-2,0,0,2,3,1,-14
1537912672203898,-3,-3,-1,-2,-10,-17,-11,-11
1537912672203898,3,-1,-1,-2,-7,4,19,22
1537912672211877,2,-1,1,-2,5,1,-12,0
1537912672211877,-10,-7,-4,2,16,13,-1,-15
1537912672225840,3,3,4,0,-5,-25,-12,-12
1537912672225840,-5,-2,-3,-2,0,3,-4,-6
1537912672234816,-10,-2,-2,0,11,21,3,-19
1537912672234816,9,-2,-4,-4,-27,-70,-13,23
1537912672248778,-7,0,0,2,14,0,6,4
1537912672248778,-11,-4,-2,-6,-5,-39,-55,-48
1537912672256757,4,-1,-2,8,15,16,6,12
1537912672256757,8,3,1,4,-3,19,24,16
1537912672263738,10,10,7,0,-6,-35,-25,0
1537912672263738,-5,-3,-2,0,-22,-23,11,1
1537912672271717,-4,-6,-5,-11,-18,18,21,27
1537912672271717,-3,1,4,15,28,-5,-23,-35
1537912672286677,-16,-15,-15,-33,-89,-31,4,14
1537912672286677,19,10,2,-7,-19,13,-2,34
1537912672295653,-6,-2,1,13,-19,-18,4,-12
1537912672295653,-12,-7,-6,-3,7,43,2,0
1537912672308618,8,8,6,14,17,12,-8,-5
1537912672308618,-14,-8,-4,2,10,31,19,-14
1537912672317594,26,9,5,5,31,-25,18,48
1537912672317594,-2,-1,-2,-4,22,63,-3,-15
1537912672331557,-14,-7,-6,6,6,-9,-26,-23
1537912672331557,-57,-24,-16,-6,41,84,71,-63
1537912672340533,64,35,26,41,58,77,69,53
1537912672340533,34,12,7,0,24,38,51,65
1537912672346517,18,7,2,1,45,-2,4,7
1537912672346517,-15,-10,-9,-7,25,-23,-4,-16
1537912672355493,-38,-18,-11,-16,-70,-74,-37,-37
1537912672355493,-34,-19,-3,31,58,71,-10,-44
1537912672368458,19,11,4,-24,-28,-45,-23,26
1537912672368458,31,12,1,-23,-20,37,19,30
1537912672377434,-54,-25,-10,34,65,94,18,-83
1537912672377434,50,23,3,-49,55,-128,-101,69
1537912672392394,-32,-13,-6,4,-32,83,28,-46
1537912672392394,-17,-12,-2,38,77,15,13,19
1537912672398378,31,7,-4,-39,25,-14,-85,13
1537912672398378,-47,-14,-2,30,-1,-8,25,-73
1537912672406357,-19,-7,-5,0,98,16,1,-35
1537912672406357,49,16,8,-4,-67,-32,-36,72
1537912672415333,-13,-9,-6,7,22,29,51,3
1537912672415333,-15,-13,-8,-12,-5,49,41,4
1537912672429296,43,19,11,7,30,26,4,63
1537912672429296,-79,-32,-16,-8,23,97,8,-128
1537912672437274,61,19,4,-10,-13,-57,-40,81
1537912672437274,-15,-7,-2,2,-33,64,35,-20
1537912672452234,-4,-5,-3,-2,45,82,71,31
1537912672452234,58,29,21,20,18,15,45,55
1537912672459216,-42,-15,-13,-26,-42,-7,-14,-61
1537912672459216,22,8,3,5,-10,-13,37,47
1537912672466197,-28,-16,-7,8,-26,-31,-31,-53
1537912672466197,-22,-9,2,39,36,4,15,-17
1537912672475173,60,28,12,-22,-58,-71,-51,68
1537912672475173,5,2,3,24,-53,-3,9,-17
1537912672489136,-9,-9,-17,-83,-77,-20,24,40
1537912672489136,30,12,3,-6,16,34,7,24
1537912672498112,-49,-17,0,43,49,-10,-2,-75
1537912672498112,-29,-11,-7,-35,-27,-70,-68,-35
1537912672512075,48,17,7,2,24,-30,8,70
1537912672512075,-4,-3,-5,-10,3,-16,-40,-26
1537912672519056,-34,-12,-7,4,-27,14,21,-37
1537912672519056,2,-5,-9,-39,-6,25,8,37
1537912672526037,2,-2,-1,21,-58,-7,-3,-22
1537912672526037,-5,-1,-1,-13,-27,-2,-3,19
1537912672535013,-14,-7,-5,-23,-49,-64,-53,-28
1537912672535013,-3,-3,-3,4,10,-1,3,-21
1537912672548976,-23,-5,10,48,-25,58,38,-26
1537912672548976,-14,-1,-11,-53,34,-128,-103,-53
1537912672557952,53,19,8,-13,8,52,12,74
1537912672557952,-1,2,-2,-16,-24,-66,-18,-19
1537912672572912,-24,-9,-5,8,68,19,-46,-49
1537912672572912,-2,-5,1,27,44,30,10,-4
1537912672573909,-28,-5,3,9,-21,-2,24,-28
1537912672573909,32,12,2,-34,-91,-112,-55,35
1537912672585877,27,6,3,9,-5,49,22,49
1537912672585877,-29,-16,-3,6,-57,-37,7,-36
1537912672594853,22,13,2,-15,58,19,-18,16
1537912672594853,8,3,1,3,70,-11,31,33
1537912672608816,-37,-14,-9,5,60,22,-24,-66
1537912672608816,31,12,9,16,-55,23,29,65
1537912672617792,-21,-17,-14,-19,-2,46,37,2
1537912672617792,7,2,6,27,13,69,21,-10
1537912672632752,-16,-9,-10,-36,-40,-67,-35,-22
1537912672632752,49,16,12,14,2,8,31,61
1537912672633749,-25,-9,-7,-12,-51,-9,11,-30
1537912672633749,-7,-4,-4,5,33,16,5,-21
1537912672646715,-10,-6,0,6,57,95,37,12
1537912672646715,21,12,7,3,9,15,-30,2
1537912672655691,-9,-5,-6,-9,-24,1,1,-11
1537912672655691,-13,-7,-2,2,-38,45,34,2
1537912672668656,26,16,9,15,56,-26,-22,12
1537912672668656,-12,-9,-10,-17,-9,-16,-5,11
1537912672677632,3,3,6,18,43,31,0,-3
1537912672677632,-20,-7,-8,-11,-50,63,8,-26
1537912672693590,15,6,7,11,-13,54,29,15
1537912672693590,-10,-3,-4,-15,-21,-6,-11,-6
1537912672698577,5,2,4,6,16,57,25,16
1537912672698577,-31,-12,-1,28,38,56,13,-28
1537912672706557,4,2,-6,-23,54,-48,-34,-18
1537912672706557,16,1,-3,2,30,83,18,26
1537912672715533,0,-2,-4,2,33,22,4,-6
1537912672715533,10,5,6,29,97,16,37,14
1537912672728497,4,-2,-3,-19,-73,-76,-16,5
1537912672728497,-9,0,1,-4,-50,-35,1,-9
1537912672737473,-10,-11,-6,0,5,-19,-13,-9
1537912672737473,16,3,4,11,8,19,4,26
1537912672752433,0,3,-2,-11,-67,-81,-37,-29
1537912672752433,-20,-6,-5,-3,31,16,-6,-39
1537912672754428,14,5,3,2,-14,-35,-3,20
1537912672754428,10,3,-2,-14,-17,-29,-26,-4
1537912672766395,-5,-1,3,16,-4,28,18,2
1537912672766395,-5,-2,-3,-1,-12,6,22,0
1537912672775371,5,4,2,-4,-5,-7,6,13
1537912672775371,5,2,0,-6,-23,-17,-10,7
1537912672789334,-4,-4,-3,6,-4,7,3,-3
1537912672789334,-5,-4,-3,-10,-43,-47,-24,-6
1537912672797312,-3,-1,0,-3,2,-13,-8,-7
1537912672797312,0,1,-2,-5,10,-3,-15,-8
1537912672812273,-3,-8,-3,4,-1,16,12,8
1537912672812273,-6,-4,-2,-2,-10,5,-12,-3
1537912672814268,5,2,1,-1,-16,-18,10,4
1537912672814268,-1,0,0,0,-15,-6,-11,-11
1537912672826235,6,1,-3,1,-3,10,6,13
1537912672826235,-2,-2,-3,-2,-23,-41,-6,8
1537912672835211,-5,-6,-5,0,0,3,20,-12
1537912672835211,1,2,1,-4,-1,-17,-25,-10
1537912672849174,-2,-2,1,8,14,7,11,2
1537912672849174,3,3,2,3,29,-17,-6,4
1537912672858150,-11,-4,-3,-5,-23,-7,-17,-19
1537912672858150,1,0,0,-8,-28,-15,6,11
1537912672873110,-2,1,2,3,-4,7,-7,-8
1537912672873110,-3,-4,-3,-5,6,7,14,9
1537912672874108,4,-1,0,-1,21,-19,-20,-3
1537912672874108,-2,2,3,10,16,41,21,-4
1537912672886075,11,1,-2,-5,14,-8,-6,24
1537912672886075,1,1,1,-1,-3,10,20,-1
1537912672895052,-5,-2,1,3,12,-1,-23,-13
1537912672895052,3,-1,-3,0,3,-8,-3,6
1537912672909014,-14,-7,-4,-4,-1,3,-8,-19
1537912672909014,14,6,4,1,9,5,10,16
1537912672917990,-2,2,-1,0,1,-7,5,5
1537912672917990,-6,-4,-3,-6,-7,-13,-17,-15
1537912672932950,0,-1,0,1,-16,-7,3,0
1537912672932950,1,-3,-1,-1,-1,-13,-15,-6
1537912672933948,-3,0,-1,0,3,9,7,3
1537912672933948,-4,-2,-3,-4,-10,-28,-11,-1
1537912672945917,-3,1,1,-2,-20,14,7,-11
1537912672945917,1,-1,-2,-4,-29,-17,-3,22
1537912672954891,3,4,2,-9,-16,21,-3,-26
1537912672954891,-13,-5,-4,-6,2,-14,-32,-25
1537912672968854,2,0,0,3,3,10,4,3
1537912672968854,-8,-4,-2,-4,1,-5,-1,-13
1537912672977830,0,-3,-4,5,11,19,11,22
1537912672977830,6,0,0,-2,-8,-17,6,18
1537912672992790,-9,-3,-1,6,15,-3,2,-16
1537912672992790,5,1,1,4,14,4,-15,-7
1537912672993787,4,-2,-2,-1,3,8,14,17
1537912672993787,-4,-2,-1,1,3,-13,2,-4
1537912673006752,2,0,-2,-12,-52,-32,4,8
1537912673006752,3,0,1,2,14,-13,-15,-4
1537912673015729,-5,-1,1,3,-10,-10,-10,-8
1537912673015729,4,1,1,-1,6,2,15,7
1537912673028694,12,4,1,-4,-2,17,11,24
1537912673028694,-10,-4,-4,-1,-21,12,7,-5
1537912673037670,-6,0,1,-10,-26,-75,-46,-30
1537912673037670,5,3,0,2,7,16,10,-2
1537912673051632,-6,-3,-2,2,-2,-12,4,-5
1537912673051632,-5,0,-1,0,8,-3,-8,-16
1537912673058614,5,-2,-1,5,12,25,22,27
1537912673058614,-8,-4,-4,-5,-23,-18,-26,-19
1537912673066592,0,0,1,0,2,12,-9,-11
1537912673066592,2,0,0,2,9,-10,5,9
1537912673075568,0,-1,-1,4,13,14,8,-3
1537912673075568,3,0,-2,-3,-24,8,13,10
1537912673097511,-4,-2,-1,-1,-10,9,10,-4
1537912673097511,-8,-3,-3,-2,-18,-12,-10,-14
1537912673099506,-12,-2,-3,-9,-1,-24,-38,-32
1537912673099506,13,5,4,7,26,29,20,26
1537912673112473,-4,-2,1,-1,16,36,-10,-7
1537912673112473,14,3,1,-4,-14,-30,-1,10
1537912673118455,-2,-3,-2,3,12,10,11,8
1537912673118455,-8,-2,0,-7,-30,-17,-8,-17
1537912673126435,3,1,-2,-1,-7,-4,8,15
1537912673126435,-9,-5,-1,9,45,42,7,-18
1537912673135410,1,1,-1,-1,-8,-3,-13,3
1537912673135410,3,-1,1,2,5,-5,5,3
1537912673148376,2,0,-2,2,10,-12,-3,1
1537912673148376,-12,-3,-2,-5,2,37,10,-14
1537912673157351,17,4,2,8,13,-10,4,34
1537912673157351,0,-3,-1,-4,8,-1,2,-2
1537912673172310,-4,-3,-4,-4,-18,-38,-19,-11
1537912673172310,5,2,2,0,-5,9,2,6
1537912673179291,-6,-5,-3,3,0,19,30,3
1537912673179291,-8,-6,-5,-13,-13,16,1,0
1537912673186272,-1,2,2,-2,0,-18,-12,-9
1537912673186272,5,-1,-1,0,-3,-13,16,23
1537912673195249,1,2,4,1,-1,-21,-14,-14
1537912673195249,-3,-2,-3,4,28,4,-3,9
1537912673209211,-3,-1,-2,2,8,-2,11,-6
1537912673209211,11,9,6,3,-5,-5,4,15
1537912673218187,-13,-7,0,8,16,62,27,-19
1537912673218187,5,6,7,-13,-48,-61,-72,4
1537912673232150,8,2,-1,-2,-3,14,-2,-3
1537912673232150,-16,-11,-9,-7,-15,6,-4,-9
1537912673239131,-2,0,-1,7,48,7,-15,-21
1537912673239131,-9,-3,0,6,39,-61,7,-12
1537912673255089,30,8,3,-17,-50,-71,-35,60
1537912673255089,-33,-11,-7,1,29,51,-14,-64
1537912673257085,-6,-9,-8,-13,-69,-31,12,1
1537912673257085,20,1,-2,-14,-11,-34,-1,43
1537912673269052,2,7,8,20,51,27,10,-11
1537912673269052,-25,-10,-4,12,17,18,21,-21
1537912673278030,15,3,-2,-27,-66,-66,-57,27
1537912673278030,-13,3,4,14,8,84,28,-37
1537912673291991,-26,-15,-7,-1,-70,-74,-2,-46
1537912673291991,56,28,20,7,0,-16,31,96
1537912673298973,-38,-13,-9,-13,49,41,-10,-50
1537912673298973,16,6,3,24,41,106,81,-3
1537912673322908,21,-1,-5,-43,-48,-67,-53,79
1537912673322908,18,10,5,0,11,17,3,-1
1537912673323907,-69,-25,-12,-12,-21,-31,-43,-86
1537912673323907,65,25,15,14,59,74,81,121
1537912673328894,-23,-2,6,25,50,69,28,-47
1537912673328894,-22,-24,-24,-47,-53,-39,-20,-27
1537912673337869,61,30,16,3,-2,53,35,87
1537912673337869,-54,-24,-16,-2,-36,-40,-50,-92
1537912673351832,-15,-9,-10,-10,11,12,23,-9
1537912673351832,3,3,4,4,5,-38,-58,-8
1537912673358812,-20,-2,-3,5,0,-43,7,-25
1537912673358812,26,9,3,-1,2,-13,-19,33
1537912673374769,-15,-3,2,21,62,45,9,-17
1537912673374769,13,0,-6,-22,-27,-46,-8,28
1537912673376764,2,-2,-2,-4,-9,16,0,1
1537912673376764,-21,-7,-2,4,2,75,46,-12
1537912673388731,9,4,6,17,23,-60,-46,1
1537912673388731,-15,3,9,33,51,28,-21,-52
1537912673397708,34,6,3,1,-9,-7,15,55
1537912673397708,-5,-2,-10,-39,-56,-97,-95,-30
1537912673411671,15,1,0,6,20,68,45,25
1537912673411671,-11,-5,-2,2,-12,-23,-12,-17
1537912673418651,2,2,1,3,-10,7,34,1
1537912673418651,-19,-16,-7,5,27,37,-4,-11
1537912673435606,12,4,0,-13,-55,17,12,22
1537912673435606,0,-2,1,12,1,-7,-8,-19
1537912673436604,-12,-6,-10,-52,-94,-66,-54,20
1537912673436604,0,-2,-6,-8,-52,-51,-17,-3
1537912673449569,-27,-11,-9,-8,61,24,-22,-55
1537912673449569,29,18,12,3,6,38,14,38
1537912673456550,3,-2,2,25,38,46,33,-7
1537912673456550,-16,-4,-2,2,37,-38,-13,-15
1537912673471511,17,7,4,0,-6,25,-8,20
1537912673471511,-30,-19,-12,-3,38,50,13,-28
1537912673480487,13,5,2,8,23,11,-5,1
1537912673480487,-3,1,2,3,-2,1,2,2
1537912673495446,-7,-4,-2,6,5,-10,-9,-20
1537912673495446,3,1,-2,-5,-4,22,22,24
1537912673496444,6,4,5,23,76,49,30,19
1537912673496444,4,3,2,-4,31,18,13,7
1537912673509409,-5,-4,-4,-6,-5,16,-10,-20
1537912673509409,1,-1,-1,-6,-17,-31,-15,-2
1537912673516390,-11,-1,0,11,18,18,14,-27
1537912673516390,25,6,3,-5,-41,-27,8,55
1537912673532348,-5,1,1,-2,-17,-8,19,12
1537912673532348,5,-1,-1,-1,-18,-30,-24,-1
1537912673538332,4,-1,-2,9,-20,-7,-3,-12
1537912673538332,-27,-10,-10,-31,-62,-24,2,-19
1537912673555287,15,6,4,-2,-11,5,13,16
1537912673555287,6,2,-1,-5,-25,6,15,12
1537912673556286,-9,-5,-4,-3,-18,-15,-3,-12
1537912673556286,0,2,3,16,6,32,0,-6
1537912673569250,8,-2,0,-5,-10,-32,13,33
1537912673569250,-14,-6,-5,0,23,41,10,-29
1537912673576230,13,2,-1,-3,15,49,7,17
1537912673576230,-19,-10,-8,-12,2,-6,-22,-29
1537912673592187,-4,-2,-5,-2,-8,-3,-20,-25
1537912673592187,-2,-1,3,7,21,50,42,20
1537912673599169,-1,-5,-6,-6,-16,-47,-34,-5
1537912673599169,11,7,6,13,14,23,4,3
1537912673615126,-2,1,4,25,80,82,64,0
1537912673615126,6,7,5,3,60,-83,-66,4
1537912673617121,6,6,0,-10,-15,0,-5,-7
1537912673617121,-2,-2,1,5,-1,40,14,0
1537912673629090,-10,-5,-1,1,8,6,-10,-23
1537912673629090,6,-2,-3,-4,-35,-39,18,17
1537912673636070,-5,-2,1,9,47,0,5,6
1537912673636070,2,1,2,9,22,-16,-8,-13
1537912673652027,-3,-6,-6,-12,-41,-86,-29,0
1537912673652027,-2,1,0,-7,-42,3,5,-2
1537912673659008,5,0,1,0,-27,-46,0,17
1537912673659008,-5,-5,-6,-11,-29,-1,-3,-15
1537912673674966,-11,-3,-3,1,8,12,-19,-22
1537912673674966,-1,0,-2,-4,-19,-19,1,4
1537912673676961,-2,-1,0,-2,-7,6,2,-10
1537912673676961,4,0,1,4,8,4,18,20
1537912673689926,4,2,2,-6,-31,-9,10,13
1537912673689926,3,0,1,-4,-31,10,0,-8
1537912673695910,4,-1,1,4,12,36,27,22
1537912673695910,12,4,5,4,5,-23,-7,4
1537912673711867,-2,-1,1,-3,6,18,9,7
1537912673711867,-8,-3,-4,-3,-6,16,11,-7
1537912673718849,4,-1,0,-3,1,0,5,19
1537912673718849,-5,-3,-2,-1,14,10,-10,-15
1537912673734806,2,2,-1,2,6,17,-1,1
1537912673734806,0,-2,-3,-1,1,0,4,10
1537912673736801,-4,-2,-3,-3,-3,-5,-14,-20
1537912673736801,-3,2,3,9,22,29,15,8
1537912673748768,-5,-5,-1,-1,21,-19,-31,-27
1537912673748768,-8,-4,-5,-3,6,-15,-16,-18
1537912673757744,3,0,2,0,-3,-8,-4,-2
1537912673757744,-3,-2,-3,-1,-9,-7,0,1
1537912673771707,2,-1,-3,1,-3,6,8,10
1537912673771707,-1,-1,-2,-1,-12,-35,-4,2
1537912673778688,-4,-1,0,-2,8,16,-8,-5
1537912673778688,-2,-1,2,-1,-3,-11,1,-5
1537912673795644,2,0,-2,-4,-12,2,-1,1
1537912673795644,0,-2,-1,-2,5,-2,-2,0
1537912673796641,-1,-2,-2,-1,-6,1,3,-1
1537912673796641,-8,-2,-2,2,11,-27,-15,-8
1537912673808609,8,3,1,-2,-7,9,15,23
1537912673808609,-7,-3,-2,1,2,8,-14,-12
1537912673817585,1,2,1,4,0,7,18,4
1537912673817585,2,-2,-1,-3,2,4,-14,-5
1537912673831547,-7,-3,-3,-3,-17,-29,-11,-22
1537912673831547,3,-1,1,5,39,11,10,17
1537912673838528,-1,1,0,-2,-2,-23,-12,-9
1537912673838528,-1,-2,-1,4,32,13,0,1
1537912673855483,1,0,0,2,11,12,9,4
1537912673855483,-2,-2,-1,-3,-9,3,4,0
1537912673856481,-2,-1,0,0,-7,-6,-2,-1
1537912673856481,3,0,-3,-5,-18,-5,4,7
1537912673877425,-5,-4,-2,-1,0,-4,-2,-6
1537912673877425,5,0,1,-2,-8,12,5,7
1537912673879420,-2,1,0,-4,-16,13,5,1
1537912673879420,-5,-5,-6,-6,-4,-13,-7,-9
1537912673892384,-5,-3,2,3,5,8,9,-1
1537912673892384,9,5,1,-2,7,17,-7,2
1537912673898369,11,6,5,1,-11,-9,9,13
1537912673898369,-3,-1,0,3,8,6,0,-5
1537912673915323,-2,-3,-4,-5,-11,-6,-6,-1
1537912673915323,1,-1,-1,2,2,15,11,4
1537912673916321,-5,-4,-3,-1,-2,-4,-6,-4
1537912673916321,-2,-2,0,-1,-11,5,7,4
1537912673929286,0,0,0,0,8,-13,-14,-7
1537912673929286,-3,-1,0,1,-7,2,5,-3
1537912673937264,1,-2,-2,-3,5,-9,-9,1
1537912673937264,-7,-2,-3,-2,-7,-8,-6,-26
1537912673952225,-1,-2,-2,0,-7,-13,0,12
1537912673952225,2,-1,0,-2,3,1,-11,-14
1537912673959206,-3,-1,1,-2,-3,25,11,5
1537912673959206,2,0,-1,-2,-2,-34,-16,-2
1537912673975163,-5,-1,-1,-2,4,6,-2,-10
1537912673975163,-4,-1,-1,0,2,-11,5,3
1537912673976161,1,1,-1,4,15,21,9,-2
1537912673976161,-1,0,-1,-7,-19,-23,-7,5
1537912673989126,-4,0,-2,3,24,10,-17,-9
1537912673989126,-1,-2,-1,-3,-12,-14,-1,-5
1537912673998102,-1,-2,-3,-6,-10,-23,-3,-1
1537912673998102,0,-2,0,2,-1,25,15,7
1537912674012065,1,0,0,-4,-15,0,-1,-3
1537912674012065,-2,1,0,4,11,28,9,-2
1537912674019046,-7,-6,-4,-9,-14,-41,-19,-18
1537912674019046,0,-1,-2,1,-8,8,12,6
1537912674034006,12,5,4,2,11,-18,-8,-3
1537912674034006,-6,-3,-2,-4,-14,-19,-21,-7
1537912674040988,-4,-1,-3,-2,2,-10,0,0
1537912674040988,-8,-3,-2,-5,-9,-18,-16,-17
1537912674048966,0,-4,-4,-1,-1,14,12,7
1537912674048966,-3,-2,-4,-3,-5,-9,-8,-6
1537912674057942,-1,1,3,4,10,5,-3,0
1537912674057942,3,1,3,-2,-4,-5,-2,7
1537912674071904,-5,-3,-1,6,21,20,-2,-2
1537912674071904,2,3,2,-4,-17,-14,-7,-4
1537912674078886,0,-4,-1,1,5,32,14,9
1537912674078886,-4,-3,-2,-6,-38,-20,-14,-1
1537912674094843,2,1,0,-1,-6,-3,6,1
1537912674094843,5,-1,1,3,15,4,15,15
1537912674100828,-3,-1,-2,-4,-15,-7,-13,-12
1537912674100828,0,0,0,1,14,25,13,3
1537912674108806,2,2,2,-4,-12,-30,-13,2
1537912674108806,-7,-3,-1,1,-1,15,8,-12
1537912674117783,1,0,0,-2,-6,-10,-2,-9
1537912674117783,2,2,2,1,15,28,9,-5
1537912674131746,-11,-9,-4,-5,8,13,-3,-2
1537912674131746,14,7,3,2,5,36,36,28
1537912674138728,-1,-1,2,1,13,-12,0,5
1537912674138728,-5,-1,-3,4,6,25,-1,-10
1537912674154685,9,5,2,2,6,16,26,17
1537912674154685,-5,-4,-7,-21,-33,-66,-22,-1
1537912674161666,-6,0,0,5,18,11,-19,-20
1537912674161666,17,4,2,2,14,15,11,25
1537912674168647,-14,-6,-4,-2,19,1,13,-8
1537912674168647,6,1,-1,0,-14,-47,-30,-11
1537912674177624,-9,-7,-6,-4,-4,13,10,7
1537912674177624,-8,-5,-3,-3,17,-3,-14,-11
1537912674192583,-3,-1,-1,2,-16,-12,14,-14
1537912674192583,10,5,6,0,-10,-8,13,43
1537912674198569,-2,5,2,-2,-19,5,-14,-32
1537912674198569,-12,0,5,16,31,52,34,-10
1537912674214526,30,8,3,14,-16,-41,10,51
1537912674214526,3,6,4,-17,-54,-66,26,17
1537912674221506,-18,-6,-8,-17,-17,0,-31,-14
1537912674221506,-2,-3,-4,5,12,40,-6,-1
1537912674237462,19,11,6,4,-3,44,40,23
1537912674237462,-26,-11,-2,29,23,102,23,-38
1537912674239458,18,1,-7,-47,-37,-118,-61,46
1537912674239458,6,7,4,0,4,19,2,3
1537912674252422,-41,-17,-12,-16,-11,-12,-17,-64
1537912674252422,8,1,-1,5,43,54,11,19
1537912674258407,-3,-6,1,25,50,127,44,-1
1537912674258407,3,-11,-11,-18,-67,-76,1,-3
1537912674274363,53,29,18,15,25,-10,-35,55
1537912674274363,-15,-7,-6,-6,-19,-4,1,-32
1537912674281345,-16,-8,-2,18,48,26,30,-19
1537912674281345,-17,-11,-13,-55,-61,-71,-45,10
1537912674297303,41,11,4,5,27,84,30,59
1537912674297303,-92,-33,-20,-19,3,13,-18,-122
1537912674299298,113,25,5,-13,-53,-10,-5,127
1537912674299298,-23,2,4,7,12,-7,-4,-42
1537912674312264,-44,-20,-10,-4,-2,13,-14,-72
1537912674312264,8,4,-4,-17,-26,-93,-82,11
1537912674319244,-38,-10,-1,19,17,42,27,-54
1537912674319244,16,4,3,13,-10,27,34,24
1537912674334204,10,6,4,-11,-21,-94,-79,10
1537912674334204,20,8,9,23,-1,73,31,17
1537912674341186,-51,-19,-14,-18,-6,57,11,-57
1537912674341186,24,15,14,15,29,-18,-47,-4
1537912674358141,5,-3,-3,1,-31,51,45,36
1537912674358141,3,-3,-7,-23,-46,-14,-39,2
1537912674364125,30,20,15,21,26,39,33,38
1537912674364125,-28,-10,-4,5,-15,-21,1,-47
1537912674372103,-25,-10,-5,0,9,13,7,-46
1537912674372103,0,-2,2,14,87,88,41,7
1537912674379086,24,7,5,1,-33,-63,-3,23
1537912674379086,6,0,-2,-2,-34,-27,-20,12
1537912674394045,3,0,-1,-13,-25,0,-8,-4
1537912674394045,32,11,3,-6,-47,-72,20,46
1537912674401026,-36,-11,-8,-14,-41,-75,-39,-61
1537912674401026,-8,-5,-5,-5,-16,16,-7,-4
1537912674417981,-2,1,2,4,0,-36,-19,15
1537912674417981,31,12,7,-7,-22,-55,-13,18
1537912674418978,-6,-10,-10,-4,19,17,-2,0
1537912674418978,-14,-7,-3,19,68,54,17,-21
1537912674432940,-31,-13,-10,-14,-20,-75,-60,-42
1537912674432940,-9,-5,-4,-2,11,68,10,-27
1537912674438924,23,13,13,0,-14,-59,-4,44
1537912674438924,4,-2,-4,2,54,77,36,1
1537912674454881,-26,-9,-3,1,-14,4,-4,-35
1537912674454881,22,8,10,26,35,33,33,22
1537912674460865,5,0,-4,-6,-16,-67,-43,11
1537912674460865,1,2,2,0,-1,10,8,-6
1537912674477820,0,-2,-3,-6,3,68,28,-2
1537912674477820,-23,-11,-7,-4,5,-42,-27,-24
1537912674478817,3,2,6,21,10,62,44,10
1537912674478817,5,-2,-5,-11,-5,-28,-37,37
1537912674490786,-19,-11,-10,-12,75,20,1,-26
1537912674490786,24,11,6,13,28,19,11,28
1537912674499761,-11,-3,-1,4,10,20,8,-20
1537912674499761,-4,-6,-7,-21,-32,-55,-15,-1
1537912674514722,-5,-4,-2,7,8,3,11,-8
1537912674514722,-7,-7,-2,-5,10,3,-12,1
1537912674521704,-11,-4,-2,-2,20,12,-7,-26
1537912674521704,10,3,4,9,-10,-9,8,7
1537912674537661,6,4,1,1,-8,3,4,12
1537912674537661,-1,1,-2,-1,-3,1,-2,-2
1537912674539657,-5,-2,1,3,-1,-5,-2,-10
1537912674539657,3,0,2,4,16,9,9,4
1537912674551624,11,5,4,7,-9,-10,2,14
1537912674551624,-3,-3,-1,-6,2,3,-6,3
1537912674558605,-15,-6,-4,0,21,14,0,-21
1537912674558605,6,3,3,1,19,22,6,7
1537912674574563,8,2,2,-1,-12,23,9,11
1537912674574563,-9,-5,-5,9,26,-1,-4,-17
1537912674581545,-5,-3,-2,-4,-12,-24,-3,-4
1537912674581545,7,0,-2,-4,-6,13,-2,9
1537912674597502,1,3,1,2,-12,-7,5,2
1537912674597502,0,0,2,5,14,9,0,1
1537912674599495,5,1,0,1,9,15,10,10
1537912674599495,-10,-4,-1,-4,-8,-25,-21,-24
1537912674611463,4,-1,-1,-1,-7,3,12,14
1537912674611463,-3,-1,-3,-4,-12,-10,-11,-13
1537912674620439,-7,0,-1,-4,0,-1,-4,-18
1537912674620439,5,1,0,1,-6,1,11,13
1537912674634401,-1,1,2,2,4,8,-1,-3
1537912674634401,4,-1,-2,-2,-6,15,13,14
1537912674641382,-2,1,1,1,-8,-22,-6,2
1537912674641382,2,1,0,1,2,4,7,-5
1537912674657340,1,-1,0,0,-6,-1,-1,2
1537912674657340,0,-2,-3,-2,-9,-3,8,16
1537912674659335,1,-6,-4,-1,-1,-8,11,10
1537912674659335,-9,-3,-3,-6,-8,-44,-50,-31
1537912674671303,-1,0,-1,-2,-6,-17,-1,-3
1537912674671303,-2,0,-1,0,-5,-5,-6,-9
1537912674680279,-1,-1,-3,0,2,14,4,2
1537912674680279,4,2,2,3,0,10,21,17
1537912674694242,-1,0,-2,-1,-5,-1,-6,-4
1537912674694242,-4,-5,-2,-8,-15,-21,-10,16
1537912674701225,-4,0,1,1,7,16,-10,-23
1537912674701225,5,-1,-1,-1,-5,-6,11,9
1537912674717181,-10,-4,-4,0,7,1,-10,-20
1537912674717181,1,-1,-1,-9,-12,-42,-26,24
1537912674718179,7,7,8,9,17,1,1,-4
1537912674718179,15,8,4,3,1,-12,0,20
1537912674739123,2,-1,-1,1,6,6,6,1
1537912674739123,-11,-3,-4,3,2,3,-4,-22
1537912674740121,6,-2,-2,3,-26,35,24,14
1537912674740121,-5,-3,2,-11,-27,-58,-15,21
1537912674755080,4,3,1,-2,-8,-6,-11,-7
1537912674755080,-2,0,0,3,3,24,9,-8
1537912674761065,-6,-2,-2,1,0,-3,-6,-11
1537912674761065,-8,-6,-4,3,20,48,28,-15
1537912674777022,-7,-8,-8,-11,-23,-30,-20,14
1537912674777022,15,7,8,6,7,20,28,20
1537912674778019,-5,3,2,-8,-18,-58,-40,-16
1537912674778019,-4,-5,-6,8,18,8,-21,-6
1537912674799960,-24,-7,-5,-6,-14,37,12,-49
1537912674799960,-10,-15,-13,-29,-41,-22,-3,21
1537912674799960,19,10,6,15,9,107,55,49
1537912674799960,-18,-4,-3,-7,-32,-23,-37,-61
1537912674814920,15,9,7,8,19,86,40,28
1537912674814920,-64,-27,-17,-22,-37,-18,-38,-87
1537912674820905,18,9,8,8,31,76,30,17
1537912674820905,55,15,9,17,36,17,33,87
1537912674836861,7,-3,-7,-18,-8,-39,20,44
1537912674836861,7,9,9,24,31,19,-13,-34
1537912674837858,-41,-17,-13,-3,6,18,23,-58
1537912674837858,-27,-14,-9,-14,-14,23,18,17
1537912674859799,30,9,4,-17,23,-91,-73,40
1537912674859799,-3,-1,-2,28,64,102,0,-58
1537912674859799,-10,5,5,15,32,-79,-25,-16
1537912674859799,6,-1,-3,-12,27,39,17,-12
1537912674874759,-56,-11,3,12,44,60,49,-50
1537912674874759,95,34,16,1,-32,-48,22,127
1537912674881740,-18,-22,-23,-25,-13,-83,-40,-33
1537912674881740,6,11,4,-10,-20,-60,-19,-10
1537912674896701,-42,-20,-8,14,16,31,-14,-60
1537912674896701,-2,1,-1,-13,-27,-95,-77,-16
1537912674897698,-47,-24,-12,11,53,84,50,-15
1537912674897698,12,6,2,7,57,40,18,25
1537912674919640,67,34,27,41,29,43,25,57
1537912674919640,-4,-6,-7,-20,-81,-85,-4,3
1537912674920637,-3,-3,-4,-9,24,1,-39,-10
1537912674920637,-38,-11,-5,6,-1,17,-13,-55
1537912674935598,7,1,0,7,10,47,19,-5
1537912674935598,-23,-9,-5,-4,27,-20,-9,-20
1537912674941582,21,10,9,6,6,20,0,29
1537912674941582,13,7,4,-2,-36,-31,5,9
1537912674956541,-9,-5,-6,-8,-12,-32,-18,-12
1537912674956541,7,4,4,4,16,34,31,17
1537912674963524,13,2,-1,-17,-50,-10,-2,15
1537912674963524,-9,-6,-2,8,3,13,0,-12
1537912674972500,3,-2,-5,-17,-41,-41,-8,8
1537912674972500,-18,-5,-4,4,22,34,9,-19
1537912674978484,8,5,3,8,22,-30,-24,-6
1537912674978484,-2,-1,-2,3,-1,7,6,2
1537912674995437,1,-1,-1,-2,-16,-26,-15,-5
1537912674995437,4,2,2,4,16,36,21,6
1537912675001420,1,-3,-2,-9,-18,6,0,3
1537912675001420,6,1,1,0,-9,-16,2,9
1537912675016380,-4,-4,-3,-6,-7,0,-3,-10
1537912675016380,-6,-1,2,3,11,15,11,-1
1537912675023362,8,0,-3,-14,-67,-9,8,12
1537912675023362,-37,-15,-9,-3,21,30,-15,-23
1537912675039319,31,13,8,-1,2,-23,-2,26
1537912675039319,-7,-2,-2,-3,5,8,-20,-41
1537912675040316,1,2,-2,-2,-8,-22,-9,-4
1537912675040316,-3,-1,-2,-2,-7,14,7,-12
1537912675055276,-9,-5,-4,-2,-5,2,15,13
1537912675055276,-4,-2,0,-5,1,-36,-9,5
1537912675061260,10,3,2,1,-9,-10,-17,-7
1537912675061260,7,5,1,4,-26,6,10,7
1537912675076220,-7,-5,-5,-8,-5,11,8,-7
1537912675076220,3,3,3,1,5,-27,-10,12
1537912675084199,-6,-4,-2,4,2,28,8,-6
1537912675084199,14,3,3,-3,-3,-20,-4,24
1537912675099159,-4,-1,0,1,-4,-3,-7,-12
1537912675099159,-8,-3,-4,-1,-3,21,9,-8
1537912675100156,-3,-1,-2,-8,-21,-23,-7,1
1537912675100156,5,1,4,10,43,72,21,4
1537912675115116,1,-4,-5,-13,3,-76,-19,11
1537912675115116,2,4,4,6,12,27,-1,-12
1537912675121100,7,3,0,-3,-6,-10,7,19
1537912675121100,-8,-4,-1,3,8,1,4,-26
1537912675136060,-4,-5,-3,1,-17,7,4,7
1537912675136060,20,2,0,-15,-39,-26,10,59
1537912675144039,-11,-2,-2,-5,8,12,-47,-52
1537912675144039,-17,-4,-2,-9,-17,-27,-25,-35
1537912675166977,2,0,-2,6,11,8,3,1
1537912675166977,-2,-1,0,12,46,85,27,-11
1537912675167975,-13,-12,-7,5,54,-77,-54,6
1537912675167975,3,3,4,-8,-16,22,17,20
1537912675174956,-19,-5,-5,-1,26,74,-15,-30
1537912675174956,11,3,2,12,53,32,3,-2
1537912675180940,8,8,5,-2,-26,-21,6,4
1537912675180940,-6,-7,-6,-4,23,-57,-13,0
1537912675195901,-19,-7,-3,3,51,65,12,-28
1537912675195901,10,4,4,4,-18,-26,-7,26
1537912675203879,-5,-4,-3,0,-5,14,14,-8
1537912675203879,2,-4,-3,1,0,0,20,5
1537912675219836,13,12,8,11,-38,7,29,4
1537912675219836,9,4,1,4,-11,-43,3,14
1537912675219836,-43,-19,-10,-1,-22,27,-24,-40
1537912675219836,50,26,13,-25,-23,-25,-51,80
1537912675234796,21,7,4,12,-19,89,34,18
1537912675234796,-56,-38,-34,-49,-57,-53,-36,-57
1537912675240780,36,16,6,-1,-41,-46,59,32
1537912675240780,-97,-41,-22,14,-23,-27,-44,-128
1537912675255740,8,5,3,-21,-26,1,-14,29
1537912675255740,84,49,27,17,1,41,46,75
1537912675263719,-49,-20,-11,1,-62,50,-17,-90
1537912675263719,-7,1,-3,-43,-94,4,28,-12
1537912675279676,11,3,7,41,59,-24,18,7
1537912675279676,-53,-31,-21,-24,17,16,-46,-41
1537912675279676,49,25,19,29,-11,45,57,70
1537912675279676,17,6,0,-21,-52,-12,-33,22
1537912675295634,-3,-6,-3,-5,-20,4,-12,-3
1537912675295634,-11,4,8,16,-4,30,36,-17
1537912675301617,-6,-8,-12,-52,-56,-89,-82,5
1537912675301617,-16,-7,1,28,57,89,74,-20
1537912675316577,32,9,2,-10,21,-81,-7,45
1537912675316577,-10,-4,0,24,27,-2,-11,-30
1537912675323559,-12,-21,-20,-50,46,59,32,27
1537912675323559,39,27,21,40,58,112,41,28
1537912675339516,5,-4,-8,-24,-43,-43,-34,1
1537912675339516,-29,-14,-7,2,5,8,9,-45
1537912675340514,-5,2,8,26,20,-11,6,-1
1537912675340514,-18,-14,-10,1,70,52,33,-15
1537912675355474,28,13,7,-7,-21,-18,-4,56
1537912675355474,-11,-2,-1,2,32,39,3,-8
1537912675361457,11,4,4,11,34,16,11,-1
1537912675361457,17,3,-1,0,-37,-31,-8,22
1537912675376418,-49,-16,-8,1,-16,-5,-12,-66
1537912675376418,14,4,2,-1,-19,-26,3,27
1537912675383399,10,8,5,10,28,18,16,12
1537912675383399,12,3,2,14,27,-9,-5,8
1537912675399356,-14,-7,-5,-7,-5,-27,-10,-20
1537912675399356,1,0,-1,-9,-43,-3,1,2
1537912675400354,19,9,6,9,24,32,20,25
1537912675400354,-17,-7,-5,0,9,-84,-42,-30
1537912675413319,-8,-3,-3,0,4,9,-1,-14
1537912675413319,4,2,2,2,2,24,6,10
1537912675421297,-7,1,0,4,-10,-4,11,4
1537912675421297,7,-1,-3,-2,34,14,-20,12
1537912675436258,-15,-4,-1,-2,-10,7,1,-28
1537912675436258,15,7,4,0,-2,-27,-21,3
1537912675443239,-5,-1,-1,-1,-1,-17,-16,-9
1537912675443239,5,-1,-1,-2,-17,-4,1,8
1537912675459196,0,-1,-1,0,5,31,13,-1
1537912675459196,-8,-3,-2,-4,-6,-2,5,15
1537912675460194,8,2,2,0,-2,27,16,0
1537912675460194,-6,-6,-5,-5,-6,-74,-42,-15
1537912675474156,-10,1,1,-1,-1,5,-5,-12
1537912675474156,1,0,0,-3,-8,-5,3,2
1537912675481138,0,-3,-2,-1,8,-13,-10,-3
1537912675481138,0,0,-1,-1,-8,3,11,6
1537912675496098,-7,-6,-4,-3,-4,-10,-7,-7
1537912675496098,-3,-4,-1,-4,0,-13,-9,-6
1537912675504076,0,2,0,2,3,3,-1,4
1537912675504076,4,1,-1,-2,-15,13,10,7
1537912675519036,-1,-3,-2,-2,-2,-11,-7,-5
1537912675519036,3,0,-1,-2,-1,10,6,4
1537912675520034,-4,-1,1,0,2,-1,-2,-1
1537912675520034,0,-3,-1,-4,-21,-8,9,-6
1537912675541975,8,4,0,-1,3,6,2,12
1537912675541975,-4,-6,-6,2,3,24,0,-2
1537912675542973,-1,2,0,-9,-42,-81,-19,-8
1537912675542973,-2,-1,-1,-5,-8,9,-4,-13
1537912675555938,0,5,6,9,20,-22,-32,-26
1537912675555938,3,2,-1,1,11,33,24,11
1537912675563919,0,-2,-4,0,28,7,-5,1
1537912675563919,4,3,3,-1,-20,10,16,19
1537912675579875,-7,-5,-4,-5,-16,-8,8,-6
1537912675579875,-6,-3,-1,-4,-15,-27,-25,-13
1537912675579875,-1,-1,1,5,6,9,3,3
1537912675579875,-9,-5,-2,4,-6,31,21,-12
1537912675593839,1,-3,-3,-13,-15,-40,-7,23
1537912675593839,14,6,3,-2,-6,-15,-12,12
1537912675600819,-11,-5,-5,-6,-15,-23,-23,-27
1537912675600819,-5,-2,-4,1,2,-11,-7,-13
1537912675615779,-4,-2,-2,-2,-2,20,7,-6
1537912675615779,0,-2,-1,2,8,2,10,5
1537912675623757,7,1,1,-1,-1,5,8,13
1537912675623757,5,1,1,-2,-1,-1,-9,6
1537912675639714,-4,-3,-1,1,2,-2,-3,-9
1537912675639714,-5,-2,0,-3,-2,-7,-6,-12
1537912675639714,0,-2,1,3,7,21,4,1
1537912675639714,5,0,1,-5,-5,-6,-3,13
1537912675653677,-2,0,-1,0,-3,7,1,1
1537912675653677,-4,1,-2,2,1,-2,4,-4
1537912675661655,-1,-2,0,-3,4,17,1,-3
1537912675661655,1,1,1,0,1,-5,1,2
1537912675676615,0,2,0,9,19,19,5,-2
1537912675676615,4,2,2,0,0,-46,-15,-1
1537912675683597,-4,-2,0,2,13,22,3,-5
1537912675683597,7,2,0,1,-2,-14,0,12
1537912675699554,-5,-3,-3,0,1,14,6,-8
1537912675699554,-1,-2,1,-1,-2,15,12,6
1537912675700552,-3,-1,-1,0,2,-3,-8,-9
1537912675700552,-2,-1,0,-1,2,-6,-2,-6
1537912675713517,-5,-4,-4,-4,-7,-12,-27,-17
1537912675713517,-3,-1,-1,-3,-6,4,5,-2
1537912675721495,4,0,0,-1,1,-1,8,13
1537912675721495,-2,-2,-1,-2,-16,-5,0,2
1537912675736456,2,0,1,2,2,1,2,6
1537912675736456,0,1,1,0,-1,9,6,1
1537912675743437,-2,0,0,-2,-2,-3,-2,-1
1537912675743437,0,-1,-3,-1,5,-7,-9,-3
1537912675767373,8,3,1,1,-3,-9,11,15
1537912675767373,-11,-6,-2,-4,0,-14,-10,-22
1537912675768371,3,0,1,0,-4,3,7,8
1537912675768371,0,0,-2,0,4,4,-1,1
1537912675773358,0,-2,-1,-2,-9,-4,2,3
1537912675773358,-2,-3,-2,-1,3,7,-2,-4
1537912675781337,2,1,0,0,2,5,3,3
1537912675781337,-2,0,0,-3,-10,3,-7,3
1537912675796299,-2,-1,-3,-1,3,-7,-3,-7
1537912675796299,2,-1,-3,0,-15,-20,12,28
1537912675803278,-7,-4,-2,-7,-8,4,-11,-27
1537912675803278,9,10,7,5,-11,-13,-27,-13
1537912675819236,-3,0,0,0,1,8,13,5
1537912675819236,-1,-2,-2,-2,-3,8,-1,-4
1537912675820233,-5,-4,-1,4,9,8,14,11
1537912675820233,1,-2,-1,-1,1,10,9,8
1537912675834194,-1,-2,1,-4,-12,-24,-14,-10
1537912675834194,-1,-1,-1,-4,-16,8,4,2
1537912675841176,3,1,-1,1,-7,1,3,9
1537912675841176,2,0,0,3,10,20,10,6
1537912675856137,0,0,-3,2,21,8,1,7
1537912675856137,-1,-2,-2,-2,4,-4,1,-8
1537912675864116,-12,-4,-1,0,-5,16,-19,-25
1537912675864116,4,-1,-1,0,10,10,9,8
1537912675879075,-2,-2,-3,-5,-15,-6,1,3
1537912675879075,-4,0,0,1,-9,-32,-7,3
1537912675887053,11,3,0,0,2,12,11,8
1537912675887053,-3,-2,-1,-4,0,-2,-10,-11
1537912675894034,-10,-3,-1,1,-5,-11,6,-11
1537912675894034,2,1,-2,0,18,61,8,3
1537912675901016,-4,-4,-3,-10,-29,-64,-29,-2
1537912675901016,-6,-3,-4,-6,-5,-8,-2,-4
1537912675915975,3,-1,-3,-2,-6,5,2,-2
1537912675915975,-1,0,-2,-1,3,-17,-4,0
1537912675923954,6,0,-3,0,2,4,3,10
1537912675923954,2,2,1,4,4,10,12,15
1537912675938914,-2,1,0,2,5,16,-6,-10
1537912675938914,-2,-2,-2,-3,-2,-11,-12,-8
1537912675946893,2,1,-1,0,-1,-4,8,2
1537912675946893,-1,-2,-2,-4,-3,-17,-8,-5
1537912675953874,1,-1,1,0,6,15,8,8
1537912675953874,-4,-2,1,3,5,17,-1,-6
1537912675960855,-1,1,1,1,11,-3,-7,-2
1537912675960855,-1,-2,-2,0,-20,-45,-1,7
1537912675977810,-3,-4,-3,-13,-62,-7,-13,0
1537912675977810,2,-2,0,2,6,6,-10,-15
1537912675983794,-5,-1,-1,3,10,7,-9,-13
1537912675983794,-1,-4,-5,-3,4,-19,5,13
1537912675998754,5,1,-1,0,2,-43,-23,1
1537912675998754,-14,-8,-5,-4,-25,18,7,-19
1537912676006732,11,7,4,6,67,12,-6,26
1537912676006732,0,0,-2,0,-2,14,6,-9
1537912676013714,4,-3,-3,3,10,6,13,1
1537912676013714,-4,1,-1,2,34,27,19,-1
1537912676021692,-15,-6,-5,-11,-36,-46,-18,-16
1537912676021692,0,-1,-1,-1,-37,29,23,-4
1537912676036653,12,5,4,10,39,51,13,28
1537912676036653,-2,-1,1,-5,13,13,-2,-9
1537912676043634,-19,-9,-5,7,3,23,-1,-39
1537912676043634,14,10,12,0,33,13,-10,40
1537912676058594,8,8,4,10,7,4,-6,-8
1537912676058594,6,-3,-8,-6,-6,26,7,16
1537912676066573,9,7,4,10,-19,30,13,-17
1537912676066573,-14,-5,-5,-6,-10,-67,-18,-13
1537912676081533,-3,3,5,11,32,-52,-11,-16
1537912676081533,13,5,4,1,-14,-29,-6,17
1537912676082530,-22,-16,-9,3,21,35,19,-37
1537912676082530,-11,-2,-3,-14,-29,-47,-32,-9
1537912676096493,5,1,-1,1,4,31,18,14
1537912676096493,4,2,5,3,4,3,9,5
1537912676103474,11,-5,-8,-26,-90,-84,-21,33
1537912676103474,-29,-20,-17,-11,15,54,-3,-26
1537912676118434,23,8,3,-1,11,35,33,38
1537912676118434,-1,-4,-1,-6,-40,-94,-55,-19
1537912676126413,2,2,-1,-3,7,27,18,12
1537912676126413,-15,-9,-2,7,16,40,16,-19
1537912676142371,-28,-7,-1,-11,-26,22,9,-21
1537912676142371,33,8,3,3,-3,8,11,59
1537912676142371,4,5,4,2,-10,-32,6,10
1537912676142371,-5,2,2,1,2,11,-5,-33
1537912676156334,8,-5,-6,-22,-59,-61,-41,1
1537912676156334,-4,10,9,10,35,12,4,-16
1537912676163315,5,0,1,4,-4,-2,7,18
1537912676163315,14,1,0,-4,-19,28,6,17
1537912676179276,-18,-10,-5,2,10,11,4,-26
1537912676179276,-27,-13,-10,-17,-22,-26,-36,-28
1537912676187251,19,6,2,0,5,8,3,25
1537912676187251,-4,1,0,8,24,-26,-22,-13
1537912676202212,-10,-4,-2,-10,-15,37,14,2
1537912676202212,5,-1,-1,2,13,17,24,9
1537912676202212,-11,-7,-3,5,28,-16,-16,-9
1537912676202212,16,5,1,-5,-14,-18,-6,35
1537912676216174,-10,-2,-3,-2,-14,-2,-13,-34
1537912676216174,-17,-6,-3,-3,-60,-19,-12,-13
1537912676224153,-3,-3,-3,-13,-8,22,-10,-8
1537912676224153,8,2,-1,3,19,28,23,11
1537912676239113,-1,-2,-2,2,11,-22,0,4
1537912676239113,-12,-11,-8,-6,8,20,-3,-10
1537912676254073,12,8,7,9,28,36,15,19
1537912676254073,-6,-1,-1,-5,-22,-21,-16,-14
1537912676262051,5,1,2,6,25,12,15,8
1537912676262051,-7,-2,-1,1,9,7,2,-14
1537912676263051,-7,-3,-3,-4,-10,-7,8,3
1537912676263051,10,1,4,0,7,-17,-11,0
1537912676276014,1,-2,-4,1,5,-7,-4,-6
1537912676276014,-1,2,2,3,11,-8,-6,1
1537912676283993,-3,-1,1,-1,-8,-16,-12,-8
1537912676283993,0,3,1,10,28,49,33,11
1537912676298952,-2,1,1,0,-1,-25,-12,2
1537912676298952,5,4,1,10,29,13,2,-1
1537912676306930,0,-1,0,4,17,2,-3,-12
1537912676306930,9,-2,-1,-5,-24,-3,-1,21
1537912676321890,-6,0,2,1,3,-2,-4,-17
1537912676321890,3,1,-2,-5,-2,-21,-19,-5
1537912676322888,-5,-2,-1,6,15,25,13,0
1537912676322888,-6,-5,-1,1,8,19,3,-9
1537912676335853,7,1,-1,-11,-30,-25,-12,16
1537912676335853,1,-1,-1,-1,9,-13,10,8
1537912676343832,-5,-1,0,-1,1,5,-6,-12
1537912676343832,-1,-1,-1,-1,-5,-15,-6,-8
1537912676358793,-3,-3,-4,-1,-6,16,6,4
1537912676358793,1,-2,1,-1,-9,10,7,-1
1537912676366773,6,0,0,-5,-13,-9,-2,12
1537912676366773,7,4,1,3,-5,-11,6,1
1537912676381733,-14,-7,-4,0,15,6,-17,-27
1537912676381733,-2,-1,0,4,13,14,2,0
1537912676382730,10,4,0,-6,-8,-28,1,20
1537912676382730,0,-2,0,0,7,4,9,5
1537912676396692,3,0,0,0,-10,21,11,5
1537912676396692,-4,-3,-3,-3,-10,-26,-6,1
1537912676403674,0,3,3,2,12,-25,-20,-20
1537912676403674,-4,0,-1,-3,-14,-21,-15,-16
1537912676418634,0,-1,-1,2,-2,13,3,4
1537912676418634,3,0,0,-1,-1,16,11,-1
1537912676426612,-1,-2,-2,-1,-11,15,20,14
1537912676426612,0,-1,-1,1,-2,0,1,1
1537912676441572,-2,-2,-1,-1,2,-20,-17,-10
1537912676441572,-1,-1,-2,-2,-5,-9,2,17
1537912676442571,-6,-3,-1,0,5,20,-1,-14
1537912676442571,-2,-1,1,1,7,-1,-2,-3
1537912676456532,6,0,0,1,1,9,13,16
1537912676456532,0,0,0,1,-3,0,3,-8
1537912676463514,0,-2,-3,-6,-15,9,8,5
1537912676463514,5,4,2,2,6,-21,-10,-1
1537912676478472,-3,-2,-3,-1,-14,-2,1,-2
1537912676478472,-8,-2,0,-4,-12,5,-16,-25
1537912676487448,0,-2,-3,0,-3,-13,-5,-1
1537912676487448,-2,-1,-2,0,-2,11,10,3
1537912676502408,0,0,0,0,6,6,-5,2
1537912676502408,6,1,-1,1,5,-5,5,9
1537912676502408,-3,-2,0,0,-4,3,6,1
1537912676502408,-4,-2,0,-2,-5,-3,-7,-7
1537912676516370,-2,-2,0,1,18,-6,-4,-2
1537912676516370,3,0,-1,-4,-14,-27,-7,8
1537912676523352,-11,-5,-1,4,23,16,-13,-23
1537912676523352,1,3,0,1,5,-8,1,10
1537912676538311,-1,0,-2,-1,0,-8,3,0
1537912676538311,0,-2,-1,1,9,46,16,2
1537912676547288,2,0,-1,-1,-7,-8,-2,16
1537912676547288,-4,-6,-4,-2,2,0,-7,-15
1537912676562248,-1,0,-1,-6,-4,-15,-11,-5
1537912676562248,-1,-2,0,1,10,13,7,-6
1537912676562248,-1,-2,-1,-3,-6,1,-3,-5
1537912676562248,-2,-2,-2,2,8,16,11,9
1537912676576210,-2,-3,-2,0,8,25,17,4
1537912676576210,11,5,3,-1,-16,-45,-10,12
1537912676584189,-2,0,-1,-1,-4,4,-7,-15
1537912676584189,-7,-3,1,0,-2,15,7,-3
1537912676599149,5,3,4,15,13,4,17,4
1537912676599149,-1,-2,0,-13,-42,40,23,8
1537912676607128,17,7,5,1,-15,0,4,20
1537912676607128,2,0,-2,3,-9,4,-8,-3
1537912676622088,4,3,2,-9,-18,-21,-13,1
1537912676622088,-11,-7,-5,7,34,25,7,-15
1537912676623085,-1,-1,0,2,2,-20,-5,-4
1537912676623085,0,-3,-3,-5,-4,47,25,3
1537912676636051,2,-2,-3,0,-5,-29,-17,3
1537912676636051,-3,-1,0,3,10,-4,-8,1
1537912676644029,-3,-1,-2,1,6,15,-9,-9
1537912676644029,8,0,-1,-6,-14,-51,-14,6
1537912676658989,-13,-5,-2,-1,10,21,-7,-17
1537912676658989,-1,-3,-4,-3,42,52,12,0
1537912676666968,-4,-3,-2,8,23,52,30,-15
1537912676666968,13,11,8,-10,-26,-21,-3,27
1537912676681928,9,3,3,12,-2,-2,-9,6
1537912676681928,-11,-13,-10,-1,26,93,65,10
1537912676682925,12,8,4,-1,-16,-50,-13,17
1537912676682925,-24,-16,-12,-2,25,22,5,-46
1537912676695891,-10,-3,-4,-28,-52,-57,-72,5
1537912676695891,-7,-5,-3,13,26,19,17,-14
1537912676703869,-16,-10,-6,-18,-18,29,8,1
1537912676703869,26,15,12,5,-6,-24,-1,31
1537912676718829,-15,-9,-7,-1,4,10,5,-28
1537912676718829,-3,3,0,-3,-4,-17,-31,-16
1537912676726808,-41,-27,-20,-19,-44,-11,-23,-46
1537912676726808,27,10,7,7,1,-22,-4,27
1537912676741768,0,-1,1,4,13,74,27,0
1537912676741768,11,9,9,-12,-43,-103,-26,22
1537912676742765,-46,-26,-20,-11,1,-15,-44,-62
1537912676742765,-17,-13,-11,-9,23,79,-13,8
1537912676756728,42,16,6,2,-9,16,32,29
1537912676756728,-10,-7,-4,3,-42,3,-34,-32
1537912676763709,-2,3,4,-5,12,53,59,42
1537912676763709,-19,-3,2,26,70,14,-9,-42
1537912676778669,18,10,7,-2,-16,-42,-10,26
1537912676778669,-7,-6,-2,3,12,4,-34,-9
1537912676786648,19,17,11,0,26,-31,-19,18
1537912676786648,-10,-2,-2,1,-5,22,19,-20
1537912676801608,-22,-7,1,13,44,13,11,-13
1537912676801608,9,8,5,6,0,-64,15,1
1537912676809586,48,13,6,4,-33,-57,-19,57
1537912676809586,-5,-1,-1,-13,-19,-22,3,-8
1537912676816568,-8,-7,-6,-2,14,52,3,-4
1537912676816568,-29,-8,1,14,-3,47,0,-57
1537912676823549,-15,-13,-12,-31,-31,-22,-8,-15
1537912676823549,68,38,22,-3,-60,-68,-32,62
1537912676838509,-32,-15,-11,17,-5,33,29,-56
1537912676838509,-49,-21,-21,-35,-25,-3,-58,-51
1537912676846488,44,23,18,23,36,71,57,42
1537912676846488,16,0,0,10,24,52,40,22
1537912676861448,5,0,-1,-11,-25,-29,2,18
1537912676861448,-25,-9,-6,-2,-19,-31,-21,-36
1537912676869426,-13,-3,1,8,9,-9,-14,-22
1537912676869426,-14,-13,-8,-2,13,12,8,-1
1537912676876408,13,12,10,7,15,94,33,15
1537912676876408,3,-2,-6,-17,-15,-64,-47,10
1537912676883389,32,11,5,5,-29,-7,16,43
1537912676883389,-10,-5,-4,3,24,40,22,-13
1537912676898349,-25,-13,-8,-14,-9,-11,-13,-36
1537912676898349,49,22,12,8,1,-7,6,59
1537912676907325,-5,2,0,2,-12,5,10,-9
1537912676907325,-28,-14,-9,-9,-13,-7,-12,-29
1537912676921288,-5,-6,-2,-2,-6,-43,-17,-12
1537912676921288,12,4,4,-2,-4,4,25,24
1537912676929267,-4,-2,1,8,29,20,6,-8
1537912676929267,-8,-3,-1,-3,-29,-26,-25,-24
1537912676936248,-12,-12,-10,-18,20,-29,-20,32
1537912676936248,21,11,9,17,-19,26,23,2
1537912676944226,-12,-4,-4,-6,-8,-26,-12,-18
1537912676944226,-4,-3,-1,1,1,-15,-7,-10
1537912676959187,1,0,-1,-5,-11,-24,-12,-4
1537912676959187,10,-1,-1,-3,7,13,23,30
1537912676967165,-10,-6,-3,4,26,5,-11,-18
1537912676967165,-11,-6,-4,-3,9,-19,-11,-4
1537912676981128,7,5,1,4,3,-5,-4,-6
1537912676981128,13,4,2,2,1,-22,12,18
1537912676989106,-7,-3,0,1,5,17,5,-13
1537912676989106,0,0,0,-3,-2,-6,2,6
1537912677005064,4,2,2,2,-6,-3,2,0
1537912677005064,-4,-5,-2,0,17,7,1,-6
1537912677006062,-2,-2,-1,-1,-6,-11,-12,3
1537912677006062,-12,-4,-1,-1,-3,3,-18,-26
1537912677019028,3,2,0,-2,-3,-24,-6,-3
1537912677019028,-1,1,-1,-1,0,9,8,1
1537912677027006,1,0,1,1,0,-1,2,4
1537912677027006,2,-1,0,1,17,13,14,10
1537912677040969,-4,-2,-1,-2,-8,-10,0,-2
1537912677040969,6,1,0,-1,5,-9,-6,5
1537912677049945,-1,-3,-2,1,3,11,5,0
1537912677049945,-8,-3,-2,-3,5,-1,-2,-7
1537912677063907,9,2,1,4,6,18,11,11
1537912677063907,-6,-4,-4,-5,6,15,11,5
1537912677064904,4,4,1,2,-18,-28,-12,-1
1537912677064904,-6,-3,-3,-5,-11,7,-1,-14
1537912677078866,2,0,-1,-1,0,-5,1,4
1537912677078866,-2,0,0,1,-4,1,1,-5
1537912677086845,-2,-3,-2,3,5,12,5,-2
