timestamp,emg1,emg2,emg3,emg4,emg5,emg6,emg7,emg8
1537907725828393,-1,-2,14,22,8,3,2,-1
1537907725828393,-2,-6,-2,-19,-5,-1,-1,-1
1537907725828393,-1,-2,4,-10,-6,-4,-1,-1
1537907725828393,-1,-7,15,-10,-5,0,-1,-2
1537907725830387,-3,-3,-15,-28,-5,-1,-2,-2
1537907725830387,2,8,1,48,12,4,1,2
1537907725831385,3,4,10,4,0,1,0,2
1537907725831385,1,25,-10,8,-1,-2,-1,-3
1537907725840360,5,16,38,-6,2,1,0,2
1537907725840360,-3,-8,5,-10,-4,-4,-3,-3
1537907725844350,-2,-21,-10,-6,-1,0,-2,-1
1537907725844350,-1,5,-6,-4,-3,-3,-2,0
1537907725855320,-5,-5,12,2,-3,-1,-2,-1
1537907725855320,-1,-6,-14,-7,0,-1,0,-1
1537907725869283,-2,-4,-28,-1,-2,-1,-1,-2
1537907725869283,0,5,29,2,0,0,-2,-2
1537907725876264,-2,-16,-11,3,1,-2,-1,-1
1537907725876264,3,26,-14,-9,-2,0,0,-2
1537907725899203,-3,-15,20,4,1,-1,-3,-2
1537907725899203,-4,-12,-63,-6,-2,-2,-1,-1
1537907725901198,1,2,67,2,-3,1,0,-1
1537907725901198,0,4,29,-4,-2,1,-2,2
1537907725937102,-1,-3,27,1,-4,-3,-2,-1
1537907725937102,-1,-1,-21,1,-1,-2,-2,0
1537907725938099,-3,-1,27,0,-2,1,0,-1
1537907725938099,0,0,-24,-8,-2,-1,0,0
1537907725939097,-3,-6,10,3,0,1,0,-2
1537907725939097,-1,-4,-20,1,0,-1,-1,-2
1537907725942088,2,6,-1,-4,0,0,0,1
1537907725942088,-3,-10,-6,4,-2,-3,-2,-4
1537907725949070,3,3,7,1,3,1,0,1
1537907725949070,1,-8,6,-5,-3,1,0,0
1537907725958046,0,20,-5,13,7,1,0,0
1537907725958046,-2,-9,10,-22,-16,-5,-3,-2
1537907725964030,-1,-2,-19,1,0,0,-1,0
1537907725964030,1,2,1,-10,-2,-1,-1,-2
1537907725978990,0,-6,-11,2,2,-2,-1,-2
1537907725978990,-1,-10,38,3,3,1,0,-1
1537907725986969,2,1,-34,9,1,0,0,1
1537907725986969,-2,-15,22,0,0,0,1,1
1537907726009907,0,51,-44,-8,-3,0,-1,-3
1537907726009907,-5,-26,69,3,0,-2,-1,-1
1537907726010905,0,8,-30,-3,1,0,-1,0
1537907726010905,0,4,16,6,1,1,0,1
1537907726024867,-5,-26,-13,-3,-3,-4,-1,0
1537907726024867,5,32,-6,2,3,0,-1,0
1537907726025865,0,7,27,2,1,1,0,-3
1537907726025865,-5,-3,-16,-3,-2,-1,-2,1
1537907726047806,6,2,53,-2,-2,0,0,0
1537907726047806,-1,-4,-75,-5,-3,0,0,0
1537907726047806,-1,-10,20,1,2,-1,0,-1
1537907726047806,2,5,-55,-12,-7,-3,-2,-2
1537907726070745,-2,-17,62,3,-2,-2,-1,-1
1537907726070745,0,0,-1,5,4,0,0,1
1537907726071742,-1,5,-17,-6,-3,-2,-1,0
1537907726071742,-7,-10,11,3,0,-1,0,-3
1537907726084707,1,1,-27,-4,2,1,-1,-2
1537907726084707,0,3,19,-2,-1,1,-1,-3
1537907726085705,-2,-26,-62,-9,-1,-1,0,1
1537907726085705,-1,6,64,9,1,-1,-4,-1
1537907726107646,-2,-14,-11,2,0,-1,-1,0
1537907726107646,-2,13,3,16,4,-1,-1,-2
1537907726108643,-2,-1,-13,-8,-2,-4,-3,-1
1537907726108643,0,-2,0,-12,-2,-2,-2,-1
1537907726130584,-1,4,-26,-2,-3,-1,-1,0
1537907726130584,-1,-6,-9,-6,2,1,-1,0
1537907726131582,-1,6,18,11,0,1,0,-2
1537907726131582,0,1,2,3,0,-1,0,-1
1537907726145545,-1,-5,-6,5,1,-1,-2,0
1537907726145545,-2,-6,-2,2,0,0,-1,-1
1537907726145545,1,14,14,-5,-4,0,-2,0
1537907726145545,0,2,1,-1,0,1,1,0
1537907726167486,-3,-19,0,-5,-3,-1,0,-1
1537907726167486,-1,-11,-26,-8,-4,-3,0,-1
1537907726168483,2,16,19,-1,-4,-2,-1,-1
1537907726168483,-2,-15,-10,-1,1,0,2,-1
1537907726190425,2,4,-3,2,1,1,-2,0
1537907726190425,6,29,1,6,0,-1,-1,2
1537907726191422,0,-4,8,-2,-3,-2,-1,-1
1537907726191422,-2,-2,-12,0,-1,-2,-1,-1
1537907726204387,-2,-7,-9,-6,-5,-1,-1,-3
1537907726204387,2,5,29,3,2,2,1,2
1537907726212366,-3,-7,-15,-4,0,0,0,-2
1537907726212366,0,8,2,6,-1,0,-1,0
1537907726227326,-1,-10,22,26,5,1,-2,-4
1537907726227326,1,12,1,-4,3,1,0,0
1537907726228323,-3,-2,-36,-36,-23,-9,-4,-2
1537907726228323,2,-1,57,9,13,6,1,1
1537907726250264,-2,-19,-10,-26,-7,-3,-3,-1
1537907726250264,2,24,-37,4,2,-2,-1,3
1537907726251262,-4,-4,26,28,7,0,-2,-5
1537907726251262,0,-7,2,65,5,-1,-1,1
1537907726264227,-3,6,25,-30,10,2,1,0
1537907726264227,-5,-21,-38,-31,2,4,4,-2
1537907726272206,3,10,15,99,4,0,4,2
1537907726272206,-2,2,22,-71,1,2,0,-4
1537907726287166,-2,-9,-52,-29,-43,-17,-3,-1
1537907726287166,-6,2,73,83,7,-1,-4,-3
1537907726288163,7,18,14,-53,0,2,2,4
1537907726288163,-1,-8,74,47,20,2,-5,-1
1537907726310105,-3,-7,-100,-56,-20,-12,-6,-3
1537907726310105,2,6,66,32,23,9,3,-1
1537907726311102,1,-1,2,21,2,-5,-2,0
1537907726311102,4,-4,-74,29,4,8,10,6
1537907726324067,2,24,-1,-88,-38,-8,-3,-2
1537907726324067,-7,3,56,66,6,-7,-6,-5
1537907726340025,-3,-13,30,-17,22,9,3,-1
1537907726340025,3,10,-62,-52,-27,-13,-2,0
1537907726348004,1,-10,79,18,-13,-8,2,3
1537907726348004,2,5,-64,-21,-25,0,3,3
1537907726348004,0,-28,3,32,13,7,-1,0
1537907726348004,-6,-7,-19,-59,-27,-8,-5,-4
1537907726369945,-3,8,-4,30,21,7,3,-1
1537907726369945,4,-6,-26,87,63,24,14,9
1537907726370942,-6,3,86,1,-15,-11,-2,-7
1537907726370942,-5,-11,-71,5,-20,-8,-7,-5
1537907726383908,1,-1,-40,-3,29,-13,0,7
1537907726383908,2,28,19,16,-58,-21,-7,-3
1537907726392883,-2,-14,-46,-80,-15,9,-2,0
1537907726392883,-4,-33,39,100,77,29,12,6
1537907726407843,0,3,27,-72,-69,-20,-10,-7
1537907726407843,-21,-37,-88,-95,-7,-8,-12,-15
1537907726407843,10,32,43,72,-35,-14,3,9
1537907726407843,3,10,-24,-65,-10,0,-4,-2
1537907726429785,0,-16,12,127,82,45,9,5
1537907726429785,1,4,-14,-51,-31,-22,-11,-4
1537907726430782,-8,-24,-21,-15,2,-2,-3,-6
1537907726430782,5,18,15,24,75,20,10,6
1537907726444745,-9,24,50,-51,-59,-21,-7,-11
1537907726444745,6,-55,-34,8,40,18,7,7
1537907726452723,0,15,15,-30,-10,-14,-6,0
1537907726452723,2,7,6,8,-13,-5,-4,-3
1537907726467683,4,35,62,30,27,-2,0,2
1537907726467683,-2,-10,74,49,-2,3,-2,-2
1537907726468681,-2,-22,-73,36,28,-1,0,-2
1537907726468681,-6,-33,2,-44,-22,-8,-2,-1
1537907726489625,10,28,-104,70,32,14,1,0
1537907726489625,-1,20,28,-103,-19,-1,2,1
1537907726490622,1,-2,-41,5,29,21,5,4
1537907726490622,0,-1,-37,-1,-30,-17,-7,-4
1537907726504587,3,-8,4,22,39,24,2,0
1537907726504587,-8,-18,84,11,-2,-2,2,-2
1537907726512566,-1,-3,-55,-54,1,1,-1,-3
1537907726512566,0,38,121,27,-34,-20,-6,-4
1537907726527525,-2,-43,-96,0,27,9,0,1
1537907726527525,-10,-14,85,44,7,-16,-5,-7
1537907726528523,1,21,15,-13,-33,-10,-8,-1
1537907726528523,-4,11,43,-1,-18,-6,-5,-5
1537907726550466,-1,2,25,-11,6,7,0,1
1537907726550466,-4,-31,-29,44,21,5,-1,0
1537907726550466,-7,-8,97,41,18,-2,-5,-5
1537907726550466,5,7,-114,-76,-32,-13,-4,-1
1537907726564426,3,-1,58,13,7,6,4,2
1537907726564426,4,11,-46,-30,-14,5,3,4
1537907726572404,1,3,23,22,22,8,0,-2
1537907726572404,-9,-16,-6,-10,-17,-8,-7,-8
1537907726587363,-6,18,107,-58,-26,-10,-5,-7
1537907726587363,16,51,-33,-3,20,10,5,8
1537907726588361,-4,-19,-10,-19,-13,-8,-1,-2
1537907726588361,4,48,95,-48,15,10,3,2
1537907726610302,-2,-14,19,23,-23,-6,-3,-2
1537907726610302,0,18,-44,25,22,14,3,0
1537907726610302,-7,-44,30,-34,-31,-8,-3,-4
1537907726610302,3,21,8,13,13,8,3,1
1537907726633241,1,-14,-34,25,10,8,3,4
1537907726633241,-1,-4,-8,-68,-37,-16,-5,-1
1537907726634238,6,18,-62,27,18,8,5,4
1537907726634238,-5,-21,12,38,-2,1,-2,-1
1537907726647203,1,0,3,-5,-3,-2,0,-2
1537907726647203,-1,-26,-47,-21,2,-2,-2,-4
1537907726648201,-5,10,83,11,-8,-6,-6,-8
1537907726648201,13,35,-85,10,16,10,10,12
1537907726671140,-2,-19,30,15,8,1,1,0
1537907726671140,2,9,-12,-24,-16,-9,-4,-3
1537907726671140,-2,8,29,0,7,0,-1,-1
1537907726671140,-5,-19,-3,10,2,0,-4,-6
1537907726695076,-2,-7,-34,1,-14,-10,-3,-2
1537907726695076,0,4,18,4,7,6,-2,0
1537907726695076,-4,-15,-67,-44,-27,-8,-5,-3
1537907726695076,0,-2,47,32,7,2,1,2
1537907726708041,1,0,-22,5,5,-1,1,0
1537907726708041,0,1,29,7,-4,-4,-3,-2
1537907726708041,1,11,-34,-20,-1,0,0,2
1537907726708041,-4,-19,-34,10,8,0,-3,-3
1537907726730980,-2,3,18,-10,-23,-9,0,-2
1537907726730980,-4,-2,-8,-5,-6,-3,-3,-2
1537907726730980,3,4,-12,-3,5,4,2,1
1537907726730980,-1,-10,5,9,-2,-2,-1,-2
1537907726752922,-2,-1,10,2,1,0,-1,-2
1537907726752922,0,-3,-4,2,-1,0,-3,-2
1537907726753919,0,-1,-14,-1,2,1,1,1
1537907726753919,0,-12,5,1,-9,-5,-2,-2
1537907726767882,-2,-2,1,11,2,0,-2,-2
1537907726767882,-1,-13,-14,-10,-8,-3,0,1
1537907726767882,0,-36,8,5,4,-2,-2,0
1537907726767882,-3,-26,-3,-8,-3,0,-2,-2
1537907726790820,-1,-9,-19,-8,2,1,-1,-2
1537907726790820,0,9,4,2,-1,-1,-2,0
1537907726791817,1,-4,5,6,3,1,1,-3
1537907726791817,-3,-50,0,-5,-2,-1,-1,-2
1537907726813758,-1,-84,-7,3,5,-1,0,-1
1537907726813758,-1,-53,7,-7,-19,-7,-1,-3
1537907726814756,0,18,-5,2,3,2,-1,-1
1537907726814756,-4,-9,-9,-2,-3,-2,-1,-2
1537907726827722,0,30,6,1,8,2,2,0
1537907726827722,1,36,-7,5,1,0,-2,0
1537907726828719,-3,34,13,-15,-18,-6,-3,-3
1537907726828719,-4,46,0,10,-2,-3,-5,-3
1537907726850660,0,20,-67,-13,-4,0,-2,2
1537907726850660,-2,-6,-2,-15,3,1,1,-1
1537907726851658,4,10,2,7,2,-1,1,2
1537907726851658,1,24,32,-14,-4,0,-1,0
1537907726873599,-4,26,1,18,-3,-4,-2,-4
1537907726873599,-5,19,-24,2,-3,-3,-3,-1
1537907726873599,2,15,5,11,11,5,1,-1
1537907726873599,3,17,9,-6,-1,-1,2,3
1537907726887563,0,15,22,-5,-7,-4,-3,-1
1537907726887563,3,13,1,0,8,4,2,1
1537907726888562,-7,-4,-8,-2,-5,-2,-2,-5
1537907726888562,-1,9,-7,1,-2,0,2,-1
1537907726909503,3,18,20,11,4,2,2,1
1537907726909503,0,6,69,0,-7,-4,-3,0
1537907726918481,-2,-4,-76,-17,-1,-3,-2,-3
1537907726918481,-3,-7,2,-3,-1,-1,-1,0
1537907726932442,0,2,21,11,2,0,-2,-1
1537907726932442,-2,-3,-3,-1,3,-1,1,-1
1537907726939423,2,1,23,6,1,-2,0,1
1537907726939423,-2,-7,9,-3,-7,-1,-3,-2
1537907726955380,-2,-11,-33,-6,-2,0,-2,-2
1537907726955380,2,-1,4,2,2,1,0,0
1537907726957375,-1,-9,0,-2,-1,-1,-1,2
1537907726957375,0,-8,-19,2,1,-2,-1,-1
1537907726969344,-2,0,7,-13,-5,-3,0,-2
1537907726969344,-1,-4,14,0,-3,-1,-2,-2
1537907726978320,0,-6,-15,9,5,2,1,0
1537907726978320,0,0,-6,5,2,-1,-2,-2
1537907726992282,0,-3,11,-2,1,1,1,1
1537907726992282,-2,-6,-27,-12,-4,-4,-2,-2
1537907726999263,-3,-3,24,-2,-3,0,0,-1
1537907726999263,2,0,4,13,4,1,-1,0
1537907727016217,-5,-8,1,-5,0,-1,-2,-2
1537907727016217,1,-1,2,-8,-7,-4,1,0
1537907727017215,-2,-7,3,-4,-3,-3,0,1
1537907727017215,2,2,-24,-2,0,1,1,0
1537907727029183,-1,-2,6,2,-1,-2,-2,-2
1537907727029183,-2,-6,-13,-2,0,1,-2,-1
1537907727044143,2,2,26,5,-2,-1,-2,0
1537907727044143,-1,-5,15,-1,-3,-4,-2,-3
1537907727052122,-2,-7,-54,-10,-1,1,0,0
1537907727052122,-1,1,24,4,0,0,0,-1
1537907727059104,-1,0,-5,0,1,1,0,0
1537907727059104,-3,-2,29,3,-1,0,0,-2
1537907727076059,0,-3,-1,-3,1,0,-2,-1
1537907727076059,1,1,-16,2,2,0,-2,-1
1537907727077058,-2,-2,-2,0,1,1,-2,-1
1537907727077058,0,1,-9,-9,-2,-2,0,1
1537907727089024,-1,4,26,8,-2,-3,-1,0
1537907727089024,-1,0,-30,-2,1,0,-1,-1
1537907727098000,0,1,4,3,0,0,-1,-1
1537907727098000,-1,1,6,4,2,1,-2,-3
1537907727112961,-2,-5,-11,-6,-8,-3,-2,-1
1537907727112961,0,0,9,2,2,1,2,-1
1537907727120940,-1,-3,-25,-6,-1,-2,-1,-2
1537907727120940,1,-2,-9,0,-1,-1,-1,0
1537907727135899,-2,2,26,-1,-1,-2,-1,0
1537907727135899,-1,-3,-11,3,-1,-1,0,1
1537907727136898,0,0,-7,-2,0,3,-2,-1
1537907727136898,0,2,5,4,0,-1,1,0
1537907727157840,0,2,5,5,2,1,0,0
1537907727157840,0,-2,17,-7,-5,-2,-2,0
1537907727159836,0,-2,-21,0,-1,-2,-1,-1
1537907727159836,0,-1,-34,-10,-3,-2,0,1
1537907727172800,-1,1,16,9,0,0,0,-2
1537907727172800,1,0,0,0,3,0,-1,-1
1537907727179781,-1,-1,11,2,0,0,0,0
1537907727179781,-3,-3,-6,-7,-4,-3,-3,-2
1537907727195738,-2,-5,-7,-4,-1,-2,-2,-2
1537907727195738,2,1,-10,1,-1,0,-2,-2
1537907727196735,3,3,-10,-1,1,0,-1,2
1537907727196735,-2,-3,-5,-1,3,1,0,0
1537907727218676,0,0,5,-5,0,-3,0,-1
1537907727218676,-1,2,22,-2,-5,-5,-3,-1
1537907727219674,-4,-7,-26,-8,-7,-3,0,-1
1537907727219674,-2,-6,3,1,3,1,-1,1
1537907727233636,1,1,-13,3,2,-1,1,0
1537907727233636,-2,2,19,2,2,3,-1,-2
1537907727234634,1,3,9,9,1,0,-1,0
1537907727234634,-3,-5,-12,-4,-1,-1,-3,-2
1537907727255578,1,4,7,3,1,2,-3,2
1537907727255578,-4,-1,-13,-3,0,-2,1,-2
1537907727257572,-1,-4,12,-6,-5,-3,-1,-1
1537907727257572,1,3,16,4,0,1,-1,-2
1537907727278516,-3,-4,-15,-3,1,-1,-2,-3
1537907727278516,0,-2,-21,-5,-4,-1,0,1
1537907727280511,-2,0,26,-3,1,0,0,0
1537907727280511,0,0,-13,-2,-4,-3,-2,-1
1537907727292479,-1,-1,3,-3,-1,0,0,-2
1537907727292479,0,-2,-9,4,1,0,1,-1
1537907727299460,0,0,24,2,-5,-4,0,-1
1537907727299460,-1,0,-5,-12,-6,-2,-3,0
1537907727315417,1,-2,-21,-3,1,1,2,0
1537907727315417,-2,-5,-36,3,-1,0,-1,-2
1537907727321401,0,-1,9,-3,0,-2,0,0
1537907727321401,-3,-2,-9,4,1,1,0,-2
1537907727338356,-1,0,11,-6,-6,-3,0,-2
1537907727338356,2,5,9,8,2,0,-1,1
1537907727339354,1,2,-5,-2,2,2,-1,0
1537907727339354,1,0,3,3,0,-2,0,0
1537907727352320,-4,-10,-4,-7,-3,-2,-2,-1
1537907727352320,2,2,-5,0,-2,-2,-1,1
1537907727359301,-3,-2,-2,3,0,1,-2,-1
1537907727359301,-1,0,5,-2,-1,-2,-1,-2
1537907727375258,-2,-2,-1,4,1,1,1,-1
1537907727375258,-2,-1,8,-7,-6,-4,-2,-2
1537907727377252,-1,-1,-6,-4,-3,-2,-2,-1
1537907727377252,0,0,0,4,3,1,0,1
1537907727398196,0,-2,2,1,0,-2,-1,0
1537907727398196,2,2,5,4,3,4,0,0
1537907727400191,-2,-2,-6,1,4,1,0,-3
1537907727400191,0,-5,-20,-7,-7,-1,-1,-1
1537907727412159,2,5,36,-4,-2,-1,0,0
1537907727412159,-2,2,39,0,-5,-2,0,-1
1537907727419140,-4,-17,-83,-5,2,-1,-1,-2
1537907727419140,10,27,43,21,13,5,5,5
1537907727436095,1,-3,-7,0,-1,-4,-1,1
1537907727436095,-2,-2,12,-3,0,-1,-2,-1
1537907727437092,-2,0,26,-6,-6,-4,-3,-1
1537907727437092,-5,-9,-17,-8,-3,-4,0,-3
1537907727457038,0,1,-2,5,2,2,-2,0
1537907727457038,2,0,1,-1,3,2,-1,0
1537907727466015,-1,-1,-2,3,-3,-2,-1,-2
1537907727466015,0,-3,-9,-4,-5,0,-2,-1
1537907727472996,0,-1,1,-2,6,3,0,-1
1537907727472996,-6,-11,-22,4,6,-1,-1,-3
1537907727478980,-3,6,13,-9,-19,-10,-7,-5
1537907727478980,3,-1,-18,-1,-1,1,-1,2
1537907727495935,-2,-2,2,27,4,1,-4,-1
1537907727495935,2,9,11,-3,18,7,2,1
1537907727496932,-3,-13,23,0,-7,-1,-1,-2
1537907727496932,-3,-30,-81,-22,-10,-6,-4,-2
1537907727517876,-2,-6,77,1,-1,-4,-1,-1
1537907727517876,-3,38,-57,25,12,3,-2,1
1537907727519871,2,-12,48,16,-1,0,2,3
1537907727519871,1,28,43,-83,-49,-15,-6,-1
1537907727531839,4,-11,-42,33,26,7,3,2
1537907727531839,5,16,10,-32,-22,-8,-2,0
1537907727540815,0,7,-13,-24,13,8,2,1
1537907727540815,-4,-6,8,76,29,7,1,-2
1537907727555775,-7,-6,-18,-41,-45,-17,-9,-7
1537907727555775,-2,-12,44,4,22,9,1,-2
1537907727556772,-8,2,19,-32,-23,-8,-3,-5
1537907727556772,6,17,-55,6,-5,-3,0,-1
1537907727577716,-3,-15,5,-2,1,-1,-2,-2
1537907727577716,3,3,-33,25,-8,-3,0,0
1537907727579711,1,-54,69,72,47,14,2,2
1537907727579711,2,-4,-67,-28,23,9,6,7
1537907727591679,-4,-1,-21,-43,-48,-22,-9,-4
1537907727591679,-6,-35,61,-66,-1,3,0,0
1537907727600655,-2,39,69,38,-25,-14,-4,-4
1537907727600655,-1,10,13,-13,7,5,-1,-4
1537907727615615,6,54,56,31,25,16,7,5
1537907727615615,1,-47,-23,7,-20,-5,1,5
1537907727617610,-3,14,-41,10,19,0,-2,-1
1537907727617610,-7,-7,59,63,-8,-5,-5,-4
1537907727638553,-8,4,33,-58,0,3,-4,-5
1537907727638553,-4,5,-8,24,-35,-18,-7,-8
1537907727639551,-1,-4,-44,-34,-5,4,2,-1
1537907727639551,3,-11,6,3,28,11,2,4
1537907727651519,1,-39,-32,-12,8,3,3,2
1537907727651519,-2,26,50,-22,-63,-17,-5,-1
1537907727660495,-3,4,71,-31,17,10,1,-2
1537907727660495,-9,-34,-45,14,-47,-22,-11,-9
1537907727675455,4,30,-39,-5,23,8,5,4
1537907727675455,-11,-32,29,9,11,-1,-2,-3
1537907727677449,7,17,41,56,58,10,5,4
1537907727677449,-8,2,103,-85,-88,-23,-9,-9
1537907727698393,3,-15,-108,-9,42,15,6,4
1537907727698393,-1,-9,-21,-46,1,-2,-2,-1
1537907727699391,2,19,-21,16,30,11,4,6
1537907727699391,3,15,25,36,34,10,2,0
1537907727720335,-3,-29,11,90,28,7,2,-1
1537907727720335,-3,50,-104,-93,-78,-35,-12,-9
1537907727722329,-2,-19,-91,-37,-7,-9,1,-1
1537907727722329,-3,-14,-5,35,52,17,-1,0
1537907727735295,1,20,53,64,-10,-13,-4,-1
1537907727735295,12,17,23,-59,25,23,7,8
1537907727737290,-6,-44,-3,12,-43,-23,-3,-3
1537907727737290,2,46,17,-1,-18,-12,-3,-2
1537907727758233,1,0,-36,-68,16,11,3,-1
1537907727758233,-5,-32,64,78,13,1,-1,0
1537907727759231,-2,24,6,-27,-13,1,-3,-4
1537907727759231,8,-11,-88,-1,50,11,7,7
1537907727772196,2,28,65,29,4,-2,1,1
1537907727772196,3,27,-5,27,0,-3,1,0
1537907727781172,-7,-48,-3,-1,10,1,-6,-2
1537907727781172,1,48,19,36,-37,-7,-2,-2
1537907727796132,-14,-27,73,-2,4,-1,-6,-9
1537907727796132,18,50,11,117,94,30,15,15
1537907727797130,4,3,30,-10,21,17,1,2
1537907727797130,-11,-9,59,-62,-62,-36,-13,-8
1537907727818074,5,20,37,-7,-36,-15,-2,-1
1537907727818074,-9,-27,-19,-5,-2,-9,-3,-4
1537907727820069,4,20,-19,5,-2,6,3,2
1537907727820069,-1,-27,-7,-9,6,3,1,2
1537907727832036,6,16,-58,-4,16,4,1,2
1537907727832036,-10,-20,-21,-55,-59,-26,-3,-7
1537907727841013,8,10,-13,15,18,5,2,4
1537907727841013,5,13,108,26,0,6,3,3
1537907727855972,-2,-5,-47,-27,-41,-22,-6,-3
1537907727855972,-7,-12,10,-6,24,8,-3,-4
1537907727856970,-6,16,81,-9,-56,-25,-9,-7
1537907727856970,3,-12,-51,2,47,21,9,4
1537907727877914,4,32,56,45,-2,5,0,1
1537907727877914,5,9,4,-55,-12,-3,-4,2
1537907727879908,-8,-24,-10,-27,-2,-4,-2,-4
1537907727879908,-4,-23,-34,74,-19,-10,-5,-5
1537907727891876,4,-3,-28,-4,15,-4,1,2
1537907727891876,-6,-21,19,-30,-27,-6,-2,-5
1537907727900852,2,31,10,35,-7,3,-1,1
1537907727900852,1,-33,-63,-35,24,12,5,2
1537907727915812,-5,4,73,-39,-16,-14,-6,-4
1537907727915812,4,-24,-46,12,3,2,3,3
1537907727916810,3,-1,13,9,-13,-9,-5,-1
1537907727916810,-6,-10,60,-26,20,9,0,-2
1537907727937754,-5,-4,-10,-30,-23,-6,-6,-7
1537907727937754,-7,-24,2,-58,13,10,-1,-4
1537907727939748,12,24,-66,61,5,9,5,6
1537907727939748,-5,1,9,2,-13,-16,-7,-5
1537907727951716,2,18,30,-22,-6,9,4,3
1537907727951716,1,-26,-15,15,20,3,1,4
1537907727960693,-9,-36,8,-47,-23,-12,-1,-4
1537907727960693,9,20,-4,-56,11,3,2,2
1537907727975652,5,10,51,45,46,24,10,7
1537907727975652,-5,8,-62,-33,-16,-9,-7,-7
1537907727977647,2,21,104,-7,-1,3,2,-1
1537907727977647,5,-3,11,47,71,25,7,6
1537907727998591,-3,-15,-120,-23,-56,-23,-6,-5
1537907727998591,4,14,36,74,33,8,2,0
1537907727999589,-5,-4,-16,-84,-46,-15,-6,-5
1537907727999589,-7,3,-24,-35,-25,-3,-3,-6
1537907728020532,7,19,71,57,34,8,1,3
1537907728020532,-3,-17,20,-19,5,1,0,0
1537907728022527,-7,-42,-111,3,-21,-3,-4,-2
1537907728022527,1,20,37,-8,-30,-14,0,0
1537907728035492,-8,-43,-58,-49,-21,-2,1,-1
1537907728035492,6,31,81,88,35,10,8,5
1537907728041476,0,19,-38,-47,-21,-12,-1,0
1537907728041476,-4,9,2,8,-6,1,-3,-1
1537907728058431,-1,-13,38,-23,-3,-7,-5,-1
1537907728058431,-6,-30,-35,11,2,0,0,-2
1537907728059429,4,16,43,45,41,11,6,2
1537907728059429,0,-32,-66,63,35,11,7,4
1537907728080372,6,62,1,5,-20,-3,-4,-3
1537907728080372,-5,1,2,16,-10,-4,-6,-5
1537907728082367,-1,-17,-14,5,13,2,0,0
1537907728082367,-4,-7,30,-4,-7,-5,-4,-3
1537907728095333,-5,-22,-3,14,18,9,3,-1
1537907728095333,0,11,-15,-18,4,5,0,-1
1537907728097327,2,17,-77,56,-2,-6,0,-1
1537907728097327,-3,-29,-9,-27,-4,0,-1,2
1537907728118271,-5,-16,-11,1,-28,-14,-5,-4
1537907728118271,-1,1,86,39,4,5,0,-1
1537907728119268,3,8,14,-14,5,-1,-1,-1
1537907728119268,-1,6,7,-5,-8,-3,-2,-4
1537907728140212,0,-7,-17,-12,-1,1,-1,1
1537907728140212,-4,-10,0,18,-1,-1,-3,-2
1537907728142207,1,5,24,-9,5,5,1,-1
1537907728142207,-5,-6,-1,1,-1,1,-1,-3
1537907728156170,0,11,9,-17,-13,-5,-3,-1
1537907728156170,3,17,-4,4,-4,-2,1,0
1537907728157167,-1,-23,-17,9,11,5,-1,0
1537907728157167,0,6,0,-5,-1,-1,-1,-2
1537907728179108,-2,-20,-26,-4,4,1,2,0
1537907728179108,0,0,-4,11,-1,0,2,0
1537907728180106,-2,10,15,-5,1,-1,1,0
1537907728180106,-2,-1,27,1,0,-1,-1,-7
1537907728201050,-4,-10,-13,5,4,4,5,3
1537907728201050,9,-7,-15,1,-3,-1,-3,12
1537907728202047,-10,-7,-9,-7,4,4,0,-10
1537907728202047,8,13,0,-1,-13,-7,-6,-2
1537907728214015,-8,-8,-1,22,16,30,10,-4
1537907728214015,5,2,-23,-11,-1,-13,67,16
1537907728222991,-13,-11,1,-2,-3,-20,-96,-19
1537907728222991,2,-18,14,3,0,1,35,-2
1537907728237951,-4,-18,-7,-4,-1,11,-10,-6
1537907728237951,2,33,4,3,1,-19,12,-9
1537907728239946,7,1,3,1,1,4,2,20
1537907728239946,-9,-59,4,-4,-5,-7,-1,-6
1537907728261888,3,-121,-2,8,6,-12,-68,-10
1537907728261888,-11,-120,-26,-1,-11,9,4,-8
1537907728263882,2,-77,10,9,3,9,32,8
1537907728263882,-4,-10,-1,0,-4,-1,0,4
1537907728273855,1,36,0,-2,5,3,33,11
1537907728273855,-4,48,10,-13,22,10,-25,-10
1537907728282831,-2,50,-23,-13,-35,-16,6,-3
1537907728282831,0,52,26,3,0,5,-5,3
1537907728297791,3,46,-10,23,3,-3,7,-2
1537907728297791,6,50,16,4,6,7,-9,8
1537907728299786,-1,27,-14,-2,5,-12,7,-3
1537907728299786,-3,28,0,-19,-7,-3,-6,-1
1537907728320730,-4,26,-23,-10,-2,-5,3,-1
1537907728320730,3,33,-28,15,3,17,-11,-1
1537907728321727,7,12,3,-6,9,27,83,38
1537907728321727,-6,22,-9,-2,-15,-40,-106,-25
1537907728334693,3,25,17,2,3,-2,13,20
1537907728334693,-4,-1,-5,-2,-5,4,1,-21
1537907728343669,-1,21,4,-4,-8,-30,-35,-13
1537907728343669,0,9,2,5,10,15,24,10
1537907728358629,-3,-7,-9,-9,-5,-2,3,3
1537907728358629,-3,0,6,-4,-3,7,-7,5
1537907728359627,0,-2,-35,-1,2,11,11,-3
1537907728359627,3,5,28,2,2,4,12,3
1537907728379573,-5,-14,-9,-1,-2,-5,-7,-6
1537907728379573,1,3,36,-16,-2,0,5,0
1537907728388549,-4,-15,-36,-8,-7,-6,-12,-10
1537907728388549,5,-4,-25,23,1,-3,5,8
1537907728394533,-2,-11,-14,0,2,6,10,-3
1537907728394533,-2,-10,8,-20,-8,-12,-14,-1
1537907728403509,-3,-10,33,8,-4,-3,-6,-4
1537907728403509,-1,-11,-23,-22,-5,4,8,0
1537907728418469,-1,1,55,11,0,-6,1,-6
1537907728418469,1,-4,-62,4,0,-4,-9,1
1537907728419466,1,-1,22,0,6,7,8,-6
1537907728419466,-3,-7,-11,4,-2,4,12,-3
1537907728440410,-1,0,10,-2,3,-3,-2,-5
1537907728440410,-4,-5,-13,-6,-11,-8,-11,-2
1537907728442405,0,5,26,10,7,6,2,-3
1537907728442405,0,-3,-38,-4,4,3,5,1
1537907728454373,-3,-2,54,-1,0,-9,0,-2
1537907728454373,1,-1,-18,4,-5,-4,-8,0
1537907728463349,0,-4,-1,-9,-1,2,-2,-2
1537907728463349,-3,-6,10,-1,0,1,2,-4
1537907728478309,1,-1,-33,-1,-4,0,-2,19
1537907728478309,-3,-7,6,4,-2,-2,2,4
1537907728479306,2,-2,-17,0,0,-2,-4,-3
1537907728479306,0,0,52,-19,-5,2,0,5
1537907728500250,1,4,-45,-14,-5,-1,4,-10
1537907728500250,-2,1,7,54,5,-5,-2,-3
1537907728502245,-1,-6,-9,-30,-2,4,-2,5
1537907728502245,-1,1,-1,4,-8,-3,4,-6
1537907728514213,0,-1,-21,-11,-3,-2,-3,-4
1537907728514213,0,2,44,-3,-1,1,-5,-4
1537907728523189,3,2,-15,14,6,2,0,-4
1537907728523189,1,2,8,6,4,1,1,1
1537907728538149,-2,-1,1,-4,-3,-2,-2,-4
1537907728538149,-1,-6,-1,-19,0,-3,-2,2
1537907728540143,0,0,-13,19,-1,-1,0,-2
1537907728540143,1,1,7,-1,1,-2,1,1
1537907728561088,0,-2,10,11,0,-1,-2,0
1537907728561088,-1,-4,-30,-7,2,3,3,-2
1537907728562085,-3,-1,12,-13,-5,-3,-4,0
1537907728562085,-4,-2,0,4,-5,-4,-2,-3
1537907728574053,2,-1,-41,-2,3,2,0,0
1537907728574053,0,-7,-18,-15,-2,1,1,0
1537907728583029,-3,0,7,-14,-4,-2,-2,-4
1537907728583029,3,3,38,24,3,1,-1,2
1537907728597988,-3,-2,9,14,0,-2,-3,-4
1537907728597988,-1,2,2,-7,0,1,0,1
1537907728599983,2,1,3,3,1,0,-1,1
1537907728599983,-1,-6,-38,-25,1,2,1,-1
1537907728620927,-2,-2,57,15,-4,-4,-2,-4
1537907728620927,0,3,-8,1,-1,-1,-3,-1
1537907728621925,1,-2,2,7,4,0,-1,-2
1537907728621925,-1,-1,-15,-5,0,-1,0,-1
1537907728633893,2,-1,-10,-15,-2,0,0,0
1537907728633893,0,0,14,12,-4,-3,-2,-1
1537907728642869,0,-2,5,5,6,3,0,-1
1537907728642869,-2,-2,2,-6,-8,-5,-1,0
1537907728656831,-2,-2,-14,-2,-3,0,0,-1
1537907728656831,2,6,9,-7,-3,-1,0,-1
1537907728665808,-2,-3,-9,-4,2,1,2,0
1537907728665808,-2,-6,-17,3,0,0,-3,0
1537907728680767,-3,-1,5,-5,0,-3,-2,-2
1537907728680767,0,-4,-31,-2,-1,0,-1,-2
1537907728681765,-4,-4,7,-11,-2,-1,-1,0
1537907728681765,1,4,28,23,3,0,2,1
1537907728694730,-1,-5,-8,5,3,-1,-1,0
1537907728694730,-1,4,19,0,-7,-3,-2,0
1537907728703706,-2,-1,-9,-7,-5,-1,-3,-1
1537907728703706,-2,-2,2,-2,1,2,0,-3
1537907728717669,0,-2,-17,-6,-6,-4,-1,-2
1537907728717669,-2,-3,11,0,6,-1,1,-2
1537907728719664,-3,1,-16,8,1,-1,0,-1
1537907728719664,1,5,9,-11,-6,-1,0,0
1537907728740608,-1,-1,-1,10,8,3,2,1
1537907728740608,-1,-2,5,-10,-1,-1,-2,-2
1537907728742602,-1,-2,11,7,-5,-2,-2,-3
1537907728742602,-1,-2,-12,-7,0,-2,1,-2
1537907728754570,-1,3,-10,-9,-2,-1,-2,-4
1537907728754570,-4,-9,-1,-3,-5,-3,-1,0
1537907728769530,0,3,9,5,8,3,1,1
1537907728769530,0,1,0,3,-7,-5,-3,1
1537907728778506,1,4,15,-5,-3,-2,-1,3
1537907728778506,-2,-4,-18,-1,-1,1,0,0
1537907728779504,-1,-3,7,-3,-2,-2,-2,-1
1537907728779504,-1,-1,-10,-3,2,0,-1,-1
1537907728800448,-3,-3,8,-1,-5,-1,-1,-4
1537907728800448,-3,-2,-6,-6,1,1,0,-2
1537907728802442,1,-1,2,10,1,-1,1,-1
1537907728802442,2,5,11,1,-2,-1,-1,-1
1537907728814410,0,-1,-6,-6,0,2,-1,-1
1537907728814410,-1,0,1,13,2,0,0,0
1537907728823386,-2,-4,-9,-6,0,0,-2,0
1537907728823386,-4,-6,-24,-2,2,1,-1,-1
1537907728838347,-1,-3,11,-4,-2,-1,-1,-1
1537907728838347,1,3,-3,1,0,-1,1,0
1537907728839344,-2,-3,23,-10,-2,-2,-2,-2
1537907728839344,1,4,-33,5,4,2,0,1
1537907728860287,-1,5,18,5,-1,-1,1,-1
1537907728860287,0,-1,7,-3,0,1,-1,0
1537907728862283,-2,-5,-4,-8,-11,-5,-3,-1
1537907728862283,0,0,16,16,7,2,-1,0
1537907728874250,-2,-6,-33,5,0,-1,0,0
1537907728874250,-1,0,-5,-4,-1,-1,-1,-2
1537907728883227,-1,0,-10,-9,-5,-3,0,-2
1537907728883227,-3,-3,10,-6,0,0,0,-2
1537907728898186,-1,-1,-14,1,-1,0,2,-2
1537907728898186,2,6,35,2,1,0,-1,0
1537907728899184,2,-1,-8,8,3,2,-2,1
1537907728899184,-1,-6,-9,3,-2,-4,-4,-1
1537907728921125,0,1,5,-3,2,0,0,0
1537907728921125,0,-2,-12,-6,2,1,1,-1
1537907728922122,0,1,7,-1,-4,-3,1,-1
1537907728922122,-2,-5,-8,-5,-3,0,-1,-4
1537907728943066,2,4,6,2,3,2,-1,-1
1537907728943066,0,5,30,5,1,-1,-1,0
1537907728945061,-1,-3,-23,-1,1,1,1,0
1537907728945061,-3,-6,-13,-9,-7,-2,0,-1
1537907728958026,-1,0,0,1,0,-3,-3,-1
1537907728958026,-2,-5,-10,2,-5,-2,1,1
1537907728960021,2,9,18,5,3,2,1,-1
1537907728960021,-3,-7,-2,-7,-1,-1,0,-3
1537907728980965,-1,-1,1,-8,-5,-2,-4,0
1537907728980965,-1,-4,-12,11,2,-1,-5,-2
1537907728981962,2,2,8,-4,-2,-2,-1,0
1537907728981962,2,4,19,1,0,0,0,2
1537907729002906,-1,-3,-1,-4,-4,-1,1,0
1537907729002906,-2,-3,-35,-1,0,0,-1,-4
1537907729004901,0,-1,-4,-5,-4,-2,-2,0
1537907729004901,0,1,9,0,3,2,-1,-1
1537907729017866,0,-1,-2,7,2,-1,0,2
1537907729017866,-1,-4,21,-6,-2,-1,0,-2
1537907729019861,0,0,-11,-2,-1,0,-1,1
1537907729019861,-2,2,4,-4,-1,-2,1,0
1537907729040805,0,-1,-5,-1,0,0,1,-2
1537907729040805,-4,-3,-5,-5,-1,-1,-1,-1
1537907729041802,-3,-7,-5,-10,1,-1,-1,-3
1537907729041802,3,8,9,11,3,2,-1,1
1537907729062746,-1,-2,-3,1,-5,-2,-2,-2
1537907729062746,-1,-2,-6,2,-1,-4,-2,-2
1537907729064741,-2,-2,12,2,-2,-1,-1,-2
1537907729064741,-4,-5,-19,-5,-1,-1,-2,-2
1537907729077706,-1,0,10,-6,-4,-2,-3,-2
1537907729077706,1,2,23,-2,-1,1,1,0
1537907729079701,-2,-3,-37,2,-1,0,-1,1
1537907729079701,-2,-1,13,-2,-1,-2,0,-1
1537907729100645,3,7,-12,0,0,0,1,1
1537907729100645,-3,0,43,-6,-5,-2,-1,0
1537907729101642,-3,-4,-10,2,3,0,-1,-2
1537907729101642,0,-4,7,-4,-9,-2,-2,0
1537907729123584,-2,-4,-10,6,3,1,-1,0
1537907729123584,1,3,-28,0,2,2,0,0
1537907729124581,0,2,15,-2,0,0,-1,1
1537907729124581,-2,-4,-11,-7,-4,-3,-3,-3
1537907729137546,-1,1,11,0,-3,-2,0,-1
1537907729137546,-2,-6,-13,-5,-2,-2,1,0
1537907729144528,-3,1,7,13,8,3,-1,-5
1537907729144528,-4,-4,-21,-8,-6,-7,-2,-2
1537907729160485,0,8,27,2,3,0,0,1
1537907729160485,0,-3,-30,-9,-5,-1,0,-1
1537907729162480,0,0,8,5,3,-2,0,1
1537907729162480,0,3,15,15,4,1,2,0
1537907729183424,-5,-9,-8,-4,-2,-1,-2,-3
1537907729183424,1,3,25,4,1,-3,-1,1
1537907729184421,-1,-2,-41,-6,-2,0,-1,-1
1537907729184421,1,-1,-8,-9,1,1,-1,1
1537907729197387,-2,-2,15,5,1,0,0,0
1537907729197387,-3,-3,-5,1,0,0,-1,0
1537907729204368,0,3,32,1,-7,-3,-2,-1
1537907729204368,1,3,-10,-1,6,3,1,0
1537907729220325,-1,-5,-8,3,-2,-3,-1,-1
1537907729220325,-1,0,0,-5,-3,-2,-2,-2
1537907729222320,1,-3,-15,2,1,-1,-1,1
1537907729222320,-3,-2,-1,0,2,0,0,0
1537907729243264,-1,-5,-17,-15,-3,-1,0,0
1537907729243264,-2,1,30,2,-3,-3,-1,-2
1537907729244261,-1,2,-15,8,6,3,1,-1
1537907729244261,-2,-4,-6,6,-2,-4,-2,-2
1537907729257226,0,6,2,-6,-4,-1,-2,-1
1537907729257226,-1,-3,-17,1,0,-1,-1,-2
1537907729264208,-2,-1,5,-10,-4,-1,-2,-1
1537907729264208,0,-2,12,1,0,0,-1,0
1537907729280165,-1,-3,7,-2,1,-1,-1,-2
1537907729280165,-3,-1,-11,-2,-1,-2,-3,-5
1537907729282160,1,2,-26,-6,2,1,1,1
1537907729282160,2,-1,1,-1,-3,-5,-2,1
1537907729303104,1,-2,-1,2,0,0,1,1
1537907729303104,0,-3,1,-5,0,1,0,0
1537907729305098,-3,-5,20,4,-2,-2,-1,-1
1537907729305098,1,1,-5,-3,-1,0,-1,-1
1537907729317066,0,2,-2,0,-1,-1,-1,1
1537907729317066,-2,-2,-13,-1,-1,-1,-3,-1
1537907729324048,0,6,25,-5,1,0,1,-2
1537907729324048,-1,-1,-17,6,-3,-3,-1,-2
1537907729341002,-1,-7,-13,-7,1,1,-1,0
1537907729341002,-1,0,-7,3,-2,-1,-2,0
1537907729342000,0,-2,-1,-3,-5,-3,-3,-2
1537907729342000,-1,-1,16,-2,-1,2,0,-1
1537907729362944,-3,-4,-15,0,4,-1,-1,-2
1537907729362944,-1,1,-5,-1,-3,-1,0,1
1537907729364939,-1,-1,-3,-2,-3,0,-1,0
1537907729364939,-2,-1,-9,-1,2,0,0,-1
1537907729376906,0,-3,-5,-4,0,0,0,0
1537907729376906,2,4,3,1,2,1,1,0
1537907729391866,0,4,56,6,-7,-4,-1,1
1537907729391866,-2,-3,-27,1,0,0,0,-2
1537907729400842,0,1,4,-4,0,1,0,-1
1537907729400842,0,-2,3,3,-1,-1,1,-1
1537907729401840,1,-3,-14,-8,-1,-2,-2,2
1537907729401840,-2,-1,2,-7,-2,-3,-2,-1
1537907729422784,1,2,5,2,-5,-4,0,-1
1537907729422784,-4,-8,-6,-8,1,-2,0,-2
1537907729424779,0,3,-17,2,-1,0,1,0
1537907729424779,1,-3,6,3,3,1,-1,-1
1537907729437744,3,8,2,1,-4,-3,0,0
1537907729437744,-2,-2,-6,0,1,-1,0,0
1537907729444726,0,-3,-6,-6,-4,-2,0,-3
1537907729444726,-1,-1,15,0,2,2,0,0
1537907729460683,-4,-6,-9,2,1,0,-1,-3
1537907729460683,1,7,14,1,-1,-2,0,0
1537907729461681,-2,-3,-15,-4,1,0,0,-1
1537907729461681,-2,-5,-8,-6,-2,0,0,1
1537907729483621,-2,1,12,-2,-1,0,-2,-2
1537907729483621,1,-1,-2,2,3,0,-1,0
1537907729484619,-4,-2,18,3,0,0,-1,-2
1537907729484619,-1,0,16,-7,-4,-1,0,-2
1537907729496587,1,0,-35,11,2,0,-1,1
1537907729496587,-1,1,5,-5,-1,0,0,-1
1537907729505565,3,1,-9,1,2,0,0,-1
1537907729505565,1,2,1,-3,0,-1,-1,1
1537907729520523,-2,-2,10,0,-1,0,1,-2
1537907729520523,-3,-2,-6,-3,-2,-1,-1,-1
1537907729522517,0,-4,4,-2,-3,-3,-2,-1
1537907729522517,-1,-1,-5,-2,-1,0,-1,-1
1537907729543461,1,-3,6,-3,-4,-4,-1,0
1537907729543461,0,1,8,4,0,0,-2,-1
1537907729544459,-3,-8,0,-2,1,1,0,-2
1537907729544459,0,3,-7,-4,-3,-1,-1,-1
1537907729556426,0,-2,14,3,-1,-2,-1,-1
1537907729556426,1,-2,3,4,1,1,-1,0
1537907729565403,-2,-3,-21,2,0,0,-1,0
1537907729565403,2,3,-7,-4,-8,-2,-1,-1
1537907729580362,-2,-2,-2,-6,0,-2,-2,-1
1537907729580362,0,-1,-2,-1,0,-1,0,-1
1537907729580362,-4,-1,-4,2,2,-2,-1,-1
1537907729580362,-1,-1,3,-3,1,0,0,-1
1537907729602304,-1,-4,5,-8,-2,-2,-1,-1
1537907729602304,-2,-3,4,2,-3,-2,0,-1
1537907729603302,0,1,-46,-6,-5,-3,0,1
1537907729603302,-2,-2,10,6,3,-1,-2,-1
1537907729625242,0,-2,1,-2,-3,0,-1,0
1537907729625242,-2,-4,-3,-1,0,0,-1,-2
1537907729626240,1,-1,18,-1,-2,-1,0,-3
1537907729626240,-2,-2,-4,-2,-2,-2,0,-1
1537907729640202,1,0,-13,-7,1,2,1,0
1537907729640202,1,0,-25,-1,-5,-3,-2,0
1537907729640202,-1,2,54,5,-1,0,-1,-2
1537907729640202,2,3,-22,2,2,0,1,2
1537907729671120,-2,0,6,1,-2,1,-3,0
1537907729671120,0,-2,-15,-7,-3,-2,-1,-2
1537907729671120,-2,-6,-5,-1,4,0,-1,-1
1537907729671120,-1,1,7,-3,-4,-2,-1,-1
1537907729686080,1,5,3,3,-1,-2,0,-1
1537907729686080,1,-3,-11,-5,-3,0,-2,-1
1537907729686080,0,0,29,3,3,0,-2,0
1537907729686080,-6,-7,-21,-3,-6,-2,-3,-2
1537907729700043,3,8,-9,10,5,3,2,2
1537907729700043,0,0,4,1,-3,-2,-1,-1
1537907729701040,-1,-1,1,1,-4,-3,1,-2
1537907729701040,0,0,16,0,1,-1,-1,0
1537907729721984,-4,-7,-11,-7,-1,0,-2,-2
1537907729721984,0,2,18,6,2,0,0,-1
1537907729722981,1,0,-23,-3,-4,-1,-1,-2
1537907729722981,-2,-2,14,3,2,0,-1,-3
1537907729745920,1,5,24,2,-1,-3,-1,0
1537907729745920,0,-2,-7,-2,3,1,0,1
1537907729745920,-1,-3,-9,-6,-2,0,-3,0
1537907729745920,0,1,1,3,2,2,-1,-2
1537907729759882,-2,-6,-9,-6,-3,-2,-1,-1
1537907729759882,-3,2,13,7,3,1,0,-1
1537907729760880,0,-1,-4,1,1,-1,0,0
1537907729760880,-2,-5,-18,-9,-4,1,0,-2
1537907729790800,-1,1,20,6,2,2,-1,-1
1537907729790800,0,-2,-21,-3,-2,0,0,3
1537907729791797,-2,1,30,10,4,1,0,-3
1537907729791797,1,1,-16,-12,-6,-1,-1,0
1537907729796784,-3,-6,-8,-2,1,-3,-1,-2
1537907729796784,1,-1,-9,3,1,0,-1,-1
1537907729804763,-2,-1,5,0,0,0,-1,-1
1537907729804763,1,2,1,0,0,-1,0,-1
1537907729819723,-2,-5,-3,0,2,0,0,-1
1537907729819723,2,3,-5,0,-2,-2,0,-1
1537907729820720,2,10,12,0,0,-2,0,-1
1537907729820720,-2,-6,2,0,1,-2,-1,-1
1537907729842661,-2,-3,-18,-1,-4,-3,-2,-2
1537907729842661,0,4,22,3,1,1,-1,2
1537907729843659,-2,-6,-18,-8,-5,-1,-1,0
1537907729843659,2,4,13,0,1,-1,0,-1
1537907729856624,-3,-4,2,-1,-2,1,0,-3
1537907729856624,-3,-4,-20,-4,0,0,-1,-1
1537907729864603,0,3,-1,-5,-2,-1,-2,0
1537907729864603,1,1,20,7,3,1,1,0
1537907729879563,0,-2,-12,-1,-3,1,-2,-2
1537907729879563,0,4,5,0,0,-1,1,-1
1537907729880560,-2,-3,-7,-6,-2,-3,-1,-1
1537907729880560,-2,-2,-15,6,-1,-1,0,0
1537907729902501,-1,2,6,-10,-3,-2,-1,0
1537907729902501,-2,-6,-1,-5,0,0,-2,-1
1537907729903499,-3,-5,-12,7,3,0,-2,-1
1537907729903499,-1,1,4,2,-3,-4,-2,-3
1537907729925440,1,1,-16,2,1,-2,-1,0
1537907729925440,-2,-2,-5,-7,-1,0,0,-2
1537907729926437,-1,0,20,5,3,-1,0,-1
1537907729926437,-1,0,-26,-7,-7,-2,-2,0
1537907729948379,-2,1,6,-1,-1,0,0,-1
1537907729948379,1,0,-1,-2,-1,-1,1,0
1537907729949377,2,1,-11,1,0,1,0,-1
1537907729949377,0,-3,-6,3,1,-2,0,0
1537907729962342,2,4,11,-1,1,0,0,0
1537907729962342,-4,-4,0,1,-2,-2,-3,-1
1537907729963339,-2,-4,-5,-1,-3,-1,0,-2
1537907729963339,1,3,15,0,3,1,0,-1
1537907729985280,0,0,2,-1,-3,-1,-3,-1
1537907729985280,-3,-7,-11,-3,-4,-2,0,-2
1537907729986278,-1,3,6,-7,-2,-1,-1,-1
1537907729986278,-2,-1,14,9,-4,-1,-2,-1
1537907730000240,-1,-1,-4,11,2,0,1,0
1537907730000240,0,-1,-4,0,1,0,-2,-2
1537907730000240,1,-3,-3,-9,-7,-3,-1,0
1537907730000240,-1,-5,-23,-8,-1,0,-2,-1
1537907730022181,2,4,-18,15,3,0,-2,0
1537907730022181,-2,2,21,-9,-6,-3,1,0
1537907730023179,-2,-4,-12,-3,-2,-1,-1,-1
1537907730023179,1,2,-3,-5,3,1,1,0
1537907730046118,0,0,8,-4,-1,0,0,0
1537907730046118,-3,-3,-6,3,4,0,-1,-2
1537907730046118,0,1,0,-2,-7,-3,-2,-2
1537907730046118,-2,-1,13,2,1,-1,-1,-1
1537907730060080,-4,-5,-12,-6,-5,-2,-2,-5
1537907730060080,1,1,7,-1,-2,0,-1,-1
1537907730061078,-1,-1,3,-1,2,2,1,0
1537907730061078,-2,-2,-4,2,-1,-2,-2,0
1537907730082022,0,-1,5,-3,0,-1,-1,1
1537907730082022,-2,-1,-1,-6,0,0,-1,-3
1537907730083019,1,1,1,12,1,-1,-2,-1
1537907730083019,1,-5,-13,-4,-2,1,-3,-1
1537907730105958,0,3,10,-4,-5,-1,-2,1
1537907730105958,0,-4,0,-2,0,0,1,1
1537907730105958,1,2,-9,-1,4,0,1,0
1537907730105958,-1,-2,7,1,0,0,1,-1
1537907730119921,2,-3,-7,-4,-1,-3,-1,1
1537907730119921,0,0,1,1,-6,-4,-2,-1
1537907730120918,-1,-2,-14,-5,-2,0,0,0
1537907730120918,-1,-1,10,-2,-1,-1,0,-1
1537907730142859,0,-1,-8,1,2,0,0,-2
1537907730142859,2,3,13,6,1,0,-1,1
1537907730142859,-4,-2,-11,0,0,0,-1,-1
1537907730142859,1,3,9,-1,-1,-3,-1,-2
1537907730165798,-1,-4,17,-2,-2,-3,-2,0
1537907730165798,0,-1,-9,-2,-1,1,0,0
1537907730166795,-2,-1,-5,-2,-1,-2,-1,-1
1537907730166795,0,-2,1,-1,1,0,-1,-1
1537907730179760,-1,-3,-14,-5,-2,-2,0,0
1537907730179760,0,1,8,4,0,0,-1,-1
1537907730180758,1,-3,-16,-7,-3,0,-2,-1
1537907730180758,-2,-2,2,-2,-2,-1,-1,1
1537907730202699,1,7,7,2,3,2,1,-1
1537907730202699,-3,-5,-6,-1,3,1,0,-1
1537907730202699,1,0,-1,-2,-3,-2,-1,-1
1537907730202699,-2,-3,0,2,2,0,-1,-3
1537907730225638,-1,-3,6,1,-4,-1,-3,0
1537907730225638,0,4,-12,-12,-3,-3,-1,0
1537907730226635,-1,-4,-6,-10,-2,-2,-1,-1
1537907730226635,0,2,13,10,2,0,0,1
1537907730239600,-1,0,10,4,4,1,-2,-2
1537907730239600,-1,-2,-4,1,-1,-1,-1,-1
1537907730240598,1,-1,9,4,0,-1,0,-1
1537907730240598,-1,-2,-5,-7,-5,-3,-1,-1
1537907730262540,-2,-6,-19,-5,0,-1,1,-4
1537907730262540,-1,-3,-1,2,-2,0,-1,0
1537907730263537,4,10,10,4,1,0,-1,1
1537907730263537,0,2,8,1,0,1,-1,-1
1537907730286475,-2,-2,-12,-3,-2,-2,-1,0
1537907730286475,-1,-2,-5,2,-1,-2,-1,-2
1537907730287472,-3,-5,-4,-2,1,1,0,0
1537907730287472,-2,0,-13,1,2,1,1,-1
1537907730299440,-2,-4,9,-4,-5,-2,-2,-1
1537907730299440,0,0,-23,-2,-1,1,-3,-2
1537907730300438,-3,-1,27,-4,-4,-3,0,-1
1537907730300438,1,5,-7,5,0,-1,-1,0
1537907730330358,-1,0,9,1,-5,-1,2,-1
1537907730330358,1,-2,3,-2,-3,-1,-2,0
1537907730331355,-2,-3,-13,2,1,1,-1,-2
1537907730331355,-2,-5,13,-6,-1,0,0,0
1537907730345319,-2,6,-6,3,3,2,1,-4
1537907730345319,0,6,2,5,2,1,-2,0
1537907730346315,1,1,5,1,-1,-4,-2,-1
1537907730346315,-3,-5,-7,-5,-1,-1,-2,-1
1537907730360278,1,-2,-10,-5,-4,-3,-2,1
1537907730360278,-1,-1,7,1,-2,-2,-2,-5
1537907730360278,0,0,-3,1,4,2,3,6
1537907730360278,-1,-3,0,-6,-5,-3,-1,-1
1537907730382219,-1,-1,-4,7,4,0,0,0
1537907730382219,0,3,4,-5,-2,0,-1,0
1537907730383217,-3,-6,-23,0,0,0,-1,-2
1537907730383217,-1,0,9,-5,-7,-2,0,-1
1537907730405158,0,-2,-9,-8,-2,-2,0,1
1537907730405158,-1,-1,10,-4,-7,-4,0,0
1537907730406155,-3,-7,-10,2,1,0,-2,-5
1537907730406155,-1,5,5,6,6,2,-1,2
1537907730420118,0,3,-1,-5,-5,0,-1,0
1537907730420118,0,-2,-7,0,0,0,1,1
1537907730421115,-2,-3,8,-4,-2,-1,0,-2
1537907730421115,-1,-5,-22,-1,1,0,-2,-3
1537907730442059,-1,-3,26,-2,-1,-3,0,0
1537907730442059,-2,-2,2,0,1,0,-1,-1
1537907730443056,0,-2,-8,-2,-3,-3,0,0
1537907730443056,2,3,-7,0,-2,0,0,0
1537907730465995,-1,1,-4,4,3,2,-1,1
1537907730465995,-2,-5,2,1,1,-1,-1,-1
1537907730465995,1,2,16,1,-3,-2,-3,-1
1537907730465995,0,-4,-23,-1,2,-1,0,-1
1537907730479958,0,0,9,-7,-2,0,0,-1
1537907730479958,1,6,17,9,-1,-2,1,1
1537907730480955,-1,-1,1,1,0,0,-2,-1
1537907730480955,-2,0,14,4,0,-3,-2,-3
1537907730502897,0,-3,-10,-3,-1,0,0,-1
1537907730502897,1,-2,-23,-7,-2,0,0,0
1537907730502897,1,5,20,5,2,1,0,-2
1537907730502897,-2,-3,7,-6,-2,-2,0,-1
1537907730525835,-1,-4,-25,4,2,-1,-2,0
1537907730525835,-1,3,15,-2,-3,-1,0,0
1537907730526832,-2,-4,-25,-5,-2,-1,1,-1
1537907730526832,1,3,23,3,1,0,0,-2
1537907730539798,-2,-1,4,-2,-4,-3,-1,0
1537907730539798,-2,-6,-11,-1,0,-1,0,-2
1537907730547777,0,3,7,2,-1,0,-2,2
1537907730547777,-1,-3,-5,-1,0,1,-1,-2
1537907730562737,2,3,5,-5,-4,-2,-1,0
1537907730562737,0,-2,-17,4,4,2,0,-1
1537907730562737,-2,-2,13,-2,0,0,-1,-2
1537907730562737,0,0,-5,0,-1,-2,0,-1
1537907730585675,-2,-1,0,-2,-5,-3,-3,-1
1537907730585675,1,-1,-11,-1,0,-1,-2,-1
1537907730586673,0,2,25,-2,-4,-1,0,-3
1537907730586673,0,1,-7,-4,-3,-1,-2,-2
1537907730608614,-3,-3,3,12,8,3,0,-2
1537907730608614,-2,1,-17,-5,0,0,0,1
1537907730608614,-2,-3,-13,-1,-1,-2,0,-1
1537907730608614,0,-1,10,-1,-3,-2,-2,0
1537907730622576,-1,0,-1,5,0,0,-1,-2
1537907730622576,0,-1,14,-2,-2,0,-1,1
1537907730623574,0,1,15,5,0,1,-1,-1
1537907730623574,-2,-5,-44,-10,0,0,-1,-1
1537907730645515,1,1,8,1,-1,-1,-1,0
1537907730645515,-1,-1,-1,2,-1,-1,-1,-2
1537907730646513,2,-2,-5,-3,0,-1,-2,1
1537907730646513,-3,-3,2,1,-5,-2,-1,-1
1537907730659478,0,-2,-8,-4,0,0,0,0
1537907730659478,-2,2,10,-3,-1,0,0,0
1537907730667456,1,3,1,0,-1,-1,0,-2
1537907730667456,-1,-2,7,-1,0,-1,-2,-1
1537907730682417,-1,-3,-27,-11,-1,0,0,-2
1537907730682417,-3,-4,15,9,2,-1,-1,-2
1537907730683415,-1,-2,-22,-3,-4,-3,-2,-1
1537907730683415,1,3,6,2,0,1,1,3
1537907730705355,-3,-3,4,-10,-3,-2,-3,-4
1537907730705355,0,1,15,7,1,-1,-2,-1
1537907730706353,0,-2,-20,6,2,-1,0,0
1537907730706353,-3,-3,2,-2,-2,-1,0,-2
1537907730719318,0,-2,-5,0,0,-1,1,1
1537907730719318,-1,0,3,-10,-3,-2,-1,0
1537907730727297,-1,-2,0,2,2,0,2,0
1537907730727297,1,2,2,3,-2,0,0,0
1537907730742257,1,-4,0,-4,-1,0,-2,-1
1537907730742257,0,-4,-6,-1,2,1,0,0
1537907730743254,-1,-1,3,-3,-2,0,-1,-2
1537907730743254,1,0,-5,-3,-5,-5,0,0
1537907730765196,-1,0,6,2,-2,-2,-1,0
1537907730765196,0,1,-4,-2,-2,0,0,-1
1537907730766194,1,0,-2,-1,1,2,-1,1
1537907730766194,-2,-1,1,-2,-1,0,-3,-2
1537907730779160,-1,0,3,6,0,1,-1,0
1537907730779160,0,-2,-4,-4,-3,-3,-1,1
1537907730787139,-5,-3,-1,-4,-1,0,1,-2
1537907730787139,0,-1,0,1,0,-2,-3,-1
1537907730802099,-1,-2,0,-1,-3,-1,-1,-2
1537907730802099,1,2,-1,4,3,1,1,0
1537907730803096,0,-2,-2,-3,-3,-1,-1,0
1537907730803096,-1,-4,1,-1,1,0,1,-1
1537907730826033,0,4,0,2,-1,-1,1,1
1537907730826033,-4,-4,-4,-4,-3,-1,-1,-1
1537907730826033,1,2,-2,-1,0,-1,-1,-1
1537907730826033,-2,0,0,0,0,-1,-1,0
1537907730838998,-2,-1,1,1,3,-2,0,0
1537907730838998,-1,-1,-2,-1,-5,-2,-2,-3
1537907730846977,-3,-2,-1,-2,-1,-2,-1,-1
1537907730846977,-2,1,6,1,1,0,-2,0
1537907730862934,-2,1,-15,1,2,0,-2,-2
1537907730862934,0,-3,-4,-6,-4,-2,2,-1
1537907730862934,-2,-1,-2,0,-1,-1,-1,-2
1537907730862934,0,2,11,1,1,-1,0,0
1537907730885874,0,0,-9,1,-2,-2,1,0
1537907730885874,1,3,19,1,0,-1,-2,-2
1537907730886871,-1,-1,-7,-6,-3,-1,1,-1
1537907730886871,0,-1,-7,4,-2,-3,-2,-1
1537907730907814,-1,-4,15,1,3,0,0,-1
1537907730907814,-1,1,17,-3,-3,-2,-1,-1
1537907730908812,0,-4,-47,-6,2,2,-1,0
1537907730908812,0,1,32,5,0,-2,-3,0
1537907730922774,0,1,0,3,-2,-1,-2,0
1537907730922774,0,-4,1,0,2,0,0,-1
1537907730922774,-2,-4,-9,-2,4,0,-2,-2
1537907730922774,-3,-5,36,1,0,0,0,-2
1537907730945712,5,28,-68,-25,4,1,-3,0
1537907730945712,-2,-5,46,37,24,3,3,2
1537907730946710,1,-12,-10,-32,-55,-15,-7,-2
1537907730946710,-2,-24,-78,42,38,12,2,3
1537907730968651,-16,-66,-45,-22,0,-5,-3,-7
1537907730968651,6,52,78,-62,-81,-25,-11,-3
1537907730968651,-2,38,80,48,46,13,3,-1
1537907730968651,-13,-54,-57,-44,-54,-25,-10,-10
1537907730982614,17,51,127,31,74,31,11,14
1537907730982614,-6,-73,-110,10,-53,-23,-4,1
1537907730983611,-4,10,17,93,6,-4,-7,-5
1537907730983611,-9,-28,-69,41,40,11,0,-4
1537907731005553,-4,-23,54,-111,-77,-23,-8,-7
1537907731005553,11,83,73,56,44,20,5,5
1537907731006551,7,19,-66,-51,21,9,7,4
1537907731006551,-2,15,75,36,-38,-19,-10,-3
1537907731028493,-8,-7,-106,-8,-28,-16,-4,-6
1537907731028493,-2,-5,13,41,2,-2,-4,-1
1537907731028493,-2,-31,-65,-43,-5,-3,-1,1
1537907731028493,7,36,-38,-44,42,21,3,2
1537907731042456,3,-5,-57,55,19,0,-1,0
1537907731042456,-10,-23,55,-17,24,1,-4,-9
1537907731043454,-3,29,87,55,-33,-11,-2,-6
1537907731043454,6,-5,-70,25,13,5,7,9
1537907731065396,2,18,56,-45,-23,0,0,1
1537907731065396,-3,-16,-100,43,45,16,6,5
1537907731066392,-5,-48,57,-81,-17,-2,-3,-2
1537907731066392,1,22,21,13,-16,-15,-6,-6
1537907731088332,-1,13,92,37,32,18,4,-1
1537907731088332,-6,-27,-66,-28,9,5,4,0
1537907731089330,2,5,69,35,-6,1,1,1
1537907731089330,-2,5,-42,76,21,6,-1,-4
1537907731102295,-6,-21,-128,-53,-78,-24,-8,-5
1537907731102295,0,-21,59,49,12,3,-2,-1
1537907731103293,4,16,-44,-5,14,2,1,2
1537907731103293,1,7,87,-1,4,8,4,2
1537907731125233,-4,-7,28,93,86,22,4,1
1537907731125233,-3,14,78,-33,-67,-31,-9,-6
1537907731127228,0,-36,-128,-33,-2,5,4,2
1537907731127228,0,-8,27,-42,21,1,-1,-1
1537907731149182,-2,3,32,-33,-21,-10,-7,-2
1537907731149182,0,-10,32,61,45,18,4,2
1537907731151164,-1,-10,-32,-65,-29,-8,-3,2
1537907731151164,4,27,61,52,26,12,7,3
1537907731162135,4,-11,-5,59,23,-3,-1,2
1537907731162135,-3,-10,-128,-59,-12,0,-2,-3
1537907731171112,1,29,127,40,-7,0,0,1
1537907731171112,-4,-14,-105,13,-15,-2,-3,-1
1537907731186072,1,26,77,0,0,5,-1,-1
1537907731186072,9,14,-95,-74,-1,2,0,2
1537907731187070,-6,-14,-25,30,14,-5,-2,-1
1537907731187070,-1,9,105,8,-2,4,4,-1
1537907731208013,-2,-28,-81,-54,-44,-15,-3,-1
1537907731208013,-1,2,7,22,63,27,6,3
1537907731210009,0,11,102,27,-47,-17,-7,-3
1537907731210009,1,-12,-35,-38,-25,1,4,5
1537907731221976,-4,-9,-56,-16,7,-4,-4,-1
1537907731221976,-7,-20,-1,6,-10,-6,-3,-5
1537907731230952,-3,7,-76,-7,20,4,3,-1
1537907731230952,-1,-12,25,-27,-26,-14,-5,-2
1537907731245911,-1,-4,7,45,0,2,2,-1
1537907731245911,0,16,-27,-30,-8,-1,-1,1
1537907731246908,0,-5,-18,-12,7,-2,-1,-2
1537907731246908,-7,2,8,-32,-28,-14,-5,-8
1537907731267852,-1,-8,107,63,42,14,1,-2
1537907731267852,1,28,-23,-49,-31,-3,-1,1
1537907731269847,-3,-6,-15,51,28,2,0,-1
1537907731269847,6,11,-5,-20,-15,-4,0,2
1537907731281815,-7,-14,18,22,-10,-4,-3,-6
1537907731281815,3,2,-25,14,-1,-5,-3,0
1537907731290791,-6,6,67,14,2,-5,-5,-7
1537907731290791,8,-1,-61,-24,11,5,1,6
1537907731305751,-1,9,-33,1,-9,-7,0,-1
1537907731305751,-3,-17,17,21,0,-2,-1,-1
1537907731306749,1,4,64,-43,-7,-1,-2,-1
1537907731306749,-7,-16,-10,8,-5,-7,-4,-7
1537907731327692,2,28,70,-37,0,0,-3,-2
1537907731327692,9,-1,-20,-15,-18,-3,5,6
1537907731329687,4,-7,31,5,5,0,-1,2
1537907731329687,-2,-2,32,-8,-9,-2,-1,0
1537907731341654,3,-4,0,-25,1,1,1,0
1537907731341654,-5,15,31,59,27,9,3,-3
1537907731350631,-4,9,-67,-9,-7,-3,-5,-6
1537907731350631,10,-18,-8,-18,6,2,5,9
1537907731365590,2,-1,15,7,3,3,1,3
1537907731365590,-7,-11,40,-14,-15,-12,-5,-2
1537907731366588,0,1,24,-1,1,3,0,0
1537907731366588,-7,5,31,-10,-6,-5,-7,-8
1537907731388529,1,2,0,16,-3,-2,-1,-2
1537907731388529,0,-12,2,-3,-7,-5,-3,-4
1537907731389527,2,-20,-74,-22,1,2,4,5
1537907731389527,2,28,67,5,1,0,-1,0
1537907731401494,1,0,-27,7,4,2,3,1
1537907731401494,-2,4,35,2,9,-3,-3,-2
1537907731410470,-4,-11,-12,6,2,-1,-2,-3
1537907731410470,0,2,-20,17,9,4,0,0
1537907731425430,-2,-3,-11,6,-7,-3,-2,-1
1537907731425430,-1,-4,15,-10,-1,-2,-3,0
1537907731427425,0,-5,-20,-7,4,0,0,0
1537907731427425,-2,-1,9,7,4,1,1,-1
1537907731448369,-4,4,-5,-4,-10,-4,-4,-2
1537907731448369,-1,-6,-7,-11,-6,-3,0,0
1537907731449367,3,5,-10,6,6,1,0,3
1537907731449367,-2,3,9,-6,-4,0,-1,-3
1537907731461335,0,-4,-14,-5,-1,-1,0,1
1537907731461335,-2,-3,1,-7,-1,0,0,-2
1537907731470311,0,-5,27,17,6,2,-2,0
1537907731470311,0,-18,-3,-20,-11,-5,-1,0
1537907731485271,-3,-16,-10,-4,1,1,0,-2
1537907731485271,0,0,16,8,2,1,-1,-2
1537907731487265,0,-18,4,-9,-7,-3,-2,-2
1537907731487265,1,-22,-11,-6,0,2,0,0
1537907731508209,0,-30,-7,10,2,-1,-1,1
1537907731508209,-1,-21,9,2,-3,-2,-2,0
1537907731509206,-3,4,-3,3,4,3,-1,-3
1537907731509206,0,13,-6,-13,-6,-1,-1,0
1537907731522172,-3,-9,4,-13,-6,-2,-2,-1
1537907731522172,1,6,4,13,3,1,-1,-2
1537907731531148,-1,-1,0,2,4,1,2,1
1537907731531148,0,17,1,2,-1,-1,2,-1
1537907731545111,0,32,-6,-5,-5,-4,-6,-1
1537907731545111,0,21,5,-4,-1,0,0,-1
1537907731547105,1,10,-10,-7,-4,-2,-3,2
1537907731547105,1,3,7,3,3,1,3,2
1537907731568049,-3,-12,-3,-8,-2,2,-1,-2
1537907731568049,-3,-14,-4,-9,-2,0,-2,-3
1537907731570044,1,0,13,9,2,2,1,-2
1537907731570044,1,17,4,-9,10,1,0,1
1537907731582012,-2,10,-22,1,-20,-9,-4,-3
1537907731582012,-1,19,3,-3,1,0,-1,2
1537907731590988,-3,15,19,-1,0,-1,1,2
1537907731590988,-2,0,4,-10,-2,-2,-2,-3
1537907731604951,2,14,28,14,5,1,2,0
1537907731604951,-2,-5,-22,-10,-4,-2,-1,-2
1537907731611932,-1,2,-46,-4,-3,-4,-2,-1
1537907731611932,5,16,19,14,5,2,1,2
1537907731627889,0,7,14,0,3,0,0,0
1537907731627889,0,3,3,1,-3,-1,-1,0
1537907731629884,-4,-1,9,-4,0,0,-2,-4
1537907731629884,-2,-2,-52,-12,-7,-3,-4,-2
1537907731642849,-1,6,26,6,1,1,1,0
1537907731642849,2,9,21,-1,3,2,3,0
1537907731650828,-1,-3,-6,-6,-1,0,0,-1
1537907731650828,-4,0,21,21,-2,-1,-1,-4
1537907731664791,-3,-17,-75,-31,-3,3,2,2
1537907731664791,1,4,-3,16,4,0,-3,0
1537907731671772,0,0,12,9,6,0,-1,0
1537907731671772,0,-6,27,-1,-5,-3,-3,-1
1537907731687729,0,-4,-8,1,-3,-5,-2,-3
1537907731687729,-1,-3,39,-4,-2,-1,-1,1
1537907731689724,0,-4,-33,-4,-1,1,-1,0
1537907731689724,-4,-11,-18,-5,0,0,-1,-1
1537907731701692,1,6,33,-1,3,1,-1,0
1537907731701692,-2,-8,-33,-15,-3,-2,-1,-2
1537907731710668,3,4,32,17,2,-1,0,-1
1537907731710668,-2,-4,-2,-3,-3,-3,-3,-2
1537907731724631,0,-2,-11,-1,0,0,-1,1
1537907731724631,-2,-6,31,2,-1,-2,0,-2
1537907731733606,-3,-11,-45,-7,-3,-3,-2,-4
1537907731733606,3,-1,-9,-3,-3,-3,-1,0
1537907731748567,1,3,9,8,4,3,2,1
1537907731748567,-5,-6,3,-2,-4,-2,-2,-4
1537907731749564,-1,-1,9,-5,-6,-2,0,-1
1537907731749564,-3,-10,-33,-14,-8,-3,-1,0
1537907731761532,2,0,7,14,10,1,1,1
1537907731761532,-2,-10,-16,-2,-1,-1,-1,-1
1537907731770508,-1,2,12,-5,-5,-1,0,0
1537907731770508,0,-2,13,-1,-2,-2,-1,0
1537907731784471,-4,-1,-2,1,-2,-1,-3,-4
1537907731784471,3,5,-16,0,5,4,6,1
1537907731791452,-1,2,11,-3,-4,-5,-11,-4
1537907731791452,-4,-4,9,1,-2,-2,0,-2
1537907731808407,1,3,-36,-9,-1,-1,-1,-1
1537907731808407,-4,-3,17,9,-3,-4,-3,-1
1537907731809405,2,4,-30,7,5,2,3,1
1537907731809405,-2,1,41,-4,2,1,1,-2
1537907731830350,-2,-4,18,2,-2,-3,-1,-1
1537907731830350,1,3,-3,0,-5,-3,-4,-1
1537907731832344,0,-5,-32,-10,-1,-1,1,2
1537907731832344,-3,-7,-5,1,-2,-1,-5,-4
1537907731845309,-1,-2,5,3,4,3,2,-1
1537907731845309,0,-1,-7,-10,-6,-3,-2,0
1537907731851296,-3,-2,22,1,0,1,1,-3
1537907731851296,-2,1,-12,0,-1,1,0,1
1537907731868248,1,0,3,-2,-1,1,-2,0
1537907731868248,1,1,-12,3,4,0,7,-2
1537907731869245,-1,1,22,1,-7,-3,-1,-1
1537907731869245,0,2,13,0,0,1,1,0
1537907731890189,0,-2,-44,-4,-6,-5,-5,0
1537907731890189,0,1,0,-2,3,5,0,-1
1537907731892184,2,-1,23,-5,-4,-1,1,0
1537907731892184,-5,-6,14,4,1,-2,-4,-4
1537907731905149,4,6,-61,-17,-4,-2,2,0
1537907731905149,-2,1,40,13,0,-1,-2,0
1537907731912131,-2,-3,7,3,6,1,-2,-1
1537907731912131,4,7,2,5,-1,0,-1,3
1537907731929085,-4,-7,12,-3,1,2,0,-2
1537907731929085,-2,-2,-23,-9,-7,-6,-3,-3
1537907731930083,1,-1,9,-6,-5,-1,0,0
1537907731930083,0,2,-3,4,2,0,0,0
1537907731951026,0,-3,8,2,-2,-3,1,0
1537907731951026,0,-2,-13,-12,-4,0,-1,0
1537907731952024,-3,-4,5,3,1,0,0,-3
1537907731952024,-1,0,-25,1,2,-1,-7,-2
1537907731964989,-1,0,22,2,-4,-5,5,-3
1537907731964989,-1,-7,-6,-6,-3,-1,-5,-1
1537907731971970,1,4,-7,-2,2,-1,-1,1
1537907731971970,-1,-5,-13,4,1,1,-2,-1
1537907731996904,-2,-1,15,0,0,-2,-2,-1
1537907731996904,0,-1,-1,0,-1,0,2,0
1537907731998898,-1,0,-10,-1,0,0,2,0
1537907731998898,-1,0,-2,-2,-2,0,3,0
1537907732010866,-2,0,68,7,-1,-1,-2,-2
1537907732010866,-3,-3,-70,-1,3,1,1,-1
1537907732011863,0,2,-18,-4,1,-1,-3,2
1537907732011863,-1,-3,-5,-3,-2,-2,1,1
1537907732024828,1,2,12,1,-3,-1,-2,0
1537907732024828,1,1,49,2,0,0,-3,-1
1537907732031810,-5,-1,-28,-20,-6,-3,-2,-6
1537907732031810,-2,-10,-13,3,2,1,1,-1
1537907732047767,10,27,-33,5,13,5,3,5
1537907732047767,1,-18,37,8,11,2,1,3
1537907732049762,3,23,46,-31,-7,-2,0,2
1537907732049762,-2,15,-4,65,-24,-14,-6,-8
1537907732070706,0,-16,38,-3,-2,1,-2,-3
1537907732070706,0,-21,-83,-65,2,2,-2,0
1537907732071704,-2,-34,-61,42,-20,-10,-3,4
1537907732071704,9,18,1,-25,33,11,3,4
1537907732084670,0,17,94,77,13,-3,0,-2
1537907732084670,-4,8,-2,-54,-33,-13,-11,-8
1537907732093644,3,-15,-3,-19,32,21,10,5
1537907732093644,-5,-21,77,-10,-24,-10,-2,-4
1537907732107607,-4,3,-128,11,14,7,2,2
1537907732107607,-6,-21,127,51,35,6,0,-2
1537907732109602,7,22,-49,73,-20,-9,0,2
1537907732109602,-2,-15,-91,-34,19,5,-1,0
1537907732130546,-5,30,127,-71,-12,0,-4,-3
1537907732130546,2,32,-67,-9,-23,-2,0,2
1537907732132540,-2,-37,-51,-50,-30,-14,-8,-2
1537907732132540,-7,-8,-23,32,12,-4,0,-2
1537907732144509,-1,-5,19,61,43,8,1,-2
1537907732144509,1,9,-30,3,-28,-1,-3,0
1537907732153484,-8,8,90,-40,21,1,-2,-7
1537907732153484,1,-12,-104,81,31,17,1,2
1537907732168445,-6,-30,-32,-91,-50,-19,-6,-2
1537907732168445,2,-3,21,71,20,6,5,3
1537907732169442,2,37,52,20,9,4,-1,-1
1537907732169442,-3,-18,52,17,-11,-12,-1,-2
1537907732190387,-5,-11,-120,-69,-65,-16,-8,-6
1537907732190387,4,12,6,6,40,11,6,3
1537907732192382,-7,-16,38,-83,5,8,-1,-5
1537907732192382,6,22,-35,29,-5,-4,0,0
1537907732204349,0,-24,3,34,38,9,4,4
1537907732204349,-5,-2,-92,24,-46,-19,-7,-3
1537907732213326,-3,-34,-101,33,51,20,5,2
1537907732213326,-6,3,60,-128,-100,-32,-7,-7
1537907732228285,6,49,18,-3,12,11,-1,2
1537907732228285,-5,-3,36,5,20,4,-2,-5
1537907732229283,-2,-12,8,-34,-27,-11,0,0
1537907732229283,-2,-26,-27,75,49,12,4,4
1537907732252222,1,0,75,48,28,8,2,2
1537907732252222,-1,20,-3,-60,-86,-29,-9,-4
1537907732253219,1,4,78,-20,-14,-5,0,-3
1537907732253219,6,5,2,19,25,20,8,7
1537907732264191,-8,-17,-4,-62,-26,-12,-5,-5
1537907732264191,3,-6,24,-27,55,27,8,6
1537907732273166,-9,-20,-16,27,-42,-19,-9,-5
1537907732273166,-1,7,10,-76,-27,-3,-3,-3
1537907732288126,1,-6,-25,71,37,8,5,3
1537907732288126,-5,-2,9,-23,-11,-5,-3,-6
1537907732289124,0,6,-39,-9,-40,-15,-8,-2
1537907732289124,-2,24,77,1,0,1,-3,-3
1537907732311064,5,-13,-10,-17,-15,-3,2,3
1537907732311064,-2,-11,-35,-1,-1,-8,-3,0
1537907732312063,5,34,49,-18,2,3,3,3
1537907732312063,-3,-28,14,-9,-6,-1,-2,-4
1537907732324029,-4,8,-15,17,-2,-3,-3,-5
1537907732324029,3,10,13,23,19,4,1,0
1537907732333005,4,-10,38,13,7,-2,1,0
1537907732333005,-1,-3,-76,-23,7,-1,0,0
1537907732348962,0,11,17,-52,-22,-5,-3,-2
1537907732348962,-7,-21,75,-54,-14,1,-3,-5
1537907732349959,-3,5,-103,46,16,4,0,1
1537907732349959,3,5,8,-35,-4,-2,-1,0
1537907732370903,-2,-12,21,5,9,6,3,0
1537907732370903,4,29,27,50,8,-7,-3,0
1537907732371900,-3,-8,66,14,14,5,-1,-1
1537907732371900,-5,11,1,-42,-11,-2,-2,-5
1537907732392844,5,0,-13,28,11,7,4,5
1537907732392844,2,-12,-48,26,17,3,1,6
1537907732394839,2,6,-2,-21,-5,1,-1,0
1537907732394839,-3,4,64,26,6,-3,-2,-1
1537907732407804,-4,-10,-36,-6,-8,-7,-5,-5
1537907732407804,2,5,19,11,10,3,3,-1
1537907732409799,1,-14,-82,10,4,1,2,1
1537907732409799,0,7,1,26,8,0,0,1
1537907732430743,-5,-20,-66,-24,-13,-2,-3,-5
1537907732430743,7,-3,35,42,9,4,5,6
1537907732431740,2,33,-27,-5,17,2,-1,-3
1537907732431740,-1,-7,-2,-9,-5,5,1,2
1537907732444706,-5,-11,-19,-12,-8,-7,-3,-1
1537907732444706,-7,-8,-53,-21,-4,-3,-6,-4
1537907732459666,-2,-5,69,38,8,3,1,-1
1537907732459666,5,-1,-86,-4,6,4,3,3
1537907732467644,1,-2,28,10,-2,-2,-3,0
1537907732467644,-1,5,12,-8,-4,0,0,-1
1537907732469639,1,4,24,10,3,-2,0,0
1537907732469639,-2,-5,0,-6,-7,-7,-5,-2
1537907732490583,-3,-1,60,11,-3,-2,-2,-4
1537907732490583,-3,-13,-48,-7,-5,-2,0,-2
1537907732496567,0,1,0,-6,-1,0,0,-2
1537907732496567,-1,2,42,5,-2,-3,-2,-1
1537907732513522,1,-1,-26,1,0,-2,1,0
1537907732513522,-2,5,16,0,-6,-2,-2,0
1537907732514519,-2,-4,40,-1,5,1,-1,-3
1537907732514519,-1,0,-51,9,4,0,0,-1
1537907732528482,2,7,-2,-9,-3,-2,0,2
1537907732528482,-2,-9,-14,5,3,0,-2,-1
1537907732529479,-1,-4,3,4,-3,-1,0,-1
1537907732529479,0,2,16,-4,-3,-3,-2,-2
1537907732550423,0,-11,-6,-7,-6,-2,0,0
1537907732550423,-3,-23,0,-3,-2,0,-1,-1
1537907732552418,-2,-14,-29,0,-1,-1,-2,-2
1537907732552418,-1,-5,21,4,5,3,0,-1
1537907732564386,-2,-3,-2,11,-1,0,-2,0
1537907732564386,-1,8,4,-10,-7,-4,2,0
1537907732573362,2,15,-3,1,-1,-2,0,2
1537907732573362,-2,11,13,-3,-1,-2,-3,-8
1537907732587324,0,9,0,9,3,1,1,9
1537907732587324,-3,4,-4,1,3,1,-3,-5
1537907732594306,-2,-5,-15,-10,-7,-4,-2,-6
1537907732594306,-2,0,5,-4,-4,-2,-2,0
1537907732610263,4,3,8,7,-2,-3,-9,-33
1537907732610263,-1,-1,-5,0,-1,-1,5,19
1537907732612258,1,3,-5,4,0,-1,2,11
1537907732612258,-3,-8,9,-2,-1,-1,-1,-4
1537907732624226,-1,-3,3,-7,18,5,3,3
1537907732624226,1,-2,55,13,-13,-5,-2,-2
1537907732633202,-5,-23,-93,3,1,-4,-3,-5
1537907732633202,2,-9,12,0,-3,1,0,2
1537907732647165,1,-10,-5,3,12,4,2,6
1537907732647165,-1,-1,13,-12,-17,-5,-2,-2
1537907732654146,-1,5,38,15,5,2,0,1
1537907732654146,-1,3,-41,-13,-8,-4,-2,-2
1537907732670103,1,12,-14,11,8,2,3,6
1537907732670103,3,12,-7,-5,7,1,-2,-7
1537907732672098,-2,11,26,1,-1,0,-2,-5
1537907732672098,-1,8,4,-7,-5,-3,0,3
1537907732684066,-7,5,10,-4,-9,-4,0,0
1537907732684066,0,12,-16,-3,1,-2,-2,-2
1537907732693042,-2,7,-1,2,-1,0,0,-1
1537907732693042,-1,4,8,-2,6,1,2,3
1537907732707004,-3,6,-5,-2,-10,-1,-1,1
1537907732707004,-3,0,-11,0,-1,-1,-2,-5
1537907732713986,1,3,-6,-13,-1,-2,-2,1
1537907732713986,0,1,11,6,-2,-3,-2,-2
1537907732730940,-2,-1,8,4,-8,-2,-1,-2
1537907732730940,1,0,-13,-9,3,2,0,0
1537907732731938,3,1,11,10,6,0,-1,1
1537907732731938,-1,-8,1,-8,0,-1,0,0
1537907732752882,-1,-3,4,2,-7,-3,-1,1
1537907732752882,1,-10,-12,7,3,0,-2,0
1537907732754877,-1,-4,1,-17,-6,0,0,0
1537907732754877,0,-6,7,1,1,-1,1,1
1537907732767842,-1,-9,16,-7,-4,-3,-2,-1
1537907732767842,-1,-11,-46,1,4,0,0,-1
1537907732773826,1,-8,-3,3,-2,-1,-2,-1
1537907732773826,-1,-1,5,2,5,-1,-2,-2
1537907732790780,-1,3,15,-7,-5,-3,-2,-1
1537907732790780,-1,1,17,0,1,-2,-2,-3
1537907732791779,-1,-9,-43,-12,-3,-1,0,0
1537907732791779,1,-1,10,13,-1,-1,2,1
1537907732812722,-2,-4,-4,3,2,-2,-2,-1
1537907732812722,-3,-2,8,-5,-5,-2,0,-3
1537907732814717,2,8,11,-1,-2,0,0,3
1537907732814717,1,2,-3,-8,1,-1,-1,-1
1537907732827682,-2,-1,-5,1,-5,-4,2,1
1537907732827682,0,-4,-6,4,3,-1,-1,1
1537907732834664,-2,-4,8,-2,-1,0,0,-3
1537907732834664,2,6,2,2,0,1,-1,0
1537907732851618,-3,-1,-6,-4,-2,0,-1,-2
1537907732851618,2,7,1,-1,1,2,1,1
1537907732853613,-1,2,10,6,2,-1,-1,-1
1537907732853613,-1,1,-8,3,-4,-2,-3,-1
1537907732872562,2,-3,-10,-6,-3,-1,-1,0
1537907732872562,-1,-1,6,-2,0,0,-1,-1
1537907732874557,-2,1,38,-6,-4,-3,-2,-2
1537907732874557,-2,-5,-43,7,2,0,2,1
1537907732886525,2,4,6,-2,-3,-2,-1,0
1537907732886525,-1,-3,-24,-8,-2,-2,-1,-1
1537907732895500,-3,-3,10,4,0,-1,0,-3
1537907732895500,-1,-1,10,-7,-2,-4,-1,-1
1537907732910461,-1,-1,-5,-1,-1,-1,-2,1
1537907732910461,-1,1,7,2,1,1,-2,0
1537907732912455,-1,1,-4,0,-3,-1,0,0
1537907732912455,-2,-3,6,-2,1,1,-1,-2
1537907732933399,-1,-5,-12,4,0,0,2,0
1537907732933399,-1,-3,7,-8,-4,-1,-1,-1
1537907732934397,0,1,-10,5,3,1,1,-2
1537907732934397,1,-1,2,0,-4,0,-1,1
1537907732946365,-1,-4,2,2,1,0,-1,0
1537907732946365,-1,-1,-3,-1,1,0,-2,-1
1537907732955341,-3,-4,-7,-3,0,0,-1,-2
1537907732955341,-3,-3,6,-1,-4,-2,-1,-2
1537907732970301,0,0,-2,3,3,3,0,-3
1537907732970301,-2,-1,0,0,-1,-2,-1,0
1537907732972296,-3,-5,-8,-3,-1,-2,0,-1
1537907732972296,2,3,6,2,1,0,1,0
1537907732993240,-1,-2,-7,-2,-2,-2,-1,0
1537907732993240,2,3,-1,0,1,2,1,0
1537907732994237,-1,-1,3,2,-1,-1,0,-1
1537907732994237,0,-1,-2,-2,0,1,-2,0
1537907733007202,-2,-1,1,4,0,-1,-2,-2
1537907733007202,0,-1,1,3,-2,-2,0,0
1537907733015181,-1,-1,-2,-5,-4,-2,-1,0
1537907733015181,-3,-5,12,0,0,-1,-1,-3
1537907733030141,2,3,-15,-2,-1,0,-1,2
1537907733030141,-2,-4,1,-1,1,1,-1,-1
1537907733032136,0,1,0,-4,-1,0,1,0
1537907733032136,-3,-2,-2,-1,0,-2,0,0
1537907733053080,-1,-1,-1,-10,-3,-1,0,0
1537907733053080,-4,-5,-1,3,-3,-3,-2,-3
1537907733054077,3,2,-2,9,1,-1,-2,-1
1537907733054077,0,-1,-2,-3,0,0,-1,-1
1537907733067042,-3,-5,2,-1,-2,-2,-1,-2
1537907733067042,-1,-1,-2,-6,-4,-2,-1,-1
1537907733074024,-3,-3,-2,-1,1,-1,-1,-2
1537907733074024,1,0,-1,-1,-3,-2,-1,-1
1537907733090978,0,-1,-1,2,3,0,0,0
1537907733090978,0,1,-1,-6,-2,-1,1,2
1537907733091976,-3,-5,-1,-4,1,-1,-3,-1
1537907733091976,-1,1,2,3,-2,-1,-1,1
1537907733112919,0,-1,0,0,-1,-2,-2,-1
1537907733112919,1,2,2,3,3,1,2,1
1537907733114914,-2,-2,0,7,-1,-3,-4,-2
1537907733114914,-2,-3,-9,-16,-7,-2,-2,-1
1537907733126882,-2,-2,5,0,1,1,-1,-1
1537907733126882,3,6,0,-3,-2,1,0,1
1537907733133864,1,-2,2,5,4,0,1,-2
1537907733133864,-1,0,-4,-6,-2,0,-1,1
1537907733150818,0,-2,7,8,0,1,-3,1
1537907733150818,-2,-3,-4,-4,2,5,25,0
1537907733151816,2,3,0,-4,-3,-7,-21,-3
1537907733151816,-1,-2,-2,2,0,0,1,-2
1537907733172759,-1,-3,-3,-5,0,-2,-6,-2
1537907733172759,-2,-2,-3,1,-2,-1,-5,-2
1537907733174754,1,0,-1,0,0,0,8,2
1537907733174754,-1,-3,-2,-1,-1,1,-1,0
1537907733186722,-1,3,1,2,-2,-6,4,0
1537907733186722,-1,-5,0,-1,-2,-2,-5,-1
1537907733195698,-5,-5,-2,-7,-4,2,5,-6
1537907733195698,2,0,1,3,2,-3,0,3
1537907733210658,-1,0,-5,1,2,0,-2,-2
1537907733210658,-2,-3,-1,-3,-3,-2,-6,2
1537907733211656,-1,-3,-2,-1,0,0,-3,-3
1537907733211656,3,7,1,-6,-1,0,1,1
1537907733232599,-4,-3,1,0,-2,1,4,-1
1537907733232599,-7,-6,0,-2,1,-6,-21,-6
1537907733240578,5,0,-4,1,1,4,11,10
1537907733240578,5,0,1,1,0,-1,2,-8
1537907733255539,1,-2,-5,-6,-2,1,0,2
1537907733255539,-14,-2,-4,-1,-1,3,-2,-10
1537907733256535,17,0,-1,-5,-6,-7,-10,-7
1537907733256535,-7,0,2,9,5,1,-4,7
1537907733270498,23,17,0,-4,3,3,5,3
1537907733270498,0,-2,3,2,-3,-9,-5,23
1537907733272493,-7,-3,-4,1,4,4,13,16
1537907733272493,-19,-9,1,6,4,-3,-10,-21
1537907733293437,-2,0,-10,-28,-26,-10,-10,-15
1537907733293437,-7,4,-1,-2,-3,3,11,5
1537907733294434,30,2,4,6,3,5,10,71
1537907733294434,-37,-10,-7,-10,-5,-5,-10,-76
1537907733306402,17,3,-1,11,8,-2,3,5
1537907733306402,26,4,-3,-3,-3,-6,-5,33
1537907733315378,-26,-9,-3,-4,-3,6,-15,-13
1537907733315378,30,7,-2,5,2,8,45,21
1537907733330338,-62,-3,3,-1,0,-13,-47,-59
1537907733330338,43,17,1,3,2,-9,11,-29
1537907733332333,-8,1,-3,0,0,-2,-8,36
1537907733332333,5,7,10,10,11,55,61,113
1537907733353277,-31,-22,4,1,-15,-70,-2,-43
1537907733353277,25,8,-8,-5,3,18,21,-47
1537907733354275,-39,4,2,-3,0,18,4,14
1537907733354275,12,4,2,-2,-7,-27,-30,4
1537907733366242,7,5,7,10,16,52,39,-43
1537907733366242,-22,-12,-3,2,-12,-60,7,103
1537907733383197,13,-16,-12,-12,-4,14,-5,-41
1537907733383197,1,6,15,12,7,5,-22,-47
1537907733390178,28,-7,-13,-8,-1,-24,-36,88
1537907733390178,-1,5,5,3,15,64,38,-30
1537907733392173,-9,21,5,2,4,26,-41,-66
1537907733392173,1,-19,-8,-10,-13,-53,0,-4
1537907733413117,1,-1,7,4,1,17,24,-77
1537907733413117,-1,-9,3,-2,0,2,-14,-48
1537907733414114,-14,-12,4,2,2,12,14,96
1537907733414114,-14,13,-4,-5,-8,-30,-46,-118
1537907733427080,-1,0,2,3,7,10,-24,59
1537907733427080,-15,-6,6,2,3,21,1,79
1537907733436056,55,19,-6,-1,1,-36,38,3
1537907733436056,-22,4,7,1,0,-4,-31,-78
1537907733450018,-5,-1,-6,-7,-8,12,13,6
1537907733450018,17,8,16,17,22,53,51,81
1537907733456999,-38,-19,-6,-3,-10,-51,-20,-86
1537907733456999,-6,-14,-7,-9,-7,14,-20,-38
1537907733472957,-1,12,0,5,8,-6,-2,77
1537907733472957,8,-12,-8,-10,-13,-9,-27,29
1537907733474952,1,11,10,9,8,5,0,-50
1537907733474952,22,-12,-11,-7,-7,4,6,98
1537907733486920,22,13,3,1,2,2,-2,-20
1537907733486920,2,0,-2,0,7,12,-18,-6
1537907733495896,6,-10,-8,-9,-20,-39,21,63
1537907733495896,29,13,2,0,7,43,2,-9
1537907733510856,-52,-27,-6,-7,-14,-63,-2,-59
1537907733510856,-44,1,2,3,3,-2,-38,-122
1537907733516840,6,-9,-16,-13,-5,-3,-27,63
1537907733516840,-26,10,5,3,6,23,34,5
1537907733532797,28,1,6,1,4,47,26,112
1537907733532797,-13,-2,1,-4,-16,-87,-12,-104
1537907733534792,-21,-12,-3,-4,-4,-11,-3,31
1537907733534792,16,-1,0,1,8,29,13,58
1537907733546760,-3,0,1,-2,-7,-24,14,-19
1537907733546760,-22,-7,-8,-5,-2,-4,-53,-50
1537907733555736,15,14,7,7,12,32,4,-27
1537907733555736,21,6,0,5,-3,-46,2,-4
1537907733569698,48,8,0,1,0,21,21,73
1537907733569698,1,4,0,-1,1,9,-1,-23
1537907733576680,14,-2,1,0,0,24,-11,-5
1537907733576680,-24,0,0,-4,-10,-28,-8,16
1537907733592637,-11,-11,-5,0,8,26,-12,-54
1537907733592637,7,7,-1,1,-1,-27,14,41
1537907733594632,18,6,4,0,1,35,2,17
1537907733594632,-7,-11,-8,-6,-5,-11,-5,-63
1537907733615576,-15,-1,-2,1,2,26,-11,-36
1537907733615576,15,-7,-6,-7,-15,-70,-37,-11
1537907733616573,-21,1,-1,-3,-2,-12,-9,-128
1537907733616573,-4,0,1,1,3,12,7,36
1537907733630536,-1,1,1,0,-2,-4,5,18
1537907733630536,0,1,3,4,6,36,14,11
1537907733631533,-15,0,7,4,3,-10,19,-39
1537907733631533,6,2,-4,-3,-4,-29,-11,12
1537907733652477,14,2,-5,-1,-3,-1,12,26
1537907733652477,-6,-3,-2,0,1,8,19,17
1537907733659458,-4,0,3,0,-1,-10,-3,-3
1537907733659458,4,0,-7,-2,4,15,5,33
1537907733675416,-6,1,2,0,-2,-6,-5,-14
1537907733675416,-9,-5,-4,-1,-4,8,6,-6
1537907733677410,3,0,-4,1,0,-7,4,17
1537907733677410,-3,-7,-2,-4,-3,4,1,-5
1537907733690376,-1,1,-3,-2,1,3,0,-4
1537907733690376,0,3,-3,-4,-7,1,-7,13
1537907733692371,-1,-5,-1,0,2,0,-3,-1
1537907733692371,0,3,5,3,2,-1,3,17
1537907733713315,-4,-2,0,6,4,-3,-3,-12
1537907733713315,-2,-4,-3,-4,-2,5,4,8
1537907733714312,-2,-1,-5,-10,-11,-7,1,7
1537907733714312,-5,-8,1,0,3,3,-1,-1
1537907733735256,-1,4,0,6,3,-1,-2,-4
1537907733735256,-2,-4,3,28,10,7,5,-4
1537907733737251,4,4,-8,4,6,1,4,9
1537907733737251,-2,-1,1,-62,-15,-6,-1,6
1537907733750216,-7,-6,-2,-34,-33,-18,-14,-15
1537907733750216,-3,0,-6,-16,-6,-2,2,6
1537907733756200,1,2,6,14,-7,-2,1,3
1537907733756200,2,-1,-4,39,18,9,4,8
1537907733773154,-1,-3,-7,65,30,10,5,-3
1537907733773154,-2,1,14,28,1,1,0,-2
1537907733774152,-3,-2,-19,-40,-9,-10,-3,1
1537907733774152,-4,1,5,-38,-18,-8,-5,-4
1537907733795097,-1,0,6,-11,-9,-5,-3,-2
1537907733795097,2,-1,-6,17,3,5,2,5
1537907733797091,0,-3,5,37,15,5,2,1
1537907733797091,0,-1,-6,10,6,1,1,4
1537907733809059,-2,-2,-2,-1,3,-2,-2,-6
1537907733809059,-1,-2,-6,8,1,0,-1,2
1537907733818035,-2,-1,4,-21,-8,-6,-4,-2
1537907733818035,-2,-4,-3,6,-1,0,-2,1
1537907733832995,-1,-5,2,9,0,0,-2,-1
1537907733832995,1,1,-5,-32,-8,-3,-2,-1
1537907733834990,0,-3,1,-5,-2,-2,0,0
1537907733834990,-3,-4,0,19,4,2,0,0
1537907733856931,0,1,-4,-9,0,-1,0,0
1537907733856931,-2,-1,1,-4,1,1,1,1
1537907733857928,-2,0,1,1,-3,-2,-1,0
1537907733857928,-1,-4,-3,-5,-8,-1,1,-1
1537907733868899,-1,0,1,-14,-2,-1,-1,-1
1537907733868899,-1,-1,-3,-14,-1,0,0,-2
1537907733877874,1,2,5,12,5,2,0,1
1537907733877874,-1,0,-2,10,6,1,0,1
1537907733892835,-4,-3,-5,-15,-5,-4,-3,-3
1537907733892835,2,3,0,-4,-6,-1,0,2
1537907733894829,2,2,1,6,5,1,-1,1
1537907733894829,-2,-1,-2,-6,-7,-3,-2,0
1537907733915773,1,-1,-1,-1,2,1,0,-1
1537907733915773,-3,-2,0,1,2,-1,0,-2
1537907733916771,1,1,-1,-5,-3,1,1,0
1537907733916771,-1,-1,-1,2,-2,-3,-2,-1
1537907733928739,0,-2,-2,-3,-5,0,-3,-2
1537907733928739,-2,-3,-1,-6,0,1,2,-1
1537907733937715,0,0,1,-5,-2,-1,-1,0
1537907733937715,-1,-2,-1,7,3,-1,0,0
1537907733952675,-3,-2,0,4,2,0,0,-1
1537907733952675,0,-1,-4,-16,-9,-5,-3,-1
1537907733954670,-4,-3,-1,1,-3,0,0,-1
1537907733954670,-1,1,-2,3,1,2,0,-1
1537907733975613,0,0,0,-5,-1,-3,-1,-1
1537907733975613,-1,-3,-1,-1,4,1,1,-2
1537907733976611,0,0,0,2,1,-2,-1,1
1537907733976611,0,0,-5,-2,-1,2,0,1
1537907733989576,-1,2,2,-3,0,-3,-2,-1
1537907733989576,1,1,-1,0,0,0,1,0
1537907733996557,-2,-1,1,1,1,-3,-1,-1
1537907733996557,-4,-4,0,0,0,-2,0,-2
1537907734013512,-2,-1,-1,-2,0,1,0,-1
1537907734013512,0,-2,0,-1,-1,-1,-1,0
1537907734014509,-2,-4,-1,-2,0,-2,-2,-2
1537907734014509,1,1,0,-3,-4,-1,0,-1
1537907734035453,-2,-1,-3,0,0,0,-1,0
1537907734035453,1,4,1,1,0,0,-1,-1
1537907734037448,0,0,-1,-4,-1,-1,0,1
1537907734037448,-1,-1,-1,1,0,-1,1,0
1537907734049416,1,-2,-2,-1,-1,-1,-1,-2
1537907734049416,-2,-1,-1,1,1,0,0,0
1537907734058392,0,-1,1,-5,-5,-2,0,0
1537907734058392,-1,-2,-2,-1,-4,-2,-1,-1
1537907734073352,0,-3,-2,-3,-1,0,-1,-3
1537907734073352,2,1,-1,-1,2,0,0,0
1537907734074349,0,-1,1,1,0,-2,-2,-2
1537907734074349,0,-2,-1,0,2,1,-1,-1
1537907734095293,0,0,-4,-4,-3,-3,-1,1
1537907734095293,-1,-2,-1,0,-3,-3,-1,-1
1537907734097288,-2,0,0,-1,-1,0,-1,-2
1537907734097288,0,0,-1,-1,-2,-1,-1,-1
1537907734109256,1,-1,0,-1,0,0,0,0
1537907734109256,-3,-3,-1,-2,1,0,0,-1
1537907734124216,0,-1,-3,-1,-4,-3,-3,-1
1537907734124216,0,0,0,0,1,0,-1,-1
1537907734133192,0,2,2,-2,-3,-3,0,0
1537907734133192,-2,-2,2,-1,-1,-1,-2,-2
1537907734134190,-1,-3,-4,-1,3,0,0,-2
1537907734134190,1,3,-1,0,-3,-3,-1,1
1537907734155133,1,-2,0,-1,-2,-1,0,-1
1537907734155133,-3,-2,-2,-3,-2,-3,-1,-1
1537907734157128,-2,0,-2,0,1,-1,0,-2
1537907734157128,-2,-4,-6,-4,-3,-2,3,-2
1537907734169097,2,4,3,2,2,3,-9,4
1537907734169097,-3,-4,-2,-2,-2,-2,1,-14
1537907734178072,-4,-1,2,4,0,-1,7,2
1537907734178072,0,-4,-2,-3,-2,-1,-1,15
1537907734193032,9,2,1,0,11,71,35,65
1537907734193032,-17,3,4,7,-3,-58,31,22
1537907734194030,9,-12,-12,-8,-14,-32,-65,33
1537907734194030,7,0,1,-2,2,47,18,-19
1537907734215971,-10,-1,3,3,-4,-50,0,-71
1537907734215971,15,-1,4,3,30,127,29,93
1537907734216968,9,17,11,6,-26,-69,26,-86
1537907734216968,-28,-19,-11,-9,-31,-113,-115,-36
1537907734228936,-4,-5,-16,-17,-1,95,33,-97
1537907734228936,7,12,4,6,-9,-38,42,15
1537907734237912,-26,-9,9,9,32,98,26,-46
1537907734237912,24,19,6,12,21,46,106,104
1537907734252872,-64,-20,-4,-6,-15,-62,-115,-44
1537907734252872,3,5,3,-8,-15,-37,-48,91
1537907734254867,-7,-26,-14,-10,-7,-24,-3,-5
1537907734254867,9,22,-5,0,-2,-13,32,-40
1537907734275811,0,-6,0,4,14,39,22,67
1537907734275811,16,3,1,2,-4,-24,26,-43
1537907734276808,11,0,-7,-4,-3,-3,-16,101
1537907734276808,3,-12,-2,-2,1,24,-34,-12
1537907734288776,20,9,-1,-3,-4,-15,26,46
1537907734288776,-3,-2,6,5,7,13,-4,-53
1537907734297752,8,-7,-7,-4,-5,2,6,-8
1537907734297752,-21,-13,-2,-2,5,21,8,-18
1537907734312712,25,22,5,6,-1,-38,-12,-31
1537907734312712,-16,-2,3,3,1,7,-22,-63
1537907734319693,6,16,2,-4,0,-7,25,84
1537907734319693,-22,-2,-1,-4,-9,-11,-37,17
1537907734335651,37,-9,0,-1,-4,-13,14,69
1537907734335651,-19,-3,-6,-2,2,36,-34,-105
1537907734336648,6,6,-8,-9,-6,-29,8,47
1537907734336648,-2,-9,16,11,8,14,16,92
1537907734360584,-17,5,-5,3,1,10,-40,-53
1537907734360584,-1,2,-7,-7,-10,-56,-29,-64
1537907734362580,1,10,10,5,9,21,12,10
1537907734362580,11,7,-3,-3,-4,-20,-9,-23
1537907734365571,14,-3,5,3,7,27,31,56
1537907734365571,-10,-18,-11,-8,-3,22,-9,-19
1537907734373550,6,0,7,5,3,-3,-3,15
1537907734373550,10,2,3,1,4,5,5,4
1537907734388510,9,2,1,-1,-5,-20,-6,41
1537907734388510,7,-4,-7,-1,2,-1,9,42
1537907734389508,-7,-6,-7,-1,-3,-2,-8,-34
1537907734389508,-17,-2,-4,-6,-3,22,31,-29
1537907734401475,-16,4,2,6,4,6,0,-12
1537907734401475,0,-14,-7,-8,-12,-30,4,-39
1537907734410451,-15,-3,-4,1,0,11,-13,-28
1537907734410451,5,4,-2,-2,3,3,-2,-21
1537907734424414,-14,-5,0,0,-5,-13,6,-14
1537907734424414,-4,-5,-9,-2,10,45,7,49
1537907734431395,2,0,-2,0,-7,-30,-13,-25
1537907734431395,3,1,-3,-2,-4,-8,-6,-25
1537907734448350,0,-2,-2,-3,-5,-19,-1,-12
1537907734448350,-5,-1,-6,-1,3,10,-1,12
1537907734449347,1,-4,-2,-2,2,20,6,-3
1537907734449347,7,3,-4,-1,-4,-8,-6,11
1537907734470291,-4,-2,-1,0,-3,-6,6,-9
1537907734470291,8,4,2,0,-3,-1,0,23
1537907734470291,-10,-6,-1,1,2,7,-1,-22
1537907734470291,-5,-5,2,3,0,-8,-8,-17
1537907734485251,-5,-2,-5,-4,-3,-1,-2,-4
1537907734485251,0,-1,-2,-2,-6,-13,-3,10
1537907734491235,-2,1,3,-1,-4,0,-3,-16
1537907734491235,-3,-4,-3,-1,2,4,-3,-5
1537907734507192,2,1,-1,2,0,-2,4,4
1537907734507192,-3,-1,0,5,0,-8,-5,10
1537907734508190,-1,0,-2,16,7,10,3,-12
1537907734508190,4,1,-10,-4,-6,2,0,2
1537907734530131,-5,-4,11,28,0,-3,1,-5
1537907734530131,2,3,-10,-78,-11,-8,-1,2
1537907734530131,-2,-1,3,1,-14,2,-6,-7
1537907734530131,-1,-5,-5,37,12,1,1,1
1537907734546088,-3,-5,2,5,0,-5,0,-6
1537907734546088,-1,-1,1,34,7,3,-1,2
1537907734552072,1,1,-3,1,4,4,4,1
1537907734552072,-3,-3,-2,-22,-3,-4,-4,-2
1537907734567032,-2,-3,-6,18,6,-1,1,-3
1537907734567032,1,0,2,4,-1,-1,-1,3
1537907734568030,-3,-3,0,-11,1,5,1,-5
1537907734568030,-1,-1,-2,10,-6,-8,-3,-2
1537907734589971,-1,-1,-1,-13,1,1,-1,-1
1537907734589971,-1,0,1,-1,-5,-5,-3,0
1537907734590969,-2,1,2,35,-3,-3,-4,-6
1537907734590969,-1,-1,-2,-36,-1,0,1,-3
1537907734605929,0,0,3,-16,-5,-2,-2,0
1537907734605929,-1,-1,1,3,0,-2,-2,1
1537907734611913,1,0,-2,13,5,1,1,-4
1537907734611913,-1,1,6,6,-2,-2,-2,0
1537907734626872,-2,0,-5,-6,-3,-4,-3,-4
1537907734626872,2,0,1,20,0,-1,0,0
1537907734633854,1,1,-2,-17,-2,2,0,0
1537907734633854,1,1,3,-2,-1,-1,0,0
1537907734649811,0,-3,-2,-14,-2,-2,-2,-2
1537907734649811,0,0,-2,13,4,1,-1,1
1537907734650809,-1,-1,-1,-14,0,0,0,-3
1537907734650809,0,-1,0,-1,-4,-2,-2,0
1537907734665769,-1,0,-5,4,0,-2,0,-1
1537907734665769,0,1,1,1,0,-1,2,0
1537907734671752,-1,2,2,-10,2,1,-1,0
1537907734671752,0,1,1,5,1,-1,-3,0
1537907734686712,2,0,-1,-2,-1,0,0,1
1537907734686712,-2,-4,-2,-7,-4,-3,-1,-3
1537907734693694,-3,-1,-3,-9,0,0,-1,-2
1537907734693694,3,5,8,8,2,1,0,1
1537907734709651,-1,1,-3,-4,-1,0,0,0
1537907734709651,1,4,0,-4,-3,-2,-2,0
1537907734710649,-2,-3,0,5,3,2,-2,-2
1537907734710649,-2,-3,0,1,0,0,1,0
1537907734725608,0,-2,-2,-6,-4,-4,-2,-1
1537907734725608,0,-4,-2,0,-3,-1,0,-1
1537907734731593,0,3,-2,-3,-3,-1,-2,-1
1537907734731593,0,-2,-2,0,0,3,0,-3
1537907734748548,0,-2,-3,-5,-7,-3,-2,-1
1537907734748548,-2,-1,0,5,2,1,-1,-1
1537907734754531,0,-1,0,-4,-1,-1,-1,0
1537907734754531,-2,1,2,-2,-1,-1,-1,-1
1537907734771487,-2,-2,-1,3,1,0,-1,0
1537907734771487,-3,-5,-2,-1,2,0,0,1
1537907734772483,3,3,3,-2,-3,-2,-1,1
1537907734772483,-2,-2,-1,2,-1,0,-2,-1
1537907734786446,1,2,-2,0,-2,0,-2,-1
1537907734786446,1,0,1,0,0,-2,-1,-1
1537907734791432,-4,-4,-3,-3,0,-2,0,-2
1537907734791432,-1,-1,-2,-1,-2,-3,-1,0
1537907734806393,-2,-3,1,-1,0,-1,0,-3
1537907734806393,1,0,-1,-2,-2,-1,-1,-1
1537907734814371,0,0,-1,0,2,1,1,-1
1537907734814371,-1,1,1,0,-2,-3,-1,0
1537907734830329,-3,-5,-3,-5,-3,-1,-1,0
1537907734830329,-1,1,-1,0,-2,-4,-1,0
1537907734830329,0,-1,-1,0,1,1,-1,2
1537907734830329,-2,-3,-4,-2,-1,1,-1,-1
1537907734845289,0,2,-1,-1,0,-1,-1,0
1537907734845289,0,1,0,0,-2,-2,-3,-1
1537907734851272,-1,-1,0,-2,1,1,-1,-1
1537907734851272,-2,-3,-2,-2,1,0,-1,-3
1537907734866233,1,0,1,4,3,1,0,1
1537907734866233,2,1,-1,-2,-5,-3,-2,-1
1537907734874211,0,-2,0,-1,0,1,-1,-1
1537907734874211,-2,-4,-2,-1,0,0,0,-3
1537907734890168,0,0,1,-1,-1,0,0,0
1537907734890168,-4,-4,-1,-1,0,1,-1,-3
1537907734890168,3,2,1,4,2,6,21,32
1537907734890168,-8,0,2,-2,-3,-10,-37,-29
1537907734905128,2,4,0,1,2,2,9,-16
1537907734905128,13,1,5,2,10,31,1,22
1537907734912110,-13,-9,-8,-4,6,31,-6,11
1537907734912110,18,-6,0,0,-13,-28,27,96
1537907734927070,9,21,6,-1,8,67,-27,-111
1537907734927070,-36,-12,9,7,7,-61,82,-20
1537907734934051,18,-3,-13,-22,-60,-84,-109,-111
1537907734934051,19,5,3,3,37,104,39,35
1537907734950008,2,-7,10,13,3,-62,88,104
1537907734950008,-22,-2,-4,-3,-7,11,-10,-20
1537907734956990,-7,5,9,9,37,91,48,70
1537907734956990,24,1,10,8,-5,-107,-117,-17
1537907734965966,-31,5,-17,-22,-18,21,-42,16
1537907734965966,-5,-8,-5,-1,11,40,62,47
1537907734971950,10,6,3,3,-1,-21,74,28
1537907734971950,4,0,0,-5,-3,38,27,3
1537907734986910,-17,-14,-2,0,-12,-79,-39,-76
1537907734986910,21,9,-5,-3,-13,-25,-57,-5
1537907734993891,-9,3,4,1,8,25,28,36
1537907734993891,-17,1,-5,1,11,56,26,-76
1537907735009849,0,-5,0,2,-3,-11,-4,-16
1537907735009849,13,0,-5,-3,-7,-20,-12,25
1537907735010846,14,-11,-3,-2,3,7,-25,27
1537907735010846,-16,-2,0,0,-3,-27,-2,-57
1537907735025806,17,-4,-6,-3,4,60,26,52
1537907735025806,17,2,-3,-5,-14,-36,-28,30
1537907735031790,-17,2,0,5,9,2,1,-50
1537907735031790,-8,-8,-7,-6,-14,-22,-9,2
1537907735046750,5,8,5,3,10,47,17,13
1537907735046750,1,1,-1,-1,3,8,-27,-69
1537907735053731,5,-5,3,-2,-11,-37,-8,94
1537907735053731,-26,-4,-1,-3,-12,-38,9,-43
1537907735069688,0,-14,-5,-3,-4,17,2,35
1537907735069688,13,10,5,6,12,19,3,33
1537907735070686,-6,-3,-3,-3,-4,-7,-21,-31
1537907735070686,15,0,-2,-2,6,48,36,29
1537907735085646,4,0,-2,3,11,-25,-16,-15
1537907735085646,-22,-7,-2,-5,-14,-18,-25,-40
1537907735091630,-6,-4,-8,-6,-3,1,12,11
1537907735091630,-2,0,3,3,2,6,19,44
1537907735106590,7,3,0,0,4,19,-8,-56
1537907735106590,-15,-9,-7,-6,-14,-22,-33,-25
1537907735114568,-6,5,-4,-1,4,6,6,-103
1537907735114568,-9,-5,-6,-5,-2,3,4,24
1537907735129529,0,-3,2,1,6,14,13,7
1537907735129529,3,4,3,1,4,6,1,-13
1537907735130526,4,4,4,1,-6,-1,-1,-11
1537907735130526,-5,-2,-4,-5,-10,-16,-17,9
1537907735145486,-5,0,-4,-1,-2,-22,2,-20
1537907735145486,6,-1,-1,0,4,29,14,22
1537907735151470,0,-2,2,-1,-1,-10,-9,-7
1537907735151470,0,2,0,0,0,-7,-4,-10
1537907735166430,-1,-3,1,0,0,-4,5,6
1537907735166430,2,1,1,0,1,7,7,-7
1537907735174409,-2,0,0,1,-5,-24,-9,-3
1537907735174409,-1,-1,-2,0,1,2,-4,-10
1537907735189369,-4,-3,-4,-4,-9,-17,-10,7
1537907735189369,4,2,0,4,3,10,6,11
1537907735190366,-2,-2,-1,-1,3,5,-3,3
1537907735190366,0,1,-2,-3,-2,-6,4,-3
1537907735205326,0,0,5,0,-3,-9,-5,18
1537907735205326,-1,1,0,1,2,11,4,-3
1537907735211310,1,-2,0,3,1,4,2,-7
1537907735211310,-1,-1,-2,0,-3,-2,-6,-6
1537907735226270,-1,-3,-3,-4,-3,-5,-5,6
1537907735226270,-4,-4,-3,-1,1,5,1,-5
1537907735234249,1,-1,-1,-2,1,-1,0,-3
1537907735234249,-2,-1,0,1,2,-4,-2,2
1537907735257187,1,1,-2,-1,-2,-2,-2,9
1537907735257187,-1,-1,3,4,1,1,3,-2
1537907735258185,-1,0,1,9,4,1,-3,1
1537907735258185,-3,0,-4,-9,0,1,-1,-3
1537907735272147,-1,-1,-2,-9,-10,-8,-2,1
1537907735272147,3,3,6,29,2,4,0,0
1537907735280126,-4,-4,-2,2,2,2,-1,-4
1537907735280126,3,2,-4,-21,-11,-5,-3,-4
1537907735295086,4,1,-6,5,3,-3,-1,3
1537907735295086,-2,-2,-5,-9,0,1,2,1
1537907735295086,0,3,19,15,-1,-2,-3,0
1537907735295086,0,-2,-1,3,1,-2,0,-2
1537907735326004,-1,0,0,-7,0,-3,-1,3
1537907735326004,-2,0,0,9,4,3,1,-2
1537907735326004,-2,-3,-8,1,-1,2,1,-2
1537907735326004,2,-2,-3,-10,-3,-2,-1,-1
1537907735331988,-3,-2,7,22,0,-3,-2,-1
1537907735331988,0,-3,-12,-11,2,0,2,-1
1537907735339967,-1,1,17,45,5,1,0,-2
1537907735339967,-4,-2,-11,-72,-9,-5,-5,-3
1537907735354929,0,0,8,10,2,-2,0,3
1537907735354929,1,-1,-6,-42,-6,1,0,1
1537907735355926,-1,-2,-7,-24,-4,-3,0,1
1537907735355926,-1,-2,-5,41,2,-4,-2,0
1537907735377866,0,2,4,-3,-4,0,0,1
1537907735377866,-1,-1,-1,-5,-1,-1,-2,-3
1537907735377866,-2,-2,-9,-3,-3,0,-2,-1
1537907735377866,-1,0,3,13,5,2,2,-2
1537907735391829,-1,0,-5,-6,0,-2,-2,-3
1537907735391829,-1,-1,1,7,-4,-4,-2,2
1537907735399808,-1,-2,-5,-11,-2,-2,-3,-2
1537907735399808,1,1,2,8,-1,0,1,0
1537907735414768,-1,-2,-2,-6,0,1,-2,1
1537907735414768,-2,-1,2,5,0,-3,-2,-1
1537907735415768,1,-1,-4,-16,-8,-3,-2,-1
1537907735415768,0,-1,3,6,2,3,0,2
1537907735437705,-2,-2,-3,-2,-2,-2,1,-2
1537907735437705,0,3,1,-3,-3,-2,-1,1
1537907735437705,1,0,-4,-9,-1,-2,-1,-1
1537907735437705,0,-1,2,11,2,1,-2,0
1537907735451668,3,-2,-2,-1,1,3,-2,-2
1537907735451668,-1,-2,1,1,0,0,-1,-1
1537907735459646,0,1,-4,-8,-7,-5,-3,0
1537907735459646,-2,-1,0,5,-3,2,-1,0
1537907735474606,-2,0,-2,-3,1,-2,-1,-1
1537907735474606,-2,-1,-1,-2,0,0,0,0
1537907735475604,-1,-1,0,-2,2,0,2,-2
1537907735475604,-2,-1,2,4,3,-1,0,-1
1537907735497545,-1,0,-5,-7,-9,-7,-4,1
1537907735497545,0,0,3,5,-1,0,-1,-2
1537907735497545,0,0,-3,-2,2,0,1,0
1537907735497545,-2,0,0,7,3,-1,0,-1
1537907735520484,0,-1,-1,-3,0,1,-1,-1
1537907735520484,-2,-3,-1,2,1,1,0,-1
1537907735521481,-1,-2,-1,-4,-2,-1,-3,-1
1537907735521481,0,-2,-1,-2,-4,-1,0,-1
1537907735534447,-3,-2,-1,3,1,0,0,0
1537907735534447,-2,-1,-1,-6,-4,-1,-1,-3
1537907735535445,0,-2,0,-1,0,1,0,0
1537907735535445,0,0,0,0,-1,-3,0,1
1537907735558383,-1,0,-1,0,3,1,1,-1
1537907735558383,0,0,0,1,1,-2,-1,0
1537907735558383,-1,-3,-3,-1,-1,-2,1,1
1537907735558383,0,-2,-3,-3,-4,-2,-1,0
1537907735580325,-1,-2,0,-2,-3,-1,-1,0
1537907735580325,0,-3,-2,-3,-2,-2,0,0
1537907735581323,-3,-2,-2,0,0,1,-2,-2
1537907735581323,0,1,2,3,2,0,-2,0
1537907735603264,-2,1,0,0,-1,-2,1,1
1537907735603264,1,3,4,4,3,1,-1,3
1537907735603264,-2,-3,-1,0,2,9,3,-5
1537907735603264,-1,-1,-2,-2,-1,-1,7,20
1537907735618224,5,3,1,-1,0,-5,-20,9
1537907735618224,-1,-8,-3,1,12,62,47,59
1537907735619222,-13,0,1,-3,-13,-59,-53,-92
1537907735619222,-6,-10,-5,-3,7,65,84,79
1537907735640165,11,-2,-4,-3,-6,-82,-14,-33
1537907735640165,-4,6,3,-7,-2,99,38,-52
1537907735641164,-9,12,7,8,-13,-86,-67,-15
1537907735641164,-22,-21,-16,-12,-12,60,-59,-74
1537907735655125,15,16,14,9,26,58,91,96
1537907735655125,2,2,0,-1,-18,-37,-76,-61
1537907735655125,10,-5,-4,-10,-2,-31,-23,-5
1537907735655125,-17,5,-2,0,1,-25,23,57
1537907735678063,-4,-4,-2,0,4,17,-32,-88
1537907735678063,13,2,-2,1,3,-24,9,97
1537907735679061,-9,1,7,7,7,29,5,-24
1537907735679061,23,-3,-3,-2,-6,-18,-28,13
1537907735701001,-6,-4,-6,-6,-3,14,10,1
1537907735701001,-7,-2,-1,1,-4,-48,14,-21
1537907735701001,-3,-8,-10,-7,-2,21,12,18
1537907735701001,9,1,4,0,-2,-4,8,6
1537907735714963,-14,-2,2,3,1,-8,1,-19
1537907735714963,-2,-1,3,3,-4,-36,-38,10
1537907735715961,7,-3,-7,-5,-3,35,44,86
1537907735715961,-5,4,5,2,5,-13,-23,-70
1537907735737902,0,0,1,1,-8,-5,-4,4
1537907735737902,-4,-8,-8,-6,-4,-16,-17,6
1537907735738900,12,5,2,3,15,37,26,22
1537907735738900,-6,5,4,3,-2,-31,0,-39
1537907735760841,-4,-8,-6,-6,-12,-11,-28,12
1537907735760841,-2,-3,-2,-1,5,4,10,-6
1537907735760841,0,3,0,2,4,15,19,9
1537907735760841,9,2,2,3,4,5,3,17
1537907735774804,-3,-1,-7,-7,-6,-13,-18,0
1537907735774804,-10,-2,-3,-2,-5,-12,-5,-25
1537907735775802,-10,-7,-4,-2,0,4,4,-2
1537907735775802,3,5,-1,1,-1,-2,-6,11
1537907735797742,7,-2,1,2,-1,6,6,11
1537907735797742,8,5,0,-5,-7,-17,-4,6
1537907735798740,4,-1,-2,0,-2,-8,-1,-11
1537907735798740,-3,-2,0,2,1,3,0,1
1537907735821678,-5,0,1,2,0,5,3,4
1537907735821678,-1,-2,-1,-2,0,-3,-3,-19
1537907735823673,-1,-1,-1,-4,-2,8,8,10
1537907735823673,4,2,2,0,1,-10,-3,-3
1537907735834644,-2,1,1,1,2,4,-1,-1
1537907735834644,-6,-5,0,0,0,-1,2,1
1537907735835641,2,0,-3,-5,-2,9,2,3
1537907735835641,1,-1,-2,-2,-3,-10,-1,-5
1537907735857582,-3,0,0,0,0,0,-1,-6
1537907735857582,0,0,0,2,4,6,6,3
1537907735858580,1,0,1,1,-2,0,4,2
1537907735858580,1,0,-2,-3,-2,-10,-6,-11
1537907735880521,-6,-5,-7,-6,-2,1,1,5
1537907735880521,-2,2,2,-1,-3,2,0,-4
1537907735881518,1,-1,-1,2,1,2,2,-1
1537907735881518,-2,0,2,4,2,-4,-2,-1
1537907735894484,1,-2,1,-2,-1,1,0,2
1537907735894484,-4,-1,-1,1,3,1,3,0
1537907735895481,7,1,-2,6,2,0,-1,-1
1537907735895481,-3,-1,-3,1,-1,-4,-2,-2
1537907735918420,-2,-3,-4,-6,-6,-2,-1,0
1537907735918420,0,0,1,-6,-3,1,-2,-4
1537907735918420,-3,-3,5,18,-2,1,-1,3
1537907735918420,1,1,-2,6,1,-3,-2,-3
1537907735940362,-1,-1,-5,-17,-2,1,1,0
1537907735940362,0,-1,2,9,0,1,1,0
1537907735941360,-3,-2,1,-8,0,2,-1,-1
1537907735941360,0,2,12,20,2,-2,-1,1
1537907735955322,-2,-4,-4,5,-1,-2,-3,-3
1537907735955322,1,1,-11,-16,-3,-1,-2,0
1537907735963302,-2,0,-4,-8,-7,-2,0,-1
1537907735963302,0,0,-3,-12,-4,-2,-1,-1
1537907735978261,0,1,0,19,7,4,1,1
1537907735978261,1,-2,5,45,14,6,3,-2
1537907735978261,1,6,22,-24,-19,-9,-4,-2
1537907735978261,0,0,-9,-22,-7,-4,-2,0
1537907736000202,-1,-1,9,5,0,0,-1,-1
1537907736000202,1,-2,-6,4,1,0,1,0
1537907736001200,0,-1,-12,-5,6,1,2,-1
1537907736001200,1,-2,3,-7,-4,-1,-2,-1
1537907736014164,1,-1,-7,2,-4,-5,-1,0
1537907736014164,0,0,3,-18,0,2,0,-1
1537907736023140,-3,-3,-3,13,5,3,0,0
1537907736023140,0,0,0,6,-4,-5,-2,0
1537907736038100,-2,-2,-5,-21,2,4,-1,-3
1537907736038100,-2,-1,-1,-9,-12,-5,-1,-1
1537907736039097,-2,-2,2,10,3,2,1,0
1537907736039097,-1,0,-6,4,1,-3,-1,-1
1537907736060041,-3,0,4,0,-1,1,-1,0
1537907736060041,-2,-1,-5,-17,-2,-3,-2,0
1537907736062037,0,-2,-1,4,4,2,1,2
1537907736062037,-3,-1,1,9,3,2,1,-1
1537907736074004,0,0,1,0,-5,-3,-3,1
1537907736074004,-1,1,0,-3,1,0,-2,1
1537907736082980,0,0,-2,5,2,0,2,-2
1537907736082980,1,1,0,-6,-2,-1,-1,0
1537907736097940,-1,0,-1,-3,-2,-1,-1,-2
1537907736097940,0,-2,-1,1,-2,-2,-1,-2
1537907736099935,0,-1,-1,-1,3,2,-2,0
1537907736099935,-1,0,0,-4,-3,-3,-1,-1
1537907736120879,-1,-2,-2,-2,-3,0,-1,-2
1537907736120879,-2,-2,0,5,1,0,-1,-3
1537907736121876,0,1,-2,-7,-1,-1,-1,-2
1537907736121876,-2,-2,-8,0,3,-1,0,-1
1537907736133844,-2,0,4,3,-2,-2,-1,-1
1537907736133844,2,-1,-1,-4,-4,-4,-2,-1
1537907736142820,-1,-2,-4,-8,-4,-1,-2,-1
1537907736142820,0,-3,2,1,1,2,2,0
1537907736157780,-1,-3,1,6,5,2,0,2
1537907736157780,1,-1,-2,0,-2,-3,-1,-1
1537907736159776,0,-2,-4,-4,-3,0,-2,-1
1537907736159776,-1,-1,0,0,-1,-2,0,-1
1537907736180721,0,-1,-1,-1,1,2,1,-2
1537907736180721,-1,-2,1,-4,-1,1,1,-2
1537907736181720,0,-1,-1,0,0,-2,0,1
1537907736181720,0,0,1,3,0,0,-1,0
1537907736194682,-1,0,-1,-1,-2,-3,-2,-1
1537907736194682,0,-1,0,-1,0,1,-1,0
1537907736202663,-2,0,-2,-1,-2,-2,0,-2
1537907736202663,-1,-1,0,-1,1,0,-1,-1
1537907736217621,1,0,-1,-4,-5,-3,-3,-1
1537907736217621,1,0,-2,0,2,0,0,0
1537907736219617,-1,0,-2,1,2,-1,0,0
1537907736219617,-1,-1,-1,-9,-7,-2,-2,-3
1537907736240560,-2,-1,-1,1,1,-2,0,-2
1537907736240560,-2,-1,-3,-1,-2,0,-2,-2
1537907736242556,-1,-3,0,-1,1,-1,-1,0
1537907736242556,1,0,-1,0,1,-2,-1,0
1537907736254524,1,1,-1,1,1,1,0,-1
1537907736254524,0,-1,0,0,-3,-1,0,0
1537907736263500,-3,-2,0,-2,-4,-2,-1,-1
1537907736263500,-1,1,-2,-1,0,-1,-1,-2
1537907736278460,2,-1,-2,0,-2,0,0,-1
1537907736278460,-1,-1,1,2,2,-2,-1,0
1537907736279457,-2,-3,-5,-5,-7,2,-4,-2
1537907736279457,0,-8,-2,0,8,52,33,-14
1537907736300399,0,8,1,1,-12,-73,-23,22
1537907736300399,6,4,1,1,0,0,7,29
1537907736302394,7,-2,0,6,23,98,21,11
1537907736302394,-28,-3,-7,-13,-33,-115,57,1
1537907736314362,14,-6,-7,-6,-7,18,-67,67
1537907736314362,-10,8,6,8,10,55,-16,-106
1537907736323338,-19,-12,-8,-7,-12,-89,-41,11
1537907736323338,-4,3,12,10,13,27,7,16
1537907736337300,-26,-12,-13,-16,-23,-11,0,-14
1537907736337300,38,18,1,0,-6,-52,-27,-18
1537907736344282,-7,-18,-7,-8,-9,14,-19,-62
1537907736344282,-21,0,-2,5,17,36,28,-62
1537907736360240,7,10,7,6,2,19,13,12
1537907736360240,-20,-11,-2,0,8,39,-14,-4
1537907736362237,30,4,3,2,-4,3,9,17
1537907736362237,-16,-4,-4,-4,-7,-59,-27,1
1537907736374204,23,1,1,5,8,12,10,10
1537907736374204,-12,-8,-4,-4,0,21,24,29
1537907736383180,-6,2,3,2,5,-14,16,11
1537907736383180,12,-1,2,0,-5,14,-37,10
1537907736398139,1,-5,-4,-1,8,19,14,-48
1537907736398139,-4,-5,-1,-4,-7,-20,6,26
1537907736404122,1,5,1,1,-5,-17,-1,15
1537907736404122,11,3,1,0,3,7,-25,-9
1537907736420079,-8,-3,2,-1,0,10,19,1
1537907736420079,-2,-6,-3,-4,-5,-22,5,23
1537907736422073,-9,0,-7,-5,-4,-5,-4,-12
1537907736422073,10,5,0,1,4,23,-3,12
1537907736443017,-2,-1,-2,2,2,-5,7,-14
1537907736443017,-6,-3,0,-2,-5,-9,-4,0
1537907736444015,-2,3,1,1,3,7,3,-11
1537907736444015,5,-5,-3,-4,-3,2,-14,9
1537907736456980,-4,1,0,1,2,-2,7,-5
1537907736456980,3,-3,-3,-4,-3,-7,1,-3
1537907736463962,0,-3,-4,-3,1,4,5,9
1537907736463962,7,2,-4,-2,-3,0,-8,14
1537907736480916,-6,-1,1,-1,1,1,2,-12
1537907736480916,1,-2,-1,3,2,5,7,6
1537907736481914,-2,4,2,3,0,-4,1,1
1537907736481914,0,-2,-5,-5,-4,0,-10,-2
1537907736502858,-3,0,-1,-3,2,3,2,-12
1537907736502858,-3,1,2,6,3,-4,2,4
1537907736504853,-2,-1,1,13,0,-3,-1,3
1537907736504853,1,-2,-5,-7,-2,1,-4,-2
1537907736517818,-5,-4,-3,-11,-6,-1,1,-2
1537907736517818,0,0,0,-4,-1,-5,3,6
1537907736523802,0,4,4,2,1,1,1,-1
1537907736523802,3,0,4,18,4,5,-1,4
1537907736540758,-2,-1,-1,-5,2,2,3,-3
1537907736540758,-3,-4,-2,4,2,0,-2,0
1537907736541755,1,1,-1,-3,-7,-3,-2,-5
1537907736541755,2,-1,-1,2,-3,0,-3,3
1537907736562700,-1,-2,-1,-5,-7,-3,1,-1
1537907736562700,-2,-3,-2,-7,-4,-1,-1,-1
1537907736564695,-1,2,2,3,2,2,1,3
1537907736564695,0,1,-3,-2,4,1,-1,2
1537907736577659,-1,0,-1,4,-3,-1,2,-1
1537907736577659,-1,-2,-3,-2,-2,0,3,2
1537907736584639,-2,0,2,-3,2,1,3,0
1537907736584639,2,2,3,-2,-2,2,-1,1
1537907736599599,1,0,4,9,11,5,1,-3
1537907736599599,3,2,-1,-4,-2,-1,-1,0
1537907736608575,2,1,-1,-6,-5,-3,-1,2
1537907736608575,0,-1,-1,-4,1,1,-2,0
1537907736622537,-1,-1,-1,2,2,2,2,-1
1537907736622537,1,-1,0,0,-1,-2,0,1
1537907736624532,-1,0,-1,-3,2,1,-1,0
1537907736624532,1,-1,2,-2,1,0,1,-2
1537907736645476,1,0,-1,-4,-2,-2,-2,-3
1537907736645476,0,0,0,0,0,1,-1,-2
1537907736647471,0,2,0,-2,0,-2,-1,-2
1537907736647471,0,0,0,-3,-4,-2,-2,-1
1537907736660436,1,1,-2,-2,-6,-2,-3,-2
1537907736660436,-3,-2,-4,-2,0,-3,-1,-1
1537907736661434,-4,-2,-4,-2,1,0,0,-1
1537907736661434,0,1,-3,-7,-11,-6,-2,3
1537907736683375,-1,-1,-1,2,2,-1,-1,-3
1537907736683375,-1,-2,-1,-2,-6,-4,-2,0
1537907736684373,-1,-1,0,-1,1,0,0,-2
1537907736684373,-1,-1,0,-1,-2,-3,0,0
1537907736696340,-2,-1,0,2,2,0,-1,-1
1537907736696340,-1,-1,0,-2,-1,-1,-2,-1
1537907736711301,-1,0,-2,0,-1,-1,0,-1
1537907736711301,0,-1,1,-2,-3,0,-2,-3
1537907736720276,-2,-1,0,-1,-1,-1,-1,0
1537907736720276,-1,0,0,-1,1,0,0,-1
1537907736722271,-2,-3,0,-2,-1,0,-1,0
1537907736722271,-2,-1,-2,-1,2,1,-1,-2
1537907736743215,-1,-1,-2,0,1,1,0,0
1537907736743215,-1,-1,1,-1,0,-1,0,-1
1537907736744212,1,-1,-3,-3,-4,-2,-2,-1
1537907736744212,-1,-2,-4,0,-2,-2,-2,-1
1537907736756180,1,0,1,-3,-1,0,1,0
1537907736756180,1,0,-1,0,2,-1,-1,-1
1537907736765156,-4,-7,-4,-3,0,-1,1,-1
1537907736765156,-2,-3,-3,0,0,-1,0,-5
1537907736780116,2,3,1,1,2,7,3,-19
1537907736780116,9,-4,-4,3,8,46,19,56
1537907736782112,8,5,11,4,10,37,9,40
1537907736782112,-14,-16,-13,-9,-16,-31,6,-36
1537907736803056,-2,-2,11,9,-1,35,20,103
1537907736803056,5,-4,-8,-10,-41,-122,-61,-39
1537907736804053,-38,4,-4,-7,19,108,32,-43
1537907736804053,51,24,14,4,-26,-74,29,81
1537907736817019,-77,-21,-6,-2,14,91,-40,-96
1537907736817019,66,26,5,-2,-22,-87,22,120
1537907736825996,-29,-14,-13,-14,-19,7,-117,-101
1537907736825996,-9,0,1,3,31,91,-7,-3
1537907736840955,56,26,9,10,23,17,119,-21
1537907736840955,-40,-9,6,9,31,93,25,-86
1537907736841952,-29,1,-7,-5,-14,4,-1,-37
1537907736841952,25,-2,-1,-4,-23,-63,-72,-29
1537907736862896,-2,-9,-13,-9,-26,-105,-123,-19
1537907736862896,1,-2,-4,-1,14,65,21,-23
1537907736864891,15,-4,-1,-1,-9,-20,51,40
1537907736864891,-14,3,5,7,30,106,31,-16
1537907736876858,-8,-10,-6,-12,-25,-57,-29,35
1537907736876858,-2,0,0,2,1,-4,24,-5
1537907736885834,17,1,7,8,4,-33,-8,34
1537907736885834,-11,-5,-4,-2,4,20,19,15
1537907736900794,4,1,3,1,-1,-20,11,5
1537907736900794,-18,-5,0,-5,-2,0,-26,-17
1537907736901791,16,1,2,2,0,-11,6,19
1537907736901791,-6,3,0,-1,-4,-27,-19,5
1537907736922735,7,3,-2,0,-2,6,7,-20
1537907736922735,-9,0,-3,-1,1,13,-21,-14
1537907736924730,6,-3,-2,-1,-4,-19,5,9
1537907736924730,-3,-6,-4,0,-3,-8,10,-14
1537907736936698,2,3,-4,1,3,11,-2,4
1537907736936698,-1,-1,0,-1,2,15,7,3
1537907736945674,16,6,3,0,-3,-28,7,14
1537907736945674,-7,-4,-2,-4,-1,1,-5,-3
1537907736960634,1,1,-2,0,2,16,6,4
1537907736960634,-8,-4,-1,-3,-3,-9,-10,-1
1537907736961632,7,-3,-1,1,-1,-10,4,-4
1537907736961632,-3,-2,1,-1,1,3,-8,-3
1537907736982575,1,0,0,-2,-2,4,3,1
1537907736982575,1,-2,-2,-2,-1,-3,3,-6
1537907736990555,2,2,-1,3,-1,-6,-2,6
1537907736990555,-5,-1,1,0,1,7,3,1
1537907736996539,0,-3,0,0,3,-2,4,3
1537907736996539,-3,-2,-2,-2,-2,1,-4,0
1537907737005516,1,1,0,1,5,2,2,4
1537907737005516,-4,-1,0,0,2,-6,-3,3
1537907737020475,-1,-2,-3,-2,-5,-1,-1,-5
1537907737020475,-3,1,-2,-5,-10,1,-6,-3
1537907737021472,-1,1,1,0,1,-4,1,2
1537907737021472,-3,-2,1,1,1,-2,2,-3
1537907737043413,-1,0,-3,3,0,1,0,1
1537907737043413,-3,-1,-1,-2,0,1,1,0
1537907737044410,3,-2,-4,-5,-6,-10,0,1
1537907737044410,0,-1,1,-4,-1,0,0,-1
1537907737056378,0,-1,-2,-10,-6,2,-1,1
1537907737056378,-2,0,0,2,0,-1,-3,-1
1537907737065355,3,-2,1,0,1,-1,0,-1
1537907737065355,-2,-1,0,5,5,1,-1,-1
1537907737080314,0,-1,0,3,0,2,1,0
1537907737080314,-1,-1,0,0,1,-1,2,-2
1537907737082309,1,-1,-1,0,1,-3,-2,1
1537907737082309,0,-1,-2,-1,-3,-2,-1,1
1537907737103253,-1,-1,0,-1,0,0,0,1
1537907737103253,-1,-1,-2,0,0,-1,-1,1
1537907737104250,2,-2,-2,2,0,-1,2,2
1537907737104250,-1,-2,-3,-4,-6,-4,-2,-1
1537907737116218,0,-1,0,-1,2,2,0,-2
1537907737116218,-2,0,0,1,0,0,-2,-2
1537907737125194,-1,0,0,-2,0,-2,0,1
1537907737125194,-3,-4,-2,-3,-2,1,-1,-2
1537907737140154,0,1,-3,-3,-5,-6,-1,1
1537907737140154,-3,-3,-2,-1,2,2,1,-2
1537907737142149,-3,-1,0,-1,-1,-2,-2,-2
1537907737142149,0,1,0,-2,0,1,10,2
1537907737163093,-6,-12,-4,-1,2,9,17,3
1537907737163093,12,14,6,6,8,26,24,9
1537907737164091,-2,-6,4,1,-3,7,-9,28
1537907737164091,12,19,7,11,24,50,23,-92
1537907737177056,12,-2,3,-2,-21,-85,-39,70
1537907737177056,-18,0,10,11,-3,19,-23,-86
1537907737186032,-6,-21,-16,-13,18,85,97,21
1537907737186032,4,10,8,6,-22,-94,-128,78
1537907737199994,-23,2,7,1,8,56,53,-40
1537907737199994,-9,8,7,8,15,39,-26,-83
1537907737206976,-20,-7,-13,-14,-31,-92,-105,-56
1537907737206976,-19,-13,-14,-12,8,-19,74,-46
1537907737222933,25,8,-6,-1,2,6,83,2
1537907737222933,37,10,11,11,17,70,79,127
1537907737224928,33,-2,1,6,18,-12,-10,-118
1537907737224928,12,-2,7,11,18,68,45,23
1537907737236896,16,-2,4,3,-7,3,-47,-53
1537907737236896,-40,-19,-12,-10,-9,-76,-18,-109
1537907737245872,11,8,7,6,3,24,9,57
1537907737245872,-9,-9,-4,-6,-13,-16,-14,42
1537907737259834,-2,6,0,2,7,18,-14,20
1537907737259834,-8,-10,-9,-9,-3,10,-11,18
1537907737266816,-6,1,1,-2,-10,-23,6,20
1537907737266816,-9,-2,-2,-6,-11,-21,-12,8
1537907737282773,-14,-4,-2,-2,7,25,-8,-17
1537907737282773,9,-2,-5,-6,-12,-38,-6,-5
1537907737284769,-7,6,-3,0,-6,-22,-12,12
1537907737284769,5,-1,-2,-2,1,24,2,-14
1537907737296737,0,-4,-4,0,1,-6,-11,-2
1537907737296737,5,-3,-6,-4,-8,-25,-8,19
1537907737305712,2,6,4,4,0,14,9,12
1537907737305712,-4,-4,-2,-3,-3,14,2,-1
1537907737319674,1,0,-2,0,-1,-12,-6,3
1537907737319674,-3,0,-2,-5,-6,-15,-5,14
1537907737326656,-5,-1,1,-1,0,16,8,1
1537907737326656,8,3,0,0,-3,-6,4,-6
1537907737342613,-4,1,1,-3,-4,-17,-14,3
1537907737342613,3,-5,-3,-1,1,7,-3,3
1537907737344608,0,2,3,2,4,0,1,6
1537907737344608,-5,-6,-1,-1,-3,-6,-5,4
1537907737366549,-5,-1,0,-6,-6,3,-4,2
1537907737366549,-3,-1,-1,0,4,5,0,4
1537907737368544,-3,-1,1,1,0,-2,4,5
1537907737368544,-3,-3,-2,-2,-1,-4,-2,1
1537907737379515,-5,-2,1,4,5,8,1,-1
1537907737379515,1,-1,-3,-7,-10,-10,-1,-1
1537907737386496,-1,-1,-3,-3,-4,-7,-3,4
1537907737386496,-1,-3,-1,3,1,5,-1,-6
1537907737403451,-1,1,-2,0,-2,-4,-1,0
1537907737403451,2,0,0,0,1,-8,-3,5
1537907737404449,-2,1,1,2,1,4,1,2
1537907737404449,-2,-2,0,2,1,2,-1,0
1537907737425393,0,-1,5,5,1,-5,-3,0
1537907737425393,1,-2,-6,0,-7,-11,-3,4
1537907737427387,-3,-2,-11,-45,-17,0,0,-1
1537907737427387,-1,-1,-1,4,-5,-3,0,-4
1537907737440352,-1,-1,-1,7,0,-4,-5,0
1537907737440352,0,-2,0,-15,3,3,-1,1
1537907737446336,1,2,5,12,5,0,2,0
1537907737446336,0,0,-3,-9,0,-2,-1,-1
1537907737464288,-1,0,1,5,-1,1,-2,1
1537907737464288,0,0,2,10,2,2,0,1
1537907737466284,-2,-2,-2,4,-2,-1,-1,0
1537907737466284,-2,-2,0,-1,-1,-1,-2,-2
1537907737485232,-2,-3,2,2,-1,-3,-3,0
1537907737485232,-4,-7,-5,-3,-3,-2,10,2
1537907737487227,-2,1,3,4,8,61,-15,-15
1537907737487227,21,14,6,6,2,-8,45,86
1537907737500193,20,10,2,6,31,100,78,80
1537907737500193,7,7,-2,-4,-35,-108,-67,-19
1537907737507174,-5,-7,-9,-4,18,111,43,74
1537907737507174,5,9,11,15,24,-19,80,103
1537907737523130,-20,-5,-16,-29,-72,-93,-117,-86
1537907737523130,-12,2,1,7,75,127,127,82
1537907737524128,15,7,4,15,-34,-128,-106,16
1537907737524128,-51,-14,-27,-36,-58,12,-75,-94
1537907737545073,-26,-7,-5,0,43,97,127,127
1537907737545073,16,8,8,11,-5,-11,-106,-128
1537907737547067,-17,-7,-3,4,32,19,25,-14
1537907737547067,85,25,17,10,6,-12,11,94
1537907737559034,-12,-4,-2,-4,-17,-57,-54,-59
1537907737559034,3,-8,-8,-9,-9,31,38,35
1537907737568011,13,7,5,5,9,28,27,-6
1537907737568011,-13,-14,-1,3,0,-27,-41,-66
1537907737582971,-7,-7,-2,-2,-7,2,8,-19
1537907737582971,-5,-1,3,2,3,-5,1,33
1537907737583969,-6,-5,-2,-3,-12,-43,-6,-23
1537907737583969,-21,-12,-8,-6,-8,6,-22,-33
1537907737605909,6,0,0,0,9,-3,-9,-1
1537907737605909,-4,-3,-3,-3,-7,-19,-6,-1
1537907737606907,2,2,-1,-2,-14,-16,-17,-15
1537907737606907,-15,-9,-6,-5,3,24,8,-25
1537907737618875,10,3,-1,0,5,-7,-12,-7
1537907737618875,5,4,-1,0,-9,-25,-12,6
1537907737627851,-7,-1,-1,0,-5,12,20,2
1537907737627851,-4,1,1,3,9,13,4,2
1537907737642810,7,3,2,0,-2,-21,-11,-7
1537907737642810,-6,-6,-4,-4,-10,-1,-6,9
1537907737644806,1,-1,-1,-2,-1,5,8,8
1537907737644806,0,0,0,0,4,2,-4,-13
1537907737665749,5,0,-1,1,-1,-10,-15,-7
1537907737665749,-6,-4,-1,-5,-6,4,5,5
1537907737666748,0,1,1,0,1,4,3,2
1537907737666748,-4,-1,-1,-1,0,-4,-10,-10
1537907737680712,0,0,1,1,0,2,3,-1
1537907737680712,-1,0,2,2,2,2,2,11
1537907737693677,-3,-1,-2,-5,-3,-7,1,-3
1537907737693677,-6,-4,-2,0,2,6,-5,-5
1537907737702651,3,0,1,0,1,-1,-4,1
1537907737702651,-4,0,0,1,1,-3,0,1
1537907737704646,0,0,0,1,-3,-3,-3,-3
1537907737704646,-3,-3,-2,-4,-5,2,3,-5
1537907737725589,-1,0,1,2,1,1,-2,-2
1537907737725589,2,2,2,1,-4,-7,-2,0
1537907737726587,-1,-1,0,2,-1,2,5,2
1537907737726587,0,0,0,-3,2,3,0,-2
1537907737739552,1,-2,-3,-5,-4,-7,-4,-3
1537907737739552,-1,1,-1,-4,-7,-1,-3,3
1537907737747530,-2,-2,1,1,3,3,2,1
1537907737747530,-1,-1,0,1,2,0,-3,-3
1537907737762491,2,2,1,1,0,-3,-3,0
1537907737762491,-2,-4,-2,-2,-1,1,1,0
1537907737764485,-2,-3,-4,-1,-2,-2,-1,-3
1537907737764485,-1,0,-3,-1,-1,-3,-3,-4
1537907737785429,5,10,5,4,4,7,10,6
1537907737785429,2,-9,2,1,14,61,63,54
1537907737786427,4,8,6,4,7,22,-15,-26
1537907737786427,-16,-25,-5,-5,-16,25,-11,30
1537907737800390,-22,-14,-23,-22,-50,-93,-9,-28
1537907737800390,22,12,8,4,-4,15,-110,-33
1537907737808369,0,8,0,-3,-6,-32,-29,-3
1537907737808369,-13,-2,0,-5,-18,14,19,-56
1537907737823328,8,6,7,1,24,78,-4,-12
1537907737823328,50,-1,-12,-7,-18,-77,-13,78
1537907737824326,-47,-12,-17,-12,-6,-11,-14,-19
1537907737824326,14,22,14,14,27,32,-82,-64
1537907737846267,3,-4,2,4,-1,0,103,79
1537907737846267,13,13,3,1,10,37,-8,9
1537907737851254,27,16,12,11,8,12,74,31
1537907737851254,9,-6,-7,-4,-7,-29,48,8
1537907737859232,1,-11,0,5,14,32,1,18
1537907737859232,-34,-15,-3,0,-2,-16,2,-21
1537907737868208,-5,-11,-5,-5,-8,-14,-8,6
1537907737868208,-7,-5,-3,-4,-3,-7,-7,5
1537907737883169,-8,1,2,-1,3,2,-43,-38
1537907737883169,-16,-6,-3,-1,-4,-22,-3,-30
1537907737884165,1,-5,-4,-4,-7,6,-12,-12
1537907737884165,5,6,-1,0,7,9,19,15
1537907737905110,4,2,0,0,2,-15,-32,-5
1537907737905110,-14,0,1,-2,-3,1,19,-13
1537907737907105,6,-2,2,1,5,22,11,13
1537907737907105,-1,-2,-4,-2,-1,-12,-6,13
1537907737919072,-1,1,-2,1,-4,-9,-10,-8
1537907737919072,-8,-1,-1,-1,0,7,10,-19
1537907737928048,2,0,0,-1,0,4,-5,-6
1537907737928048,1,1,-1,0,-1,-12,-3,9
1537907737943008,5,4,0,19,4,2,-8,-9
1537907737943008,-1,2,-4,3,1,11,14,-7
1537907737944005,1,-5,-1,-35,-8,-7,-11,2
1537907737944005,0,1,0,-6,-2,-4,5,9
1537907737964949,1,-1,3,5,3,9,-1,1
1537907737964949,-4,-1,0,17,0,-3,1,-5
1537907737966944,-1,-1,-2,-1,-5,-2,1,3
1537907737966944,-3,0,0,-1,3,-1,-1,1
1537907737978912,-2,-1,-3,-9,-4,-1,-9,-7
1537907737978912,-7,-4,-2,-6,-1,-2,2,-5
1537907737987888,3,0,0,3,-7,-1,-4,1
1537907737987888,1,-1,0,2,5,4,5,5
1537907738002848,0,2,1,0,-1,-6,-7,1
1537907738002848,-3,-2,-3,-5,-1,2,4,-3
1537907738004842,0,-2,0,6,4,5,1,2
1537907738004842,-1,0,0,5,-1,-3,5,6
1537907738025786,-1,0,1,-3,1,-8,0,9
1537907738025786,-1,-3,1,-7,0,3,10,2
1537907738026784,-6,-8,-4,0,-3,0,-62,-30
1537907738026784,2,7,-4,-1,1,17,18,1
1537907738038752,1,0,2,-4,10,23,-13,-34
1537907738038752,2,-2,1,-4,-6,0,60,73
1537907738047728,31,14,16,27,20,19,22,105
1537907738047728,-34,-27,-17,-19,-50,-96,-78,-100
1537907738062688,-12,2,-4,-6,25,116,59,73
1537907738062688,-5,6,-4,-2,-22,-126,32,-121
1537907738064683,34,30,2,5,20,127,112,46
1537907738064683,-13,3,19,10,8,-85,-72,2
1537907738085627,-8,-21,-17,-16,-20,-29,26,5
1537907738085627,12,17,9,8,-5,-3,-46,69
1537907738086624,-47,-51,-29,-21,-22,-43,12,-116
1537907738086624,36,43,11,17,38,76,-24,-11
1537907738099589,2,16,19,13,11,21,48,-2
1537907738099589,19,1,1,2,18,50,49,84
1537907738107568,-5,-3,2,4,-7,-37,-16,56
1537907738107568,14,-17,-10,-6,-8,-3,21,56
1537907738123525,-14,-8,-3,-3,-2,-13,-56,-50
1537907738123525,-12,-10,-6,-7,-7,-21,-17,-22
1537907738124523,-11,0,3,0,-9,-31,-42,-32
1537907738124523,-13,-11,-6,-3,3,32,28,-12
1537907738145467,8,6,1,0,-3,-22,-15,18
1537907738145467,-6,-4,-1,-4,-2,2,-21,-29
1537907738146464,-6,0,3,1,1,-15,-12,-27
1537907738146464,0,0,-2,-2,2,20,22,18
1537907738159430,9,2,-2,-3,-15,-31,-10,-12
1537907738159430,-11,-5,-3,0,2,21,-36,-31
1537907738168406,-3,-3,-3,0,1,-5,-16,-15
1537907738168406,5,3,-1,-1,-1,14,28,22
1537907738182370,2,-3,-2,-1,-7,-17,-23,-8
1537907738182370,-5,-5,-5,-5,3,19,-8,-24
1537907738189350,7,6,1,2,5,2,8,12
1537907738189350,5,-2,1,-1,-6,-9,14,9
1537907738205308,2,-3,-1,0,-4,-12,-8,-11
1537907738205308,-1,-2,0,-3,3,17,-5,-6
1537907738207304,4,1,0,-2,-4,-7,2,-5
1537907738207304,-3,-3,-2,-1,-1,8,-2,-2
1537907738219271,-3,-3,-3,-2,0,-5,-14,-7
1537907738219271,-2,0,-2,-2,-1,8,-1,0
1537907738228247,-1,1,0,-1,-1,-4,-9,-4
1537907738228247,-7,-4,0,1,4,6,8,-2
1537907738243207,3,3,-1,-3,-6,-6,0,6
1537907738243207,-4,-3,0,0,-2,-1,-4,-5
1537907738249191,-3,0,-2,0,0,-6,-3,-3
1537907738249191,-3,-1,-2,-1,-1,5,4,3
1537907738265148,-1,-2,0,0,2,-6,-1,-2
1537907738265148,0,0,-1,4,1,5,-8,-5
1537907738267144,-4,-3,-3,-3,-3,-3,-5,-5
1537907738267144,2,0,-2,-6,-3,1,5,5
1537907738279111,-2,0,-3,-2,-6,-8,-7,-2
1537907738279111,-4,-4,1,-6,-1,5,-3,-8
1537907738288089,2,2,4,5,1,0,1,4
1537907738288089,-2,-3,-1,6,0,0,3,1
1537907738302053,-2,-2,-1,-14,0,-2,-1,-3
1537907738302053,-3,-1,-2,-7,1,3,-3,0
1537907738309032,-1,-1,-2,1,2,-2,1,-3
1537907738309032,-1,1,1,-1,-3,-3,-1,-1
1537907738324987,1,1,-1,8,4,1,-2,-2
1537907738324987,-1,-1,1,7,2,3,-1,0
1537907738326982,1,0,-1,6,-4,-2,-3,-2
1537907738326982,-1,-1,-5,-12,-4,-2,0,0
1537907738348923,0,0,-2,-6,-2,-2,-1,0
1537907738348923,-1,-1,-1,-2,2,0,-1,-2
1537907738350919,-1,-1,-1,3,1,-2,-1,-2
1537907738350919,-3,-1,1,2,1,0,0,0
1537907738361889,0,-1,-3,3,-5,-3,-2,-2
1537907738361889,-1,-1,-2,1,-2,0,-2,-3
1537907738368870,-3,-4,-2,-4,-1,0,5,0
1537907738368870,-4,-5,-3,1,6,36,10,-10
1537907738392805,12,10,8,6,15,70,6,15
1537907738392805,-4,-4,-5,1,20,22,-4,-42
1537907738394800,6,-1,11,-2,-39,-97,-11,84
1537907738394800,11,-7,-3,-2,11,89,-12,22
1537907738407765,4,7,-3,1,-1,-95,-14,95
1537907738407765,-43,-27,-4,-2,-23,56,-14,-71
1537907738409760,2,13,-2,-3,39,36,-76,-20
1537907738409760,-2,8,-1,-7,-58,-128,10,90
1537907738422726,18,-4,-1,-4,-8,64,-44,-103
1537907738422726,4,-4,5,7,24,34,49,-3
1537907738428710,-37,-3,-13,-6,12,118,96,118
1537907738428710,94,36,26,22,44,58,20,39
1537907738445665,-25,-7,-5,-6,-23,-108,-69,-128
1537907738445665,7,5,-6,-12,-24,11,-3,72
1537907738446662,-4,-13,-5,-2,-11,-40,11,-38
1537907738446662,-16,5,4,7,21,55,39,28
1537907738467607,2,-2,1,4,5,4,44,44
1537907738467607,16,6,5,1,-5,-52,-10,1
1537907738469603,4,-6,-2,-4,4,27,-21,0
1537907738469603,-34,-14,-6,-4,-9,-23,-7,-35
1537907738481570,3,-3,1,-2,-4,-16,-6,9
1537907738481570,-12,-1,-7,-1,1,5,-11,-2
1537907738490547,4,6,-2,0,-4,-18,7,-46
1537907738490547,-12,-5,-5,-4,-8,-23,-22,-41
1537907738505505,-12,-5,-4,0,3,25,29,0
1537907738505505,10,7,-1,0,4,-13,-1,14
1537907738506503,2,-2,0,-2,-5,-9,-1,-30
1537907738506503,-5,-7,-12,-8,-11,-23,-12,-31
1537907738528443,0,-1,0,0,4,33,8,37
1537907738528443,3,5,4,1,-3,-14,3,11
1537907738529441,9,2,1,0,-6,-16,-12,-22
1537907738529441,-21,-10,-5,-4,-2,12,-11,-18
1537907738541408,-3,3,-1,2,3,7,17,8
1537907738541408,3,-1,-3,-5,-4,-13,-7,0
1537907738550384,1,1,3,2,2,5,5,-16
1537907738550384,-4,-1,-4,-4,1,0,-3,-6
1537907738565344,-2,-4,1,0,-2,2,8,7
1537907738565344,3,1,0,1,-4,-13,-5,-1
1537907738567339,-3,-2,-1,-1,-1,7,-6,-1
1537907738567339,-6,-3,0,-2,-1,-3,0,-7
