timestamp,emg1,emg2,emg3,emg4,emg5,emg6,emg7,emg8
1537912540909356,-1,-2,-2,-1,-1,-1,-2,0
1537912540909356,1,0,-1,0,-1,-2,-2,-1
1537912540909356,1,0,0,0,-2,-2,-1,-1
1537912540909356,-1,1,-2,-1,0,1,1,0
1537912540914343,-1,1,0,0,0,-2,0,-1
1537912540914343,-2,-3,-2,-3,0,3,-1,1
1537912540914343,0,-1,1,1,-1,-2,-3,0
1537912540914343,0,-1,-1,-1,-3,-2,-2,-2
1537912540919329,-2,-3,-2,-1,1,0,1,0
1537912540919329,0,0,1,0,-1,-1,-1,-1
1537912540929303,0,-1,-2,-2,-1,-2,2,-2
1537912540929303,-1,-1,-1,0,1,0,-2,1
1537912540936284,1,1,0,-1,1,-2,0,-1
1537912540936284,-2,-2,-2,-1,-1,0,-1,-1
1537912540950247,-1,-2,-2,-3,-1,0,1,-1
1537912540950247,1,-1,0,0,-1,1,0,0
1537912540959223,-2,-1,-1,0,-1,-1,-1,-2
1537912540959223,0,1,-2,-1,1,-2,0,-1
1537912540965207,-3,1,-1,0,-1,1,0,-2
1537912540965207,0,-2,1,-2,-1,-1,-1,-2
1537912540980167,0,1,1,0,2,0,0,-2
1537912540980167,-1,0,0,-1,-2,-1,0,-2
1537912540988146,-1,-1,-1,0,1,0,-2,1
1537912540988146,0,1,1,0,1,-2,-2,0
1537912541028039,-1,0,-3,-2,-2,2,1,2
1537912541028039,1,-1,-1,-1,-3,-2,-3,-1
1537912541029036,-1,-1,1,-2,-1,2,-1,-1
1537912541029036,0,1,0,1,1,0,0,0
1537912541029036,-1,-2,-1,2,-1,-3,-1,-2
1537912541029036,-3,-3,-2,-4,-1,3,1,-1
1537912541033026,1,0,1,0,-1,-5,-4,-2
1537912541033026,-1,-2,-3,-2,0,-2,-2,-2
1537912541040007,-1,0,0,-1,2,3,-2,-1
1537912541040007,0,0,-1,0,-3,0,0,0
1537912541046988,-1,0,-1,-1,-1,0,-2,0
1537912541046988,-3,0,-1,-1,-2,0,0,0
1537912541055964,0,-2,-1,0,1,4,-1,0
1537912541055964,0,2,1,-1,-3,-4,-1,-2
1537912541069927,-2,-3,-2,-2,1,3,0,1
1537912541069927,-1,1,-3,-1,-2,-4,-2,0
1537912541076908,-2,-1,-1,-3,-8,-4,-2,0
1537912541076908,-4,1,-2,2,12,2,-1,0
1537912541084887,-2,-1,-2,-1,-2,-4,1,-1
1537912541084887,0,-2,-1,-2,-2,1,-2,-3
1537912541099847,-1,-3,-2,-3,1,2,3,-1
1537912541099847,0,-2,0,-1,-1,0,-1,0
1537912541106828,0,1,0,0,0,-4,0,0
1537912541106828,-2,-3,-1,0,0,2,1,0
1537912541115804,-1,2,0,0,0,-3,-2,-2
1537912541115804,0,-1,0,0,-3,-2,-2,-1
1537912541129767,1,-1,-3,-1,-2,1,1,1
1537912541129767,-1,-1,0,0,-3,-2,-2,-1
1537912541136749,-1,0,0,-1,-2,1,0,0
1537912541136749,-1,-2,-1,-3,-1,-3,0,0
1537912541144727,-2,0,-2,-2,2,4,-1,-2
1537912541144727,1,-1,-2,-1,0,-1,-2,0
1537912541159687,-1,0,1,0,-1,-3,-2,-2
1537912541159687,-1,-1,0,-1,-2,0,-3,-2
1537912541166668,0,0,-2,1,-3,-2,-2,-1
1537912541166668,0,-3,0,-1,-1,1,1,1
1537912541175645,0,-2,-2,0,4,2,-1,-1
1537912541175645,-1,1,0,0,-5,0,2,0
1537912541190604,0,0,1,0,1,-4,-3,-2
1537912541190604,0,0,-1,-1,3,1,0,0
1537912541197586,0,-1,0,0,-1,-2,-1,0
1537912541197586,-2,-3,-4,-2,1,4,2,1
1537912541204567,0,-2,-1,-1,-4,-1,-1,-1
1537912541204567,-2,-2,1,-1,-2,-2,-2,-3
1537912541219527,-1,-1,1,-1,0,-2,0,-1
1537912541219527,-1,-3,-1,-1,-2,-1,0,0
1537912541227506,-2,-1,-2,-1,0,-1,1,-1
1537912541227506,-2,-1,-2,-2,-1,0,0,0
1537912541236482,0,0,-1,0,-2,-1,-2,-3
1537912541236482,0,0,2,2,-2,-2,-2,-1
1537912541250444,-1,-2,-1,-1,-1,-1,0,0
1537912541250444,0,-1,0,2,-1,-3,-2,-2
1537912541257426,-2,1,-2,-2,-2,-3,-2,-1
1537912541257426,2,-1,0,0,-3,0,-1,0
1537912541264407,0,-1,1,-1,1,1,-1,1
1537912541264407,-2,-4,-3,-4,0,5,1,-2
1537912541279367,-1,-1,-2,0,-10,-9,-3,-2
1537912541279367,-2,-3,-3,0,14,8,0,-3
1537912541287346,-1,-1,0,0,-1,0,-1,0
1537912541287346,1,1,0,0,-1,-1,-1,0
1537912541296322,0,0,-2,-1,-2,1,1,2
1537912541296322,-2,1,0,-2,-5,-6,-2,-1
1537912541310285,-1,-1,-2,-2,-2,-1,-1,-2
1537912541310285,0,1,0,1,1,-4,-2,-1
1537912541317266,-2,-4,-2,-2,1,2,-1,-1
1537912541317266,2,0,0,-1,1,-1,1,-1
1537912541324248,0,-2,-2,-2,3,-3,-1,0
1537912541324248,-1,-1,1,0,-2,0,0,-2
1537912541339207,-1,-2,0,0,0,-1,0,0
1537912541339207,0,-1,-1,0,-3,-1,-1,0
1537912541347186,-2,1,-1,-2,-2,0,0,-1
1537912541347186,1,1,1,2,0,-7,-1,-1
1537912541356163,-1,-2,-3,-3,4,6,2,1
1537912541356163,-1,-1,-1,-1,-2,-3,0,-1
1537912541370125,0,1,1,-2,-3,-1,-2,1
1537912541370125,0,-1,-1,0,1,0,0,1
1537912541377107,1,2,0,1,0,1,0,-3
1537912541377107,1,0,-2,-1,-2,1,-1,-1
1537912541385086,-1,-1,-1,-1,0,-1,-1,-2
1537912541385086,-2,-1,-2,-2,-1,2,-1,-1
1537912541400045,0,-1,0,0,0,0,-1,2
1537912541400045,0,-1,0,-1,-2,-2,-2,0
1537912541407027,-2,-3,-2,-1,-2,0,-1,-2
1537912541407027,-1,-1,-2,-1,0,2,1,0
1537912541416004,-3,-3,1,0,-1,-1,-2,-1
1537912541416004,-1,0,0,0,-1,0,-1,0
1537912541429966,-1,-3,-1,0,1,0,-2,-2
1537912541429966,-1,0,-2,0,-4,0,0,0
1537912541436947,1,-1,-3,0,1,-1,0,0
1537912541436947,-1,0,0,-2,0,-2,0,0
1537912541452904,-2,-2,-3,-2,1,3,-1,-3
1537912541452904,1,0,-2,1,-1,-3,-2,0
1537912541460883,0,1,-1,-2,1,0,-1,-2
1537912541460883,-3,0,-2,-1,-5,-4,-1,-2
1537912541466866,-1,-1,0,-1,3,-2,-1,1
1537912541466866,-1,-1,2,1,-2,0,-2,-2
1537912541475842,-2,-1,0,0,-7,-1,-1,-3
1537912541475842,0,-3,-4,-2,11,7,0,-1
1537912541489805,-1,1,0,0,0,-1,0,-3
1537912541489805,-1,-1,-1,-1,-2,-3,-1,0
1537912541496786,-2,-3,-2,-1,-1,1,0,1
1537912541496786,-1,-2,-6,-5,-5,-4,-2,0
1537912541512744,-2,-2,0,3,2,-4,-2,-2
1537912541512744,-1,-4,-12,-9,11,10,4,2
1537912541519725,1,5,3,-5,-7,-12,-4,-2
1537912541519725,-2,0,-1,-4,-10,7,2,-2
1537912541526706,0,3,4,0,-25,-13,-4,-1
1537912541526706,-4,0,10,7,-2,3,-2,-6
1537912541535682,2,5,14,17,13,-1,1,3
1537912541535682,0,-3,-5,5,23,-7,-6,1
1537912541550643,3,-1,-4,-8,-10,10,6,3
1537912541550643,-1,-3,-8,-5,6,9,2,2
1537912541556626,-3,-3,-3,-3,-15,-11,-6,-8
1537912541556626,2,3,3,-1,-13,-8,-4,0
1537912541572584,2,-2,-6,0,38,8,2,-1
1537912541572584,-1,-4,-11,-15,-29,3,-1,0
1537912541579565,6,8,10,10,11,-27,-6,0
1537912541579565,-2,-1,1,4,35,27,9,2
1537912541587544,4,-1,-3,0,-12,5,13,10
1537912541587544,0,1,7,4,0,-19,-7,-6
1537912541596520,-5,-6,-14,-13,8,30,6,-2
1537912541596520,0,-4,-4,3,-25,-22,-9,-6
1537912541610483,2,4,5,-3,8,7,-1,-1
1537912541610483,1,2,10,6,0,-3,1,-2
1537912541617464,0,0,5,-2,-21,-12,-2,1
1537912541617464,5,9,17,11,-1,-13,-3,0
1537912541632424,-8,-12,-19,-9,15,43,15,2
1537912541632424,-2,-1,-1,1,-10,-18,-10,0
1537912541639405,-13,-13,-18,-17,39,43,10,-11
1537912541639405,-1,-3,-14,1,-19,4,-1,5
1537912541647383,6,1,0,-9,-25,-10,-3,2
1537912541647383,4,7,11,5,3,-8,1,5
1537912541656359,-1,-3,0,5,-6,-10,-6,-2
1537912541656359,-6,-2,-2,5,28,28,-1,-11
1537912541670322,-6,-7,-17,-11,-20,-37,-6,-1
1537912541670322,3,5,5,7,2,-8,-6,-2
1537912541677303,5,5,27,12,21,3,4,4
1537912541677303,9,12,25,9,-35,-23,8,9
1537912541701239,-7,-7,2,13,64,2,-11,-9
1537912541701239,-8,-11,-24,-17,-14,10,-9,-7
1537912541702237,2,0,-11,2,-11,-8,-6,4
1537912541702237,-7,-13,-21,-23,-9,40,16,1
1537912541707223,-7,-4,-9,-2,11,-8,-9,-4
1537912541707223,12,5,11,0,8,-3,12,9
1537912541722184,-1,3,1,9,10,-9,-10,-3
1537912541722184,2,-6,-16,-13,32,12,8,4
1537912541738141,-1,6,4,-1,3,-11,-6,-3
1537912541738141,-7,-3,8,11,-32,-10,-6,-10
1537912541740136,3,8,16,-6,-4,6,2,1
1537912541740136,-7,-4,-2,12,1,-17,-3,-2
1537912541753101,-1,-1,20,13,29,15,-1,-1
1537912541753101,-5,-1,-2,-12,-27,28,15,1
1537912541760082,-5,-7,-16,-12,-6,1,-4,0
1537912541760082,2,-4,-10,-8,-24,-18,-5,7
1537912541767063,1,-2,-12,-13,-21,1,-5,-3
1537912541767063,1,2,2,10,13,-10,-2,-3
1537912541782024,-8,-12,-27,-21,27,15,-3,-9
1537912541782024,-4,2,-2,-12,-25,-15,-10,-6
1537912541790003,-7,-7,-2,6,8,2,1,-2
1537912541790003,5,6,11,1,-13,-4,7,3
1537912541796984,5,6,7,12,1,-8,3,4
1537912541796984,-5,-3,-13,-10,8,-4,-13,-9
1537912541812941,2,-2,1,8,17,8,4,1
1537912541812941,0,6,21,-2,29,18,6,1
1537912541819923,6,4,4,9,-39,-30,-6,5
1537912541819923,-1,-3,5,6,26,22,4,-1
1537912541826904,-1,4,2,-4,-25,4,3,-2
1537912541826904,-6,-11,-19,5,32,-36,-13,-5
1537912541841864,10,1,1,-2,-8,11,17,18
1537912541841864,2,6,6,2,1,-11,-7,-2
1537912541850840,-1,-3,-14,1,9,9,0,-1
1537912541850840,-4,-10,-14,-4,-38,-7,-3,-1
1537912541858819,4,8,9,-21,-10,4,4,0
1537912541858819,-2,0,14,20,18,-8,-4,-5
1537912541872781,5,9,11,-1,-60,-12,2,3
1537912541872781,-2,-4,-20,2,27,22,0,0
1537912541879762,-8,-14,-24,-12,-30,-11,-7,-7
1537912541879762,1,-1,9,1,14,22,6,1
1537912541886744,6,21,40,-7,-57,-64,-16,-5
1537912541886744,6,1,-1,11,14,27,9,11
1537912541901704,-8,-9,-25,-6,85,18,-1,-5
1537912541901704,-2,0,2,32,42,23,9,1
1537912541910680,-5,-4,-2,-29,-63,-51,-15,-8
1537912541910680,-1,0,-2,-15,-21,14,5,-3
1537912541916664,-5,-3,-8,-4,-2,-33,-19,-6
1537912541916664,9,3,5,-9,0,2,8,10
1537912541932622,9,12,18,9,3,1,2,6
1537912541932622,-8,0,4,6,19,8,0,-7
1537912541939603,-7,-11,-9,15,-17,5,1,-5
1537912541939603,-2,0,-4,-11,-15,-18,-9,-3
1537912541955561,-3,-7,-2,12,25,25,6,3
1537912541955561,9,13,22,-9,25,8,6,5
1537912541962541,-4,1,11,16,-19,-13,-9,-5
1537912541962541,-1,-4,-12,-12,-49,-20,-5,-1
1537912541970521,3,-3,-13,12,38,36,6,5
1537912541970521,-7,-6,-3,-8,99,-26,-18,-12
1537912541977501,0,3,8,12,18,-11,-9,-6
1537912541977501,2,2,3,-12,21,20,5,3
1537912541992462,-3,-9,-28,-2,16,-12,1,4
1537912541992462,-1,-7,-15,-22,-103,-29,-6,-1
1537912541999443,9,16,30,17,11,30,19,5
1537912541999443,-10,-7,-11,-6,10,-21,-11,-14
1537912542014402,-6,-4,4,2,2,15,0,-3
1537912542014402,2,1,12,8,2,-12,-3,2
1537912542022381,8,7,5,1,46,22,13,7
1537912542022381,-3,-2,6,7,-33,-13,2,1
1537912542037342,-8,-8,-14,-2,48,-30,-19,-11
1537912542037342,-1,-7,-16,9,2,5,6,7
1537912542038340,-4,-6,-5,-27,-66,-6,-4,-5
1537912542038340,2,3,-6,-21,3,11,0,0
1537912542053299,3,1,0,9,2,2,0,2
1537912542053299,0,3,3,9,1,2,-1,-1
1537912542068258,-6,-6,-7,6,-23,-5,-2,-5
1537912542068258,-1,-3,-5,-9,38,1,-2,0
1537912542074243,3,0,-1,-2,-15,3,6,1
1537912542074243,1,6,13,10,-16,-20,-4,-3
1537912542082222,3,3,-1,-1,9,5,8,7
1537912542082222,-1,-3,2,7,-11,-4,-9,-7
1537912542098179,-1,4,26,4,15,17,7,1
1537912542098179,-3,-1,-6,-1,39,26,4,1
1537912542098179,-3,-7,-8,10,13,1,-3,-3
1537912542098179,-2,-1,-4,-21,-36,-21,-8,-6
1537912542113139,0,-1,-11,-7,-10,18,2,4
1537912542113139,-1,-5,-8,1,17,-19,-11,-3
1537912542119123,4,5,9,-4,3,-6,3,1
1537912542119123,-3,0,2,6,-13,-10,-9,-4
1537912542134083,-2,1,1,-1,9,15,3,-1
1537912542134083,-7,-4,-11,-7,-6,4,-3,-7
1537912542142061,-4,-5,-9,-13,-59,-4,-8,-4
1537912542142061,0,0,0,1,3,-2,1,0
1537912542158019,-1,-1,5,-8,1,-4,-5,-4
1537912542158019,1,3,-4,-2,43,19,5,3
1537912542158019,-2,-7,-9,-7,-57,-23,-5,-5
1537912542158019,5,4,10,8,-18,6,5,3
1537912542172979,0,5,7,6,8,-17,-8,-3
1537912542172979,-3,1,7,2,-40,-10,0,-2
1537912542179960,-3,-9,-18,-12,56,47,13,5
1537912542179960,2,-1,-4,-3,15,16,2,3
1537912542194920,2,6,11,7,-16,-7,-3,-3
1537912542194920,-1,-5,-5,-5,-29,5,3,0
1537912542201901,-3,0,1,-1,14,-15,-10,-7
1537912542201901,-6,-4,-10,2,14,-1,-2,-3
1537912542217858,4,-4,-1,3,-13,1,3,6
1537912542217858,2,2,4,-4,2,7,0,-1
1537912542218856,3,3,3,2,7,-6,1,4
1537912542218856,-4,-4,0,-6,20,3,-1,0
1537912542233816,-5,-3,-5,-2,-18,-13,-3,-6
1537912542233816,-6,-7,-6,7,18,15,2,-2
1537912542239799,-4,-5,-13,-14,-45,-29,-5,-1
1537912542239799,6,9,14,6,4,6,7,4
1537912542255757,-4,-1,-3,-10,-6,18,3,-3
1537912542255757,0,-2,-8,-3,23,21,6,4
1537912542261741,1,3,4,1,-23,-8,-2,0
1537912542261741,-3,0,11,10,17,-1,-2,-1
1537912542277698,-3,-6,-8,1,8,2,-11,-9
1537912542277698,2,2,-1,-7,5,4,7,1
1537912542278696,-10,-4,-12,-21,-61,-14,-14,-11
1537912542278696,2,-9,-17,2,20,-16,-3,6
1537912542293656,5,9,9,0,23,4,6,1
1537912542293656,-3,1,2,-3,-71,-44,-14,-9
1537912542299640,3,-2,13,14,26,15,7,2
1537912542299640,-3,1,4,-7,-27,-1,-1,-5
1537912542314600,-3,-5,-11,2,12,-7,-2,-1
1537912542314600,0,-2,-2,0,-2,2,2,4
1537912542321581,-4,1,5,5,24,-10,-6,-6
1537912542321581,6,1,-3,-7,-11,25,7,8
1537912542337539,1,-1,-5,-1,-15,0,2,1
1537912542337539,-1,-1,-4,-8,20,-4,-9,-1
1537912542338536,8,6,8,13,31,20,7,8
1537912542338536,-2,3,1,7,28,-8,-1,-3
1537912542353496,-3,-3,-7,-6,-50,-7,-3,-3
1537912542353496,2,1,4,2,-4,4,2,1
1537912542359480,-1,-4,-4,-5,15,-1,-1,-5
1537912542359480,-5,-4,-12,-9,-22,-21,-11,-5
1537912542374440,4,4,15,17,15,1,1,2
1537912542374440,1,4,10,7,40,-2,-1,-2
1537912542382418,1,-2,-4,-8,-33,-7,2,5
1537912542382418,-8,-8,-13,0,18,25,2,-4
1537912542397378,1,-2,-2,-19,-9,-7,-1,1
1537912542397378,2,2,3,2,-13,-12,-1,-4
1537912542398376,0,3,8,13,65,23,3,2
1537912542398376,-1,0,-2,4,-7,-35,-3,-5
1537912542413336,-5,-7,-9,-2,-1,3,-2,-3
1537912542413336,-2,-1,-2,-10,-7,-5,-3,-4
1537912542419320,0,4,4,6,1,7,-1,0
1537912542419320,-5,-6,-7,-3,-17,-2,-2,-5
1537912542434280,0,1,-1,-6,12,-5,-3,0
1537912542434280,1,1,2,-4,-44,-9,-2,0
1537912542442258,0,-3,-3,-3,12,1,0,-2
1537912542442258,2,1,5,0,5,4,0,1
1537912542457218,0,-1,-6,-3,-3,2,2,1
1537912542457218,-1,-2,-2,7,7,7,-3,-1
1537912542458216,-3,-2,-2,-7,-29,-9,3,-1
1537912542458216,2,0,3,-1,-5,-1,-2,-1
1537912542473176,-2,-1,-2,1,7,-1,1,-1
1537912542473176,-1,-1,-4,-2,8,-4,-4,0
1537912542479160,-2,4,3,-3,-2,7,7,2
1537912542479160,3,-1,-2,-2,-1,0,0,0
1537912542494120,-2,-2,-6,1,-3,1,-1,-2
1537912542494120,-3,-6,-7,-5,12,-4,0,-2
1537912542502098,-1,-1,2,1,12,-4,-7,-7
1537912542502098,1,6,6,1,-23,6,4,1
1537912542518056,-2,-1,0,-2,8,0,0,0
1537912542518056,-2,-1,-2,0,1,1,-3,0
1537912542518056,-1,-1,-2,-1,5,-2,-2,-1
1537912542518056,0,0,5,0,-3,-3,-1,0
1537912542533016,-1,-2,-2,0,5,-3,-1,-4
1537912542533016,-2,-1,-2,-2,-5,2,3,1
1537912542539997,0,-2,-1,-2,-5,-4,-5,-2
1537912542539997,0,-2,1,3,6,0,0,-2
1537912542554957,0,0,-5,-3,-3,1,0,-1
1537912542554957,-2,-2,0,-2,3,4,2,-1
1537912542561939,0,2,1,2,-5,-5,-3,0
1537912542561939,-2,-2,1,0,-1,0,-1,1
1537912542577896,1,-1,1,0,1,2,-4,-1
1537912542577896,-1,-1,-3,-2,-4,-1,-2,1
1537912542578894,-2,-3,-1,1,2,-2,0,-1
1537912542578894,0,8,11,1,-5,-1,-1,-1
1537912542593853,0,-5,-4,4,3,-1,1,1
1537912542593853,-1,-4,-12,-3,-6,0,-1,-1
1537912542599837,-1,-3,-3,-3,1,1,1,1
1537912542599837,1,2,0,-3,-2,2,1,0
1537912542614797,-2,-1,3,-2,-1,-4,-3,-2
1537912542614797,1,-1,1,0,2,4,2,-1
1537912542621778,0,-1,0,2,2,0,0,-1
1537912542621778,-1,-5,-2,-2,-1,-3,-1,1
1537912542636738,-1,4,3,-1,1,0,1,-1
1537912542636738,-1,-2,-2,0,-2,-2,-1,0
1537912542644717,-3,0,-3,-1,-1,0,0,1
1537912542644717,-1,-2,-2,-1,0,0,0,-1
1537912542653694,-1,-3,-5,-4,0,0,1,1
1537912542653694,0,-1,1,1,-2,-3,-3,-3
1537912542659677,1,1,3,1,-1,-3,-2,0
1537912542659677,1,-1,-4,-2,1,0,0,2
1537912542674637,-1,0,0,0,2,0,0,-1
1537912542674637,-1,1,0,-2,-4,0,2,-1
1537912542681619,2,1,0,-3,-3,-6,-1,-1
1537912542681619,-1,-3,-5,0,1,1,-1,-1
1537912542696579,-1,0,-1,0,2,2,-1,-1
1537912542696579,-1,-1,3,2,-2,-6,-4,0
1537912542704558,0,-3,-4,-2,-1,1,1,-1
1537912542704558,-2,-3,-4,-3,-2,-3,-2,0
1537912542713534,2,1,0,-1,2,1,2,-1
1537912542713534,-2,-1,-1,0,0,-1,-2,0
1537912542719519,-1,4,5,0,-2,-5,0,1
1537912542719519,-3,-3,-4,-3,-2,0,-2,-3
1537912542734479,-1,-6,-8,-1,-1,0,0,0
1537912542734479,-2,-1,-1,1,-1,0,0,0
1537912542742458,-1,-1,-1,-2,1,2,-2,-3
1537912542742458,1,2,3,1,0,-4,-3,-2
1537912542757417,-1,-3,-1,1,-1,2,0,-1
1537912542757417,-1,-1,0,-1,-2,-2,-1,-1
1537912542764398,-3,-2,-2,-1,-4,-5,-2,1
1537912542764398,1,1,1,2,0,-3,-1,1
1537912542773374,-1,0,-1,-2,0,0,-2,0
1537912542773374,0,-1,-2,-1,1,6,1,0
1537912542779357,-1,-2,-1,1,3,0,-2,-2
1537912542779357,-2,-4,0,-4,-5,-2,-1,-4
1537912542794317,-1,0,-2,0,0,0,0,0
1537912542794317,-3,-1,-2,1,0,0,-2,-1
1537912542802296,-2,-3,-2,-1,-4,-3,1,1
1537912542802296,-2,-1,-1,0,1,-3,0,1
1537912542817256,-3,-2,1,0,2,3,2,-1
1537912542817256,-1,-2,-2,-2,0,-1,-1,-1
1537912542824237,-1,1,-2,-1,-1,2,-4,-2
1537912542824237,1,1,1,0,1,0,2,0
1537912542840195,0,0,4,0,-1,1,-1,0
1537912542840195,0,2,3,2,3,-1,-1,0
1537912542841192,-1,-5,-6,1,1,0,3,-1
1537912542841192,-2,-1,-5,-2,-3,-3,0,0
1537912542854159,-1,-3,-10,-5,-3,-1,-2,-2
1537912542854159,-2,1,0,0,-1,-2,-1,-2
1537912542862136,0,14,3,2,0,0,-1,1
1537912542862136,2,-14,1,-1,5,3,-2,0
1537912542877096,0,2,16,0,-3,-2,-3,-1
1537912542877096,-3,-15,-13,-5,-4,3,1,-2
1537912542884077,-4,-13,-33,-5,1,3,2,1
1537912542884077,-4,-4,-6,-2,-2,-2,-1,-1
1537912542900035,2,6,4,1,-1,-3,-1,1
1537912542900035,2,20,39,4,0,-6,-4,-1
1537912542901032,3,7,9,2,-1,-1,-1,-2
1537912542901032,-3,5,-6,0,-2,1,-1,-1
1537912542914995,-3,-21,-27,-7,-6,-3,-1,-1
1537912542914995,1,-8,-11,-4,1,2,3,0
1537912542921977,1,-2,4,-1,-1,-1,-1,0
1537912542921977,0,2,6,1,-2,0,-1,1
1537912542936937,-2,4,2,-2,-1,-1,2,0
1537912542936937,0,14,-14,-4,-2,-1,-3,-1
1537912542944916,1,-5,36,5,0,-2,-3,-3
1537912542944916,3,-3,5,4,0,2,1,0
1537912542959876,-4,-33,-17,-1,-3,-3,-2,-1
1537912542959876,1,-7,-11,-4,0,-2,1,3
1537912542960875,-4,28,43,5,1,0,-2,-1
1537912542960875,-4,-3,-43,-7,-4,-3,-1,-2
1537912542974837,-2,-20,-38,-13,0,2,0,0
1537912542974837,-1,26,61,11,-1,-3,-5,-4
1537912542981817,8,-14,-40,-3,-2,2,1,0
1537912542981817,-1,13,38,9,0,0,1,-1
1537912542996776,-10,-6,20,5,-3,-2,-3,-3
1537912542996776,1,-25,-99,-22,-2,-1,2,2
1537912543004755,1,106,85,14,1,-1,-3,-1
1537912543004755,4,-71,-40,-10,-6,-1,0,-1
1537912543019715,-6,-32,-35,-12,-2,0,0,-2
1537912543019715,-6,58,47,10,4,-3,-1,-3
1537912543020713,12,-44,14,-1,2,-1,0,3
1537912543020713,6,13,-85,-12,-1,1,-3,2
1537912543034675,6,80,77,19,7,5,4,1
1537912543034675,-7,-91,4,2,-4,-11,-7,-5
1537912543041656,-24,29,-21,-9,-6,-1,5,0
1537912543041656,-13,-39,93,14,0,7,1,-5
1537912543056616,9,-36,-100,-15,-6,-6,6,16
1537912543056616,16,40,59,11,16,15,8,1
1537912543064595,-1,-23,-51,0,-37,-74,-35,-21
1537912543064595,31,43,83,3,31,37,23,30
1537912543080552,-21,2,-23,6,74,27,-13,-28
1537912543080552,-1,1,12,6,-98,-46,-5,8
1537912543080552,18,33,101,23,28,-2,18,22
1537912543080552,-3,46,-86,-13,-21,-22,-32,-21
1537912543094515,-7,-58,-31,-19,-11,-14,-14,-12
1537912543094515,-11,-39,-109,-31,40,39,11,-6
1537912543102493,-27,-76,-58,-15,-12,24,6,11
1537912543102493,-4,1,32,19,19,-19,10,11
1537912543117453,16,48,85,20,-3,11,23,15
1537912543117453,27,20,5,-19,-22,-21,-22,12
1537912543124435,12,-28,-39,7,7,17,24,16
1537912543124435,-3,46,36,14,-1,2,9,7
1537912543140392,-32,-22,29,11,16,-4,-43,-56
1537912543140392,-24,-32,-45,-10,7,-14,-26,-48
1537912543141390,38,52,59,-18,-7,7,-22,13
1537912543141390,13,-37,41,-5,2,13,24,13
1537912543154355,-22,-88,-72,-34,-30,12,50,39
1537912543154355,-21,30,109,47,42,19,16,-1
1537912543162334,-9,-34,5,-8,14,-11,-19,-11
1537912543162334,13,31,-98,-14,4,-1,2,-2
1537912543177295,40,123,100,-4,-40,-31,-20,0
1537912543177295,-2,-77,-43,0,23,43,29,26
1537912543184277,-23,-25,46,37,30,-2,27,11
1537912543184277,-15,9,26,13,-22,-29,-32,3
1537912543201231,17,-7,21,11,-25,-29,-19,-14
1537912543201231,0,35,-73,-29,29,10,2,-3
1537912543202230,-9,-13,-16,-21,-4,-12,-19,-48
1537912543202230,8,63,33,4,16,15,3,-8
1537912543214197,5,-14,-1,-2,-16,6,18,17
1537912543214197,-10,42,51,20,12,9,-20,4
1537912543222175,8,-84,-50,-9,-12,23,45,29
1537912543222175,-20,-42,-111,-47,3,2,-23,-23
1537912543237135,-24,-68,35,29,27,0,-11,-12
1537912543237135,-5,56,-5,13,-12,-14,5,3
1537912543245114,4,22,28,4,-22,6,-2,-16
1537912543245114,3,31,16,-12,3,29,14,9
1537912543260074,33,33,-1,4,-8,-34,-22,15
1537912543260074,-19,-15,22,-21,-16,-39,-2,-10
1537912543261072,-19,-33,-53,-10,-15,-15,-11,3
1537912543261072,12,32,14,13,13,6,4,-20
1537912543274035,16,99,44,-7,7,18,11,28
1537912543274035,-4,-116,-43,-7,2,11,15,-10
1537912543282014,-31,-11,-83,-12,13,5,-18,-15
1537912543282014,-30,21,56,15,15,10,-11,-40
1537912543296974,-7,28,-25,-2,5,-11,-33,-25
1537912543296974,39,-17,58,5,-12,8,7,29
1537912543304953,8,-22,-13,4,0,33,22,12
1537912543304953,-12,-82,-93,-19,-60,-51,10,21
1537912543319912,14,21,9,26,70,71,40,59
1537912543319912,13,73,75,11,-25,-3,-23,-28
1537912543320910,-23,-25,42,-6,-38,-66,-41,-67
1537912543320910,10,27,-66,-18,-5,23,2,4
1537912543334873,-16,-46,34,-21,-12,-30,-3,-6
1537912543334873,-13,-70,-60,4,24,31,28,27
1537912543341854,8,66,32,16,20,28,0,14
1537912543341854,4,-12,74,9,-18,-10,3,17
1537912543356814,15,-12,-128,-52,-49,8,36,36
1537912543356814,3,51,21,-10,-17,-16,-19,-31
1537912543364792,4,-34,97,43,37,7,-10,-21
1537912543364792,-30,-48,-37,1,-40,-41,-58,-22
1537912543379752,-29,32,25,27,11,1,-46,-74
1537912543379752,17,-4,14,-10,-4,-44,15,15
1537912543380750,22,7,-76,-36,-28,4,23,19
1537912543380750,20,54,56,11,45,2,11,7
1537912543394712,-19,-57,2,13,34,67,38,35
1537912543394712,-40,-79,-107,-42,-47,-3,-9,-2
1537912543401694,29,127,-5,-14,4,-6,0,23
1537912543401694,32,-36,27,10,27,23,26,36
1537912543416655,-14,7,9,0,-28,-33,-21,-20
1537912543416655,-11,2,68,30,34,15,-2,-35
1537912543424633,4,-25,-52,0,12,44,1,50
1537912543424633,-19,-18,-52,-30,1,-82,-49,-70
1537912543440591,3,55,89,28,15,-18,-37,-71
1537912543440591,10,38,-8,-16,-16,-19,6,38
1537912543440591,1,-54,-41,-3,-4,17,29,5
1537912543440591,-7,10,57,10,2,18,3,13
1537912543455551,-5,-79,-75,-33,-16,-9,17,15
1537912543455551,23,15,35,32,20,9,26,18
1537912543462532,-5,1,-45,-6,-1,-9,5,47
1537912543462532,-11,74,105,27,23,16,-11,-36
1537912543477491,-23,-103,-102,-28,-21,-51,-42,-67
1537912543477491,-36,-73,-65,-31,-41,-30,-17,-22
1537912543485470,6,25,69,13,3,32,13,9
1537912543485470,18,-3,-7,0,22,10,34,58
1537912543500430,25,87,28,-1,0,5,5,11
1537912543500430,3,25,-31,5,-20,-14,-29,-39
1537912543501427,-9,30,47,16,3,-14,-13,-19
1537912543501427,-1,-57,-45,-15,-1,28,30,44
1537912543514392,13,58,7,-3,16,20,23,32
1537912543514392,-11,-26,83,24,-2,-17,-28,-35
1537912543522372,-34,-59,-104,-37,-1,-11,-14,-34
1537912543522372,3,-15,65,24,-5,9,1,-20
1537912543537333,8,-7,-48,-17,1,7,12,36
1537912543537333,17,53,3,0,-22,3,-4,17
1537912543545310,9,33,61,19,27,7,-4,-11
1537912543545310,-6,9,20,1,-30,6,-2,-12
1537912543560270,1,-12,11,6,-9,-19,8,6
1537912543560270,8,-10,9,-2,14,23,8,12
1537912543561269,-8,-14,-100,-25,-6,-26,-23,-14
1537912543561269,-11,-34,-26,-11,-12,-2,4,3
1537912543574235,1,6,26,11,-16,-4,-1,-4
1537912543574235,8,19,7,5,20,16,12,17
1537912543582213,-2,1,6,-8,-12,-13,2,-5
1537912543582213,-2,5,-17,-1,-7,-1,-6,-7
1537912543597173,-2,10,43,18,6,6,-2,-4
1537912543597173,5,9,-6,-2,18,4,5,7
1537912543605152,3,7,23,0,-5,-6,-3,-9
1537912543605152,-6,-8,22,8,1,-6,-11,-10
1537912543619113,-1,-12,-2,0,-1,1,4,4
1537912543619113,-2,-17,-53,-20,2,0,-1,5
1537912543628089,1,-4,-10,-3,-5,-2,1,-8
1537912543628089,0,-12,-7,-1,-6,-2,-1,0
1537912543634073,4,15,19,4,-1,4,6,7
1537912543634073,-2,24,16,8,11,3,-3,1
1537912543642051,0,-2,33,5,-1,1,-4,-5
1537912543642051,-4,-22,-45,-14,-10,-5,-3,-3
1537912543657011,-3,1,5,2,-3,0,-1,-1
1537912543657011,2,9,-1,2,10,3,0,1
1537912543664990,-1,-3,13,0,-1,0,1,-1
1537912543664990,1,-1,-10,-5,-4,-1,1,0
1537912543679950,-3,25,15,5,-5,-1,-2,-4
1537912543679950,2,-22,-3,5,1,-1,-1,1
1537912543687928,3,6,-7,-8,-4,-6,2,0
1537912543687928,-6,-8,-10,-5,-3,-4,-1,-3
1537912543694910,-2,-8,-19,-4,1,2,-1,1
1537912543694910,1,12,3,1,6,4,1,2
1537912543701891,-4,0,18,3,-4,-3,-2,-4
1537912543701891,-1,27,-4,1,-1,0,-1,-3
1537912543716851,0,-27,10,3,2,3,5,2
1537912543716851,-1,-7,-24,-10,0,-5,-3,-1
1537912543724830,-1,-5,2,0,-3,-2,-2,-3
1537912543724830,0,4,2,1,1,-2,-4,-3
1537912543739790,-2,23,18,5,2,7,3,3
1537912543739790,-1,-11,-5,-2,2,3,1,2
1537912543747769,0,7,-6,-2,1,0,-1,-2
1537912543747769,1,-10,5,5,1,-1,-1,1
1537912543762729,0,-5,-10,-6,-4,-5,-5,-1
1537912543762729,-1,3,3,0,2,1,2,2
1537912543763726,-2,5,13,0,1,0,-1,-1
1537912543763726,1,-3,-11,-11,-12,-2,-2,0
1537912543776691,0,-7,2,2,2,2,-1,0
1537912543776691,0,2,-9,0,-1,-1,-2,1
1537912543785667,-3,-2,10,5,-4,-8,-3,-3
1537912543785667,-1,-3,22,4,1,4,1,1
1537912543799630,-1,8,-32,-11,-6,-4,-1,-1
1537912543799630,2,-11,-10,-3,-2,-1,-2,1
1537912543807609,0,2,2,0,0,-1,-2,-3
1537912543807609,-1,-7,-2,5,5,3,2,1
1537912543822569,-3,-2,14,-1,2,11,4,1
1537912543822569,-1,7,-3,1,-1,-9,-3,-3
1537912543823566,2,-3,-4,-1,5,7,0,2
1537912543823566,-1,3,-6,-1,-5,-4,-1,0
1537912543836531,-2,-9,2,2,-2,-4,-1,-1
1537912543836531,1,9,8,2,0,3,0,-2
1537912543845507,1,-4,-4,-1,5,0,2,-2
1537912543845507,-3,-6,-5,-5,-2,-1,-2,-4
1537912543859470,0,-6,-4,2,0,-5,-3,2
1537912543859470,-2,2,4,-1,-1,1,0,-1
1537912543867449,-1,4,2,2,-4,-5,2,5
1537912543867449,2,-3,-11,-1,-1,1,8,14
1537912543890387,-9,-10,-5,-5,-19,-17,-22,-23
1537912543890387,-7,7,4,-1,5,-1,-8,-16
1537912543891385,2,-3,1,-1,-4,-2,0,4
1537912543891385,0,0,-7,-3,4,5,2,1
1537912543897368,4,-3,0,1,0,1,7,14
1537912543897368,0,-1,3,0,0,2,1,0
1537912543905347,-2,-2,-1,0,-3,-5,-6,-4
1537912543905347,1,-6,-3,-3,-4,-4,-3,-1
1537912543919310,1,14,0,0,5,0,3,1
1537912543919310,0,-12,4,-2,1,3,2,0
1537912543927289,-1,-14,-11,-1,-1,-2,-2,-1
1537912543927289,-1,14,7,0,-4,-1,-4,-3
1537912543942249,-3,-23,-7,-1,2,1,0,-3
1537912543942249,1,5,-13,-3,-2,-3,1,5
1537912543943246,-6,-4,-6,-3,-4,0,-1,-2
1537912543943246,-4,-9,-15,-5,1,3,-2,-6
1537912543957209,1,12,13,0,-1,-3,3,1
1537912543957209,1,7,6,2,3,8,1,5
1537912543965187,0,-2,-1,1,0,1,0,-3
1537912543965187,-4,-2,2,2,-1,-5,-2,-6
1537912543979150,0,-2,-1,2,6,6,3,3
1537912543979150,1,-1,2,-1,-1,-1,0,1
1537912543988126,0,5,2,-1,0,-1,-2,-4
1537912543988126,-2,-3,-1,-3,-11,-3,-3,-1
1537912544002089,0,-4,-3,-2,-1,-1,0,0
1537912544002089,0,0,0,2,-3,-5,-4,-3
1537912544010068,0,3,1,-2,-2,2,2,1
1537912544010068,-1,-4,-1,0,-1,-7,-3,-3
1537912544017049,-2,-7,-3,-1,1,1,-1,-4
1537912544017049,0,5,2,1,-1,-6,-3,1
1537912544033006,-1,2,0,-1,2,3,2,0
1537912544033006,2,2,7,-1,1,0,0,-2
1537912544039987,-2,-1,-8,-1,0,-1,-3,-2
1537912544039987,-2,-5,-4,-1,-3,-2,0,1
1537912544047966,0,-2,-1,-2,-3,0,-3,-1
1537912544047966,-1,-2,1,1,2,1,-1,0
1537912544062926,-1,2,-3,-4,-1,-2,0,-1
1537912544062926,2,4,3,-1,1,2,4,2
1537912544062926,-1,-2,-1,-2,-2,0,-2,-2
1537912544062926,0,0,1,1,1,-3,-3,-3
1537912544076889,-1,-2,-2,-1,1,3,2,-1
1537912544076889,-2,-2,-3,-1,-2,-5,0,1
1537912544084867,1,26,15,2,-2,-4,-1,-1
1537912544084867,-2,-25,-15,-3,-1,-4,-4,-3
1537912544099827,-2,-10,-6,0,2,-1,-3,1
1537912544099827,-2,0,-1,-2,-3,2,2,-4
1537912544107806,0,0,1,1,-4,-8,-2,0
1537912544107806,-1,11,5,0,8,1,-2,-1
1537912544122766,1,0,-3,-2,-5,-2,0,0
1537912544122766,0,-2,0,1,3,4,1,1
1537912544123764,-1,-2,-3,-2,-4,-7,-3,0
1537912544123764,0,-2,-2,-1,-5,-1,2,1
1537912544136729,1,-3,2,1,-2,-3,-3,-1
1537912544136729,1,3,2,1,1,-2,-1,0
1537912544144707,-1,-7,-1,-2,-2,2,0,-1
1537912544144707,-4,0,-7,-3,0,8,0,-2
1537912544159667,-2,24,2,-1,0,0,-3,-3
1537912544159667,-1,-16,-3,-2,-6,-1,-1,-2
1537912544167646,-2,-8,-8,-1,4,-2,-3,-1
1537912544167646,-1,1,-1,-2,-3,-4,1,1
1537912544182606,-2,7,5,1,-1,-1,-2,0
1537912544182606,-1,4,2,-1,-1,-3,-1,2
1537912544183603,1,-1,-2,2,3,2,-1,-1
1537912544183603,-2,-3,0,-1,3,2,0,-1
1537912544196569,-1,-5,-4,-2,-2,0,0,-4
1537912544196569,1,3,4,-2,-1,-1,-1,-2
1537912544205545,0,-8,-4,-2,-4,-4,0,0
1537912544205545,1,4,-1,-1,0,-3,0,1
1537912544219507,-1,18,13,5,0,-2,-1,1
1537912544219507,0,-20,0,1,1,1,0,-1
1537912544227486,-1,-4,-31,-10,-1,2,-1,0
1537912544227486,-3,-11,-12,-3,0,-2,-2,-2
1537912544242446,-3,-10,-4,-2,-3,-2,0,0
1537912544242446,0,20,23,4,0,0,1,-1
1537912544243444,0,1,34,8,3,4,-1,-1
1537912544243444,3,18,-25,1,2,0,0,1
1537912544257406,3,-23,-16,-9,-3,-4,0,0
1537912544257406,-3,-30,-111,-31,-7,1,3,4
1537912544265385,2,1,22,6,1,1,0,-1
1537912544265385,-4,14,52,-3,2,1,-1,-2
1537912544279348,0,13,30,18,6,4,-1,-2
1537912544279348,0,38,22,7,2,-1,-8,-5
1537912544287327,-2,-25,-15,8,-1,1,1,-1
1537912544287327,10,47,33,-4,-10,-1,5,6
1537912544302286,-7,-70,-55,3,1,-4,-1,-2
1537912544302286,4,21,13,-6,9,4,0,1
1537912544303284,4,27,-13,-5,-6,-3,-2,0
1537912544303284,-14,-23,35,17,-3,1,-4,-7
1537912544317246,10,11,-40,2,-14,-13,-5,-1
1537912544317246,1,14,37,14,1,7,16,13
1537912544325225,9,4,50,-4,22,15,-1,0
1537912544325225,-6,-45,-72,-23,-7,4,1,-4
1537912544339187,-28,-17,-12,-20,-13,2,-10,-14
1537912544339187,-10,-37,-2,15,11,-5,-7,-6
1537912544347166,3,26,27,3,13,4,10,8
1537912544347166,22,20,-13,-6,-34,-10,-1,12
1537912544363124,11,33,33,-14,28,15,11,-4
1537912544363124,1,27,-15,7,-6,-15,-12,-4
1537912544363124,-19,-68,-34,-29,-45,-12,-5,-5
1537912544363124,-10,-26,-29,6,20,-39,-30,-1
1537912544377086,-3,27,-1,-12,4,-22,-1,-10
1537912544377086,2,0,7,-13,-28,-11,-11,-10
1537912544385065,4,34,28,26,30,28,14,4
1537912544385065,-8,-27,-12,13,14,-11,14,5
1537912544399028,27,22,96,19,-32,22,21,45
1537912544399028,-9,-20,-79,-8,-32,12,5,-6
1537912544408003,2,10,-22,-12,59,-9,-36,-43
1537912544408003,-35,-35,-60,-34,-95,-84,-25,-44
1537912544421966,9,9,97,24,34,5,4,6
1537912544421966,9,-11,-7,-7,-3,28,14,19
1537912544430943,-13,-24,-72,-14,-2,-9,-8,10
1537912544430943,16,-12,58,12,54,37,15,17
1537912544445902,-7,17,-49,-23,-15,-7,3,-22
1537912544445902,5,-7,77,37,20,7,36,38
1537912544446900,-2,17,4,10,-16,-5,7,-5
1537912544446900,11,-13,-12,7,30,7,-52,-18
1537912544459865,-9,-24,-35,1,-6,12,13,11
1537912544459865,-4,0,29,-3,34,3,-4,4
1537912544468841,8,18,7,9,-16,18,6,24
1537912544468841,-28,9,57,-18,13,6,-44,-79
1537912544481807,-13,-47,-124,-50,-46,-47,-39,-40
1537912544481807,-2,-42,-15,-7,4,7,27,22
1537912544490783,0,1,22,13,-8,11,28,28
1537912544490783,19,58,45,14,2,22,12,34
1537912544496766,1,38,73,27,17,-15,-10,-8
1537912544496766,-3,-16,-32,1,32,16,-3,-13
1537912544505743,5,-32,-34,-21,-1,-15,-8,11
1537912544505743,15,18,18,15,-3,34,53,29
1537912544519705,-1,17,-1,-1,-9,-13,-29,-4
1537912544519705,-21,48,77,-7,-2,-18,-27,-63
1537912544528681,3,-26,-46,11,0,-3,3,14
1537912544528681,1,-4,-32,7,3,12,16,9
1537912544541646,14,71,26,8,-18,-23,16,12
1537912544541646,10,-66,-21,-12,26,20,-11,-6
1537912544550622,-29,-25,21,-18,-40,-52,-35,-31
1537912544550622,-5,-13,-74,-13,-8,9,15,19
1537912544556606,8,-12,5,17,37,40,56,61
1537912544556606,-7,11,-13,-8,-34,-16,-21,-30
1537912544565583,5,47,16,-18,-33,-29,-47,-61
1537912544565583,10,43,39,15,24,9,19,16
1537912544579545,-12,-48,-1,2,35,15,-2,-7
1537912544579545,-6,-10,-32,0,-13,-8,7,24
1537912544588521,-3,-18,9,18,3,16,20,11
1537912544588521,4,17,80,2,-7,-12,-7,-12
1537912544602484,3,14,-80,-8,43,30,-17,-19
1537912544602484,8,-21,34,-3,-53,-26,6,21
1537912544610462,4,24,-25,-6,22,8,-1,-4
1537912544610462,-12,-25,-26,-7,-1,7,-5,-12
1537912544617444,-13,-12,37,5,-12,9,14,17
1537912544617444,-1,28,30,3,-10,-13,-12,-11
1537912544626420,11,-32,-19,-2,-11,1,11,19
1537912544626420,2,-9,-54,-3,0,15,16,3
1537912544639385,-10,-39,26,-2,-17,-25,-44,-53
1537912544639385,1,35,-18,-5,1,-8,-3,-7
1537912544648361,2,-3,-7,-3,3,12,8,32
1537912544648361,0,-14,-21,-3,31,15,11,1
1537912544662324,-6,0,23,5,10,-16,-9,-10
1537912544662324,8,24,18,3,0,7,-2,7
1537912544671300,9,22,12,5,-2,19,17,2
1537912544671300,2,-15,-3,5,15,-15,15,27
1537912544677284,-1,15,24,5,-5,-11,-25,-2
1537912544677284,0,-25,-77,-25,-3,-10,-7,-7
1537912544686260,-8,-17,-2,1,-2,-5,-13,5
1537912544686260,-7,46,44,18,6,20,4,-13
1537912544699225,10,-31,-33,-29,-35,7,16,-8
1537912544699225,-3,-21,-13,-7,34,23,15,17
1537912544708201,-22,-35,-12,-5,-44,-28,-23,-37
1537912544708201,-12,54,51,15,4,-12,-13,-10
1537912544722164,15,-9,53,10,-10,-1,6,14
1537912544722164,2,-18,-95,-17,-2,-8,1,4
1537912544731140,15,31,8,-4,15,19,29,23
1537912544731140,4,-16,29,-2,-7,0,-3,2
1537912544746100,-11,2,-25,-2,-7,2,-16,-4
1537912544746100,5,9,34,28,25,7,19,15
1537912544747097,-8,-17,0,9,2,-3,-10,-21
1537912544747097,-6,-5,-8,-8,-24,-15,-28,-33
1537912544759065,0,4,0,-12,-6,-14,15,16
1537912544759065,3,5,24,4,1,11,-6,3
1537912544768041,-4,25,18,-2,-5,-7,22,2
1537912544768041,9,-34,-38,-21,-15,7,-8,11
1537912544782004,-1,-13,-65,-10,-16,-15,-4,15
1537912544782004,-18,29,31,10,8,-18,-38,-59
1537912544790980,9,7,59,6,-1,6,15,3
1537912544790980,-6,-20,-79,-21,1,6,13,16
1537912544805940,-6,-28,6,6,-1,5,5,6
1537912544805940,1,7,54,12,9,4,2,11
1537912544806937,5,46,-18,0,13,5,-5,-1
1537912544806937,4,-51,-51,-19,-16,-10,4,10
1537912544819902,-2,4,-14,7,9,13,14,5
1537912544819902,-7,5,54,6,-16,-22,-26,-22
1537912544827881,1,6,-18,-10,-4,-5,-10,-9
1537912544827881,0,38,28,9,-6,-12,1,7
1537912544841844,6,-20,-4,0,11,23,17,6
1537912544841844,6,5,-11,-7,-12,-3,16,7
1537912544850820,-21,-18,12,4,-10,-16,-48,-48
1537912544850820,-10,-3,1,0,-10,-26,-15,-22
1537912544865780,5,11,3,4,12,17,17,24
1537912544865780,2,10,2,-7,-25,-23,-7,-1
1537912544867775,6,-5,8,-6,22,12,22,17
1537912544867775,0,4,7,23,2,3,-7,-2
1537912544879742,4,46,71,4,-2,-5,-1,-9
1537912544879742,-14,-94,-116,-36,3,18,8,12
1537912544888719,0,-27,-19,-22,-16,-11,3,6
1537912544888719,3,-5,33,12,15,9,18,19
1537912544901684,-3,25,26,21,15,11,-6,-6
1537912544901684,-1,37,41,1,-20,-29,-45,-30
1537912544910660,2,-6,-34,4,13,20,13,10
1537912544910660,-4,11,8,-3,5,8,-3,-26
1537912544925620,-9,16,-1,2,-13,-34,-22,-19
1537912544925620,5,-12,3,2,-2,11,20,30
1537912544927615,0,-11,-23,-7,16,14,22,10
1537912544927615,2,16,37,7,-3,-1,-18,-12
1537912544939582,4,-9,-34,-24,-16,3,5,7
1537912544939582,-6,-5,-24,9,16,6,16,9
1537912544948559,3,-9,9,-1,1,1,-12,-1
1537912544948559,6,-27,-70,-18,3,6,20,23
1537912544962521,-7,-25,32,11,9,-8,-10,-12
1537912544962521,-8,33,32,24,31,18,-9,-30
1537912544969502,8,37,51,5,-46,-48,11,32
1537912544969502,-22,-45,-40,-14,-19,-13,-42,-55
1537912544985460,-7,-9,-33,-16,-7,-3,-17,-9
1537912544985460,2,14,23,-1,-4,-9,2,-16
1537912544987455,-4,5,1,11,51,54,13,-6
1537912544987455,5,5,36,5,-43,-48,9,41
1537912545000420,16,-5,-58,-21,-10,21,24,26
1537912545000420,22,20,18,-3,4,15,27,32
1537912545008399,-6,-26,-11,5,20,10,-13,-3
1537912545008399,-3,45,10,-2,8,-4,13,7
1537912545022361,0,-60,3,10,0,20,1,-9
1537912545022361,-5,-15,-33,-7,-31,-40,-30,-25
1537912545029343,-2,4,19,4,22,3,-17,-14
1537912545029343,13,11,29,12,20,39,21,24
1537912545046297,-16,12,-15,-3,-9,-32,-14,-3
1537912545046297,-16,-10,9,-10,8,12,-17,-14
1537912545047295,7,-8,-7,-3,-26,0,19,8
1537912545047295,3,-5,-17,3,27,-3,20,22
1537912545059263,-4,16,30,10,0,10,-27,-38
1537912545059263,-12,17,23,3,-17,-22,-21,-35
1537912545068239,-7,-25,-57,-8,-6,8,4,-4
1537912545068239,25,30,13,-11,5,-12,7,18
1537912545083199,8,5,69,12,-2,-1,8,21
1537912545083199,-4,-25,-104,-24,-2,15,11,25
1537912545089183,-10,-17,-7,-1,-1,-21,-12,-16
1537912545089183,-3,-15,19,0,2,20,8,-4
1537912545106138,0,0,-23,-5,3,-11,-6,0
1537912545106138,4,22,42,17,2,7,4,1
1537912545107135,1,11,19,4,-8,-17,0,5
1537912545107135,-2,-15,-22,-3,-5,10,-14,-17
1537912545119103,-9,4,-4,-2,-18,-7,-6,-18
1537912545119103,2,-9,7,4,3,7,20,13
1537912545128079,1,3,-6,-7,-8,-13,2,13
1537912545128079,-16,-7,4,-5,-16,-10,-42,-41
1537912545143039,-3,4,-13,0,14,-1,2,-10
1537912545143039,6,-5,-4,-4,3,7,3,11
1537912545149023,5,8,12,5,3,14,12,16
1537912545149023,-4,-1,1,1,2,1,0,1
1537912545165977,-1,-5,-15,-4,-3,-3,2,1
1537912545165977,3,-5,-2,1,2,5,11,11
1537912545166975,-3,6,14,4,3,-1,-12,-11
1537912545166975,-3,-5,4,-6,-5,-3,-8,-13
1537912545179940,3,-1,-16,-4,1,3,3,3
1537912545179940,1,-7,-6,2,-4,-5,2,4
1537912545187919,-5,1,-1,-2,-3,-4,-9,-11
1537912545187919,0,-2,1,-2,-6,-7,0,-1
1537912545201881,1,-17,-8,0,4,2,11,5
1537912545201881,-2,34,13,2,-2,-1,-5,-1
1537912545210857,0,-39,-21,-14,-10,-4,-6,-8
1537912545210857,2,4,-5,0,4,8,6,8
1537912545225817,-2,7,3,0,3,-1,-3,0
1537912545225817,-2,1,22,3,0,-2,-2,-3
1537912545226815,-2,16,15,6,1,-1,-2,-3
1537912545226815,-1,-3,-6,-2,-5,-3,-1,1
1537912545239780,0,-4,-8,-3,0,0,1,0
1537912545239780,1,-10,-12,1,-3,-1,1,2
1537912545248756,4,13,8,-5,-3,0,1,-2
1537912545248756,-3,-11,-6,0,1,2,-3,-3
1537912545261721,-3,-2,4,-1,0,-7,-2,-3
1537912545261721,2,-10,-16,-3,-4,-3,2,3
1537912545270698,-3,0,5,5,-2,-5,-4,-1
1537912545270698,-2,0,3,-1,1,-1,-2,-1
1537912545285658,0,-2,-18,-3,1,2,0,2
1537912545285658,0,-6,-1,-2,-4,-2,0,0
1537912545287653,-2,4,5,2,-1,-2,-4,-4
1537912545287653,-1,-2,2,-1,6,0,1,0
1537912545299620,-1,11,-9,-5,-3,1,1,0
1537912545299620,2,-14,26,4,3,0,-2,-1
1537912545308597,-3,-7,-32,-6,-4,0,1,0
1537912545308597,-4,-11,-5,-3,-7,-5,-3,-4
1537912545321562,-2,0,2,-1,0,2,-2,-1
1537912545321562,1,12,4,-1,-2,-1,-2,-1
1537912545330538,-1,9,19,5,8,4,1,-1
1537912545330538,2,-3,-5,-1,-7,-7,1,-2
1537912545345497,-1,-2,-3,-1,1,0,1,2
1537912545345497,2,-1,1,-1,-1,0,2,3
1537912545347492,-4,2,6,1,-1,-1,-5,-3
1537912545347492,0,-13,-5,-3,-4,-3,-1,-1
1537912545359460,2,-4,-2,4,2,-2,13,10
1537912545359460,-3,-2,-7,-5,1,-1,-15,-10
1537912545368436,-6,-5,-5,-6,-6,-2,0,-12
1537912545368436,0,10,0,0,5,4,-2,1
1537912545382399,1,-7,-4,-3,-11,-6,-1,1
1537912545382399,0,-7,-3,2,0,3,8,11
1537912545397359,1,6,1,2,2,-2,0,1
1537912545397359,-1,1,2,3,-3,-3,-3,-1
1537912545405338,1,0,3,0,-1,0,-2,-2
1537912545405338,0,4,-1,-1,-1,-2,0,-1
1537912545407332,0,0,14,1,-1,-3,-3,-1
1537912545407332,-1,-3,-24,-4,-1,1,3,1
1537912545419300,-3,-7,-5,-3,1,0,-5,-2
1537912545419300,-1,8,3,-1,-3,-3,-2,-5
1537912545428276,1,-3,6,2,3,2,2,1
1537912545428276,-2,-17,-11,-4,-5,-4,-2,2
1537912545442239,-3,-3,-8,-3,3,3,0,-2
1537912545442239,-4,-3,2,0,-2,-3,2,-2
1537912545449220,-2,6,5,0,0,2,0,2
1537912545449220,0,11,10,2,0,-2,-3,-1
1537912545465178,-3,-1,-1,-1,-3,3,-2,-4
1537912545465178,1,1,2,1,5,3,1,-1
1537912545472159,-2,-4,-4,0,-4,-3,-5,-4
1537912545472159,2,0,-3,-2,-7,-2,2,2
1537912545479140,0,2,6,2,4,3,-1,-2
1537912545479140,-1,-3,-4,-2,5,5,3,3
1537912545488116,1,-1,-7,-1,2,1,-2,0
1537912545488116,0,0,6,2,-2,-4,-1,1
1537912545503076,-1,3,2,0,3,4,1,-4
1537912545503076,-3,-4,-7,-3,-6,-6,-3,-3
1537912545509060,0,-2,-1,1,1,-2,-1,0
1537912545509060,-2,26,3,0,0,0,0,-1
1537912545525017,0,-11,11,2,-1,-4,-2,0
1537912545525017,-3,-6,-17,-4,-2,2,1,-4
1537912545531999,-1,-9,-11,-5,-3,-3,1,2
1537912545531999,-2,0,1,-1,2,4,-3,0
1537912545539978,-2,4,-5,-1,-1,-4,-3,-1
1537912545539978,-2,1,3,-2,-5,-6,-1,0
1537912545555935,0,2,7,0,-1,3,2,1
1537912545555935,0,17,3,1,1,2,0,-1
1537912545562916,-1,-15,19,5,0,-2,-3,-4
1537912545562916,1,-5,-15,0,1,0,-1,-1
1537912545569898,-3,-10,-30,-14,-10,-4,0,-2
1537912545569898,-1,-10,7,3,6,6,4,3
1537912545584858,0,16,2,-3,-2,-3,-2,-1
1537912545584858,-2,6,15,3,-1,2,0,0
1537912545591839,2,13,1,5,-1,-4,-1,0
1537912545591839,-8,-31,22,-1,2,0,-4,-7
1537912545599818,-1,-8,-46,-7,-11,-5,-5,-3
1537912545599818,11,8,-4,-3,4,3,7,8
1537912545608794,-3,3,4,1,-5,-2,-1,-4
1537912545608794,5,16,19,6,2,2,0,-1
1537912545622756,3,48,38,6,4,2,-1,1
1537912545622756,5,-60,-30,-10,-1,-4,-4,-3
1537912545629738,2,-27,-46,-9,-6,-1,4,4
1537912545629738,-20,-10,-4,0,2,3,0,-2
1537912545644698,-21,-21,7,0,-5,-7,-2,-3
1537912545644698,30,104,47,9,-1,-1,0,6
1537912545651679,11,4,32,8,7,4,4,13
1537912545651679,-39,-103,-71,-13,-7,-5,-14,-29
1537912545675616,-33,-45,-39,-16,-6,-4,-1,-17
1537912545675616,-6,30,25,-1,4,-2,-5,-1
1537912545677610,16,21,25,14,2,-3,-7,-9
1537912545677610,32,60,-4,-9,-8,-5,7,15
1537912545682597,15,1,-17,-4,6,2,1,4
1537912545682597,-11,-4,42,6,2,4,4,5
1537912545689578,-4,-9,-39,-7,5,5,-1,7
1537912545689578,-4,-19,-30,-2,-12,-6,-1,1
1537912545705535,6,4,25,7,2,-2,-1,-2
1537912545705535,-2,-9,4,5,-3,-5,0,3
1537912545711520,-10,14,32,2,6,2,-9,-13
1537912545711520,10,31,19,5,2,-4,3,2
1537912545728474,11,-32,-26,-10,-7,21,28,33
1537912545728474,-18,-50,-43,-9,5,-7,-17,-12
1537912545729471,-25,51,46,-5,-19,-22,-35,-56
1537912545729471,8,-4,-9,-3,-10,-9,1,2
1537912545742436,8,9,-51,-5,8,4,9,12
1537912545742436,-4,-22,-7,0,1,4,9,14
1537912545749418,10,30,12,6,-1,-2,-1,-3
1537912545749418,10,24,125,16,-5,-8,6,9
1537912545765375,-8,-20,-60,-19,6,-7,-17,-6
1537912545765375,-14,-40,-64,-13,-8,1,3,-12
1537912545772357,-2,-25,10,6,10,13,29,27
1537912545772357,11,33,47,23,36,36,10,32
1537912545788314,3,3,52,13,-17,-23,-10,-9
1537912545788314,0,10,-40,-13,-9,6,8,-29
1537912545789311,-2,-14,17,-17,-25,-18,-34,-7
1537912545789311,-3,-22,-84,-12,2,7,6,5
1537912545802276,-21,2,15,5,7,12,-8,-37
1537912545802276,7,28,52,8,3,-3,-4,-10
1537912545809258,13,-8,-1,5,2,17,22,36
1537912545809258,-5,-1,-54,-15,-3,-10,-10,3
1537912545825215,-4,-22,1,4,0,-5,-16,-17
1537912545825215,21,41,37,-6,-15,4,46,38
1537912545833194,3,-35,-30,11,23,28,43,63
1537912545833194,-15,24,33,16,6,-23,-78,-48
1537912545848154,-8,41,84,14,-13,-30,-39,-83
1537912545848154,-13,-56,-94,-47,-25,-17,-13,-4
1537912545850149,-5,-42,-12,-5,12,17,60,34
1537912545850149,13,8,-11,-3,8,28,39,44
1537912545863114,-6,19,49,15,-3,-11,-51,-23
1537912545863114,12,23,32,23,9,-9,-8,-4
1537912545869098,2,-1,-40,-22,-17,-15,-13,-7
1537912545869098,3,-15,6,3,10,18,35,21
1537912545885055,9,57,25,7,-6,-12,5,0
1537912545885055,-11,-34,69,10,8,1,-14,-2
1537912545892037,-14,-51,-109,-29,-14,-13,-13,-20
1537912545892037,-9,20,13,-9,-4,-9,-2,-16
1537912545907994,10,-69,2,-3,1,19,23,46
1537912545907994,7,47,8,13,5,1,3,8
1537912545909989,-12,4,44,25,14,-6,-26,-35
1537912545909989,-11,-32,-3,-9,-5,-4,-6,-27
1537912545921957,19,25,-33,-1,10,-2,37,68
1537912545921957,5,15,17,12,7,7,-7,-10
1537912545930933,-13,0,10,-14,-30,-27,-34,-60
1537912545930933,4,-10,-65,-8,11,13,8,27
1537912545944895,-10,7,0,-7,-6,-2,-33,-58
1537912545944895,-7,10,41,12,-4,2,-3,4
1537912545952874,10,15,-7,4,31,20,25,32
1537912545952874,-1,-10,-20,-5,-14,-10,-11,-21
1537912545967834,20,18,45,-4,2,16,31,45
1537912545967834,-16,-49,-114,-18,-9,-6,5,0
1537912545969829,5,54,52,21,15,11,-5,2
1537912545969829,-11,-21,9,-4,-13,-11,-8,-11
1537912545982794,-6,-13,-5,3,-2,1,-6,-22
1537912545982794,3,-5,-27,-9,-5,-4,8,5
1537912545989775,4,5,-8,-1,16,18,21,34
1537912545989775,-4,8,16,2,-19,-25,-15,-31
1537912546004736,-3,55,14,-9,-22,-23,-36,-17
1537912546004736,-8,-34,7,-2,-17,-16,-27,-15
1537912546011717,10,8,19,5,21,4,4,-3
1537912546011717,20,9,3,2,8,14,29,31
1537912546028671,-12,8,-13,0,0,-16,-6,-17
1537912546028671,1,20,19,10,1,10,9,13
1537912546029669,1,-34,11,-5,-10,-6,4,21
1537912546029669,10,-29,-73,-15,10,28,70,90
1537912546042634,-21,4,2,0,8,6,-35,-61
1537912546042634,-11,-13,48,7,-9,-34,-36,-36
1537912546049615,8,-19,-52,2,-3,6,32,12
1537912546049615,-36,21,63,-1,-14,-46,-110,-121
1537912546065573,12,-19,-12,-8,-1,4,37,21
1537912546065573,17,22,-2,-17,1,8,-4,16
1537912546071557,9,32,16,-1,-3,8,15,23
1537912546071557,17,1,20,18,13,23,50,66
1537912546088511,8,-28,-27,-3,3,8,30,41
1537912546088511,-22,-10,21,5,17,1,-45,-37
1537912546089509,12,-20,-48,-7,-4,-3,33,73
1537912546089509,5,27,11,8,15,19,-17,-35
1537912546102474,-20,0,46,13,-21,-28,-50,-97
1537912546102474,-14,5,-21,-7,-8,-8,-10,-12
1537912546109456,0,-19,-11,-14,-3,-1,1,20
1537912546109456,4,4,-17,-12,0,9,29,21
1537912546125413,-5,-18,-30,-12,6,10,-20,-4
1537912546125413,11,-3,26,3,-17,5,27,15
1537912546132395,-3,26,23,12,9,0,-12,-33
1537912546132395,16,49,66,22,-10,-13,10,20
1537912546148351,5,-40,-56,4,2,11,16,36
1537912546148351,-9,-51,-119,-36,1,7,11,3
1537912546149349,-9,15,49,4,-2,-12,-29,-35
1537912546149349,15,-7,-3,1,-1,3,29,18
1537912546162314,-22,0,-2,4,4,-1,-18,-14
1537912546162314,2,42,70,12,-5,-9,-8,-9
1537912546171290,-1,-15,-2,-1,-12,-14,-10,-14
1537912546171290,-9,-34,-65,-22,0,9,5,25
1537912546185253,7,19,-8,-1,7,23,46,17
1537912546185253,-12,3,-6,-3,-5,-32,-78,-53
1537912546192234,-1,-26,38,-2,-25,-23,-28,-43
1537912546192234,0,4,-12,0,-6,-6,-4,-4
1537912546208191,-12,-16,28,2,5,1,13,7
1537912546208191,30,9,-60,-2,9,19,59,52
1537912546210186,-8,15,5,2,17,12,-5,-9
1537912546210186,-22,-68,-8,-2,-10,-13,-12,-9
1537912546222154,5,-2,-20,-5,5,12,0,21
1537912546222154,8,22,55,10,9,1,-6,-7
1537912546231130,2,18,3,5,-8,-6,-11,-11
1537912546231130,4,0,-29,-4,-1,5,25,30
1537912546245093,14,18,15,8,4,7,11,22
1537912546245093,-10,13,49,3,0,-3,-30,-62
1537912546252074,-21,2,-42,-16,-23,-44,-68,-50
1537912546252074,-18,-51,-34,-8,4,11,6,15
1537912546268031,14,32,8,-1,-6,-12,15,10
1537912546268031,10,-15,-3,8,14,20,45,42
1537912546270026,9,7,38,-14,-5,9,-3,6
1537912546270026,-10,6,-3,7,-3,-5,-22,-34
1537912546281994,5,-22,-18,-4,5,-9,-4,17
1537912546281994,0,3,-1,5,1,2,12,8
1537912546290970,-18,-22,-31,6,-3,3,13,-10
1537912546290970,4,23,73,6,2,-15,-31,-12
1537912546304933,10,5,-28,-5,5,22,36,37
1537912546304933,-4,-11,-38,-4,-1,-9,-7,-14
1537912546311914,1,-2,12,-5,-16,-16,-26,-7
1537912546311914,-8,8,26,3,-2,-5,-10,-31
1537912546327872,2,-22,-18,-11,-3,2,8,15
1537912546327872,-1,-10,-13,-3,2,8,16,19
1537912546329866,2,26,12,6,0,1,3,-10
1537912546329866,3,0,3,-6,-12,-18,-36,-36
1537912546341834,-2,-1,-10,-3,-3,-4,5,7
1537912546341834,-2,-14,-5,0,1,8,9,23
1537912546350811,3,3,-17,1,5,10,16,8
1537912546350811,4,37,42,6,-1,-2,-1,-7
1537912546364773,-5,-28,-16,-2,0,-3,-9,2
1537912546364773,1,1,-8,-1,-1,-4,-1,6
1537912546371754,0,-2,7,1,5,9,10,-2
1537912546371754,-1,-4,-12,-8,-5,-3,0,-6
1537912546387712,-2,2,-5,0,-4,-6,-14,-5
1537912546387712,0,-2,11,7,1,4,10,8
1537912546394693,0,3,-1,0,0,2,1,-1
1537912546394693,-5,-5,-14,-4,-1,-2,-10,-18
1537912546401674,2,5,10,0,-2,-4,1,4
1537912546401674,-4,-3,-4,-4,3,4,4,4
1537912546410650,-4,-12,-9,-1,1,0,-2,2
1537912546410650,3,-4,-23,-9,-5,-3,2,0
1537912546425610,0,16,26,7,1,-1,-1,-5
1537912546425610,-5,-15,1,1,-1,3,0,1
1537912546431594,-1,-7,-14,-5,1,0,-2,2
1537912546431594,1,0,-2,1,0,-1,0,-2
1537912546447552,2,8,11,1,1,-1,2,4
1537912546447552,-3,9,17,4,1,2,0,-4
1537912546454533,-4,-5,-14,-2,-3,-3,-6,-7
1537912546454533,3,-1,-9,-3,-1,-2,-1,2
1537912546461514,5,3,15,-1,2,0,1,5
1537912546461514,0,4,-1,0,0,1,2,4
1537912546470491,-6,-9,4,4,-1,2,2,-3
1537912546470491,2,4,10,3,-1,-1,-2,-2
1537912546485451,0,-16,-22,-2,-1,-1,0,1
1537912546485451,-1,1,9,2,0,1,-2,1
1537912546492433,0,1,4,0,0,0,-1,-2
1537912546492433,-2,3,-1,-1,-2,0,-1,-2
1537912546508390,-1,-2,-5,-4,-2,1,-2,-5
1537912546508390,-2,-5,-6,-3,-4,0,-1,-1
1537912546514376,4,12,14,1,0,0,0,3
1537912546514376,0,-4,-17,-5,-3,0,-1,0
1537912546522353,-2,2,6,-1,-1,1,0,-2
1537912546522353,-4,-4,4,-2,0,-1,0,1
1537912546531328,-1,13,-19,-5,-2,-1,0,-2
1537912546531328,-2,-29,-5,-3,-3,-6,-4,-7
1537912546545291,-4,-7,-14,-6,-3,-1,0,0
1537912546545291,1,1,1,-2,-1,2,0,2
1537912546552272,-2,7,22,7,1,-1,0,-1
1537912546552272,0,8,4,2,0,-3,-1,-2
1537912546567231,0,2,-4,-2,-2,-3,-2,-1
1537912546567231,-1,2,-3,1,0,-3,1,-1
1537912546574213,-1,-3,3,-1,0,0,0,-1
1537912546574213,-1,3,25,2,0,-3,0,-2
1537912546591168,0,-16,-31,-3,-2,-4,-2,-2
1537912546591168,0,-10,-10,-2,0,1,-1,-2
1537912546592165,-1,-12,-20,-5,-1,2,-2,-2
1537912546592165,0,-1,7,-1,0,0,1,-1
1537912546605130,-1,13,14,2,-1,0,-1,-1
1537912546605130,1,2,1,-1,0,-1,0,-1
1537912546612112,-1,-6,-4,-2,-1,-1,1,0
1537912546612112,-3,7,-3,-1,0,0,-3,-3
1537912546628069,-1,1,14,2,1,0,-2,-3
1537912546628069,-1,-1,-14,-2,-2,-1,0,-2
1537912546634053,0,-5,-1,-3,0,0,0,0
1537912546634053,0,1,-2,-1,-2,0,-2,-2
1537912546651008,-1,-2,1,-1,0,-1,0,-1
1537912546651008,-1,-3,2,-1,-2,-1,-1,-1
1537912546652005,-1,2,7,1,0,0,1,0
1537912546652005,-2,-2,-13,-2,0,-2,-1,-1
1537912546664970,-2,-5,-2,-3,0,-1,-2,-3
1537912546664970,-3,2,-1,-1,-1,0,-1,2
1537912546671952,-1,-1,-1,-1,0,1,0,-3
1537912546671952,-1,3,2,2,0,-1,-1,-2
1537912546687909,1,14,5,0,-1,0,-1,-1
1537912546687909,0,-12,3,0,-1,-2,-1,-1
1537912546694890,-3,-18,-10,-2,-1,-1,1,0
1537912546694890,-1,0,-2,-1,-1,-3,1,0
1537912546710848,-2,-4,-2,-1,1,2,-2,-4
1537912546710848,2,13,2,-1,-1,0,4,3
1537912546711845,1,5,9,5,-3,-6,-6,-1
1537912546711845,2,-2,3,-3,4,9,4,2
1537912546724811,2,3,-4,-2,0,-6,-2,0
1537912546724811,-1,-8,-13,-3,-2,-2,-1,-2
1537912546731792,-2,-2,-1,-1,-1,-4,-1,-3
1537912546731792,0,2,4,3,-2,-4,-5,0
1537912546747749,-2,0,1,-1,-1,1,-1,0
1537912546747749,1,10,11,1,1,0,-2,-1
1537912546754731,1,-27,-16,-2,0,1,1,-1
1537912546754731,-6,-10,-4,-1,-1,1,-1,-3
1537912546770688,0,4,2,-1,-2,1,-1,1
1537912546770688,0,0,2,-5,-7,-2,-4,-2
1537912546772682,1,15,11,-1,-2,1,-1,2
1537912546772682,-2,0,-4,1,6,-1,-1,-1
1537912546785648,-2,-2,11,4,4,1,4,2
1537912546785648,-2,-6,-8,0,3,-4,-5,-3
1537912546791632,-1,-20,-2,1,-4,1,-1,-2
1537912546791632,9,8,-23,-9,-6,2,5,9
1537912546807589,-5,-12,-23,-11,-11,-7,0,1
1537912546807589,-5,9,9,0,4,2,-1,-6
1537912546814570,-1,11,11,-4,4,15,4,1
1537912546814570,-3,-5,16,8,0,-6,-4,-5
1537912546830528,4,34,12,-1,-3,1,-5,-5
1537912546830528,0,-24,-21,-4,-5,-1,4,3
1537912546830528,1,7,-9,-2,-3,-12,-6,-1
1537912546830528,-1,-1,1,-1,4,9,2,1
1537912546845488,-4,1,5,1,-8,-9,-4,-2
1537912546845488,-1,1,18,7,4,1,1,2
1537912546851472,7,7,-4,-1,-1,1,6,15
1537912546851472,2,1,-6,-2,-1,5,17,10
1537912546868427,-10,-14,-3,-2,2,-4,-25,-29
1537912546868427,-4,-2,-7,-3,-7,-9,-10,-14
1537912546874411,5,3,1,2,0,1,2,11
1537912546874411,-2,-21,-37,-12,-7,-2,9,15
1537912546890368,-6,-10,5,1,2,6,0,-20
1537912546890368,-11,6,1,-4,-8,-12,-12,-26
1537912546890368,3,15,24,3,4,1,0,3
1537912546890368,7,23,16,2,0,0,2,12
1537912546906325,8,-25,-6,3,3,6,12,24
1537912546906325,3,5,-5,-1,-5,1,2,2
1537912546912309,-5,-9,-9,-2,3,0,-5,-8
1537912546912309,-3,1,4,1,-3,-2,-5,-6
1537912546928267,1,3,-2,-2,-1,-2,-3,0
1537912546928267,5,38,26,3,0,0,-2,3
1537912546942229,-5,-34,-23,-1,-4,-7,0,-3
1537912546942229,-8,-9,-19,-6,-3,3,-4,-11
1537912546950208,-2,-3,8,0,-1,-2,1,-1
1537912546950208,3,-2,-14,-2,1,4,5,6
1537912546951205,-2,11,8,-1,-1,-3,-2,-4
1537912546951205,1,4,7,0,1,-5,-9,-11
1537912546966165,1,5,-2,3,1,1,5,7
1537912546966165,-2,-8,30,3,3,2,1,5
1537912546972149,-3,-27,-36,-10,-1,-1,-5,-8
1537912546972149,1,-11,-22,-1,-2,-2,-2,-5
1537912546988107,1,5,42,2,-3,0,7,5
1537912546988107,2,-3,-64,-9,-1,-1,0,7
1537912546994090,-3,14,25,5,3,1,-3,-8
1537912546994090,-9,-6,-7,1,2,-6,-8,-9
1537912547010048,3,-1,-4,-10,-2,1,-1,4
1537912547010048,11,18,39,-3,0,1,5,3
1537912547011045,-3,36,59,30,2,-3,-3,-3
1537912547011045,7,-3,-27,-6,-6,-2,-1,1
1537912547026005,-10,-38,-78,-21,7,3,3,-1
1537912547026005,-3,-7,36,-13,0,0,-5,-3
1537912547031989,1,-26,-38,0,-13,0,5,5
1537912547031989,-15,-3,52,24,5,-2,-6,-7
1537912547047947,9,64,90,38,6,-2,-3,-2
1537912547047947,3,-20,-103,-10,4,4,-1,0
1537912547054928,-1,-30,-17,-26,-14,-7,0,1
1537912547054928,9,22,27,-3,-1,6,5,5
1537912547069888,-5,-25,6,-1,-1,-4,-6,-1
1537912547069888,-6,19,22,12,-2,-3,-5,-8
1537912547070886,-7,11,13,-2,4,6,0,-7
1537912547070886,2,-16,-37,-10,-7,-8,-3,11
1537912547085847,25,-2,-37,-10,11,39,71,106
1537912547085847,8,12,50,21,19,-2,-24,-30
1537912547091830,-62,-23,4,-15,-43,-55,-100,-105
1537912547091830,-2,-36,-38,-23,-2,6,16,34
1537912547106791,4,-8,-21,-2,0,0,12,17
1537912547106791,20,3,17,18,5,9,23,60
1537912547114769,33,62,73,28,27,29,65,61
1537912547114769,-25,-22,9,-2,2,-4,-48,-92
1537912547129729,-20,-37,-27,-23,-26,-40,-51,-35
1537912547129729,5,-33,-110,-17,-7,12,38,41
1537912547130727,0,1,-13,5,10,-2,-11,-26
1537912547130727,3,55,82,17,-4,-6,-10,2
1537912547145688,-1,23,68,10,6,4,3,-32
1537912547145688,-8,0,-24,-13,-12,-7,-17,-11
1537912547151671,12,-33,-72,-11,7,30,78,81
1537912547151671,12,47,11,15,13,11,-4,20
1537912547166631,-6,-22,-6,-3,-12,-30,-57,-38
1537912547166631,-8,19,118,19,-11,-22,-33,-59
1537912547174609,-18,-46,-66,-41,-1,-3,-45,-53
1537912547174609,-12,-24,-61,-26,-17,4,38,0
1537912547190566,4,-15,57,13,15,21,23,27
1537912547190566,11,15,-50,0,-4,2,16,36
1537912547190566,18,25,58,20,22,12,19,31
1537912547190566,7,1,-9,11,-1,-9,-11,1
1537912547205527,3,10,-34,-3,3,3,4,2
1537912547205527,-28,-66,-24,-14,1,7,6,3
1537912547211511,1,16,2,2,-4,-9,-13,-15
1537912547211511,-13,23,36,2,-4,-12,-18,-36
1537912547227467,19,41,77,13,-12,-6,-10,-2
1537912547227467,-3,-16,-68,-20,-1,5,17,5
1537912547234448,-2,-9,-22,-6,-1,2,5,16
1537912547234448,10,-1,31,8,10,11,38,34
1537912547250406,-13,99,51,25,4,2,-5,-48
1537912547250406,-9,-91,-13,-20,-23,-31,-91,-50
1537912547250406,-1,-28,-36,-29,-11,-7,14,15
1537912547250406,11,-18,43,12,11,19,47,60
1537912547265366,0,0,-49,-7,9,11,15,14
1537912547265366,-5,72,87,25,7,1,-12,-22
1537912547272348,2,21,34,13,-4,-2,0,-3
1537912547272348,-6,-38,-91,-23,-16,-16,-31,-29
1537912547287308,-2,-30,-21,-8,1,2,9,12
1537912547287308,-6,2,-3,0,8,8,14,1
1537912547294289,11,12,38,-3,-13,-5,-2,8
1537912547294289,8,7,-12,-8,10,13,26,24
1537912547309249,-19,-42,-84,-2,-7,-8,-21,-12
1537912547309249,8,-4,13,9,-1,-12,-7,16
1537912547317227,-2,20,17,9,10,6,13,-12
1537912547317227,-5,22,59,15,-9,-16,-41,-36
1537912547326204,-15,3,-29,-28,-22,-18,-17,-50
1537912547326204,-8,-32,-32,-4,2,10,14,9
1537912547332188,17,62,68,16,10,16,26,48
1537912547332188,11,-2,-48,1,4,7,3,26
1537912547347148,-2,-62,11,5,6,-9,-20,-20
1537912547347148,-12,16,-14,-22,-15,-6,-11,-21
1537912547354129,-6,-6,-44,-13,-1,-5,-12,-12
1537912547354129,3,14,44,9,9,9,27,18
1537912547369089,8,8,12,13,4,11,18,35
1537912547369089,6,36,27,9,-1,-6,-5,-10
1537912547377067,-6,-18,64,7,1,-6,-21,-34
1537912547377067,-2,-20,-99,-25,-8,-6,-2,-5
1537912547386043,8,-5,-1,-3,5,7,8,38
1537912547386043,6,25,50,20,11,8,24,10
1537912547392027,-9,43,23,-2,-11,-15,-38,-43
1537912547392027,-7,-53,9,-13,-17,-17,-21,-22
1537912547406987,-4,-22,-73,-26,-3,10,23,11
1537912547406987,11,-6,-2,-1,9,12,30,34
1537912547413968,19,19,-2,20,15,7,13,52
1537912547413968,-32,10,49,6,-15,-31,-89,-111
1537912547428928,-17,-4,-1,-17,-7,-24,-21,-49
1537912547428928,1,-19,-23,0,-2,12,18,0
1537912547436907,9,27,7,9,2,2,21,26
1537912547436907,14,15,-8,2,13,20,34,54
1537912547445883,5,-25,2,-9,-8,-2,-1,11
1537912547445883,-5,-24,-17,1,1,-6,-3,-6
1537912547451867,-6,-29,-69,-11,-1,2,0,-7
1537912547451867,8,26,61,13,5,-4,-4,12
1537912547466827,5,33,-9,8,-3,3,0,-9
1537912547466827,-2,4,25,-12,1,7,6,-1
1537912547474806,6,-28,-52,-10,-12,-3,7,14
1537912547474806,-5,-5,7,9,11,2,-24,-8
1537912547497745,3,28,44,15,-6,-8,9,-5
1537912547497745,-30,-14,-12,-11,-16,-30,-77,-88
1537912547498743,-5,-40,13,5,0,-5,4,-2
1537912547498743,4,-7,-33,-16,-2,13,29,30
1537912547512705,9,15,-3,1,10,11,22,37
1537912547512705,15,27,47,12,7,8,8,20
1537912547513703,-14,-6,3,-6,-3,-3,-10,-32
1537912547513703,7,-37,-86,-26,-11,0,34,45
1537912547526668,-1,-13,9,11,8,10,-6,-6
1537912547526668,-5,62,42,13,-7,-14,-10,-15
1537912547534647,-10,-42,-1,-3,-2,-6,-31,-37
1537912547534647,1,21,7,-6,-10,-5,9,-8
1537912547549606,6,16,3,0,4,6,12,22
1537912547549606,3,-11,19,9,10,11,18,21
1537912547556587,2,-28,-43,-7,-7,-3,-1,7
1537912547556587,6,28,9,10,7,4,3,15
1537912547572545,-7,-35,-18,-11,-2,-3,-15,-25
1537912547572545,-13,14,13,2,1,-7,-3,-14
1537912547573542,12,25,62,1,-7,5,11,36
1537912547573542,0,-48,-97,-17,0,5,25,9
1537912547586507,-19,13,15,4,-7,-20,-65,-83
1537912547586507,3,0,8,-2,-4,-10,1,4
1537912547594486,-7,5,17,1,4,5,0,-11
1537912547594486,9,22,42,3,-6,6,24,22
1537912547617425,17,5,29,4,17,25,28,58
1537912547617425,0,-39,-119,-15,15,15,16,15
1537912547618422,-12,-16,7,8,-11,-21,-42,-50
1537912547618422,10,19,66,-10,-14,-2,13,14
1537912547632385,1,-28,-69,-2,9,9,14,30
1537912547632385,-10,10,30,1,6,1,12,-45
1537912547633382,-14,-20,-21,-2,-2,-4,-49,-16
1537912547633382,-12,-17,7,-2,-10,-17,-28,-32
1537912547647344,6,-3,16,3,-1,8,27,23
1537912547647344,33,13,28,9,19,42,53,82
1537912547654326,-13,25,-29,11,5,-13,-18,-42
1537912547654326,-22,0,64,5,-12,-22,-58,-72
1537912547669286,-2,-30,-110,-43,-15,3,3,7
1537912547669286,1,15,-27,2,-3,-6,20,29
1537912547677265,14,5,71,10,9,12,22,28
1537912547677265,12,0,-63,-10,14,22,14,29
1537912547693223,-21,5,81,26,-4,-31,-33,-40
1537912547693223,1,-28,-63,-50,-32,-16,-13,-17
1537912547694222,8,2,-48,-11,-1,1,20,27
1537912547694222,16,58,67,39,25,18,32,60
1537912547707186,-3,-22,35,22,3,2,-2,-36
1537912547707186,-32,-11,-36,-14,-21,-38,-74,-77
1537912547714167,-15,-15,50,2,-9,-4,-8,-21
1537912547714167,-3,-19,-90,-33,-7,-7,3,-12
1537912547729127,16,28,7,0,6,36,52,59
1537912547729127,14,3,48,29,19,-7,-12,42
1537912547737105,3,10,-29,-9,22,22,31,-14
1537912547737105,-11,9,55,18,-4,-18,-50,-32
1537912547753063,-1,2,2,-5,-9,-10,-9,-5
1537912547753063,5,-19,-19,1,8,24,45,32
1537912547753063,1,12,-5,-4,-11,0,-9,3
1537912547753063,-17,2,39,14,5,-17,-32,-47
1537912547767026,9,1,8,-23,-20,-9,-9,-10
1537912547767026,-3,-49,-70,-21,-5,3,19,20
1537912547774007,22,13,7,14,17,14,50,72
1537912547774007,-1,-6,13,11,3,9,15,5
1537912547788966,-29,15,35,7,-13,-31,-59,-77
1537912547788966,3,16,20,7,13,18,20,4
1537912547796944,-13,-18,-38,-24,-28,-23,-51,-50
1537912547796944,-1,-11,-6,-6,-15,-32,-24,-4
1537912547812902,-4,9,-2,-1,7,15,23,6
1537912547812902,-2,-7,14,0,-1,-9,-6,1
1537912547812902,8,5,-9,5,14,26,52,45
1537912547812902,-2,-3,2,-3,0,-13,-30,-5
1537912547826865,-2,21,-14,-10,-9,-7,-2,1
1537912547826865,0,-21,17,9,0,12,2,-9
1537912547834843,8,5,-4,-4,-2,3,3,19
1537912547834843,19,-10,-19,7,26,29,50,56
1537912547849803,-15,-11,-18,-4,-11,-27,-43,-48
1537912547849803,-22,13,21,-7,-24,-33,-51,-68
1537912547856785,-20,-12,-2,-2,-8,-15,-18,-22
1537912547856785,-2,-6,2,-9,-7,2,9,-10
1537912547872742,35,23,-5,-5,18,24,48,70
1537912547872742,4,-6,-10,4,1,8,0,19
1537912547873742,-6,-2,16,0,-5,-17,-16,-20
1537912547873742,-10,-7,-17,9,5,7,2,-10
1537912547894684,-4,-2,19,4,-3,12,2,2
1537912547894684,10,4,5,-9,-5,-18,-3,7
1537912547895682,-7,-23,-34,-13,9,18,8,-2
1537912547895682,7,12,24,12,14,11,2,-3
1537912547909645,-5,-10,24,13,7,0,-1,-1
1537912547909645,5,19,-12,-9,-8,-8,-1,2
1537912547916625,2,-23,-17,-12,-13,-12,-2,1
1537912547916625,-3,7,15,13,-5,0,0,-9
1537912547932583,-2,-6,-6,-6,0,-3,-4,0
1537912547932583,-14,-10,42,-5,-4,-3,-5,-4
1537912547933581,14,3,-73,-10,-4,0,1,6
1537912547933581,-3,-15,-32,-16,-4,-1,3,-6
1537912547946545,0,3,24,10,-2,-7,0,6
1537912547946545,2,15,35,17,4,9,3,4
1537912547954524,1,17,41,7,2,0,-1,-2
1537912547954524,-7,-8,5,-5,-3,-2,-6,-8
1537912547969483,1,-3,-26,-5,-4,0,0,2
1537912547969483,6,4,7,2,-1,-10,-1,1
1537912547977462,-1,6,1,2,2,9,2,0
1537912547977462,-4,-6,-15,-8,-10,7,2,-8
1537912547992422,-2,-7,-6,-8,3,-13,-8,-3
1537912547992422,5,2,-10,4,14,9,11,8
1537912547993419,11,10,9,8,-3,-3,4,10
1537912547993419,-12,-8,-1,-4,-3,-4,-5,-11
1537912548007382,1,-6,-14,-4,-3,7,9,2
1537912548007382,-7,-5,-5,1,-4,2,-5,-4
1537912548014363,1,6,3,-2,-1,-3,1,8
1537912548014363,3,2,9,-1,-7,6,6,4
1537912548029323,-2,1,-9,1,0,-17,-14,-12
1537912548029323,-6,4,-5,-7,-13,-8,-1,-9
1537912548037302,-2,-27,26,7,13,1,-1,2
1537912548037302,4,-8,-27,-4,0,-2,-2,3
1537912548054257,-4,-9,9,5,0,-4,5,8
1537912548054257,2,-4,-42,-11,-10,1,-3,0
1537912548054257,1,19,10,3,-4,-1,6,0
1537912548054257,-2,1,14,-2,3,-7,-9,-2
1537912548067222,-3,7,24,5,3,3,-5,-2
1537912548067222,9,17,15,12,-1,0,-1,-1
1537912548074203,-6,-25,-72,-26,-6,-1,0,-2
1537912548074203,-3,-8,3,3,-4,-6,3,3
1537912548089163,2,7,-2,-1,7,14,2,1
1537912548089163,-5,1,25,5,3,1,-6,-1
1537912548097142,-3,9,16,5,-3,-6,-12,-5
1537912548097142,4,4,-2,-2,-4,-10,-3,-2
1537912548112102,-1,-6,-10,-2,1,9,11,5
1537912548112102,3,-3,1,3,0,1,2,4
1537912548113099,-4,1,3,0,-7,-10,-9,-6
1537912548113099,-4,2,0,-7,-1,-1,-2,-5
1537912548127062,-3,-4,-6,0,-6,-7,1,-5
1537912548127062,3,-6,-7,-1,11,6,9,15
1537912548134043,3,11,9,0,2,6,0,0
1537912548134043,-5,-2,2,-3,-8,-12,-3,-13
1537912548149003,-2,-6,-13,-6,-6,-10,-12,-9
1537912548149003,-1,1,2,0,3,2,3,2
1537912548156982,0,10,24,5,4,4,3,5
1537912548156982,-3,-25,-8,1,0,1,-4,-4
1537912548172939,2,-6,-23,-3,-3,-1,7,8
1537912548172939,2,0,-3,-3,-1,8,-4,-2
1537912548172939,-4,0,-12,-3,-3,-8,-7,-8
1537912548172939,0,10,7,0,7,3,0,-2
1537912548194880,1,-4,4,0,1,-1,3,7
1537912548194880,-1,4,8,1,0,0,-1,1
1537912548195878,2,5,7,3,2,0,6,-1
1537912548195878,0,2,1,-1,-1,5,-3,-4
1537912548209841,-5,0,-2,-2,-5,-3,-11,-12
1537912548209841,3,0,0,-2,-7,-5,3,4
1537912548216822,-1,-3,1,1,7,17,3,-1
1537912548216822,1,-3,-3,0,-1,-3,3,4
1537912548232779,3,4,1,0,-3,-8,-6,1
1537912548232779,-2,-5,-4,-3,-1,0,-1,-4
1537912548232779,-2,-6,0,0,-4,-6,-2,0
1537912548232779,-1,5,2,-1,-3,-1,-5,-3
1537912548246742,1,3,-3,-2,2,1,3,2
1537912548246742,-6,-6,-3,-4,-2,2,-2,-7
1537912548254721,-2,-4,-1,1,-3,-5,-2,3
1537912548254721,0,5,2,-1,0,5,3,1
1537912548269681,1,1,10,2,2,-1,-2,-2
1537912548269681,-1,-3,-12,-2,-2,-2,2,1
1537912548276662,-3,-7,-5,-1,-2,-3,-2,-1
1537912548276662,-1,-10,-8,-4,-3,1,-3,1
1537912548291622,-1,6,3,0,-2,1,2,0
1537912548291622,0,-4,16,3,1,-3,-2,-1
1537912548299601,-4,5,-6,0,-1,-3,-3,-4
1537912548299601,2,2,-7,-3,-1,-1,-1,-1
1537912548306582,1,-13,-3,-2,-2,4,3,3
1537912548306582,-2,11,1,0,0,-2,-2,0
1537912548314560,1,6,11,1,-6,-1,-2,-4
1537912548314560,-2,-2,-6,-1,1,-3,0,0
1537912548329521,0,-1,-4,0,1,4,0,3
1537912548329521,0,-8,-4,-3,-3,-6,-2,-2
1537912548336502,-2,-4,2,0,2,-5,0,-3
1537912548336502,1,5,5,3,-1,-3,0,1
1537912548351462,4,1,-3,-4,2,6,6,8
1537912548351462,-4,-4,-2,2,7,6,-11,-16
1537912548360438,1,-2,-4,-4,-5,-13,5,10
1537912548360438,-2,1,2,-1,4,19,-4,-8
1537912548367419,-9,-1,-6,-1,-2,-12,-7,-17
1537912548367419,0,1,-1,1,2,1,7,7
1537912548374401,4,2,3,0,-6,-6,-4,0
1537912548374401,2,-2,-3,-1,-2,0,5,9
1537912548389361,3,0,-2,-1,-2,0,5,9
1537912548389361,-2,-1,-2,-2,-2,3,1,-3
1537912548397339,-2,-1,0,0,-2,0,-2,-3
1537912548397339,1,2,2,1,3,-9,0,2
1537912548412299,0,1,3,1,-4,-1,-2,-2
1537912548412299,0,-2,-5,0,-3,-8,0,1
1537912548420278,-1,-4,-5,-6,2,16,5,0
1537912548420278,-2,-2,0,-2,1,2,2,-3
1537912548427259,-4,-1,-2,-4,-2,-9,-5,-5
1537912548427259,0,1,0,-3,0,-3,-1,2
1537912548434241,-2,-2,0,2,-5,-6,-5,-3
1537912548434241,-4,-1,0,-1,0,1,-2,-2
1537912548449201,1,1,-2,-2,0,10,-3,-5
1537912548449201,-4,-5,-4,0,0,-1,-3,-3
1537912548457179,1,-1,0,0,2,2,-1,1
1537912548457179,1,5,4,1,1,-2,2,-1
1537912548472140,1,0,6,0,-1,-3,0,-1
1537912548472140,-3,-4,-13,-2,-4,2,0,-2
1537912548480118,-4,-3,-3,-3,-1,-3,-2,-3
1537912548480118,-1,-3,-2,1,-2,-2,-3,2
1537912548495079,3,2,4,5,4,0,8,14
1537912548495079,3,1,4,-2,2,11,-1,-5
1537912548496076,0,1,0,1,-4,-4,0,0
1537912548496076,-6,-1,-1,-5,-4,-11,-8,-8
1537912548509042,-3,-3,-6,-4,0,10,-4,-8
1537912548509042,-1,0,1,-1,-6,-7,6,3
1537912548518021,3,3,0,2,5,4,-2,7
1537912548518021,-3,-3,-4,-4,-5,-3,-2,-4
1537912548531981,-3,-2,-1,2,-1,-4,-5,-2
1537912548531981,1,-1,0,0,-3,1,-2,2
1537912548539960,-4,-2,-1,-3,3,-2,-2,-8
1537912548539960,-2,-2,-1,-2,-5,-7,-4,0
1537912548554922,1,0,-2,-1,-4,-6,-1,3
1537912548554922,1,-1,1,2,2,1,-2,0
1537912548555918,1,0,1,0,-2,-5,-3,-1
1537912548555918,-1,-1,0,2,-2,-8,-1,2
1537912548569879,-3,-2,-4,-4,-4,-3,-9,-12
1537912548569879,-3,0,0,-1,-3,-2,1,2
1537912548576861,-1,-1,-2,-1,-2,3,0,-3
1537912548576861,0,1,-1,1,1,1,1,5
1537912548591821,3,-1,-2,-1,1,-2,5,5
1537912548591821,1,-1,0,-1,2,-4,-6,-1
1537912548599801,-4,-2,-3,-2,0,0,2,-2
1537912548599801,2,-1,-2,0,-9,4,-6,-5
1537912548614760,-7,-4,-2,-4,-4,1,-2,-14
1537912548614760,-1,2,1,0,1,-1,-5,3
1537912548615757,-2,-2,-1,-3,-6,-2,0,0
1537912548615757,3,2,-1,-1,2,7,7,5
1537912548629719,2,1,-3,1,-2,-1,5,6
1537912548629719,-3,-2,1,-2,0,4,-2,-3
1537912548636701,-3,-1,0,-2,-1,3,-1,-2
1537912548636701,-3,0,-1,1,-1,-3,1,-1
1537912548651660,1,-1,-1,1,4,2,-3,0
1537912548651660,1,-2,-1,-1,1,-2,2,1
1537912548659638,-1,2,1,0,0,-6,-4,-3
1537912548659638,-1,-1,1,1,-2,-1,-1,-2
1537912548674598,-3,-1,-4,-4,-3,-6,-2,1
1537912548674598,-2,0,-1,1,-1,-2,1,0
1537912548675596,-1,-2,-3,0,1,2,0,-3
1537912548675596,1,1,-2,-1,2,-2,-3,-3
1537912548689558,1,0,2,1,-4,-3,-1,1
1537912548689558,-2,0,3,1,4,9,3,-2
1537912548696540,-7,-5,-5,-4,-2,-5,-3,-5
1537912548696540,3,0,0,-1,-6,5,2,2
1537912548711500,2,2,-3,-4,-9,4,4,4
1537912548711500,-11,-21,4,-12,-6,-11,-8,-11
1537912548720476,5,25,-13,12,0,-8,0,1
1537912548720476,7,-6,19,5,8,18,11,10
1537912548735437,-2,2,-10,-9,-2,3,-1,-7
1537912548735437,3,3,-6,4,3,-1,3,4
1537912548735437,-3,-20,-7,-8,-1,6,3,1
1537912548735437,1,-2,3,3,-5,-6,1,14
1537912548749401,0,10,18,12,-3,0,2,-15
1537912548749401,-8,-1,4,-3,10,10,-8,-11
1537912548757380,-9,-11,-9,-6,6,-10,-17,-17
1537912548757380,-11,-2,-33,-33,-3,-4,-32,-22
1537912548772338,8,-6,3,10,5,-12,10,16
1537912548772338,8,16,18,19,6,8,9,5
1537912548780317,-1,6,38,5,-7,-28,-9,4
1537912548780317,7,-2,-24,6,-9,14,15,9
1537912548795276,4,4,0,-9,-27,-27,-11,8
1537912548795276,-5,-31,-9,-21,4,27,16,1
1537912548796274,9,19,-12,11,-6,3,-6,-5
1537912548796274,24,16,32,16,2,-11,24,52
1537912548809239,-20,-12,-11,-1,2,4,-11,-37
1537912548809239,-19,-3,-6,-7,-26,-50,-57,-51
1537912548817218,5,-5,9,5,0,29,38,30
1537912548817218,-13,-4,-7,-8,14,4,-12,-21
1537912548832177,7,-1,-2,6,19,-20,-7,11
1537912548832177,1,4,-6,-10,-8,10,1,6
1537912548840156,-4,-4,-6,-5,-4,18,5,-12
1537912548840156,-2,1,-1,1,17,-21,-7,5
1537912548855116,3,-16,-17,-16,5,19,20,18
1537912548855116,6,17,3,-7,-41,-53,-23,-3
1537912548856114,19,14,15,17,1,14,22,27
1537912548856114,-4,0,15,21,7,-8,-7,-13
1537912548869078,-14,-6,3,3,12,14,-8,-19
1537912548869078,-3,-6,-8,1,7,1,4,2
1537912548877057,-7,-17,-16,-7,-3,-3,-9,-1
1537912548877057,2,0,-7,-6,-13,1,4,-2
1537912548892017,-3,0,0,-3,12,29,2,-5
1537912548892017,11,10,5,1,-2,9,14,24
1537912548899996,-1,-2,-1,-13,-8,-29,-27,-12
1537912548899996,-12,4,-12,-6,-5,1,-7,-22
1537912548914956,-2,0,-5,0,-3,-7,-2,0
1537912548914956,10,4,10,13,7,2,24,22
1537912548915953,-7,-1,-6,-10,-9,15,-5,-12
1537912548915953,-8,-11,-2,-3,-6,-5,-11,-11
1537912548928918,-2,0,-8,-8,2,9,5,-2
1537912548928918,5,6,5,10,-4,1,9,10
1537912548937894,-2,-9,0,-7,-3,-24,-6,2
1537912548937894,6,1,3,11,3,13,2,4
1537912548951857,2,4,10,-1,-5,-2,6,1
1537912548951857,-12,-12,-17,-6,7,7,-9,-15
1537912548959836,3,0,-3,-5,-2,-6,2,1
1537912548959836,3,0,5,-1,-2,13,12,8
1537912548983772,-2,5,11,17,-1,-19,-11,-3
1537912548983772,-1,-7,-7,-2,8,11,-1,-1
1537912548983772,-4,0,-2,3,12,16,5,3
1537912548983772,-9,-8,-9,-16,-4,-31,-16,-16
1537912548989757,6,-1,-2,-5,-2,11,8,11
1537912548989757,-3,0,-5,-2,-9,-9,-6,-10
1537912548997735,2,2,3,1,11,9,-7,-1
1537912548997735,-2,-2,0,0,-9,-2,5,1
1537912549011698,0,-1,-3,0,-2,-4,1,4
1537912549011698,4,3,0,0,-3,2,9,9
1537912549027656,-6,-2,2,2,1,-5,-3,-2
1537912549027656,-3,-6,-3,-15,-1,-3,-7,-8
1537912549034637,-2,-6,-11,1,-10,-14,-7,-2
1537912549034637,6,6,6,4,11,-1,0,4
1537912549035634,2,-1,3,9,3,4,8,-1
1537912549035634,-2,8,10,15,9,9,0,-13
1537912549049596,-1,0,10,3,8,4,-11,-3
1537912549049596,-9,-7,-9,-6,-15,-9,-1,-6
1537912549057575,7,-4,-8,-11,-9,-8,1,5
1537912549057575,1,3,2,1,2,6,11,8
1537912549071538,-2,1,-5,-5,0,1,-8,0
1537912549071538,0,-6,-2,-1,7,1,7,1
1537912549080513,-9,-3,-2,-1,1,-13,-14,-17
1537912549080513,-2,-6,-5,-2,-1,4,2,1
1537912549095473,6,3,2,-6,-19,-11,-6,6
1537912549095473,2,0,0,8,30,9,8,6
1537912549095473,0,1,-1,-3,-6,4,1,2
1537912549095473,-7,2,1,-4,-9,-10,-23,-28
1537912549109436,-3,-6,-4,-1,6,6,9,4
1537912549109436,2,0,0,-4,-2,-1,-5,0
1537912549117415,3,7,4,8,0,2,6,4
1537912549117415,0,-6,1,6,3,4,7,7
1537912549132375,-5,-5,-4,-4,-3,-9,-1,-5
1537912549132375,1,-1,-4,-4,-9,-8,-9,0
1537912549140355,0,0,1,2,-1,-9,0,-6
1537912549140355,-3,2,2,2,2,14,-3,-12
1537912549155315,2,-1,-2,-6,-11,-18,-5,1
1537912549155315,-1,2,-3,1,1,5,4,3
1537912549162296,-1,-5,-6,-3,5,3,0,2
1537912549162296,5,-1,-2,0,3,-1,3,10
1537912549169277,2,4,3,0,14,8,4,0
1537912549169277,1,3,11,0,-29,-3,3,3
1537912549177255,-4,-5,-13,1,-7,5,-4,-12
1537912549177255,1,-2,-4,0,12,-10,1,4
1537912549192216,0,-1,-2,0,-6,1,0,0
1537912549192216,-2,0,2,-1,-2,-1,-1,-1
1537912549200194,-8,-1,6,3,7,9,8,-1
1537912549200194,0,-2,-5,-5,-12,-10,-6,-2
1537912549214158,10,5,7,7,15,-1,12,16
1537912549214158,3,2,-2,-1,17,22,5,9
1537912549223134,-3,-4,-4,-9,-19,-27,-14,-6
1537912549223134,-5,-4,-2,-1,5,10,8,-10
1537912549229117,-10,-3,-2,-7,-9,0,-20,-28
1537912549229117,-5,-24,-9,-7,0,-3,6,4
1537912549238094,4,26,0,-3,5,13,6,6
1537912549238094,5,-2,3,-6,-11,-8,2,10
1537912549252056,-5,-6,-2,1,0,0,0,1
1537912549252056,6,0,3,11,3,4,7,2
1537912549261033,5,-2,13,6,-1,-7,-12,-1
1537912549261033,-8,-4,-5,1,15,5,0,-6
1537912549273998,3,8,4,6,26,17,11,7
1537912549273998,-12,-7,-14,-11,7,18,-6,-14
1537912549282972,1,-4,-8,-4,5,5,9,7
1537912549282972,1,6,2,3,3,12,5,6
1537912549288957,-2,-7,0,0,-6,-17,-5,-2
1537912549288957,-5,2,5,0,2,-6,-5,-12
1537912549297932,2,-6,-4,-6,6,-2,6,3
1537912549297932,-1,-4,-1,0,-3,8,-4,-2
1537912549311895,4,3,4,5,-19,-4,5,9
1537912549311895,-2,0,-6,-4,-4,-10,-7,-8
1537912549320871,-14,-11,-13,-9,-10,1,-3,-20
1537912549320871,11,2,1,10,24,-2,12,20
1537912549334834,-5,6,12,7,-12,-24,-20,-12
1537912549334834,-2,5,-4,-14,-27,-22,-18,-10
1537912549342813,-9,-13,-6,3,14,11,-10,-3
1537912549342813,2,0,-8,-9,-4,-12,-2,5
1537912549357773,11,10,11,8,1,24,24,17
1537912549357773,-3,3,9,10,-13,-33,-13,-3
1537912549359768,-9,-7,-11,-16,7,2,-8,-11
1537912549359768,-3,-19,-13,-5,-18,1,1,-4
1537912549371736,5,33,15,8,5,-1,0,4
1537912549371736,1,0,6,4,-7,-10,3,2
1537912549380712,-5,-9,1,3,-4,-2,2,-1
1537912549380712,1,2,0,0,-9,-13,-1,4
1537912549394675,-7,-27,-11,-17,3,14,-12,-12
1537912549394675,-1,11,-14,3,24,16,0,-4
1537912549403651,14,10,8,3,-6,-10,7,13
1537912549403651,-10,-6,-3,-8,-3,5,-7,-6
1537912549418611,-13,-18,-15,-8,-4,-27,-12,-18
1537912549418611,7,6,11,8,-13,5,7,9
1537912549419608,-13,-5,-4,-22,-3,0,-23,-22
1537912549419608,7,6,4,15,-12,-27,-3,6
1537912549431575,-8,3,10,12,3,11,4,-4
1537912549431575,-2,-6,-3,-12,10,9,-9,-1
1537912549440551,-1,-2,-7,9,-11,-21,-5,0
1537912549440551,1,5,9,1,20,24,14,13
1537912549454514,4,-4,-14,-14,-6,1,1,1
1537912549454514,-5,-10,-2,1,5,12,14,1
1537912549463489,-2,-5,-4,4,14,18,-6,-7
1537912549463489,4,13,1,3,-9,7,12,9
1537912549478449,6,0,2,14,30,32,2,3
1537912549478449,-4,3,-2,-2,-7,-11,-2,-15
1537912549479447,5,-3,10,-2,-17,-3,13,19
1537912549479447,9,5,12,-3,17,29,8,10
1537912549491415,0,-2,-21,-4,-4,12,11,0
1537912549491415,10,-4,-9,2,26,7,16,16
1537912549500391,-8,2,3,2,-20,-1,-3,-14
1537912549500391,-9,-6,-3,-1,-11,-43,-27,-18
1537912549514353,-2,1,6,-18,-38,13,2,-5
1537912549514353,-3,5,14,12,20,18,8,15
1537912549523330,11,-2,-1,-8,3,-29,-6,12
1537912549523330,0,16,11,14,-9,3,-1,-4
1537912549538289,-3,-13,-24,-17,-36,-17,0,-1
1537912549538289,2,-4,-10,10,22,-5,-5,-7
1537912549539287,-20,-8,-15,-37,-15,-7,-6,-8
1537912549539287,-8,-14,2,9,-2,-5,-16,-15
1537912549552252,0,8,-11,10,-6,-31,-10,-5
1537912549552252,2,0,6,2,27,36,21,6
1537912549561228,14,5,2,8,3,-19,-11,8
1537912549561228,-20,-14,-6,-30,-53,-24,-9,-24
1537912549574193,-11,0,8,4,-17,6,0,-6
1537912549574193,3,6,10,8,-41,-57,-9,8
1537912549583169,4,-2,-2,6,34,63,17,-1
1537912549583169,-21,-16,-29,-47,-7,-63,-29,-6
1537912549598129,16,8,12,41,24,23,6,7
1537912549598129,13,13,14,-22,-44,-3,19,9
1537912549600124,4,-8,11,37,40,-19,-16,5
1537912549600124,-8,4,-25,-31,14,36,8,-6
1537912549612092,2,5,10,9,6,-16,-7,2
1537912549612092,14,4,5,7,25,16,6,12
1537912549621068,-5,-5,-2,12,4,29,17,-3
1537912549621068,-14,-11,21,-7,-10,-4,-11,-19
1537912549634033,-20,-4,-43,-24,-4,-23,-16,-6
1537912549634033,11,2,2,9,-11,-9,-9,-5
1537912549643009,19,19,21,12,44,68,40,28
1537912549643009,-7,-7,-5,1,-48,-49,-1,-6
1537912549657970,4,-2,13,-3,-5,27,2,9
1537912549657970,-21,-8,-19,-23,-9,13,-14,-19
1537912549659964,-5,5,-12,-21,-37,-30,-17,-6
1537912549659964,10,-3,2,15,19,38,11,6
1537912549671933,-6,-13,5,-7,21,-18,-3,-4
1537912549671933,0,9,-10,0,-4,-9,-5,1
1537912549680908,-7,-8,-1,-11,-15,1,-2,-10
1537912549680908,-7,-3,-8,-18,15,24,10,-4
1537912549693873,9,-8,4,25,6,-16,-4,10
1537912549693873,8,15,21,15,36,23,7,-3
1537912549702849,3,4,4,5,-30,-21,1,9
1537912549702849,5,5,0,9,6,-8,-16,-10
1537912549717809,-13,-10,-10,-21,-2,-2,2,-5
1537912549717809,-13,-20,-14,-9,-18,-11,-19,-7
1537912549719804,4,8,3,4,2,-2,9,1
1537912549719804,6,6,6,14,5,9,11,13
1537912549731772,1,-2,8,-7,-4,0,3,5
1537912549731772,2,-3,-10,2,-5,5,-6,-4
1537912549748727,-4,-1,-2,-4,5,-8,0,-4
1537912549748727,2,-3,-3,10,9,15,-2,-6
1537912549754711,-2,1,5,-4,-10,-13,1,3
1537912549754711,-3,-4,-2,-7,8,2,-2,6
1537912549763687,-7,-3,-5,-5,-8,-8,-9,-14
1537912549763687,6,3,3,11,17,20,9,6
1537912549778647,-1,1,0,-6,-9,-20,-7,-1
1537912549778647,-4,-4,-3,-6,-10,-10,-7,-3
1537912549779644,-2,-5,-2,0,-18,-2,2,-1
1537912549779644,7,5,5,10,1,2,5,6
1537912549791612,3,1,-1,-5,3,6,1,4
1537912549791612,-8,-5,-5,-1,-3,-2,-2,-5
1537912549800588,-5,1,-1,2,7,-1,-4,-10
1537912549800588,8,3,1,1,-6,-12,2,15
1537912549814551,-2,-15,-2,-3,5,10,4,-6
1537912549814551,-2,12,2,0,-12,-15,-9,-6
1537912549823527,4,-1,3,1,3,-4,-2,5
1537912549823527,-2,1,-3,0,0,3,0,-1
1537912549838487,-3,-6,-2,0,3,1,-5,-4
1537912549838487,-5,-8,-4,-1,2,3,5,-3
1537912549839484,-1,3,-1,-2,-5,-5,-6,-1
1537912549839484,0,-2,-2,1,7,4,-3,2
1537912549860428,1,5,1,1,8,10,3,0
1537912549860428,1,-4,-1,-4,-18,-12,9,14
1537912549862423,-7,-3,-2,-1,-2,1,-10,-14
1537912549862423,5,0,3,2,6,2,4,8
1537912549874391,-3,6,-2,-2,0,11,-5,-11
1537912549874391,-4,-2,-1,-4,-4,-13,-15,-13
1537912549883367,0,-2,0,2,3,0,7,4
1537912549883367,1,3,1,2,-5,-3,3,3
1537912549898327,1,2,3,-1,1,-1,9,9
1537912549898327,2,-4,-3,-1,2,5,-1,3
1537912549899324,0,0,-1,-2,-2,-6,-3,-3
1537912549899324,1,-1,-3,-2,0,-2,-7,-3
1537912549912290,2,2,1,2,-4,-9,-1,-1
1537912549912290,-4,-4,-2,0,1,7,3,0
1537912549921266,-3,-2,-2,-5,-10,-7,-5,-5
1537912549921266,3,0,-3,-3,1,7,5,2
1537912549934231,-2,-1,0,0,6,4,-4,-4
1537912549934231,-4,-5,-4,-2,-7,-11,-11,-5
1537912549943208,2,0,0,1,4,3,3,4
1537912549943208,-2,0,1,4,5,-9,-2,-1
1537912549958168,-2,-3,-6,-8,-9,0,-2,-4
1537912549958168,-2,-1,0,0,5,6,2,0
1537912549960163,0,0,1,-2,-7,-4,-3,1
1537912549960163,2,0,0,1,-3,-2,1,0
1537912549972133,0,2,0,1,0,-2,0,-1
1537912549972133,-3,0,0,0,1,-2,1,-2
1537912549981109,-3,-25,-4,-2,-4,-8,-5,0
1537912549981109,5,31,3,1,0,3,3,1
1537912549994073,2,-5,-1,-3,-5,-10,-3,5
1537912549994073,-5,-4,-3,-1,17,12,-6,-10
1537912550003048,-1,2,-1,1,-14,-1,3,0
1537912550003048,2,-7,0,2,5,-1,-5,5
1537912550018008,2,3,-1,-3,-9,-2,7,8
1537912550018008,4,-2,2,3,14,-1,-3,0
1537912550020004,-5,3,-1,-1,-5,7,-3,-20
1537912550020004,-7,-5,-3,-2,-5,-10,-3,-6
1537912550031971,0,2,2,-1,3,6,1,3
1537912550031971,5,-3,0,2,-4,6,8,12
1537912550040947,2,6,1,1,3,-9,-3,7
1537912550040947,-2,-6,-1,-2,-8,-5,-4,-6
1537912550054910,-1,-3,0,1,4,3,-1,2
1537912550054910,-4,-2,-2,-2,-4,-1,1,-3
1537912550061890,1,4,-1,1,7,3,0,2
1537912550061890,-1,-4,1,1,-2,0,-3,-3
1537912550077847,-1,-1,-2,-3,2,-1,-2,-2
1537912550077847,-1,1,-2,-1,-2,-5,-3,-2
1537912550079842,-1,0,-2,-1,6,4,1,0
1537912550079842,-2,-5,-1,-2,-4,-7,-6,-2
1537912550091810,-1,1,-1,-3,-4,9,5,1
1537912550091810,0,0,-1,-4,-8,-7,2,0
1537912550100787,-2,-1,2,0,4,3,0,-1
1537912550100787,-1,-2,-1,1,3,0,0,2
1537912550115746,-2,-1,1,1,0,-6,-6,-6
1537912550115746,1,-2,-1,-3,-15,9,10,8
1537912550121730,5,1,0,0,3,1,0,3
1537912550121730,-1,0,-1,-1,3,9,2,-2
1537912550137688,1,1,1,1,-4,-7,1,0
1537912550137688,-2,-1,-1,-2,-3,-3,-1,-4
1537912550144669,0,0,-3,-2,2,1,4,4
1537912550144669,2,-2,0,-2,-6,-1,-2,4
1537912550151650,-6,-4,-1,0,3,-2,-12,-23
1537912550151650,-2,1,1,2,-1,-8,-2,-2
1537912550160626,0,-2,-2,-1,3,7,4,2
1537912550160626,-1,-3,-1,-3,-2,-6,0,3
1537912550175586,2,1,0,1,4,6,4,7
1537912550175586,0,2,0,0,4,-3,-5,-2
1537912550181570,1,2,-2,-1,-7,-3,2,4
1537912550181570,-3,-3,-3,0,-19,-16,-12,-9
1537912550197527,-4,-4,-3,-5,2,12,3,-2
1537912550197527,0,-1,-2,-4,-3,1,0,-1
1537912550204509,0,0,1,3,5,-4,-6,0
1537912550204509,3,1,2,2,4,5,14,10
1537912550211490,-5,-2,-2,-1,-6,-7,-10,-12
1537912550211490,3,1,-1,-2,-5,1,-1,2
1537912550220466,-1,1,0,-2,-2,-4,0,0
1537912550220466,-1,-2,-2,-2,2,5,-3,-8
1537912550235426,0,-2,0,1,0,-1,4,5
1537912550235426,1,-1,1,1,6,2,3,8
1537912550241410,-1,-1,1,0,0,-5,-3,-1
1537912550241410,-3,1,-1,1,1,3,2,-8
1537912550257368,0,0,-1,-1,3,-3,0,3
1537912550257368,-2,-1,-1,-2,-4,-3,-6,-6
1537912550272328,-1,0,1,1,-3,-11,-4,5
1537912550272328,-3,-2,-2,-4,-1,-2,4,-3
1537912550273325,1,-1,-2,0,-1,-2,-11,-10
1537912550273325,-7,-3,-3,-1,0,-1,-3,-6
1537912550280307,-3,-2,-1,-2,-1,4,-1,-4
1537912550280307,0,2,2,2,5,0,4,7
1537912550295266,2,2,0,1,-3,-4,2,5
1537912550295266,1,-1,-1,0,2,-1,-3,-4
1537912550302247,0,-1,0,-2,-11,-5,0,0
1537912550302247,-4,-4,-3,-2,-1,5,4,3
1537912550317207,2,0,0,1,0,0,-12,-7
1537912550317207,-3,-1,-1,0,1,-1,5,5
1537912550324188,-1,-1,-2,-1,5,8,6,-4
1537912550324188,-1,-2,1,-2,-3,-2,-5,0
1537912550341143,-2,2,0,2,-2,-1,2,4
1537912550341143,-2,-2,0,0,-1,-2,-2,-8
1537912550342141,-4,-1,-4,-5,-4,-5,-7,-5
1537912550342141,4,2,0,0,2,1,3,3
1537912550355106,1,1,0,-1,3,3,6,7
1537912550355106,3,-1,-1,1,3,-1,-2,0
1537912550362087,2,-1,0,-1,1,6,10,7
1537912550362087,-1,-2,-1,-1,-2,-9,-15,-9
1537912550378044,-1,1,1,2,3,-3,2,-4
1537912550378044,-4,-1,-3,-3,-1,3,-3,-6
1537912550392008,1,-1,0,1,2,2,-2,-1
1537912550392008,-1,-1,-1,-2,0,-4,-3,0
1537912550400984,-1,-2,-1,-3,2,8,6,5
1537912550400984,0,-1,0,0,-1,0,2,1
1537912550401982,-4,-3,-2,-1,2,0,-6,-8
1537912550401982,1,0,0,-2,0,3,3,0
1537912550414948,0,-3,-1,-1,-4,-7,-1,-1
1537912550414948,-1,3,2,0,1,6,2,0
1537912550421929,-2,-2,-3,-5,-6,1,-6,-4
1537912550421929,0,-1,-2,1,-9,1,1,1
1537912550437886,1,0,-1,-2,-3,-11,1,7
1537912550437886,3,-1,0,1,-3,-1,-3,1
1537912550444867,-5,-5,-2,-2,1,-2,-2,-8
1537912550444867,1,2,-1,1,0,2,-1,0
1537912550460825,-2,-2,-1,-2,-2,1,3,-4
1537912550460825,-3,-1,0,0,-3,-5,-4,-3
1537912550461822,1,0,0,-1,-2,-6,2,2
1537912550461822,-2,-1,0,-1,-1,2,-1,-2
1537912550474789,2,1,-1,1,4,6,3,7
1537912550474789,0,0,0,-1,-18,-23,-7,1
1537912550481769,-1,0,2,2,7,7,0,-9
1537912550481769,1,-2,-2,0,0,-2,2,3
1537912550497725,0,-2,-1,0,-3,1,-1,-4
1537912550497725,-5,-2,-2,-2,-2,-8,-8,-10
1537912550504707,2,0,-2,-2,-3,6,2,8
1537912550504707,1,-1,-1,0,0,-4,1,2
1537912550520663,-2,-1,-1,-2,-8,-2,1,-5
1537912550520663,-3,-2,-2,-2,9,5,-8,-8
1537912550521661,-1,0,-1,-1,-2,-6,-2,3
1537912550521661,-2,-1,-1,-2,4,3,1,-4
1537912550534626,0,-1,0,-1,-5,-1,1,4
1537912550534626,0,0,-2,0,2,3,6,2
1537912550541607,-1,-1,-1,2,-1,-7,-6,-3
1537912550541607,-2,-2,-3,-1,-3,-2,-2,-1
1537912550557565,-1,-1,-1,-1,-1,-2,-3,-2
1537912550557565,-3,-2,0,0,-1,-3,-6,-7
1537912550564546,-2,-2,-2,-3,-2,6,2,1
1537912550564546,-1,-1,-3,-1,0,-8,-1,2
1537912550580504,-4,-2,-1,-2,1,-2,0,-3
1537912550580504,-1,-1,-2,-1,1,0,-1,-4
1537912550582499,1,1,0,0,-3,-7,0,2
1537912550582499,-1,-2,0,-1,1,4,1,1
1537912550595464,-4,-1,-3,-3,-6,-7,-8,-8
1537912550595464,-4,-1,-2,-6,-4,1,4,-7
1537912550601448,0,1,-1,1,0,-2,-2,0
1537912550601448,1,-1,0,0,-1,2,0,-1
1537912550617405,2,0,-1,1,3,2,-3,4
1537912550617405,2,-1,-1,1,3,3,6,7
1537912550624387,-2,-3,-4,-4,-2,-9,-4,-5
1537912550624387,-3,0,-2,-1,-7,-4,-7,-6
1537912550640345,-1,-1,-2,-1,2,4,3,4
1537912550640345,1,0,1,0,-2,-5,2,1
1537912550642340,3,1,1,0,3,1,1,5
1537912550642340,0,-2,-1,-2,-2,0,2,0
1537912550655304,-3,-1,0,1,3,-7,-8,-8
1537912550655304,2,0,0,0,1,3,7,8
1537912550662285,2,0,0,2,2,-1,-1,2
1537912550662285,0,0,-1,1,2,1,-2,0
1537912550677246,1,1,1,1,3,1,5,-7
1537912550677246,-5,-3,-1,-2,0,0,-1,-1
1537912550692207,2,-1,0,-3,-1,5,-3,6
1537912550692207,-1,0,0,-1,4,2,2,-5
1537912550701181,-1,-3,-1,-1,-4,-2,-4,-1
1537912550701181,2,-1,-1,-2,1,2,-6,0
1537912550702179,-1,1,0,0,-4,-5,2,1
1537912550702179,-1,-2,-2,-3,-8,-4,1,0
1537912550715144,0,1,-2,1,6,7,-1,4
1537912550715144,0,0,-2,0,1,3,3,1
1537912550722125,0,-1,1,0,-1,-3,-2,-1
1537912550722125,-3,-2,0,1,1,3,-3,-3
1537912550737085,-1,1,-2,-1,-4,-9,-1,0
1537912550737085,1,1,-1,-1,6,14,4,2
1537912550744067,-4,-2,-3,-1,-2,1,-1,-8
1537912550744067,-4,-1,-4,-3,-1,-4,-1,-4
1537912550761022,0,-3,-1,0,-2,-5,-7,-3
1537912550761022,-1,0,0,0,-1,-7,-3,0
1537912550762019,-1,-2,-3,-4,-10,-5,-1,-1
1537912550762019,-2,-1,-1,1,1,0,-4,-5
1537912550774984,0,-1,-2,-4,1,2,2,2
1537912550774984,1,-1,-1,1,0,-2,0,3
1537912550781965,-4,0,-1,0,2,1,-1,-5
1537912550781965,0,-1,-3,-1,-4,-1,-3,0
1537912550797922,1,-2,0,-2,3,5,2,1
1537912550797922,0,0,1,-1,-5,-13,-5,-3
1537912550803907,-2,-3,-2,-1,-1,6,6,-2
1537912550803907,1,0,-2,-3,-1,3,9,5
1537912550820861,-4,-1,-2,-1,-3,0,-12,-7
1537912550820861,0,-2,1,-2,-1,1,5,7
1537912550821859,1,0,1,0,1,-3,-2,1
1537912550821859,-4,-1,1,-1,2,-5,-3,-7
1537912550834824,1,-2,1,1,1,4,8,4
1537912550834824,0,1,-1,1,-3,-2,-6,-3
1537912550842803,3,0,-1,1,5,5,4,5
1537912550842803,2,-1,0,3,3,2,-2,-1
1537912550857763,-2,-2,-2,-1,-3,-3,3,-2
1537912550857763,-1,-1,-1,1,-2,-5,-9,-2
1537912550864744,-2,0,1,-1,0,-4,1,-1
1537912550864744,-2,0,0,-1,-1,3,-5,-6
1537912550880702,-3,-4,-4,-3,-2,0,1,1
1537912550880702,-2,-1,-1,-2,-1,3,3,-1
1537912550881699,-2,-2,0,-1,-2,-3,-3,-4
1537912550881699,1,1,1,0,2,-2,-1,3
1537912550894664,0,2,-1,1,-2,-1,-1,1
1537912550894664,2,-2,-2,-5,-6,2,5,6
1537912550903640,-3,-3,-2,-3,3,5,-3,-4
1537912550903640,-3,-2,-1,-1,-6,-6,-1,-5
1537912550917602,1,-2,0,-1,-3,-3,-8,-2
1537912550917602,-2,0,-1,-1,0,-2,2,-8
1537912550924584,2,0,-2,0,4,4,3,6
1537912550924584,0,-1,-1,-1,1,1,0,1
1537912550940541,0,0,-1,1,-3,-1,4,3
1537912550940541,0,1,0,1,-1,-4,-2,2
1537912550942536,-6,-2,-1,-1,-2,-2,-7,-10
1537912550942536,-3,-2,-1,-1,-1,-3,-5,-1
1537912550954504,1,1,1,-1,-2,3,6,8
1537912550954504,-2,-3,-2,-3,-6,-6,-8,-4
1537912550963480,0,-1,1,1,6,9,5,0
1537912550963480,-1,-1,-2,-1,-3,-4,-2,-2
1537912550977442,-2,-1,-1,-1,-2,-3,-1,-2
1537912550977442,0,0,0,0,0,0,5,1
1537912550984424,1,1,-1,1,0,1,1,4
1537912550984424,0,-2,-1,-3,-1,-2,1,3
1537912551000381,-3,-1,-1,1,1,0,-4,-5
1537912551000381,0,1,-1,2,3,4,1,-1
1537912551002376,-2,0,-2,0,1,-2,-3,-2
1537912551002376,0,-1,-1,2,1,-2,0,0
1537912551014343,3,3,-1,-2,-4,-2,4,2
1537912551014343,-2,-1,-2,-2,2,5,-6,-5
1537912551023320,-2,0,-1,-2,-6,-3,1,1
1537912551023320,2,0,0,0,2,-5,-2,-3
1537912551037283,-2,-3,-1,-1,-3,-8,-8,-6
1537912551037283,-1,-2,-1,0,4,7,5,-1
1537912551044264,-1,-1,0,-2,-3,-3,-7,-4
1537912551044264,-2,-3,-1,-2,-2,6,6,-1
1537912551060221,1,0,1,2,0,-2,-1,-3
1537912551060221,0,0,-1,-1,1,-3,0,2
1537912551067202,-2,-3,-1,-3,-13,-9,-1,0
1537912551067202,1,0,-1,0,2,6,1,4
1537912551074184,-4,-4,-3,-4,6,9,-1,0
1537912551074184,-1,-1,1,1,0,4,2,3
1537912551083160,-2,1,1,2,-2,-6,-5,-2
1537912551083160,-1,2,1,0,-2,-5,-4,-2
1537912551097122,-1,-2,0,-2,-3,-1,0,-5
1537912551097122,-4,-2,-3,-2,-2,-5,-4,-6
1537912551104104,2,1,-1,0,0,-2,0,2
1537912551104104,-4,-3,-4,-3,-4,2,1,-1
1537912551120061,-3,-2,-2,-3,-3,-2,-6,-4
1537912551120061,1,-1,-2,-4,-5,-6,0,0
1537912551127042,2,-3,0,0,7,6,3,0
1537912551127042,-3,1,1,0,4,0,0,-2
1537912551134024,-4,-1,-3,-3,-1,-2,-3,-3
1537912551134024,1,-2,-3,-3,-3,-2,-3,2
1537912551143000,1,0,3,3,4,6,3,3
1537912551143000,1,-1,-1,-1,-5,-13,-4,-2
1537912551157960,-2,-1,-1,0,1,6,8,-3
1537912551157960,-2,0,-1,-1,-1,-3,-5,-3
1537912551163944,-2,1,-1,-2,-5,-4,-2,-4
1537912551163944,2,-1,-1,-1,2,3,0,4
1537912551179901,5,0,-1,1,-1,-1,7,15
1537912551179901,-4,-1,-1,-2,0,4,-7,-15
1537912551186882,-2,-1,-3,-2,-5,-6,-6,-6
1537912551186882,0,-1,-1,-3,-3,5,0,2
1537912551193864,3,-1,-1,0,-3,-6,-3,0
1537912551193864,-3,-1,0,1,-5,2,1,-2
1537912551202840,-1,-2,1,0,-4,-6,-3,0
1537912551202840,1,1,0,-1,0,-3,-5,-7
1537912551217800,1,0,0,0,4,4,3,3
1537912551217800,-1,-1,-1,-3,-2,-8,-4,-1
1537912551224781,1,1,-1,1,1,-4,-1,-4
1537912551224781,0,-3,-4,-2,-5,-4,-4,-1
1537912551239741,-4,-1,-2,-1,-8,-4,-4,-2
1537912551239741,-1,-1,-2,0,0,1,0,0
1537912551246722,0,-1,-2,-3,0,3,4,1
1537912551246722,-1,0,-2,-3,-2,-6,0,3
1537912551262680,-1,-1,-1,1,0,-2,-5,-6
1537912551262680,-1,0,0,0,0,0,3,2
1537912551264675,-2,-3,-1,-1,-1,0,-3,2
1537912551264675,0,-2,1,-1,7,7,1,2
1537912551277640,-1,-1,-2,-3,-11,-9,-1,-3
1537912551277640,-3,-2,0,0,-4,-7,-1,-7
1537912551284622,0,-4,-2,-2,0,-3,-6,-1
1537912551284622,0,1,-1,1,2,-1,-2,-2
1537912551299581,2,2,0,-2,1,-2,2,4
1537912551299581,1,-1,-1,-1,3,7,4,4
1537912551306563,-4,0,-2,-3,-3,-5,-5,-3
1537912551306563,-1,-3,-2,-2,-4,2,2,1
1537912551323517,-2,0,0,0,4,0,-1,-2
1537912551323517,0,-1,1,0,-2,-2,0,2
1537912551324515,-1,-1,1,-3,-2,0,2,1
1537912551324515,-3,-2,0,-1,0,1,-4,-4
1537912551337480,0,-1,-1,0,1,2,-1,-3
1537912551337480,0,-2,-1,-2,2,-2,-2,3
1537912551344462,-1,-1,-1,0,1,0,-1,1
1537912551344462,-1,1,1,1,0,0,2,-1
1537912551360418,-1,0,1,-1,1,0,-1,-4
1537912551360418,-2,-2,1,0,0,0,1,-2
