timestamp,emg1,emg2,emg3,emg4,emg5,emg6,emg7,emg8
1537913962108816,0,6,-3,-2,2,-10,-2,1
1537913962108816,0,-5,-1,0,0,5,-3,3
1537913962109814,2,-2,0,3,0,-2,12,1
1537913962109814,2,4,-1,-2,1,-13,-1,-1
1537913962122778,-1,-4,2,2,15,32,-12,-6
1537913962122778,-2,1,-3,-5,-27,-29,14,-2
1537913962122778,-1,4,-1,0,9,15,-31,3
1537913962122778,-4,-3,-2,0,0,8,-2,-1
1537913962124773,0,-6,-2,-4,-13,-6,0,2
1537913962124773,0,0,-1,3,17,-5,-4,-2
1537913962127765,-3,1,1,3,-2,22,-2,-6
1537913962127765,-2,-2,-3,-9,-17,-22,-7,-3
1537913962135743,-1,-1,2,-1,-6,-2,-14,-1
1537913962135743,-1,0,2,-1,-1,15,32,1
1537913962150704,-1,-4,-2,0,7,-24,-10,0
1537913962150704,0,-1,2,7,18,10,25,-2
1537913962157685,1,1,-1,-2,-7,14,3,1
1537913962157685,0,1,-4,-3,-5,-14,-12,-5
1537913962172645,-2,-5,-1,-3,-6,-7,4,1
1537913962172645,1,2,1,-3,-3,20,-22,-3
1537913962181620,1,2,-4,-1,3,0,25,4
1537913962181620,-1,-1,1,-2,-1,-20,-19,-3
1537913962195583,-3,-2,1,-1,-5,-11,9,-3
1537913962195583,0,2,0,-1,-2,5,-7,-2
1537913962236473,0,1,-3,0,0,2,-3,-2
1537913962236473,1,2,1,0,-3,-3,1,-1
1537913962237471,0,-6,-2,2,-1,-1,-1,0
1537913962237471,-1,0,0,0,1,-5,-6,1
1537913962241460,2,4,0,1,2,15,4,-1
1537913962241460,-2,-5,-4,-4,-4,-8,-5,-5
1537913962241460,-1,-1,1,-1,3,-2,-4,-6
1537913962241460,-1,2,1,6,12,-29,7,-2
1537913962247444,0,-5,-2,-5,6,37,-26,-3
1537913962247444,3,-1,0,2,-3,12,-21,-3
1537913962254425,3,2,1,-3,-13,7,52,18
1537913962254425,2,4,-2,1,30,-20,-24,-6
1537913962263401,-15,-11,-2,2,26,-79,-20,-37
1537913962263401,0,-2,0,-9,-48,31,74,15
1537913962277364,11,8,0,5,37,0,-106,5
1537913962277364,1,-3,3,15,86,97,38,8
1537913962286340,-1,-5,0,-18,-99,-36,28,17
1537913962286340,-7,1,-17,-51,-33,-38,-84,-68
1537913962308281,3,2,6,13,36,51,98,77
1537913962308281,-4,-6,-11,-27,-127,-91,-48,-4
1537913962310276,2,7,4,9,127,92,56,4
1537913962310276,1,3,20,59,92,-83,-10,30
1537913962322244,0,-3,-17,-55,-84,50,-81,-42
1537913962322244,5,4,2,4,-26,-30,61,7
1537913962331220,-11,-3,-2,4,-24,-39,-11,10
1537913962331220,5,0,7,18,-34,83,60,-7
1537913962346181,-10,-3,-3,-4,-20,-59,-25,-2
1537913962346181,-11,-2,11,43,119,104,-29,-25
1537913962347178,13,-5,-11,-52,-113,46,43,19
1537913962347178,-11,0,-8,-7,114,55,-44,-48
1537913962368121,-2,1,5,22,96,-70,-41,21
1537913962368121,-10,-6,-9,-30,19,-93,26,-14
1537913962370116,10,4,5,22,19,76,17,15
1537913962370116,-7,-5,-2,3,-28,25,-7,12
1537913962382084,-5,-1,9,31,76,82,41,-28
1537913962382084,11,0,-23,-71,-95,-121,-40,-7
1537913962391060,4,8,5,27,127,19,25,18
1537913962391060,-3,-1,7,15,87,47,6,-6
1537913962406020,-4,-5,-7,-31,-69,-74,-28,1
1537913962406020,3,2,11,27,15,127,14,12
1537913962408014,-1,1,6,7,-46,-58,-8,-14
1537913962408014,0,-2,-10,-29,-40,-31,34,10
1537913962428959,3,-2,10,25,-18,72,-1,-4
1537913962428959,2,-2,-5,-9,-77,-71,24,11
1537913962429957,-5,-2,2,8,43,-7,-24,-9
1537913962429957,-1,-4,-3,-3,-23,61,-31,7
1537913962441924,3,3,1,3,28,-96,0,-5
1537913962441924,4,-2,-7,-35,-100,72,-18,7
1537913962450900,-7,-4,-2,6,44,42,-43,-40
1537913962450900,16,5,4,21,13,50,9,67
1537913962474836,-6,-1,1,3,39,16,2,-30
1537913962474836,-8,-6,-6,-9,-54,0,20,1
1537913962476831,6,4,10,19,-15,1,-25,8
1537913962476831,-2,-1,-4,-10,-41,-72,29,-7
1537913962488799,7,1,0,-24,-91,-23,32,12
1537913962488799,-8,-4,12,44,127,-39,-62,10
1537913962489796,7,3,-10,-34,-98,-36,-2,-4
1537913962489796,-4,0,0,1,66,-66,9,-7
1537913962501764,-6,-4,-15,-38,-105,-93,17,-8
1537913962501764,-5,2,1,14,63,48,-82,-23
1537913962510740,-7,-5,-3,2,-16,-7,19,0
1537913962510740,-2,-3,-5,-8,-57,-70,-8,-5
1537913962525700,-1,-3,4,8,6,69,4,20
1537913962525700,2,1,9,24,64,44,12,2
1537913962527694,-1,0,-7,-24,-78,-111,36,4
1537913962527694,0,0,-1,-2,-16,18,-4,12
1537913962548638,-10,-2,11,40,127,77,-9,-20
1537913962548638,13,-3,-11,-49,-128,34,2,20
1537913962549636,-6,-5,-6,-6,-5,-36,-1,-15
1537913962549636,-3,-3,4,4,58,-34,-11,-4
1537913962562601,0,2,-3,4,-27,-73,-5,-13
1537913962562601,-1,-1,0,-1,0,105,17,-5
1537913962571577,3,1,4,12,104,39,-49,4
1537913962571577,-5,-4,-9,-20,-73,-43,-20,-23
1537913962585540,3,-2,-1,6,36,57,-3,37
1537913962585540,4,2,2,13,12,47,26,10
1537913962592522,3,0,0,4,-38,-22,-23,3
1537913962592522,-1,2,4,14,33,-2,-15,3
1537913962608479,0,-3,-5,-2,-12,-56,-15,-14
1537913962608479,-4,-2,4,13,3,-31,88,2
1537913962610474,-4,-4,-5,-15,-16,50,3,5
1537913962610474,5,0,-3,-3,-3,-11,3,23
1537913962622441,-7,2,-1,4,25,8,-14,-46
1537913962622441,-5,-5,-3,-13,-40,-6,6,7
1537913962631418,-6,-3,-2,-3,-15,-17,-5,-12
1537913962631418,10,4,3,-2,12,27,9,12
1537913962646378,0,-1,0,5,17,31,2,7
1537913962646378,-10,-7,-8,-17,-19,-49,15,-18
1537913962647375,-2,-1,1,7,34,5,-11,-11
1537913962647375,-5,0,-1,2,15,-33,-21,-7
1537913962676297,1,-5,-8,-21,-101,11,16,5
1537913962676297,3,2,5,23,95,-38,26,6
1537913962677295,-5,1,-6,-21,-76,-21,-36,-27
1537913962677295,-2,1,4,14,48,13,21,-7
1537913962682282,0,-4,-6,-6,-7,4,10,-8
1537913962682282,5,1,2,1,30,-72,-18,4
1537913962691258,-6,-3,-3,-4,-37,-14,0,3
1537913962691258,-2,-2,-1,-2,-11,18,7,-6
1537913962706218,3,3,3,1,15,-4,15,8
1537913962706218,0,2,-1,5,9,-12,-34,-11
1537913962707215,-5,-4,1,6,28,-4,41,10
1537913962707215,-1,1,-3,-4,-25,-3,-31,7
1537913962728159,0,1,2,-5,0,-5,8,0
1537913962728159,0,-1,2,7,5,13,-4,-2
1537913962730153,1,0,-2,5,25,12,-56,-6
1537913962730153,1,-1,-1,-1,-14,10,53,3
1537913962742121,-2,1,-3,-1,18,-1,-1,-1
1537913962742121,-5,-3,5,6,14,4,-17,-4
1537913962751097,3,-1,-1,8,20,-31,0,16
1537913962751097,-6,-2,-2,-4,-10,36,14,-10
1537913962766057,-1,-2,-2,-6,-5,0,6,-1
1537913962766057,-1,1,-2,0,-10,-10,-19,-7
1537913962767055,3,2,5,5,18,16,23,4
1537913962767055,-2,-1,-1,-5,-12,-5,-20,-1
1537913962788996,-1,-4,0,3,11,6,2,-2
1537913962788996,-1,0,1,0,-10,-16,-9,0
1537913962789993,-1,1,-1,4,20,-2,-19,0
1537913962789993,0,2,-1,-4,-12,-15,-1,-1
1537913962801961,-5,-1,-2,-2,-8,-4,-14,-7
1537913962801961,0,1,0,-1,-8,-13,6,-2
1537913962810937,1,-2,1,-2,0,3,6,8
1537913962810937,2,-1,1,-2,-6,6,-18,-3
1537913962825897,1,1,0,2,-3,-3,10,0
1537913962825897,-1,0,-3,-5,-4,-1,-4,0
1537913962827892,-1,-1,3,3,12,10,5,1
1537913962827892,-1,-3,-1,-1,-4,-6,-5,-3
1537913962848836,-1,1,1,-1,4,-2,4,-3
1537913962848836,0,0,-1,-4,-4,-3,4,0
1537913962849834,-1,-1,0,0,2,5,3,1
1537913962849834,-1,-2,-2,-1,-2,-7,-2,-1
1537913962870777,-1,1,0,-1,-5,-2,-1,-1
1537913962870777,-3,-3,-2,-1,-2,4,-3,-4
1537913962872772,-2,1,1,-2,-1,0,11,1
1537913962872772,-2,1,1,0,-1,0,-2,-2
1537913962885737,-1,-2,3,0,2,7,0,0
1537913962885737,0,-2,1,3,-2,-1,-3,1
1537913962891721,-1,-2,-1,0,3,2,2,0
1537913962891721,-2,-2,-1,-2,0,-1,-2,-1
1537913962909673,-2,0,-1,0,-1,-1,2,-1
1537913962909673,0,-2,-1,0,-3,-3,0,-1
1537913962911668,-1,1,-2,-2,-2,3,3,-2
1537913962911668,-2,0,-1,1,6,7,-1,-3
1537913962930618,-1,-1,-2,7,26,7,0,-3
1537913962930618,3,2,-4,-10,-48,-12,2,3
1537913962932612,1,-3,0,0,5,-45,-1,2
1537913962932612,2,-1,-3,-8,-62,14,-8,3
1537913962945578,0,2,-1,-6,-6,-29,-3,-1
1537913962945578,-1,-1,-4,2,16,43,5,1
1537913962952559,-1,-3,1,1,4,13,-5,-1
1537913962952559,0,-2,0,8,22,-12,3,-3
1537913962968516,0,-2,0,-3,-22,3,3,3
1537913962968516,0,0,1,-1,1,-2,-1,-2
1537913962970511,-1,1,-2,0,1,3,-8,0
1537913962970511,-3,1,-1,0,11,-1,28,2
1537913962991455,-1,-4,2,0,8,6,1,-2
1537913962991455,0,-1,2,8,37,-2,-9,-4
1537913962992453,2,-1,-3,-16,-64,-30,-12,1
1537913962992453,-1,-2,1,1,0,-15,-15,-6
1537913963005419,2,0,-3,-3,-9,12,-5,5
1537913963005419,-2,-2,0,1,10,-16,-1,-2
1537913963012402,-1,1,-1,9,32,45,6,-1
1537913963012402,-1,-3,-3,-7,-6,-8,-15,-2
1537913963028359,-2,-1,-2,-6,-10,-31,1,-4
1537913963028359,-4,-2,0,-6,-26,9,-4,-5
1537913963030354,-1,-1,3,4,17,-13,-5,-3
1537913963030354,-2,-1,-1,0,8,15,2,-3
1537913963051295,-2,0,-3,3,12,39,17,-4
1537913963051295,1,1,0,-1,-4,-18,2,-2
1537913963052293,-3,-1,0,-1,-5,-14,7,0
1537913963052293,-2,-2,1,1,7,6,-2,-2
1537913963073236,-2,0,2,3,3,-22,0,-2
1537913963073236,-1,0,-4,-4,-13,3,-1,-1
1537913963075231,-2,-2,0,2,8,7,4,2
1537913963075231,-3,-1,-3,-2,-8,-9,5,-3
1537913963088196,-2,-1,-1,-2,-2,-1,-11,-1
1537913963088196,2,-1,0,-3,-4,-18,4,3
1537913963090191,6,1,0,1,5,-7,-1,6
1537913963090191,-2,-2,0,2,23,53,-2,-1
1537913963111135,3,-1,-1,-1,-1,-28,-3,1
1537913963111135,-3,-2,1,-5,-5,-15,-2,-2
1537913963112133,-1,1,-4,-5,-8,17,3,-4
1537913963112133,1,0,-1,-1,-3,-28,-4,-1
1537913963125098,-1,1,2,1,0,21,1,-1
1537913963125098,-1,2,-1,2,7,-3,-3,-2
1537913963134075,-1,-1,2,0,9,5,1,-4
1537913963134075,0,-3,-1,-6,-8,-8,1,-1
1537913963149034,-2,-2,0,0,-11,-1,0,-4
1537913963149034,-1,0,-1,5,11,2,-1,-2
1537913963150033,4,-2,-4,-2,-16,-5,0,4
1537913963150033,1,-1,0,-3,-3,13,-2,0
1537913963170976,-2,-1,1,-2,-2,-4,-4,-1
1537913963170976,-4,-1,-1,2,6,13,15,0
1537913963172971,-3,-1,-2,3,18,8,-12,-1
1537913963172971,-2,0,1,0,-12,-24,-2,-2
1537913963184939,1,-1,-1,-4,-11,12,-3,2
1537913963184939,-2,-3,1,2,-11,-24,-3,0
1537913963199899,1,1,0,-4,0,37,3,0
1537913963199899,1,2,0,1,-6,-8,-16,1
1537913963206880,0,0,0,0,10,8,-2,1
1537913963206880,1,-1,2,-2,5,12,21,1
1537913963215856,-2,-2,-1,-1,-4,-13,4,-1
1537913963215856,-1,2,0,0,2,4,6,2
1537913963230815,1,-2,-3,1,-3,-11,-6,-2
1537913963230815,-2,1,1,0,-4,-2,-13,-4
1537913963232810,-3,-3,-1,-1,-3,0,4,-4
1537913963232810,1,1,-3,1,0,-6,-3,-1
1537913963253753,-2,1,-2,2,0,-2,0,-1
1537913963253753,0,-2,0,-3,1,4,-5,-2
1537913963254751,-1,-3,0,0,-3,1,0,2
1537913963254751,-1,-1,-1,-2,4,-18,-3,-3
1537913963267716,-2,0,-1,0,-2,27,8,-1
1537913963267716,0,0,-4,-6,-16,17,0,-1
1537913963275695,-3,1,-2,4,16,-8,-7,-3
1537913963275695,-2,-2,-1,-4,-20,-5,2,2
1537913963290655,0,-1,-3,-3,-2,-18,1,1
1537913963290655,-3,2,1,2,5,-21,-4,2
1537913963297636,0,-1,0,-3,-12,14,-2,-1
1537913963297636,0,-3,1,4,20,5,3,0
1537913963313594,-2,-2,-1,0,4,3,-1,2
1537913963313594,-3,-3,-1,-3,-6,3,-3,-2
1537913963314591,-1,-1,-1,0,6,-13,1,-3
1537913963314591,0,-2,0,0,-2,2,1,-1
1537913963327556,0,-1,-1,-1,-5,-1,-1,-2
1537913963327556,0,2,0,1,3,-3,-3,-1
1537913963336532,-2,-2,0,1,4,16,1,-1
1537913963336532,1,0,0,0,5,-7,1,2
1537913963350495,0,1,-2,-8,-24,-28,-3,-3
1537913963350495,0,-2,0,2,10,8,-3,1
1537913963357477,-1,0,0,0,-2,7,0,-1
1537913963357477,-1,-1,-4,-9,-29,0,-1,1
1537913963373434,0,0,0,2,11,-32,0,-1
1537913963373434,3,0,-1,-6,-9,50,3,0
1537913963375428,0,0,1,2,11,-9,0,-4
1537913963375428,-1,0,-2,0,9,0,-4,-3
1537913963396372,-3,-2,-1,-2,4,1,-4,-2
1537913963396372,0,1,1,1,-3,-5,-1,-1
1537913963397370,-1,-1,-2,1,-5,-5,2,0
1537913963397370,-1,-1,-1,0,2,8,0,-1
1537913963410335,-1,-4,-3,1,-4,5,0,0
1537913963410335,5,1,-1,-1,6,-25,-12,5
1537913963417316,0,-1,-5,-3,-12,14,0,-1
1537913963417316,-1,0,-3,3,20,0,-1,-1
1537913963433274,-1,-2,-1,1,3,-41,-3,-1
1537913963433274,-5,-2,0,-7,-12,9,-1,-2
1537913963435269,-1,-3,-2,-5,-17,-30,-3,-1
1537913963435269,0,-2,1,1,-4,6,0,0
1537913963456212,-1,-1,0,0,10,29,3,-1
1537913963456212,-2,0,2,2,16,-14,0,-2
1537913963457210,-1,-1,-3,-3,-9,23,1,2
1537913963457210,-1,0,1,0,9,-6,-3,-3
1537913963470175,1,0,0,2,7,19,-2,0
1537913963470175,0,-3,0,-3,-6,-10,-1,-3
1537913963477157,0,1,1,2,5,-1,0,0
1537913963477157,-2,-1,-1,0,-7,-12,-1,2
1537913963493114,0,0,1,-2,1,23,1,-1
1537913963493114,2,-1,-1,-1,-2,2,-2,3
1537913963495109,0,2,-1,1,-3,-17,3,1
1537913963495109,-4,-4,-1,3,6,3,-1,0
1537913963516052,-1,-1,0,-2,-8,3,-1,0
1537913963516052,-4,-2,-5,0,4,-21,-1,-6
1537913963518047,-2,-1,-3,0,7,1,-3,-2
1537913963518047,0,-2,-3,-5,-24,-11,0,-1
1537913963531012,-2,0,-1,5,30,10,-2,-3
1537913963531012,0,1,-3,-4,-44,3,3,1
1537913963533007,0,-1,-1,-1,-1,-8,0,0
1537913963533007,1,4,-1,0,0,4,0,-1
1537913963553951,2,0,-1,0,-3,-3,-3,0
1537913963553951,-2,-1,1,3,18,4,-1,-1
1537913963554949,-1,-3,-1,-7,-15,5,1,1
1537913963554949,-1,1,-1,-3,-1,3,-1,-1
1537913963575893,-1,-1,-1,1,-3,0,-1,0
1537913963575893,2,-2,1,2,5,0,-3,3
1537913963577888,0,-1,1,-1,1,-2,-2,-2
1537913963577888,1,-1,1,3,10,2,0,-3
1537913963590853,-2,-2,-1,-5,-16,-9,-1,-2
1537913963590853,-2,-1,0,1,2,-5,-1,-4
1537913963596838,1,-1,-2,-1,1,11,0,-2
1537913963596838,-1,-1,2,0,6,4,0,-1
1537913963613793,-1,-1,0,0,0,-5,2,0
1537913963613793,-1,-2,-1,-2,-1,2,-3,-1
1537913963614791,1,0,0,2,5,-7,-2,-2
1537913963614791,-1,-1,0,-2,-4,-2,0,-2
1537913963635734,1,-2,0,1,-4,1,-2,4
1537913963635734,1,0,-2,-2,6,-4,-3,5
1537913963635734,-3,-1,-2,-1,-3,-7,0,0
1537913963635734,-2,2,0,0,-6,-1,-4,-6
1537913963649697,-3,-3,0,-2,-7,-3,8,0
1537913963649697,2,1,0,1,4,5,-4,-1
1537913963657675,0,-2,-1,-1,-1,-8,2,-3
1537913963657675,0,-2,0,0,-1,0,-2,-5
1537913963672636,6,1,1,1,4,9,12,21
1537913963672636,-9,-5,-3,-3,5,3,-35,-32
1537913963673633,-4,-3,-1,-1,-7,-10,17,-9
1537913963673633,6,2,-2,0,19,22,32,58
1537913963695574,-13,2,1,5,0,-60,-44,-67
1537913963695574,-10,-7,-4,-9,-20,29,42,32
1537913963696571,-10,1,-2,4,54,69,-15,9
1537913963696571,38,9,4,1,-16,-25,-48,4
1537913963709536,5,1,4,18,41,21,12,3
1537913963709536,10,-4,-8,-9,24,-102,41,-13
1537913963717514,-12,-8,-14,-34,-73,-26,-51,3
1537913963717514,-32,-9,-7,-27,-63,-35,0,-41
1537913963732474,-4,3,0,0,-21,24,-23,64
1537913963732474,4,3,6,12,7,-113,-33,-66
1537913963733472,3,-1,5,33,81,106,33,23
1537913963733472,-8,-9,-7,-12,12,-48,-51,-81
1537913963755413,5,2,-3,-6,14,-14,8,42
1537913963755413,-9,-5,2,16,45,117,15,16
1537913963756411,11,1,6,25,-2,66,12,17
1537913963756411,-6,-2,-9,-29,-63,45,15,1
1537913963769376,-20,-3,-8,-19,-11,-88,3,-41
1537913963769376,6,-9,-6,-15,-39,54,-15,21
1537913963777354,-1,3,3,-1,10,-97,-11,-28
1537913963777354,2,8,11,35,76,-31,18,16
1537913963793311,13,4,-3,-10,-57,85,34,18
1537913963793311,-2,6,5,3,31,-6,-23,6
1537913963793311,-4,-7,0,2,48,54,-18,-20
1537913963793311,7,-1,-2,3,4,-14,6,8
1537913963816250,2,-3,8,17,58,79,-1,0
1537913963816250,5,1,-8,-8,-81,-110,-5,3
1537913963816250,-3,-5,-6,-28,-75,50,8,-13
1537913963816250,-5,-1,-1,7,7,42,-16,12
1537913963830213,-4,-5,-1,2,23,21,-2,-42
1537913963830213,1,6,13,34,78,88,13,32
1537913963838192,-6,-4,-5,-21,-27,-128,-8,-2
1537913963838192,6,-3,3,-2,59,95,7,14
1537913963853153,-8,-8,-10,-15,-21,-19,-3,-45
1537913963853153,-5,-5,-11,-36,-117,50,-8,-9
1537913963854150,2,12,10,23,103,-25,26,5
1537913963854150,-1,6,7,16,79,8,15,6
1537913963875093,-5,2,2,5,64,-24,5,2
1537913963875093,7,4,1,6,-19,127,16,16
1537913963876090,-2,-8,-9,-17,-32,27,14,-2
1537913963876090,-1,4,4,8,2,-36,7,-29
1537913963891051,7,0,0,-2,19,35,7,59
1537913963891051,-5,-1,4,8,84,10,-4,0
1537913963898032,9,0,2,5,-13,-48,8,8
1537913963898032,-6,-11,-16,-13,-67,14,4,1
1537913963912992,-11,-1,1,-6,38,9,7,-24
1537913963912992,11,5,11,18,101,24,-1,24
1537913963913990,2,-5,-1,-10,-53,10,-8,-4
1537913963913990,3,6,9,10,52,-65,-8,0
1537913963934933,-3,1,7,24,58,10,-28,-26
1537913963934933,-3,-5,-3,9,51,-99,-14,-3
1537913963935931,-1,-2,-18,-35,-72,85,4,1
1537913963935931,-4,0,10,12,92,41,5,6
1537913963949894,13,-1,-13,-20,-64,-7,24,12
1537913963949894,-18,-4,-8,-5,89,-54,-4,-43
1537913963957873,5,4,17,41,127,35,-6,6
1537913963957873,-8,-9,-21,-48,-128,-38,0,7
1537913963972832,-3,-1,3,6,-23,-34,-3,-5
1537913963972832,-11,1,4,3,-51,9,10,-13
1537913963973829,11,5,13,33,87,29,-14,6
1537913963973829,-3,-10,-17,-38,-70,-16,4,2
1537913963995771,-5,4,3,0,24,69,0,-13
1537913963995771,-3,1,-6,-1,29,-94,-14,-15
1537913963995771,1,0,1,1,-19,-38,-9,10
1537913963995771,-18,-9,-3,-6,6,60,1,-2
1537913964009733,13,4,8,18,51,25,-6,9
1537913964009733,6,-5,-17,-41,-128,34,7,3
1537913964017712,-6,0,6,14,127,86,4,-7
1537913964017712,5,-3,-12,-32,-101,-78,0,9
1537913964032672,-8,-4,1,16,41,69,-1,-16
1537913964032672,3,-7,-6,-18,-53,-45,-3,16
1537913964033670,4,2,-1,-15,-4,-84,3,1
1537913964033670,-8,-1,-1,1,-27,27,3,-21
1537913964055612,0,-2,7,10,57,-38,-12,4
1537913964055612,4,0,1,14,1,73,1,-5
1537913964056609,4,2,-12,-17,-116,-114,-9,12
1537913964056609,0,-1,9,29,127,52,-10,-3
1537913964069576,9,-2,-6,-16,-115,-113,-3,23
1537913964069576,-8,2,1,-9,-1,-50,-1,-15
1537913964077553,-5,-4,-8,-19,-51,59,12,-7
1537913964077553,7,6,8,24,3,-50,-1,12
1537913964092512,2,-3,-3,-4,-30,-23,-3,12
1537913964092512,2,2,-1,6,24,105,0,3
1537913964093509,-8,-1,-4,-17,-10,-32,1,-13
1537913964093509,6,4,6,19,78,-26,2,16
1537913964115450,-1,1,-2,-13,-77,101,4,-16
1537913964115450,0,-3,-4,-4,10,-102,1,3
1537913964116448,-9,-3,2,17,44,-17,-8,-20
1537913964116448,1,1,7,21,74,75,-6,-4
1537913964138389,-16,-12,-26,-60,-99,-128,-12,-5
1537913964138389,-1,1,0,0,23,49,-2,-20
1537913964139387,10,2,2,6,8,7,-5,26
1537913964139387,-4,-2,-2,2,16,-12,-5,-8
1537913964153349,-5,-6,-7,-11,-27,64,-4,-11
1537913964153349,3,-1,3,3,3,4,3,12
1537913964153349,-8,-10,-1,1,33,-12,-2,-6
1537913964153349,-1,0,-7,-24,-90,67,1,0
1537913964175292,9,6,6,12,31,-94,-5,10
1537913964175292,-6,-1,-5,-13,-28,79,4,-4
1537913964176290,-5,-5,-6,-7,-23,2,0,-11
1537913964176290,1,-1,4,12,11,3,-1,1
1537913964198230,4,2,1,9,42,20,0,5
1537913964198230,2,3,5,7,10,-5,5,10
1537913964199228,-3,2,2,5,9,-4,-8,-5
1537913964199228,11,2,1,9,39,-39,11,9
1537913964213190,-5,2,3,6,-5,-84,-2,5
1537913964213190,10,2,3,2,25,-61,-3,13
1537913964213190,-1,5,-3,-13,-16,39,3,-6
1537913964213190,-7,0,-2,-2,-20,-45,-1,-9
1537913964235132,8,1,5,9,63,51,2,-14
1537913964235132,1,0,5,6,9,-24,-3,6
1537913964236130,5,1,-1,5,-4,-22,1,7
1537913964236130,0,-1,-3,1,24,29,-1,-4
1537913964250091,-3,-2,-2,1,13,34,-6,0
1537913964250091,-9,-3,-1,-9,-31,-10,3,-6
1537913964258069,7,0,-2,-5,-29,-25,-12,7
1537913964258069,-8,-5,-5,-11,-35,-58,-10,-17
1537913964273029,6,-2,-12,-29,-85,125,20,12
1537913964273029,1,2,-2,0,41,37,6,-1
1537913964274027,-8,-3,-5,-11,-86,-69,-1,-7
1537913964274027,2,0,1,11,45,1,0,4
1537913964294970,-6,-1,1,3,22,-2,-10,-9
1537913964294970,-4,-2,1,11,32,39,-5,-7
1537913964295968,1,-1,-3,-4,2,22,6,5
1537913964295968,0,0,-1,5,-15,55,-1,-2
1537913964309930,-6,0,8,17,90,-68,-5,-6
1537913964309930,-6,-1,-10,-24,-65,11,-13,-2
1537913964317909,-6,-5,-7,-27,-32,-20,2,-9
1537913964317909,9,-2,-1,2,38,17,-10,15
1537913964340848,-2,-5,-10,-16,-60,-81,-2,-8
1537913964340848,-2,0,4,-2,46,16,-2,1
1537913964341845,-4,-2,4,10,23,42,3,-17
1537913964341845,-4,-1,-3,-11,-20,4,2,-5
1537913964355808,-3,3,1,11,1,48,7,-4
1537913964355808,4,2,4,14,13,-51,-7,-1
1537913964355808,-4,0,0,6,12,-4,2,3
1537913964355808,6,2,7,15,27,14,6,10
1537913964385728,2,-3,-8,-16,-60,-27,2,-3
1537913964385728,-7,-2,1,-7,-10,24,15,-7
1537913964386725,0,3,4,16,55,14,-6,-1
1537913964386725,3,4,6,17,3,-78,2,16
1537913964392709,-3,-6,-8,-20,-9,-28,-9,-18
1537913964392709,-7,-3,1,0,13,18,-7,-7
1537913964393707,4,-1,-5,-15,-85,-32,9,13
1537913964393707,-4,0,2,8,12,41,8,-9
1537913964415648,2,2,6,11,27,15,-3,8
1537913964415648,5,0,2,5,-10,-5,4,5
1537913964416645,8,0,1,15,72,17,-12,3
1537913964416645,-9,-5,-5,-15,-31,2,-7,-8
1537913964438586,-1,1,0,0,23,32,8,8
1537913964438586,-5,-4,-1,4,25,49,-3,-7
1537913964439584,13,4,4,6,-15,-42,-11,15
1537913964439584,0,-1,-6,-16,-50,54,16,5
1537913964452549,2,1,1,8,-1,40,3,12
1537913964452549,1,-2,-7,-6,-23,-77,-9,8
1537913964453546,1,3,2,9,22,-18,-2,-4
1537913964453546,-5,-2,2,3,36,46,-6,-13
1537913964476485,17,1,1,-1,19,14,-12,38
1537913964476485,-2,-2,-2,-3,-15,-19,3,-8
1537913964476485,-6,-2,-3,-6,9,10,6,-2
1537913964476485,-1,0,3,1,-1,26,-3,-1
1537913964498427,-8,-3,-4,-5,-46,-48,1,-16
1537913964498427,6,1,-2,-2,4,-27,-7,16
1537913964499424,-6,-7,-6,-11,-20,42,2,-6
1537913964499424,-2,-2,1,-1,1,-29,1,-7
1537913964513387,-3,0,-1,4,14,14,-1,-9
1537913964513387,0,3,-2,-2,-17,-16,0,-10
1537913964513387,2,0,2,4,-1,13,4,14
1537913964513387,-2,-2,-4,-4,16,-25,-5,0
1537913964536325,-5,2,3,8,25,-9,-6,-4
1537913964536325,-2,-3,-6,-7,-37,46,14,-5
1537913964536325,-3,-1,0,-1,9,-1,2,-3
1537913964536325,-1,2,-5,-2,-9,-34,-5,-1
1537913964558266,-3,-2,0,-2,21,-3,1,4
1537913964558266,4,0,1,1,-6,-17,-5,-3
1537913964559264,-2,-1,2,-3,-7,-6,-5,-8
1537913964559264,3,-1,-1,-8,-7,-4,0,4
1537913964573226,-2,-1,0,0,1,-2,-1,-8
1537913964573226,0,-1,1,1,18,3,-2,7
1537913964573226,-2,-1,0,2,1,8,2,-1
1537913964573226,1,0,-1,-5,-22,-16,-2,3
1537913964596165,0,1,2,9,12,17,-1,-4
1537913964596165,1,1,2,6,2,-8,-1,2
1537913964597163,-2,-1,-4,-3,0,1,-5,0
1537913964597163,-2,-1,-1,2,8,-7,-4,-4
1537913964618107,-1,-2,4,-1,-2,-1,-31,-2
1537913964618107,-5,1,0,-1,-2,8,49,8
1537913964619104,4,-1,-3,-1,2,-8,-11,-5
1537913964619104,-2,-1,-2,-2,-5,0,12,0
1537913964633067,-3,-2,0,-2,-3,8,4,-1
1537913964633067,-2,0,1,2,-1,-7,-12,-1
1537913964634065,-6,-2,4,1,6,5,-6,-4
1537913964634065,2,-14,-16,-6,-5,-5,-3,-1
1537913964655009,-11,3,-5,-3,0,1,4,-3
1537913964655009,-22,-10,20,5,7,-1,-6,2
1537913964656007,6,-11,0,-1,-1,0,8,-5
1537913964656007,9,17,-29,-6,-7,-4,-13,-5
1537913964678946,-7,-7,6,0,2,0,7,-2
1537913964678946,14,12,-8,1,-2,-1,-8,-4
1537913964678946,-2,10,18,0,0,-1,2,-1
1537913964678946,-4,-4,8,-3,-1,-5,4,4
1537913964693905,11,-1,-7,1,1,1,-1,0
1537913964693905,-11,6,4,2,-2,-4,-7,-3
1537913964694903,5,6,-6,0,-1,1,2,3
1537913964694903,11,-4,3,2,2,-2,1,-2
1537913964715846,-19,0,1,-2,1,2,6,2
1537913964715846,16,-11,-3,-1,-2,-2,-8,3
1537913964715846,-49,-15,-9,-2,-1,-3,-1,-10
1537913964715846,20,12,3,0,-1,-1,0,-1
1537913964738784,-2,6,6,-4,-4,-1,-1,-4
1537913964738784,3,0,0,-3,-2,-3,-3,-2
1537913964739782,-4,-6,-10,0,2,1,-3,-3
1537913964739782,10,1,14,1,-2,0,1,2
1537913964752747,-2,-8,-3,1,0,0,5,2
1537913964752747,11,3,-5,-1,0,-2,0,1
1537913964753744,10,-1,0,1,0,-3,2,0
1537913964753744,-28,-4,4,-1,-2,-3,-1,-7
1537913964775685,21,15,-3,0,0,0,0,3
1537913964775685,-8,-7,-6,-2,-1,-2,-2,-4
1537913964776683,5,1,-1,-2,-2,0,1,0
1537913964776683,-9,-7,1,0,2,0,1,-2
1537913964798624,-6,-9,2,3,1,0,1,-2
1537913964798624,-1,-2,-1,1,0,-3,-2,2
1537913964799622,6,5,0,0,0,0,-1,-1
1537913964799622,-3,-3,0,-2,0,-1,-1,-1
1537913964812587,-1,-3,-4,-2,-1,0,1,-2
1537913964812587,-1,2,-2,-3,-1,-1,0,1
1537913964813585,4,3,2,0,-3,1,-1,-1
1537913964813585,-6,-3,-1,-1,-2,0,-3,0
1537913964843506,2,1,2,0,-1,2,0,1
1537913964843506,0,-2,-2,0,-2,-1,-2,-2
1537913964844503,0,-1,-5,-2,2,1,1,-5
1537913964844503,-1,-4,0,-1,-1,0,-1,-5
1537913964858466,0,-1,-1,-1,0,1,-2,-2
1537913964858466,-4,-1,0,0,-1,0,-3,2
1537913964859464,0,-1,-1,0,-3,-1,-1,1
1537913964859464,-1,1,-1,2,-1,-1,-2,1
1537913964873426,1,-3,0,-2,-3,-1,0,-1
1537913964873426,0,-2,-2,0,1,-1,-1,-1
1537913964873426,0,2,3,-1,-1,1,0,-1
1537913964873426,-3,2,-1,-3,1,0,4,1
1537913964896364,-3,-5,-2,0,0,-2,-2,-2
1537913964896364,-1,1,-2,1,-1,-1,0,-1
1537913964896364,2,1,-1,-1,-2,-1,0,0
1537913964896364,-3,-2,-2,0,-1,0,0,0
1537913964918304,2,-4,-2,-1,0,-2,0,0
1537913964918304,-7,0,-1,-4,-1,0,-4,-6
1537913964919301,7,0,-3,0,-2,-1,1,6
1537913964919301,-1,0,0,-2,-4,-2,0,-2
1537913964932267,-1,1,1,1,0,-1,3,-1
1537913964932267,2,-3,-3,1,-4,-1,-2,-2
1537913964940245,-3,-2,1,1,0,-2,-3,-3
1537913964940245,1,0,-2,-2,-1,-1,-1,0
1537913964956203,1,-1,-3,-3,-2,-2,-2,-3
1537913964956203,3,1,-2,-1,0,2,1,-1
1537913964957200,-5,-3,-3,-1,-1,-3,-2,-2
1537913964957200,-1,1,-2,0,3,1,-2,2
1537913964978144,-3,0,-1,-2,1,0,-3,-1
1537913964978144,-1,-1,-1,0,-1,0,-1,1
1537913964979141,-1,-1,1,-1,-1,-1,-4,-2
1537913964979141,2,0,0,-1,0,0,-1,1
1537913964992107,1,-1,-2,-1,-2,-1,0,0
1537913964992107,1,0,1,1,0,0,1,3
1537913965000085,-4,0,-1,-1,-2,0,0,-3
1537913965000085,-4,-3,1,-1,-3,-2,-1,-2
1537913965016043,1,2,-1,-1,-1,0,-2,-1
1537913965016043,0,1,-3,-2,-2,-3,-3,-3
1537913965017040,1,0,-1,0,0,1,-1,-1
1537913965017040,-6,-1,-3,-3,0,-4,1,0
1537913965038983,3,-1,1,-1,1,0,0,3
1537913965038983,0,-1,-2,-2,0,1,0,0
1537913965038983,-1,-2,-1,0,-3,-1,0,2
1537913965038983,-12,-4,-2,0,-2,1,-4,-4
1537913965051948,12,6,1,-1,-2,-2,0,-4
1537913965051948,-1,-9,-3,0,-2,-4,0,-4
1537913965060925,15,-15,4,0,1,1,3,-1
1537913965060925,17,6,3,-2,-3,0,-3,0
1537913965075884,-4,-13,1,-1,-2,0,-2,-4
1537913965075884,-7,1,-2,0,-2,1,-4,-3
1537913965077880,-2,6,-2,-4,-2,-3,-3,-2
1537913965077880,-4,-6,-2,-2,0,-3,0,-1
1537913965098824,-1,-3,-1,2,0,0,-1,4
1537913965098824,11,-1,1,0,-1,0,1,6
1537913965099821,-4,1,-3,1,-1,1,0,0
1537913965099821,-6,-1,-1,-2,0,-1,0,-3
1537913965111789,0,9,1,-3,-2,-1,1,-3
1537913965111789,-7,-2,-2,0,0,-2,0,1
1537913965120763,-3,-1,0,0,0,-3,-1,1
1537913965120763,-6,-3,1,0,-1,-1,-3,-4
1537913965135723,5,3,0,1,-1,-1,0,1
1537913965135723,-4,-4,-2,-3,-2,0,-3,-1
1537913965142704,-4,1,0,-2,-2,-1,-2,-1
1537913965142704,10,-1,-1,0,-1,1,-3,2
1537913965158661,-4,-1,-1,-1,-3,0,-1,-1
1537913965158661,4,12,0,-1,-3,1,0,0
1537913965159659,-9,-16,-3,0,0,2,-2,1
1537913965159659,-5,3,1,3,-1,-1,-1,-2
1537913965172624,-9,10,-1,0,2,-2,-1,-2
1537913965172624,10,-7,1,-1,0,-2,1,1
1537913965181601,0,-18,-2,-1,-2,-1,-1,0
1537913965181601,10,32,2,1,2,3,3,6
1537913965195564,-11,-1,-3,-4,-3,-1,-6,-6
1537913965195564,0,4,1,1,1,-3,0,-2
1537913965202545,0,-2,-3,-2,0,-1,1,-4
1537913965202545,-2,-12,2,0,-1,-1,1,0
1537913965218503,4,1,1,1,-2,1,0,2
1537913965218503,-9,-4,0,-2,0,0,-2,-3
1537913965220497,0,10,0,0,1,-1,1,2
1537913965220497,-3,-4,-3,-2,0,-1,-2,-3
1537913965232466,-3,-3,-1,0,0,-3,0,2
1537913965232466,-7,-8,-3,1,-2,0,-2,-1
1537913965241443,9,16,1,-1,1,0,0,1
1537913965241443,-9,-21,-4,-3,-1,-4,-1,-1
1537913965255404,0,-4,-6,0,2,-1,0,-3
1537913965255404,0,2,2,0,-2,1,-1,2
1537913965262388,-2,4,-2,2,-1,0,-1,-2
1537913965262388,-1,15,0,-3,-3,0,-2,-3
1537913965278343,16,-28,3,3,1,3,2,8
1537913965278343,-14,25,1,-4,-3,-3,-4,-10
1537913965280338,-20,-1,-4,-2,-1,-3,-1,-2
1537913965280338,-4,1,-5,1,1,-1,-1,-5
1537913965301283,-3,-22,2,0,-3,-1,0,0
1537913965301283,1,21,-4,0,2,0,4,4
1537913965302280,-4,-23,-2,-4,-1,1,-2,-3
1537913965302280,6,-10,1,2,0,-3,0,0
1537913965316241,15,20,-1,0,0,-2,1,6
1537913965316241,-11,-14,-2,-1,-1,-4,-4,-5
1537913965317239,2,6,1,-1,0,1,1,3
1537913965317239,1,1,-3,-1,-3,-1,-1,3
1537913965338182,-1,-13,1,-1,-2,2,-4,-5
1537913965338182,-5,2,1,-2,-2,1,-4,-2
1537913965340177,20,-7,-1,1,0,0,2,1
1537913965340177,-10,20,2,-1,-2,1,0,-2
1537913965361120,29,13,3,1,1,1,0,-8
1537913965361120,-5,7,-4,0,1,2,-1,-1
1537913965362118,0,3,-1,-1,-3,2,-2,-5
1537913965362118,11,10,1,-1,0,0,0,1
1537913965375083,-20,-7,3,-5,2,1,-2,-2
1537913965375083,-11,-34,-5,0,1,1,3,2
1537913965382065,-9,7,1,-4,-6,-2,-3,-8
1537913965382065,7,-5,1,2,0,-1,-2,-1
1537913965399019,-27,19,4,-3,-2,-1,-3,-3
1537913965399019,53,30,-6,0,1,-1,0,0
1537913965400018,-19,-12,-2,-5,-2,-3,-4,-5
1537913965400018,9,-4,7,0,3,2,2,6
1537913965428940,-19,3,-7,-1,-2,3,0,5
1537913965428940,-1,-7,4,1,-1,0,0,5
1537913965429937,1,0,-5,2,-1,2,2,4
1537913965429937,-37,-14,0,10,-4,1,-2,-8
1537913965434923,7,4,-4,7,0,0,1,-2
1537913965434923,-3,-12,-1,6,-3,0,1,-1
1537913965449883,2,11,2,2,0,2,2,0
1537913965449883,6,-23,-10,-12,-2,-2,-4,-2
1537913965458859,-7,0,-2,-6,-1,-1,1,-1
1537913965458859,1,3,4,-7,-1,2,-1,-3
1537913965459856,-3,21,1,-6,-3,0,1,1
1537913965459856,-3,-28,6,-5,1,3,4,6
1537913965480800,1,-15,-11,-6,-2,-4,-7,-8
1537913965480800,9,-11,-3,-5,-1,-4,0,-3
1537913965482795,-11,-10,3,1,-1,-5,-2,1
1537913965482795,13,5,-1,-2,-2,-7,-2,-1
1537913965495761,-3,-7,1,2,0,-3,2,4
1537913965495761,1,-11,4,0,-1,-3,0,-1
1537913965501744,11,12,-3,1,-3,-2,-1,1
1537913965501744,-7,0,-6,-3,-2,-4,-2,-5
1537913965518699,-2,5,3,-1,0,-3,0,-6
1537913965518699,-6,0,1,0,-1,-3,0,1
1537913965519697,5,0,-3,1,2,-4,-1,-1
1537913965519697,5,9,-2,-2,0,-2,-2,-3
1537913965540640,-1,2,1,2,-1,-5,1,1
1537913965540640,-4,-1,-3,-1,-1,-3,-4,0
1537913965542635,-2,2,0,0,-2,-6,-2,-3
1537913965542635,2,1,-2,-1,0,-3,1,0
1537913965555600,-3,2,-2,-3,0,-4,0,-3
1537913965555600,-8,-12,-4,0,0,-2,0,-2
1537913965562582,-1,-6,-1,0,-2,0,1,1
1537913965562582,0,3,-4,1,-2,-3,-4,-7
1537913965578540,-6,40,3,0,-3,-2,2,6
1537913965578540,-19,-55,-4,-6,-2,-3,-1,-3
1537913965579536,-5,-2,-2,-3,0,-2,-4,-7
1537913965579536,7,1,0,2,1,-1,2,4
1537913965601478,0,-13,-2,-1,-3,0,-2,-1
1537913965601478,10,12,2,0,-1,0,-2,1
1537913965602475,19,2,-2,-1,2,-1,0,3
1537913965602475,-31,-40,-4,-1,1,1,1,0
1537913965615440,2,-5,-1,0,-3,0,-3,0
1537913965615440,-3,11,-2,-3,-2,-2,0,0
1537913965622422,2,-10,-2,-2,-1,-1,-2,2
1537913965622422,8,17,-1,0,-2,1,-1,1
1537913965638379,0,-7,0,-1,-2,-1,-1,-1
1537913965638379,-3,1,0,0,-1,1,-2,-3
1537913965640374,-7,4,-1,-1,0,0,2,1
1537913965640374,2,1,0,-2,-1,-1,-2,1
1537913965661319,0,-7,-3,-1,-2,1,-1,-3
1537913965661319,-3,12,2,3,-3,-1,-1,-1
1537913965662316,2,-7,-1,-2,0,0,-1,0
1537913965662316,3,5,0,2,-1,0,-1,-1
1537913965675282,0,-8,-2,-2,-2,-3,-3,-4
1537913965675282,2,7,1,-2,0,-3,-2,1
1537913965682263,1,-3,0,0,-1,1,0,-1
1537913965682263,-3,0,2,-2,-2,0,0,-3
1537913965698221,2,3,1,0,0,-1,-3,0
1537913965698221,-3,-2,-5,-3,-2,-3,-2,-1
1537913965700217,0,-2,-2,0,1,-1,0,-3
1537913965700217,-1,4,-1,-1,-2,0,-1,-3
1537913965721160,1,-4,0,-1,0,1,-1,-2
1537913965721160,1,3,-1,1,-1,0,-2,-2
1537913965722159,-1,-7,-1,-1,-2,0,-2,0
1537913965722159,2,3,0,-1,0,-2,-3,-1
1537913965735122,-1,-2,-1,-1,0,-1,-1,3
1537913965735122,0,-1,-1,-2,-1,1,-1,-1
1537913965742104,-1,3,2,-1,-1,-1,-1,-2
1537913965742104,-2,1,1,-2,-3,2,0,0
1537913965758059,2,-4,-1,-2,-4,-3,1,-2
1537913965758059,-1,3,1,3,6,6,2,0
1537913965760054,-1,-3,0,0,0,-1,0,0
1537913965760054,0,0,-1,1,3,0,0,-2
1537913965780998,-1,0,2,5,12,8,1,-1
1537913965780998,-2,0,0,2,23,-11,-5,-4
1537913965781995,4,0,-1,-3,-17,-5,0,3
1537913965781995,-3,-3,-3,-7,-26,-26,-4,-3
1537913965794960,-4,0,0,2,2,-28,-8,-3
1537913965794960,-1,-2,-9,-22,-47,23,3,-1
1537913965803937,-3,0,2,-1,-9,41,0,-2
1537913965803937,0,-1,-4,-3,-27,-83,-3,-2
1537913965818897,-1,-1,2,10,48,71,1,-7
1537913965818897,3,4,6,6,-6,-37,-9,3
1537913965819894,-4,-2,-7,-10,9,63,-2,-6
1537913965819894,-2,0,-1,3,17,-41,-7,-4
1537913965841835,-1,3,1,0,-16,11,-4,7
1537913965841835,4,4,4,6,-8,-53,11,6
1537913965846822,-2,-1,1,9,52,-42,-14,-3
1537913965846822,6,-2,-2,-21,-77,32,10,6
1537913965854801,-5,-5,-1,0,-29,-11,2,-1
1537913965854801,-1,-3,0,10,20,-5,-2,-4
1537913965863778,0,-1,-3,-4,39,-58,-7,-7
1537913965863778,-12,0,4,17,46,-36,5,-2
1537913965878738,21,6,3,-3,-48,71,3,14
1537913965878738,-9,-5,-15,-34,39,108,5,-13
1537913965879737,-3,0,7,13,-15,-51,-2,-1
1537913965879737,2,2,1,12,60,-6,-1,-3
1537913965900680,-3,-2,-6,-13,-54,-100,-4,-31
1537913965900680,-5,3,11,27,67,-81,-15,27
1537913965902675,1,-6,-13,-25,-85,45,15,-3
1537913965902675,-2,1,2,11,71,-43,-13,-36
1537913965923619,-2,2,7,21,98,-17,-7,-2
1537913965923619,-1,-8,-18,-46,-100,-85,9,-15
1537913965924617,-4,2,-1,2,36,50,11,20
1537913965924617,6,3,13,25,90,66,-18,24
1537913965938577,-8,-9,-12,-23,-34,-111,-9,-21
1537913965938577,1,0,1,-6,-103,0,9,-11
1537913965939575,-5,-3,5,11,44,-22,-21,-2
1537913965939575,3,-5,-14,-40,-128,25,25,1
1537913965961516,7,5,10,28,127,-15,-8,31
1537913965961516,-11,-1,-4,-3,3,-17,2,10
1537913965962514,5,0,0,-4,-50,2,17,5
1537913965962514,-1,2,7,18,92,67,-5,3
1537913965974482,8,0,0,-5,-16,92,11,5
1537913965974482,-2,-6,-8,-12,-53,-15,-10,6
1537913965983457,5,5,7,7,-25,84,20,9
1537913965983457,-6,-4,-9,-22,-75,13,-1,-7
1537913965997419,-5,0,-1,5,51,-12,-2,6
1537913965997419,8,5,6,21,127,122,10,-2
1537913966006396,2,4,6,12,35,-72,-7,-3
1537913966006396,0,-1,-1,-1,-5,-16,-7,7
1537913966021355,-5,0,-5,-7,-9,75,12,0
1537913966021355,13,8,11,27,31,11,9,18
1537913966022353,-8,-7,-9,-18,-4,-78,-16,-37
1537913966022353,-3,1,-1,-9,-14,-3,12,-16
1537913966043297,-11,-5,-5,-2,52,20,-12,-18
1537913966043297,1,0,0,-1,-20,-92,-8,-10
1537913966045292,-5,-1,-3,-6,-14,-15,0,3
1537913966045292,2,2,4,11,85,78,-2,7
1537913966058257,-2,0,7,7,-9,-106,-21,6
1537913966058257,-2,-5,-7,-16,-72,-1,-5,3
1537913966060253,-2,-3,-6,-5,-5,15,-1,5
1537913966060253,3,1,-1,7,47,-44,-12,7
1537913966081196,-4,-3,-4,-10,-14,119,19,1
1537913966081196,-5,-2,-6,-17,-79,-65,0,-6
1537913966082194,3,0,-2,-2,32,0,-5,0
1537913966082194,0,-1,3,4,17,38,4,8
1537913966095158,-2,-2,-3,-5,-2,12,-1,-1
1537913966095158,0,0,0,0,-25,11,-2,-4
1537913966103137,-7,-3,5,12,19,55,-7,-4
1537913966103137,4,-2,-10,-21,-83,-53,15,7
1537913966118098,3,3,0,-2,-4,-128,-3,2
1537913966118098,-1,0,5,15,87,122,1,-6
1537913966120092,-1,-3,-3,-3,10,-44,-5,-2
1537913966120092,-2,-1,2,8,-3,3,-1,-1
1537913966141037,0,-1,-2,0,3,-6,-2,-9
1537913966141037,-2,-1,1,5,75,56,-4,-3
1537913966142034,-3,0,6,15,72,21,-9,6
1537913966142034,9,-1,-6,-21,-92,-23,-2,-1
1537913966154998,0,-1,-1,-8,-29,6,7,2
1537913966154998,-1,-3,-1,-6,-28,58,-1,2
1537913966163975,0,-2,-1,-2,12,-22,-2,-7
1537913966163975,-2,0,1,5,15,1,0,-1
1537913966177937,-1,-1,-1,-1,4,27,-1,1
1537913966177937,4,3,0,2,-23,-14,4,-2
1537913966184919,1,2,10,25,93,30,-11,0
1537913966184919,-8,-13,-23,-60,-104,-12,16,-6
1537913966200876,1,3,1,5,72,7,4,4
1537913966200876,-4,3,10,24,127,61,-14,0
1537913966202871,-3,-5,-18,-38,-98,-111,6,-10
1537913966202871,-1,3,7,17,62,7,-6,-4
1537913966214839,-3,-1,-2,-4,-30,0,2,-8
1537913966214839,-4,-3,-1,4,27,-10,-6,-8
1537913966223816,1,3,12,31,96,77,-3,2
1537913966223816,1,-1,-3,-6,-80,-97,-18,1
1537913966238776,-4,-4,-4,-9,-4,96,4,-6
1537913966238776,-3,-1,4,15,56,-79,-6,-2
1537913966239774,6,0,-3,-3,1,-57,-5,2
1537913966239774,-7,-1,-3,2,9,-47,4,-4
1537913966260718,3,0,5,18,67,-128,-2,3
1537913966260718,-2,-4,-2,-13,-37,50,3,-4
1537913966262714,1,2,-2,-2,4,57,6,5
1537913966262714,-2,0,6,18,76,36,-11,3
1537913966283654,5,1,-4,-9,-88,-106,3,4
1537913966283654,5,2,1,3,23,-27,-2,4
1537913966284652,-6,-7,-17,-43,-128,-117,4,-7
1537913966284652,-3,0,12,30,114,110,-13,-1
1537913966298614,-3,-6,-12,-21,-64,-42,1,-3
1537913966298614,1,0,0,0,42,-8,-4,0
1537913966299612,-1,-3,-5,-9,-58,-62,-1,2
1537913966299612,0,4,2,13,55,64,8,2
1537913966320555,6,2,-7,11,42,-32,-8,2
1537913966320555,-10,-5,-17,-19,-26,-32,-4,-9
1537913966322550,13,6,-2,8,23,12,4,6
1537913966322550,-3,-3,2,5,60,-55,-7,-10
1537913966343494,-6,-5,8,9,43,-13,-5,2
1537913966343494,8,2,-1,0,15,-3,15,6
1537913966345489,-1,4,6,8,74,-8,1,0
1537913966345489,-7,-2,-2,-5,-11,-45,-3,-8
1537913966357457,4,-4,-5,-22,-72,127,13,1
1537913966357457,-5,3,8,18,72,60,-2,-1
1537913966366433,-4,-2,1,-7,-52,-50,-4,-2
1537913966366433,0,-4,-4,-13,-72,-22,3,0
1537913966381393,-9,-4,1,1,18,114,-5,-6
1537913966381393,-2,-1,-2,-8,-56,-54,0,1
1537913966382390,0,-2,-6,-13,-67,11,12,-5
1537913966382390,2,-1,2,-5,-13,-31,1,4
1537913966403336,-3,4,5,5,-1,8,-4,-6
1537913966403336,-1,-1,3,8,62,-65,-9,2
1537913966405331,-7,-6,-13,-28,-60,-50,-4,-11
1537913966405331,0,2,3,16,105,52,-8,-2
1537913966418294,2,-1,-3,-12,-48,-27,12,2
1537913966418294,-2,1,1,6,32,-21,-13,-7
1537913966424278,-9,-5,-1,9,40,100,-6,-5
1537913966424278,2,-2,-8,-8,1,18,7,1
1537913966448214,-3,-2,-1,0,-25,-81,-20,-7
1537913966448214,3,-2,-3,-3,-21,39,3,2
1537913966450209,5,-2,0,-7,-40,-25,0,3
1537913966450209,-4,2,2,-1,-22,-10,3,-2
1537913966463174,2,2,6,8,36,52,8,6
1537913966463174,-2,-4,-3,-10,-56,-38,6,0
1537913966465169,0,4,14,33,119,127,-2,0
1537913966465169,2,-6,-9,-31,-104,-105,-1,4
1537913966478135,1,0,-1,-5,60,2,-5,-2
1537913966478135,-3,-1,-4,-17,-70,-18,7,-5
1537913966485116,0,0,5,11,53,82,3,3
1537913966485116,-2,0,1,3,-12,23,-3,-1
1537913966501073,-2,-5,1,1,-9,-5,1,-1
1537913966501073,0,-1,2,-1,14,71,4,-2
1537913966502071,0,-1,3,9,52,41,-6,-2
1537913966502071,-1,-3,-2,-2,-18,-9,-8,-1
1537913966523014,-1,1,-7,-12,-11,92,11,2
1537913966523014,0,-1,3,7,16,14,-4,-3
1537913966525009,-2,0,1,3,0,-28,4,2
1537913966525009,6,2,3,6,17,44,12,8
1537913966536977,-4,-3,0,-4,37,-47,-9,-7
1537913966536977,0,-1,1,-1,-21,-34,-4,-1
1537913966545954,2,3,1,2,35,15,7,5
1537913966545954,-1,-1,1,0,7,25,2,-3
1537913966560913,-3,1,3,14,28,8,-7,-2
1537913966560913,1,-2,-4,-11,-25,-23,-5,-1
1537913966562908,1,-1,-11,-27,-104,-98,14,6
1537913966562908,-1,1,3,6,41,2,3,-3
1537913966583852,-4,-1,8,22,94,32,-17,-6
1537913966583852,-4,-6,-12,-30,-80,-49,4,-3
1537913966584849,-3,-1,-1,0,35,-52,-13,-6
1537913966584849,-6,-4,4,12,82,84,-6,-5
1537913966596817,0,-3,-13,-33,-113,-128,0,-5
1537913966596817,3,3,4,15,57,77,-1,2
1537913966605793,2,0,1,3,10,4,-6,-2
1537913966605793,2,5,2,6,21,69,11,5
1537913966620753,1,2,8,21,43,17,-6,-1
1537913966620753,-1,-2,2,4,-46,98,5,3
1537913966622748,-2,-6,-13,-36,-118,-100,10,-1
1537913966622748,-4,-1,2,9,89,49,-7,-9
1537913966643693,7,5,-8,-19,-128,20,16,6
1537913966643693,-2,2,-3,-4,-1,-21,1,0
1537913966644690,1,5,21,49,127,112,-4,6
1537913966644690,5,-5,-22,-58,-128,-10,32,11
1537913966657655,-3,0,0,-3,73,-6,1,-4
1537913966657655,-1,0,4,14,127,56,-2,-8
1537913966665634,4,1,-2,-9,-23,11,15,11
1537913966665634,-3,-2,-6,-2,-60,-108,-11,-8
1537913966680595,-2,-2,3,7,28,41,2,0
1537913966680595,2,-2,0,-1,26,70,6,6
1537913966682591,-7,-8,-11,-27,-49,-72,-6,-14
1537913966682591,-2,2,10,29,121,5,-23,-5
1537913966703533,4,-6,-17,-45,-107,-45,22,8
1537913966703533,-9,1,4,5,2,-25,-5,-9
1537913966704532,5,-1,1,12,12,86,-1,4
1537913966704532,1,-3,-6,-16,-98,-82,8,5
1537913966717496,-5,1,8,28,121,103,-13,-1
1537913966717496,11,8,4,13,49,-40,4,15
1537913966726473,-10,-5,-12,-21,-68,-45,0,-10
1537913966726473,3,5,7,17,62,-12,-8,1
1537913966741433,8,1,9,23,50,10,0,11
1537913966741433,2,-2,-1,-3,10,49,-1,2
1537913966742431,-5,2,0,5,48,52,-6,-9
1537913966742431,5,1,1,5,2,70,-7,15
1537913966763373,4,-1,13,42,90,50,-13,13
1537913966763373,-10,-11,-19,-44,-97,-40,10,-13
1537913966765367,-2,4,10,21,126,62,-16,-5
1537913966765367,-8,-9,-7,-15,-30,18,1,-18
1537913966777335,3,7,12,26,89,9,-12,0
1537913966777335,3,1,-1,2,-60,-77,-13,4
1537913966792294,-3,-2,-2,-3,24,-4,-2,3
1537913966792294,-5,0,4,9,27,-16,-6,-8
1537913966801271,0,0,-1,2,27,38,1,3
1537913966801271,0,2,13,32,111,-14,-10,-4
1537913966802268,0,-2,-5,-11,-79,-73,-1,-3
1537913966802268,1,1,1,8,36,-5,-3,0
1537913966823212,-4,-2,-2,-10,1,-58,-16,-7
1537913966823212,-2,0,-7,-7,19,-46,0,-5
1537913966825207,-3,-4,-6,-11,-66,-20,1,-7
1537913966825207,3,3,1,4,9,55,8,1
1537913966837175,1,-1,-5,-9,-43,4,3,-6
1537913966837175,-3,-4,-2,1,-5,-43,-3,-1
1537913966854130,-1,-1,0,6,32,-60,-4,1
1537913966854130,-2,-3,-4,-7,-37,-34,-11,-5
1537913966861112,-1,-3,-8,-21,-69,-41,4,-6
1537913966861112,-2,-1,-4,-16,-97,33,7,-4
1537913966863107,3,0,-1,3,7,5,2,4
1537913966863107,-2,-1,0,1,21,35,-1,-3
1537913966884050,-3,-3,-4,-9,-23,-11,5,-2
1537913966884050,1,0,-1,-1,-4,-14,-4,4
1537913966885052,0,3,2,10,22,14,-4,3
1537913966885052,-2,-2,-3,-3,-12,-30,-1,-1
1537913966897016,-2,-3,-4,-12,-23,1,1,0
1537913966897016,-2,-1,-1,-1,10,-24,-4,0
1537913966913972,-3,0,0,-3,10,26,1,0
1537913966913972,-3,0,0,-4,1,2,2,-2
1537913966920952,-1,-5,-7,-7,-35,-10,0,-4
1537913966920952,0,-4,0,1,18,24,-2,0
1537913966922947,-2,2,1,4,7,13,0,2
1537913966922947,-5,0,0,-3,-6,-17,0,-2
1537913966943891,-3,1,1,-4,-13,-13,2,-3
1537913966943891,0,-5,0,2,4,-1,0,-2
1537913966944889,5,-3,-1,0,5,3,0,0
1537913966944889,0,0,-1,1,9,-2,-2,2
1537913966956855,-3,0,-5,-10,-17,-1,1,-1
1537913966956855,-2,3,0,2,13,8,-1,-3
1537913966965831,1,-1,-1,0,5,12,0,-1
1537913966965831,2,1,-2,-1,-5,2,-2,0
1537913966980792,-2,3,-4,-2,-14,-7,1,-5
1537913966980792,-1,-6,0,-1,4,1,0,-1
1537913966982786,2,-9,-1,1,6,3,-1,-1
1537913966982786,4,5,-1,-2,-4,-8,1,-5
1537913967003729,-3,-1,-3,-1,-12,-7,-3,-1
1537913967003729,17,-1,3,1,9,1,-3,1
1537913967004727,-76,-50,-3,-1,0,6,0,-3
1537913967004727,24,-18,-10,-3,-3,0,-3,-1
1537913967016695,-4,2,6,-4,-8,-4,-1,-1
1537913967016695,10,14,-5,0,2,5,-2,-2
1537913967025671,37,9,0,-2,0,-1,-3,1
1537913967025671,-48,4,9,-1,-1,-3,3,-4
1537913967041628,-14,-16,-16,-3,-5,-5,-3,-7
1537913967041628,15,-3,1,3,0,-3,0,3
1537913967047612,25,14,11,8,3,3,4,3
1537913967047612,-55,-34,-10,-10,-2,-7,-6,-9
1537913967063570,19,31,7,0,-4,-3,-1,1
1537913967063570,-2,39,0,2,5,4,4,10
1537913967064567,-21,-32,-3,-6,-6,-2,-6,-6
1537913967064567,21,37,-1,5,2,1,2,16
1537913967077533,21,17,6,-1,-1,-1,1,-2
1537913967077533,-43,-78,6,-5,-7,-5,-7,-11
1537913967086509,13,68,-19,4,10,6,3,18
1537913967086509,36,7,18,4,-6,-6,-5,2
1537913967100473,-11,-24,-37,-5,0,-1,0,4
1537913967100473,-19,-15,-3,0,-1,-2,-2,-5
1537913967107453,19,-55,-31,-16,-4,1,1,-5
1537913967107453,34,-23,40,1,-6,-6,-4,-6
1537913967123412,7,-6,-21,6,-2,0,1,2
1537913967123412,4,76,43,16,12,2,4,-1
1537913967125407,-16,-12,25,4,-6,-2,-3,3
1537913967125407,-10,-28,-24,-8,-6,-6,-5,-16
1537913967137373,-6,-36,26,1,4,3,1,-4
1537913967137373,-15,-21,-8,-5,1,0,1,3
1537913967146349,18,59,-5,3,6,2,1,2
1537913967146349,-19,10,13,18,53,8,8,18
1537913967161309,13,41,3,11,71,4,-3,-9
1537913967161309,-15,-14,-21,29,31,2,-8,-13
1537913967168292,-6,0,120,27,21,12,-7,-9
1537913967168292,32,-59,98,-1,-32,20,0,4
1537913967183249,-13,-66,127,-6,-35,39,-1,0
1537913967183249,-38,79,-92,-37,-21,64,6,5
1537913967185245,-5,5,-125,-37,-28,108,-2,-3
1537913967185245,2,30,-128,-18,-11,127,9,6
1537913967206188,37,-8,-128,-18,-24,86,3,9
1537913967206188,15,8,-75,-8,-21,-6,-1,2
1537913967207185,9,-2,68,9,-12,-69,7,5
1537913967207185,-47,24,85,2,-9,-112,1,-7
1537913967220151,28,31,127,4,-15,-95,1,-4
1537913967220151,10,-25,127,3,-10,-71,3,-1
1537913967227132,9,-9,75,-1,4,-63,-2,-3
1537913967227132,17,22,65,2,-2,-49,-7,3
1537913967243089,-39,2,39,3,-5,-41,-6,7
1537913967243089,30,-6,63,4,4,-27,-5,12
1537913967245084,2,4,30,-3,-1,-26,-2,3
1537913967245084,25,7,-9,-3,-1,-16,1,1
1537913967266028,-31,-16,-47,0,-3,-20,0,6
1537913967266028,-1,-14,-20,-7,0,-9,1,-5
1537913967267026,0,21,9,4,1,-5,4,-3
1537913967267026,9,-30,-4,3,-1,-4,1,-1
1537913967279992,-19,-21,0,-2,-2,-5,2,-6
1537913967279992,2,-1,17,0,1,5,1,-8
1537913967286972,-5,6,-13,0,-2,4,0,-9
1537913967286972,-32,-14,-17,-2,1,3,-2,-11
1537913967303928,-14,-8,-3,-3,-3,-1,-2,-12
1537913967303928,24,-16,-3,-2,-1,6,-2,0
1537913967304926,-7,-5,-12,0,0,4,-2,-7
1537913967304926,-12,11,-17,0,-1,2,-4,-6
1537913967325870,-8,-7,1,-2,-2,1,-2,-3
1537913967325870,-13,-25,4,0,2,3,-1,-3
1537913967327865,-3,26,-13,-1,0,3,-1,-4
1537913967327865,-8,-3,-7,0,-1,5,0,-1
1537913967340829,12,16,0,0,-3,2,-1,-3
1537913967340829,0,-8,6,0,-1,7,-3,-2
1537913967346814,3,-9,-11,-6,-1,4,-2,1
1537913967346814,-6,5,-3,-2,1,4,-2,2
1537913967363769,8,17,-4,0,0,2,0,1
1537913967363769,-8,-1,4,1,1,4,-2,-2
1537913967364766,-7,-14,-6,0,0,3,-2,-2
1537913967364766,4,5,-4,-2,-4,2,-2,-5
1537913967385709,-1,3,-4,-3,-2,2,-1,0
1537913967385709,10,-2,2,-2,-1,2,-4,-1
1537913967387703,-6,-9,-5,-2,0,1,-2,-4
1537913967387703,8,4,-4,0,1,2,-1,-1
1537913967399671,1,8,2,2,1,-1,1,4
1537913967399671,-9,-4,1,-2,1,3,0,-3
1537913967408647,1,-3,-1,0,-2,3,-1,0
1537913967408647,0,6,-2,-4,0,1,1,-1
1537913967423607,-1,2,0,1,-1,3,0,0
1537913967423607,-1,2,2,-1,-1,2,-2,1
1537913967424604,-4,-7,-6,1,2,3,0,1
1537913967424604,6,4,-2,0,2,1,0,0
1537913967445549,-4,1,-1,-1,-3,0,-1,-3
1537913967445549,3,-1,1,-2,0,2,-1,2
1537913967447543,0,-1,0,0,-1,2,-1,-1
1537913967447543,-6,-4,-1,-1,-3,-1,-1,-4
1537913967459511,-19,3,-2,-1,-1,0,-1,2
1537913967459511,0,0,2,0,-1,2,-2,0
1537913967468487,-1,-5,-1,-4,0,-2,-2,3
1537913967468487,6,4,-3,0,0,-1,-1,1
1537913967483447,-4,1,-1,-1,1,2,-1,-2
1537913967483447,-1,-2,1,-1,2,-1,0,0
1537913967485442,-2,-7,-1,-1,-1,1,1,-1
1537913967485442,-3,-2,-2,-1,0,-1,-1,-2
1537913967506387,5,1,-1,0,0,-1,-1,1
1537913967506387,-6,-3,-1,0,-2,-1,-2,-2
1537913967507384,1,-1,-4,-1,0,0,-1,1
1537913967507384,-1,-1,0,-2,-2,-2,0,-2
1537913967519351,3,0,0,0,-1,0,-1,-2
1537913967519351,4,1,0,0,-2,1,0,-1
1537913967528327,-6,-2,-1,1,-3,0,-1,-1
1537913967528327,2,0,-1,1,-1,2,-1,1
1537913967543287,4,0,-1,-2,-1,-1,1,0
1537913967543287,-6,-1,0,-3,-1,-1,-1,-4
1537913967545282,0,-1,-2,-1,0,0,-1,-1
1537913967545282,-1,0,0,1,2,-1,-1,-1
1537913967566227,2,-2,-2,0,-1,-2,0,-2
1537913967566227,0,0,0,-1,-2,-1,-2,0
1537913967567223,0,-2,-3,-1,0,-1,-2,-2
1537913967567223,0,0,-2,-3,-1,1,0,1
1537913967579191,0,1,-1,0,0,-1,-2,0
1537913967579191,0,2,-1,-2,-2,0,1,-1
1537913967588167,1,0,1,-1,-3,-2,0,0
1537913967588167,-6,-3,-2,0,1,-3,-1,-2
1537913967603127,1,0,-3,-2,-2,-1,-1,1
1537913967603127,0,-2,0,-1,-3,0,0,0
1537913967605122,0,-2,0,1,0,-1,0,0
1537913967605122,2,0,0,-1,1,0,0,-2
1537913967626065,1,0,-2,0,0,0,-2,-1
1537913967626065,0,0,-2,1,2,0,1,0
1537913967627063,-2,-1,-2,-4,-2,-4,1,-1
1537913967627063,2,0,-2,2,-3,-1,0,-2
1537913967640028,0,-2,1,0,-1,0,-2,0
1537913967640028,0,-3,-3,-2,0,-1,-1,-1
1537913967649004,-1,-1,0,1,-1,-1,-2,-1
1537913967649004,-1,-1,0,-3,-1,-1,-5,0
1537913967662967,0,0,0,-1,-2,0,-1,-1
1537913967662967,-1,-2,0,1,-2,1,-1,0
1537913967669948,-1,0,-1,-2,-1,2,0,-3
1537913967669948,-2,0,2,-2,0,-2,0,-1
1537913967685905,-2,1,-1,0,0,-1,0,-1
1537913967685905,0,0,-1,1,-1,-2,-1,-1
1537913967687900,-1,-3,-2,-1,0,0,0,0
1537913967687900,0,0,1,0,-5,-8,-1,1
1537913967699868,0,-1,0,-2,1,-3,-3,-1
1537913967699868,0,1,0,1,7,3,1,1
1537913967708845,0,-1,0,-1,-10,2,-1,0
1537913967708845,-1,-1,-2,-1,0,-1,-3,-2
1537913967723805,-2,-2,0,-2,-12,-14,-2,-2
1537913967723805,-1,-1,-1,1,4,-8,-4,1
1537913967724804,0,-1,-1,1,-1,0,-2,-1
1537913967724804,-2,1,-2,-1,16,15,-1,0
1537913967745750,-1,0,1,-2,-15,-11,-2,-1
1537913967745750,-1,-2,-3,-2,4,8,1,-2
1537913967747744,1,-1,-1,-2,-9,-6,0,1
1537913967747744,0,-1,0,0,-4,-11,1,0
1537913967759710,-2,-1,1,3,11,15,-1,-3
1537913967759710,0,0,1,-3,-5,5,1,2
1537913967768687,1,-1,1,1,2,20,4,1
1537913967768687,-1,-2,-1,-2,-3,-23,-5,-1
1537913967783646,0,-1,0,-1,-6,9,4,2
1537913967783646,-1,-3,-3,-4,-6,-6,0,0
1537913967784643,-1,0,0,1,2,0,0,-2
1537913967784643,0,-1,-3,0,0,-2,1,0
1537913967805586,0,0,1,1,5,1,-1,-1
1537913967805586,-1,0,0,0,-4,-6,-2,-1
1537913967807581,-1,-1,-2,2,3,4,-2,-2
1537913967807581,1,1,-2,0,-5,0,0,0
1537913967819549,-1,-2,-1,-3,2,-4,-2,-2
1537913967819549,-3,0,1,0,-2,7,-1,-3
1537913967828525,-2,-1,-1,1,1,-16,-1,-3
1537913967828525,1,0,2,1,-11,11,3,0
1537913967843484,-1,0,-2,0,7,4,0,0
1537913967843484,0,-1,-1,-5,-5,-2,4,-1
1537913967844482,-2,-2,-2,-2,-9,-7,1,0
1537913967844482,-3,-3,-1,-5,0,6,4,0
1537913967866423,-1,-1,0,0,1,0,-1,0
1537913967866423,-2,1,0,3,3,0,-1,0
1537913967867421,0,1,-1,1,3,-6,-2,-1
1537913967867421,-2,-3,-1,-1,1,5,-1,-1
1537913967879389,-2,-2,-3,-2,0,-6,-3,-2
1537913967879389,-1,-4,1,-1,-5,-1,-3,-1
1537913967888365,-1,-2,-2,-3,-1,2,-1,1
1537913967888365,1,1,-2,0,2,-3,-2,-2
1537913967903326,-2,1,0,0,3,-1,-1,-1
1537913967903326,1,-1,-2,2,-1,-5,-2,-2
1537913967909310,0,-2,0,-3,0,-1,-1,-1
1537913967909310,-2,1,0,0,0,5,-2,0
1537913967926265,0,0,-2,-2,-3,-5,2,-1
1537913967926265,0,0,0,0,-1,1,-1,0
1537913967927263,0,2,-2,-1,3,1,-1,1
1537913967927263,1,0,-3,-1,-1,-4,-2,1
1537913967939230,-1,0,-1,1,-3,1,-1,0
1537913967939230,-1,-1,0,0,0,0,0,0
1537913967948206,-1,-1,0,-1,1,2,-2,-3
1537913967948206,0,-3,0,-3,-3,-2,-1,-1
1537913967964165,-2,0,-1,0,-1,0,1,-1
1537913967964165,-2,0,0,0,1,-1,-2,-1
1537913967970148,-1,-2,-2,-1,1,-2,-3,-2
1537913967970148,0,-2,1,1,0,1,0,-2
1537913967986105,0,0,1,-4,-1,1,1,-2
1537913967986105,-2,2,-1,-4,-1,-3,0,0
1537913967987102,0,-3,0,0,0,-1,-2,0
1537913967987102,0,-1,-1,-2,-1,-1,-41,-1
1537913968000066,-2,-1,-2,0,1,-1,-24,1
1537913968000066,0,-1,-2,-2,1,-2,-9,-1
1537913968009042,-1,-1,0,0,-1,-1,8,0
1537913968009042,-2,-2,2,0,-2,3,14,-1
1537913968023005,3,-2,2,10,51,25,2,-1
1537913968023005,0,-2,-3,-5,-42,-13,9,2
1537913968024999,-5,-5,-3,-9,6,-11,-2,-6
1537913968024999,0,3,-3,3,-15,-59,6,-1
1537913968045943,-2,-1,1,14,44,66,17,2
1537913968045943,2,2,2,11,20,21,6,3
1537913968047938,-7,-7,-6,-13,-9,-94,0,-7
1537913968047938,1,2,-4,-8,4,108,15,3
1537913968059906,-3,-6,-7,-20,-63,-113,-2,-7
1537913968059906,-1,1,3,9,13,54,5,-4
1537913968068882,-4,5,11,39,97,-68,-22,-14
1537913968068882,13,-2,-2,-23,-61,41,41,18
1537913968082845,-5,-1,-3,-9,-43,-43,-10,-5
1537913968082845,-5,0,-6,-42,-71,118,61,15
1537913968089826,-9,-1,-6,-8,-86,-10,-41,-38
1537913968089826,-3,2,0,10,16,5,28,13
1537913968105784,4,6,13,56,114,37,-22,2
1537913968105784,6,-3,-1,-16,-103,-128,-8,6
1537913968107780,-11,-11,-8,-8,102,102,-2,-12
1537913968107780,3,0,3,0,-66,54,2,-2
1537913968119747,-5,-6,-4,-5,72,-66,-8,-6
1537913968119747,-3,-9,-9,-23,-63,15,-6,-6
1537913968128724,5,5,-1,-24,-109,50,30,17
1537913968128724,-8,-2,4,22,95,84,-27,-6
1537913968142686,5,1,-2,-1,-109,-105,19,11
1537913968142686,-8,4,13,58,127,81,-5,-19
1537913968149667,16,16,0,0,-30,30,-2,31
1537913968149667,-6,-5,-13,-35,-106,-82,3,4
1537913968165624,1,-5,-13,-17,22,38,-6,20
1537913968165624,1,7,7,37,91,14,-10,5
1537913968167621,-7,-9,-11,-33,-54,-65,9,-10
1537913968167621,-2,5,14,48,127,17,-14,-9
1537913968188563,6,-2,-4,-15,-61,21,-5,-3
1537913968188563,-3,6,-10,-19,-56,64,8,10
1537913968189561,8,12,3,13,23,-40,-11,15
1537913968189561,-2,-16,3,-4,-23,-84,9,-24
1537913968202526,2,-15,-1,-9,-33,-27,-15,-7
1537913968202526,-1,-10,6,23,119,66,-18,-5
1537913968209508,7,0,-2,-14,-70,-32,16,18
1537913968209508,1,9,-1,-4,45,-9,3,4
1537913968234440,-4,3,2,-5,-6,94,9,-8
1537913968234440,-1,1,-3,-13,-77,-82,-6,-5
1537913968236437,2,-1,-6,-15,8,-86,16,2
1537913968236437,0,1,0,18,74,-89,-13,3
1537913968248404,-3,-3,-1,-8,-7,62,6,-8
1537913968248404,1,1,-2,4,-12,-64,-10,-1
1537913968250398,-4,-4,3,20,50,27,-4,-2
1537913968250398,-7,-6,-2,-9,-41,-11,-19,-3
1537913968262367,2,7,1,4,-33,67,-1,5
1537913968262367,-10,-16,-24,-78,-75,-75,-5,-20
1537913968270345,2,-6,-1,4,64,127,0,9
1537913968270345,-3,0,0,2,5,-40,-9,-1
1537913968285305,4,10,9,40,127,71,-13,-6
1537913968285305,-1,-5,0,3,-24,-104,-9,-14
1537913968286302,-10,-10,-12,-34,-122,90,10,-19
1537913968286302,1,4,-3,-1,55,127,-5,-6
1537913968308243,-5,-3,-9,-25,-46,-66,2,2
1537913968308243,-4,-3,-4,-6,11,-41,-9,-7
1537913968308243,-3,4,10,40,112,23,-10,-1
1537913968308243,-4,-3,-2,5,24,119,-3,-8
1537913968322206,-3,-3,-6,-18,-65,-77,7,-11
1537913968322206,-1,4,3,17,63,75,-3,-8
1537913968330185,-6,-12,-4,-19,-33,-36,-18,-5
1537913968330185,10,6,4,11,-64,42,-5,15
1537913968345144,-11,-9,-7,-22,-12,51,-2,-26
1537913968345144,15,1,-3,-5,15,-28,5,43
1537913968346143,3,4,5,23,22,44,12,0
1537913968346143,-4,0,-1,4,6,-51,-9,-3
1537913968368083,3,0,2,3,8,42,9,6
1537913968368083,3,9,12,34,127,12,-10,2
1537913968368083,3,-1,6,29,107,24,-9,8
1537913968368083,-1,-10,-13,-46,-128,-80,4,-11
1537913968383043,-10,1,-1,-1,79,63,-5,-9
1537913968383043,-4,-10,-9,-35,-88,55,6,-7
1537913968390026,2,10,5,11,25,31,12,7
1537913968390026,1,3,4,12,41,7,6,3
1537913968404984,1,4,8,34,110,107,4,1
1537913968404984,-6,-14,-16,-36,-63,-63,-13,-11
1537913968405982,-2,-2,-1,-4,51,11,-11,20
1537913968405982,0,-7,-9,-31,-80,78,6,4
1537913968427922,2,-2,-3,-15,-92,-102,4,13
1537913968427922,3,5,6,22,30,4,5,4
1537913968428920,0,-3,-1,-4,-34,-43,4,-14
1537913968428920,-6,-2,-1,3,28,-22,-13,-12
1537913968441885,4,2,5,9,-9,-71,12,12
1537913968441885,-4,3,8,41,107,88,-14,-14
1537913968449864,-3,-12,-15,-65,-100,67,0,-1
1537913968449864,-1,2,2,1,64,-41,-5,-3
1537913968464824,-1,4,4,6,49,53,2,-6
1537913968464824,4,0,0,1,-33,-31,-6,13
1537913968465822,-4,-3,0,12,36,-63,-12,-19
1537913968465822,-2,-3,-1,3,31,-34,-4,5
1537913968487762,-5,-3,-8,-29,-62,-30,-1,-19
1537913968487762,3,4,3,17,28,40,3,-1
1537913968488760,6,3,9,30,110,70,-4,6
1537913968488760,0,-4,-9,-25,-78,-52,0,-1
1537913968504717,1,4,3,19,49,22,3,6
1537913968504717,-4,1,1,0,-21,-16,-2,-9
1537913968504717,-1,3,1,4,-47,-54,3,-2
1537913968504717,-2,1,2,3,12,-8,4,-13
1537913968525661,2,-3,2,-2,2,52,-6,9
1537913968525661,-1,-2,-6,-22,-85,47,12,6
1537913968525661,0,-1,-4,-8,-43,-34,-5,-8
1537913968525661,3,3,6,25,105,96,6,10
1537913968547603,-5,-12,-16,-52,-126,-128,-3,-8
1537913968547603,-1,2,2,3,72,43,-2,7
1537913968548601,0,-3,-3,-10,-68,-53,0,-8
1537913968548601,-2,0,2,6,-1,22,4,-5
1537913968562564,4,4,3,11,28,58,3,6
1537913968562564,-1,-1,-1,-3,9,-35,-1,-9
1537913968563561,4,5,4,9,14,23,7,18
1537913968563561,-4,-5,-4,1,4,-41,-5,-2
1537913968585502,4,0,-4,-5,-35,-42,1,7
1537913968585502,-14,-1,0,-7,-32,21,1,-20
1537913968585502,4,-2,-1,-2,15,-34,-10,6
1537913968585502,-1,1,-3,2,3,-22,-2,0
1537913968607444,0,2,3,11,33,80,12,-2
1537913968607444,-4,-4,-1,-7,11,46,-4,-12
1537913968608440,-4,1,3,12,40,47,4,-11
1537913968608440,2,3,0,1,-9,38,2,3
1537913968622403,-5,-5,1,3,23,-34,-4,3
1537913968622403,4,0,-1,0,5,-15,-3,15
1537913968623400,4,1,4,5,26,55,6,1
1537913968623400,2,1,1,11,48,-46,-16,2
1537913968645341,-3,-4,-4,-10,3,4,1,0
1537913968645341,-3,-1,0,2,10,17,6,8
1537913968646339,-4,-2,-5,-10,-51,-61,-6,-6
1537913968646339,-3,-2,0,3,-16,-4,-1,0
1537913968668280,1,1,1,6,26,-4,-4,0
1537913968668280,-2,-1,-6,-6,-40,-44,5,-4
1537913968668280,-5,-2,-5,-1,3,0,3,1
1537913968668280,-3,-1,2,-3,-23,-20,-6,-8
1537913968683239,-1,2,-2,-2,-8,-20,0,-1
1537913968683239,2,-1,1,7,33,32,2,0
1537913968683239,1,-3,-9,-26,-75,-78,7,4
1537913968683239,3,0,-2,-7,33,20,7,8
1537913968705181,-2,-1,5,13,60,41,-5,-7
1537913968705181,-1,-2,1,-2,-1,-61,0,9
1537913968706178,-3,-4,-5,-5,2,31,-7,-10
1537913968706178,2,3,4,11,29,5,-1,0
1537913968728120,-3,-1,3,8,12,91,-10,2
1537913968728120,2,-3,-7,-12,-59,-46,6,-9
1537913968728120,2,3,5,10,30,12,4,11
1537913968728120,-8,-6,-2,-4,44,75,-2,-27
1537913968743080,0,-1,-9,-28,-60,-48,-7,0
1537913968743080,-3,0,0,2,55,6,-23,-6
1537913968743080,12,1,-1,1,28,-18,13,57
1537913968743080,-2,1,2,13,79,-20,-14,-10
1537913968765022,-2,-2,0,-1,-4,17,6,-14
1537913968765022,4,-2,-2,-3,-6,0,-8,11
1537913968766021,-6,-3,-2,-10,-91,71,8,9
1537913968766021,1,-3,-8,-18,-60,-84,-14,6
1537913968795941,3,1,0,7,-13,-6,-4,7
1537913968795941,1,0,0,-2,-18,-28,4,16
1537913968796939,-1,1,2,5,39,20,-11,-18
1537913968796939,-4,-3,-3,-18,-119,-66,22,-3
1537913968801924,-1,1,1,3,15,-39,3,-3
1537913968801924,-4,0,0,6,3,53,1,-15
1537913968809902,-2,2,1,11,43,-7,-7,0
1537913968809902,-5,-2,-6,-19,-9,24,9,4
1537913968824861,-2,0,-1,-2,-34,64,8,-3
1537913968824861,2,2,7,22,91,-2,-1,5
1537913968825859,0,-2,-3,-1,-7,12,-4,-15
1537913968825859,2,0,-3,-6,-44,-46,-3,-8
1537913968847800,-1,-2,0,6,31,-15,-2,-2
1537913968847800,4,2,2,9,5,26,-2,-14
1537913968848797,6,-2,-3,-6,-28,-45,5,12
1537913968848797,0,1,0,-5,-9,6,3,3
1537913968861762,-1,0,-3,-3,-22,-20,-3,-7
1537913968861762,-1,1,2,2,-7,22,9,16
1537913968870738,-3,2,1,8,25,-23,-5,-25
1537913968870738,3,-3,0,1,0,7,-1,21
1537913968885699,4,3,3,12,77,15,-11,-9
1537913968885699,-3,-10,-12,-38,-105,-91,2,-14
1537913968885699,-7,-1,1,-4,9,21,-3,-6
1537913968885699,1,0,1,9,11,20,-3,2
1537913968907641,-2,-3,0,-5,6,12,0,7
1537913968907641,0,0,1,4,17,20,-6,-1
1537913968908639,1,-1,-1,0,10,17,2,-15
1537913968908639,0,-1,-1,0,-28,3,-2,1
1537913968922601,2,1,0,10,4,-18,3,8
1537913968922601,-2,-1,-1,-4,15,6,-4,-11
1537913968930582,-7,-2,-1,-2,-12,-9,3,-5
1537913968930582,0,1,2,4,22,92,5,2
1537913968945542,-1,-2,-2,-2,-5,-18,2,0
1537913968945542,1,1,-3,0,9,2,2,6
1537913968945542,-2,-2,-1,1,9,22,-3,-4
1537913968945542,1,0,3,1,4,-5,0,4
1537913968968479,-1,-2,0,-3,-16,-17,0,0
1537913968968479,1,1,-1,2,-5,16,2,1
1537913968968479,0,-1,-1,5,17,0,2,3
1537913968968479,-2,-3,-2,-1,-2,-7,-3,-7
1537913968982441,-3,-3,1,-5,-7,-16,5,3
1537913968982441,-2,0,0,3,8,7,4,3
1537913968990420,0,-2,0,1,7,6,0,-3
1537913968990420,-1,-1,-1,-4,-2,-8,-2,-3
1537913969005381,0,0,-4,-3,-9,1,-3,-1
1537913969005381,-2,-3,1,4,6,9,0,-2
1537913969006378,1,4,-1,0,2,1,-5,-3
1537913969006378,-2,-3,0,-4,-7,0,-3,-5
1537913969028317,1,0,4,-1,-4,-10,1,1
1537913969028317,1,1,0,3,3,5,0,-5
1537913969028317,-2,0,-2,-4,0,-3,-3,-3
1537913969028317,-1,-1,-2,3,4,-3,-3,0
1537913969042281,-1,-2,-1,-1,-3,-4,-4,2
1537913969042281,0,0,0,-2,0,-1,-4,6
1537913969050259,0,0,-1,1,3,6,-3,7
1537913969050259,1,2,-1,0,2,-1,1,10
1537913969066216,0,-2,-3,0,-4,-6,-1,0
1537913969066216,-2,-1,-2,-2,-3,2,2,-1
1537913969067214,1,0,-1,-1,0,-2,2,-4
1537913969067214,-1,0,-2,-1,-2,-5,-2,-3
1537913969088158,-2,0,1,2,2,-2,3,-1
1537913969088158,0,2,-3,-1,-4,-4,-2,-2
1537913969088158,-1,-3,1,1,-1,0,-2,-2
1537913969088158,-1,-2,-2,0,-3,-2,2,-1
1537913969111096,-2,1,-1,-3,-2,-1,0,-2
1537913969111096,0,-4,-1,-3,2,1,1,-2
1537913969112095,0,0,0,-2,1,-3,1,-2
1537913969112095,-1,-1,1,-1,-4,1,0,-1
1537913969125059,0,-1,-4,-2,-1,-2,0,0
1537913969125059,0,0,0,0,-4,-2,-2,0
1537913969126057,-2,-3,-1,-1,0,-1,-2,-1
1537913969126057,-3,-2,0,-1,0,-1,-2,0
1537913969147998,0,-2,0,-3,0,0,0,1
1537913969147998,0,0,1,1,1,1,-2,-1
1537913969147998,-2,-3,0,-1,1,0,2,0
1537913969147998,0,-3,-1,-3,-2,-2,1,-1
1537913969170937,-1,0,0,1,-3,-3,-2,-2
1537913969170937,-3,-2,1,3,-1,0,-1,0
1537913969171936,-3,-3,2,-1,2,0,1,-3
1537913969171936,0,1,-2,-4,0,-2,-1,-2
1537913969184901,1,0,-1,-2,-1,-3,0,-1
1537913969184901,-1,-1,0,-3,0,0,0,1
1537913969185898,-2,-2,-2,2,1,1,-1,0
1537913969185898,-1,0,1,-2,-4,-3,-2,-2
1537913969207841,-3,1,0,-1,1,7,0,-1
1537913969207841,-1,0,-1,0,1,-1,-5,-7
1537913969208838,-1,-1,-1,1,0,1,6,11
1537913969208838,1,0,0,0,1,-1,0,-1
1537913969230778,-2,0,-1,1,-1,-3,-2,0
1537913969230778,-1,-2,-1,-1,3,-1,0,-1
1537913969231776,0,0,2,0,-1,0,0,-3
1537913969231776,-2,-2,-3,-4,-4,-3,0,0
1537913969245738,0,-3,1,2,-5,-3,-2,1
1537913969245738,0,0,-3,0,3,2,0,-2
1537913969245738,0,1,1,-4,-1,-5,-4,-3
1537913969245738,-1,-3,-2,-1,2,2,2,2
1537913969267677,-3,-2,1,-1,0,2,-1,-1
1537913969267677,0,3,0,1,-1,-1,0,1
1537913969268675,0,-3,-3,0,12,10,-2,-3
1537913969268675,-2,-1,1,3,-9,-19,-2,-2
1537913969290616,1,0,-4,-13,-28,-8,2,1
1537913969290616,0,-3,-2,3,1,-1,-1,-1
1537913969291613,-2,0,-4,0,-2,2,-2,-1
1537913969291613,0,1,2,3,15,12,-4,-3
1537913969304579,0,-1,0,2,6,-1,-2,-3
1537913969304579,-2,-2,1,-3,-8,-3,1,-1
1537913969312558,-1,0,-2,-1,-1,-1,-4,-4
1537913969312558,-2,-1,-2,-3,-3,1,1,0
1537913969327517,0,0,-1,3,2,-3,-2,0
1537913969327517,-2,-1,0,-2,-1,2,0,1
1537913969335496,0,1,-1,2,-4,-3,-1,0
1537913969335496,-2,-2,3,-3,-3,0,2,-1
1537913969351454,-1,-2,1,-1,0,-3,1,0
1537913969351454,-1,-3,-1,-1,2,1,0,0
1537913969351454,-1,-1,0,-2,-4,-5,0,-2
1537913969351454,1,-2,-2,3,-4,-1,-2,0
1537913969365417,-1,1,-1,-2,5,2,-3,-1
1537913969365417,-1,-1,-1,0,-4,-2,-1,1
1537913969366415,-2,1,-1,-4,-4,-3,0,-3
1537913969366415,0,0,1,1,-2,2,0,-1
1537913969388355,-1,2,-1,1,4,0,-3,-2
1537913969388355,-1,2,0,-1,-2,-2,1,-1
1537913969389353,3,-2,-2,-1,-5,0,-3,-2
1537913969389353,0,-1,-2,0,2,1,-2,0
1537913969411296,-2,-2,0,-1,2,-2,-1,-1
1537913969411296,0,0,-3,0,-1,1,0,-1
1537913969411296,-3,-1,-3,-2,-1,-1,-1,0
1537913969411296,0,0,-4,-2,-2,-1,2,-1
1537913969425257,0,-3,-2,-3,1,-1,1,-2
1537913969425257,0,1,1,2,-1,0,-1,-1
1537913969426255,0,0,3,1,0,-3,-2,-1
1537913969426255,-2,-1,-2,0,-1,2,-2,-2
1537913969448196,0,0,-1,0,-2,1,1,-4
1537913969448196,-2,0,0,-1,1,1,-1,1
1537913969449193,0,-1,-1,-3,0,0,0,-1
1537913969449193,-2,1,-2,-1,-2,-2,0,1
1537913969471135,-1,0,-3,0,0,1,-1,2
1537913969471135,0,-1,0,-1,-3,-3,-2,-2
1537913969472132,-1,0,-1,-1,-4,-2,-1,-1
1537913969472132,0,-1,1,-1,1,2,-2,-1
1537913969485097,-2,-3,0,1,-2,-1,0,-1
1537913969485097,-1,-1,-1,-1,0,0,-1,1
1537913969486095,-2,-1,1,0,-2,0,0,0
1537913969486095,1,2,-3,-2,-1,-1,-1,0
1537913969508035,-1,-2,-4,-1,-1,-2,-1,0
1537913969508035,-2,0,1,0,0,-1,1,1
1537913969509032,-2,-1,-2,0,-1,-2,-2,-1
1537913969509032,-2,-1,-2,-1,-3,-2,0,1
1537913969530974,-1,-2,1,-1,-2,0,-2,1
1537913969530974,1,-1,-4,-1,0,0,-1,0
1537913969531971,0,2,0,1,0,0,-2,0
1537913969531971,1,-2,0,0,0,-1,-2,-2
1537913969544937,0,-2,-1,-1,-2,0,-1,-4
1537913969544937,-1,-2,1,-1,0,2,1,-1
1537913969545934,0,-3,-2,-2,-2,-4,0,-2
1537913969545934,-1,-1,2,-2,-3,-2,-2,0
1537913969568873,1,0,0,-1,-1,1,-1,0
1537913969568873,-1,-1,-1,0,0,0,-3,0
1537913969568873,1,-4,-1,0,-1,-1,0,-1
1537913969568873,0,2,-1,0,3,-1,-2,-1
1537913969590814,-4,-2,-2,3,23,1,-7,-6
1537913969590814,0,0,3,14,22,-57,12,19
1537913969591811,0,-1,1,0,-25,28,-23,-18
1537913969591811,0,-2,-3,0,42,45,31,23
1537913969604777,-8,-3,2,8,8,-83,-23,-18
1537913969604777,11,0,-6,-30,-39,127,25,6
1537913969612755,-13,-1,1,16,-14,-114,-16,-73
1537913969612755,7,2,2,-8,20,62,-24,0
1537913969628715,-2,-7,-6,-12,-33,-59,3,16
1537913969628715,1,-9,-16,-65,-102,44,6,9
1537913969628715,-17,-1,-3,-8,63,-31,-2,-62
1537913969628715,1,4,9,30,75,58,0,-4
1537913969650655,10,12,15,40,19,-44,37,6
1537913969650655,1,-3,0,22,58,40,-29,26
1537913969651653,-1,-8,-11,-37,-48,77,35,15
1537913969651653,0,-3,-1,10,52,-112,-31,-13
1537913969665615,-2,-10,-12,-22,14,127,-6,6
1537913969665615,3,3,6,10,-34,21,38,-8
1537913969665615,8,-3,-8,-20,62,-36,12,57
1537913969665615,-12,1,14,49,101,19,-2,-6
1537913969688553,5,-2,-15,-52,-114,-3,4,-14
1537913969688553,-5,1,5,27,77,-83,-19,0
1537913969689550,7,8,10,44,123,85,3,46
1537913969689550,3,-8,-27,-75,-128,-16,19,15
1537913969710493,-9,3,7,26,64,-24,-12,-40
1537913969710493,2,3,7,29,75,7,11,-23
1537913969711491,4,-1,-7,-24,-104,-3,-2,7
1537913969711491,11,13,21,56,111,82,58,97
1537913969724456,11,-1,-15,-49,-128,-55,-11,3
1537913969724456,-10,-4,-3,0,105,21,-23,-7
1537913969733432,4,2,3,5,-19,-46,10,30
1537913969733432,4,-1,-2,-12,-91,-84,7,-44
1537913969747395,-4,-3,5,15,78,82,5,-2
1537913969747395,-10,3,13,39,99,-9,-15,-30
1537913969754376,1,-4,-4,-14,-76,-71,3,-19
1537913969754376,-6,-10,-15,-45,-93,-105,-8,-22
1537913969771331,-5,1,8,22,85,57,-5,-6
1537913969771331,-7,-5,-2,-13,-33,-35,-22,-29
1537913969772328,8,4,6,24,61,104,-7,45
1537913969772328,-9,-5,-3,-4,-3,12,-22,-7
1537913969784296,4,2,3,8,14,15,3,18
1537913969784296,1,1,4,22,74,-70,-43,-17
1537913969793272,-7,-11,-21,-65,-84,25,-20,6
1537913969793272,-3,-1,0,-7,28,43,0,-11
1537913969809231,1,3,2,16,80,-25,-8,19
1537913969809231,-1,-3,-6,-13,-68,-55,27,5
1537913969815214,0,3,8,21,51,-62,25,-3
1537913969815214,-4,-4,-5,-5,-14,-41,33,0
1537913969831172,2,-3,3,7,38,40,-2,50
1537913969831172,6,3,-1,-6,-59,43,-9,19
1537913969832169,-11,-1,-2,6,75,78,-16,-20
1537913969832169,-9,-4,-5,-15,-80,-30,-27,-44
1537913969844137,10,3,3,9,26,-82,0,57
1537913969844137,-5,-5,-5,-22,-70,44,17,-19
1537913969853113,1,-2,-5,-16,-88,-115,18,27
1537913969853113,1,0,3,11,68,69,-28,-15
1537913969868072,-10,0,-3,-8,-53,-26,9,-24
1537913969868072,4,4,3,20,63,-15,6,7
1537913969870068,-2,2,2,16,23,25,-17,-14
1537913969870068,4,2,0,-8,17,-5,-1,-5
1537913969891011,-5,-5,-4,-17,-38,3,14,-2
1537913969891011,0,3,4,0,-26,-18,7,2
1537913969893006,4,-1,-1,6,-18,11,2,4
1537913969893006,-2,-1,-2,4,11,2,-4,-12
1537913969904974,1,0,3,13,55,58,-4,11
1537913969904974,-7,-5,-7,-16,9,0,-18,-17
1537913969920931,4,-2,1,-8,-18,13,-13,7
1537913969920931,-8,-7,-6,-10,-39,-18,-10,-3
1537913969928910,1,2,0,-2,-22,47,9,-18
1537913969928910,1,-1,-2,4,32,-9,-4,-7
1537913969929907,-9,-1,1,4,17,26,-15,-6
1537913969929907,12,5,3,11,35,37,23,32
1537913969950851,-3,-4,-2,1,1,-70,-18,-14
1537913969950851,0,-3,-5,-15,-40,4,12,24
1537913969952846,4,2,2,11,47,13,-13,-24
1537913969952846,8,-1,-4,-6,-9,8,5,51
1537913969964815,0,-1,-1,-1,30,19,-4,-31
1537913969964815,-3,-5,-5,-3,12,-36,4,-21
1537913969973791,4,1,2,3,-15,-3,-4,6
1537913969973791,-8,-1,2,2,18,2,-9,-28
1537913969987753,-1,-1,-4,-9,-37,-70,-5,-1
1537913969987753,3,2,5,9,32,73,-1,30
1537913969994734,-1,0,-4,-3,-34,-31,18,-13
1537913969994734,4,-1,-2,-5,-9,-15,-10,8
1537913970010692,-10,0,3,4,60,30,-6,-38
1537913970010692,9,-1,-4,-10,-89,-20,20,64
1537913970012688,-2,-4,1,7,41,-1,-5,-3
1537913970012688,-7,-3,-1,5,-18,-23,-9,-5
1537913970033630,-6,-3,-2,-2,-13,35,18,-8
1537913970033630,0,1,0,4,24,20,4,7
1537913970034627,1,1,-1,1,-66,2,23,9
1537913970034627,-1,0,0,-1,10,-3,-2,3
1537913970048590,1,-2,-4,-12,-15,1,-5,20
1537913970048590,-5,-1,-4,-9,-15,7,-8,-13
1537913970049588,-5,1,3,12,60,7,-6,-26
1537913970049588,1,4,5,8,3,-28,12,31
1537913970070532,8,2,-2,0,-16,-19,-6,2
1537913970070532,-3,-1,-1,-2,22,-13,-16,-14
1537913970072527,-6,-2,-1,-7,-37,2,-6,-39
1537913970072527,-3,-4,-2,-3,-2,-24,0,18
1537913970093470,-3,-2,1,1,9,43,-15,-11
1537913970093470,-2,0,-1,-2,-18,-59,4,-3
1537913970094467,-4,-2,1,3,33,7,-2,-5
1537913970094467,0,2,0,3,17,19,1,-13
1537913970108430,-2,-2,-4,-9,-51,11,-1,6
1537913970108430,-4,-2,-2,-4,-11,-4,-10,-19
1537913970109427,-2,2,2,15,92,75,-1,-18
1537913970109427,2,-2,-3,-9,-81,-102,-4,40
1537913970131368,2,-1,-1,-4,-12,37,-2,-2
1537913970131368,-6,-2,3,1,13,58,4,-27
1537913970132366,2,-1,-2,-8,-30,12,13,-22
1537913970132366,-1,-3,1,-1,15,-12,-14,-3
1537913970153310,-1,-2,-2,-2,0,-11,-15,-21
1537913970153310,0,0,-3,-4,-22,-21,-10,14
1537913970155305,1,0,3,5,36,4,-29,37
1537913970155305,-1,-1,0,4,45,35,-2,-31
1537913970168270,-1,1,-1,-2,-39,-10,9,8
1537913970168270,0,0,-2,3,25,-20,5,-6
1537913970170265,2,-1,-4,-9,-28,-50,11,15
1537913970170265,4,1,-1,-4,-10,61,6,-8
1537913970191209,-4,1,1,6,9,-42,1,-28
1537913970191209,-2,-2,-1,-4,21,-12,6,-9
1537913970192207,-2,-1,-2,-2,-32,-49,-1,-8
1537913970192207,-6,-1,0,3,23,29,1,2
1537913970213152,-3,-6,-2,-6,-34,-43,-1,-16
1537913970213152,5,-1,-4,-1,-9,28,-12,3
1537913970215147,0,0,-1,-4,-37,-25,6,7
1537913970215147,1,1,1,0,26,18,-4,5
1537913970228112,-4,-2,-5,-21,-36,-72,4,8
1537913970228112,-3,-3,-1,-1,-12,-18,9,17
1537913970235092,0,2,3,4,16,23,2,-12
1537913970235092,-3,0,2,7,10,8,-29,-29
1537913970251049,2,-2,1,3,6,7,-24,12
1537913970251049,-4,-1,1,-1,-14,15,-22,-15
1537913970252047,0,-1,-1,3,23,0,-7,4
1537913970252047,1,1,1,8,39,28,33,-29
1537913970272991,-2,2,2,7,39,29,15,-3
1537913970272991,6,0,-3,-9,-25,12,12,60
1537913970274986,-1,-1,-1,0,2,-8,8,-7
1537913970274986,2,0,1,2,14,-36,9,5
1537913970287950,1,-3,-1,4,20,8,4,17
1537913970287950,-8,-2,-2,-4,-9,1,-3,-28
1537913970294931,2,0,-3,-8,-16,-2,1,17
1537913970294931,-2,-1,-4,-4,-12,-39,-7,-4
1537913970310888,-3,0,1,0,5,19,3,-18
1537913970310888,1,1,-3,-2,-9,-19,-7,-6
1537913970312883,-3,-4,-3,-1,2,-1,0,1
1537913970312883,-3,-3,-3,-3,-22,2,-1,-11
1537913970333828,1,-2,1,2,1,11,1,7
1537913970333828,-2,-1,-1,1,1,8,4,-12
1537913970334826,-1,-2,0,0,11,2,1,13
1537913970334826,-3,-3,-1,-3,-12,17,7,-5
1537913970347790,-2,1,-3,2,4,8,10,3
1537913970347790,1,-2,-1,-1,-5,-13,7,2
1537913970354771,-1,-1,1,-3,12,8,8,-3
1537913970354771,-3,-2,-2,-5,-16,-1,5,-3
1537913970370729,0,0,-2,-1,-2,1,6,4
1537913970370729,-3,-1,-1,-2,-3,-2,-1,-7
1537913970372724,0,-3,-3,-2,3,1,-18,-2
1537913970372724,1,-1,-2,-6,-14,4,-20,-2
1537913970393667,2,-1,0,1,3,2,-16,6
1537913970393667,1,-1,-2,0,1,4,-20,-2
1537913970394665,-1,3,0,1,6,3,-33,6
1537913970394665,-6,-2,-4,-1,-7,-3,-37,2
1537913970406633,2,-2,5,3,3,4,-35,-4
1537913970406633,-1,-3,8,-6,-6,-5,-26,-10
1537913970415609,-4,0,-4,3,5,0,-15,2
1537913970415609,6,10,0,1,-6,-2,-25,-14
1537913970432564,-3,-22,3,7,-3,1,20,3
1537913970432564,-10,-18,-32,-3,3,3,29,-3
1537913970433562,9,15,36,-9,3,3,42,6
1537913970433562,-12,-16,-12,-6,-10,-1,26,-7
1537913970453509,1,10,17,-1,-2,-2,17,1
1537913970453509,4,3,-13,-3,-2,-4,22,1
1537913970454506,-3,-17,-18,4,-1,-1,8,-1
1537913970454506,3,1,-6,-5,2,1,10,0
1537913970467473,4,8,3,0,-1,0,5,4
1537913970467473,-5,-4,11,2,-1,-3,4,-6
1537913970476448,-14,-1,-11,-3,-1,1,3,-1
1537913970476448,16,6,7,2,-1,3,5,7
1537913970491406,-3,-2,-12,-4,1,0,3,1
1537913970491406,4,7,5,-1,1,2,-4,1
1537913970492404,-4,-3,-7,-2,-2,-3,-4,-4
1537913970492404,-2,3,4,2,-1,0,16,8
1537913970513348,-1,-2,-4,-3,-2,-1,-3,-5
1537913970513348,1,5,3,0,-2,-1,0,7
1537913970515343,4,3,-1,0,-1,-1,0,0
1537913970515343,-3,-4,2,2,-1,-2,0,2
1537913970527310,0,1,-8,-3,2,0,-5,2
1537913970527310,-2,2,2,-1,-3,0,5,-1
1537913970536287,1,-4,-3,0,-3,-2,5,4
1537913970536287,-2,0,-1,-1,-2,0,-5,-10
1537913970551246,-2,-1,-5,1,1,-2,-1,0
1537913970551246,0,1,4,2,-2,-2,-5,-5
1537913970552244,3,-2,-2,-1,-1,-1,-4,-2
1537913970552244,-1,-2,0,-1,1,2,1,0
1537913970573188,-1,2,-2,-3,0,1,-10,-5
1537913970573188,-2,-4,1,2,0,1,-1,-8
1537913970575183,0,-3,-2,-1,1,2,-8,-1
1537913970575183,-3,0,1,0,-1,1,3,-1
1537913970587150,1,1,-3,-2,-1,0,-9,-3
1537913970587150,-2,-1,1,-1,0,1,-6,-5
1537913970596127,1,-1,0,2,1,-1,0,-10
1537913970596127,-3,-2,1,1,0,1,0,30
1537913970611086,-5,0,0,-1,-2,-10,-12,-9
1537913970611086,-1,-1,2,-2,-6,6,20,18
1537913970612084,6,3,2,0,0,5,-12,-1
1537913970612084,-4,-2,-2,-4,-3,-1,9,-9
1537913970633028,-4,-2,-4,-1,-2,-1,-17,-67
1537913970633028,7,3,2,2,0,-3,0,42
1537913970641007,-2,-1,-2,-2,2,-3,7,-2
1537913970641007,-2,-3,-1,-2,1,0,-2,2
1537913970646991,-1,0,-1,-5,2,3,7,5
1537913970646991,-3,-1,-1,-2,-3,-3,-8,-19
1537913970655968,-3,-1,0,2,-1,0,-3,-2
1537913970655968,-1,-1,-1,-2,-4,-2,-22,-17
1537913970670928,0,-1,-3,1,-1,0,-11,28
1537913970670928,-1,-2,-2,1,1,1,-28,-12
1537913970672922,0,-2,-2,-4,-3,-2,-8,8
1537913970672922,-3,0,-1,0,-1,-1,8,-7
1537913970693866,1,0,0,1,-1,0,21,7
1537913970693866,4,2,2,0,-1,0,23,7
1537913970694863,-4,0,-2,-1,-2,-2,10,-12
1537913970694863,1,0,1,-3,-4,-1,9,0
1537913970706831,-1,-3,1,0,-1,1,16,23
1537913970706831,0,-1,-3,-4,0,-4,-27,-27
1537913970715807,-2,-2,-2,1,-2,-2,7,2
1537913970715807,-2,0,1,-2,-2,0,5,-3
1537913970730768,-1,-1,-1,-1,-1,-2,-9,1
1537913970730768,-1,0,0,-3,-1,-3,-1,-12
1537913970732762,0,-1,-1,0,0,-2,0,8
1537913970732762,-3,-1,-1,1,2,2,-10,-37
1537913970753705,1,-2,0,-1,-3,-1,-6,4
1537913970753705,-3,0,-2,2,0,-1,3,-5
1537913970754703,0,-1,-2,-1,-1,-2,-5,-3
1537913970754703,0,-1,-1,0,-2,-1,-5,-9
1537913970766670,0,-1,-2,1,0,0,4,6
1537913970766670,-2,-2,-1,-1,-1,-3,2,1
1537913970775646,0,-1,0,-1,-2,1,-2,4
1537913970775646,1,-1,0,-1,-1,-3,-3,3
1537913970790606,-2,0,-2,1,2,3,6,6
1537913970790606,1,-1,2,-1,-1,-1,12,17
1537913970792601,-3,-3,1,-1,0,-3,-4,-7
1537913970792601,-3,-1,-1,-3,-2,-2,-4,10
1537913970813545,1,0,0,0,-1,1,3,5
1537913970813545,-3,0,-2,1,-1,-2,-7,-15
1537913970814542,0,-1,0,-2,-2,-3,0,-1
1537913970814542,0,-1,-1,0,1,-1,0,7
1537913970827507,-1,-1,-1,0,0,-2,-3,-4
1537913970827507,-2,-1,1,0,1,-2,-2,0
1537913970836484,-1,0,0,-2,-1,0,-4,-1
1537913970836484,1,-1,-2,-1,0,-2,-4,6
1537913970851444,0,-1,0,-3,-2,1,2,-4
1537913970851444,-1,1,-1,1,-1,0,-1,-1
1537913970852441,0,0,0,0,0,1,0,1
1537913970852441,-1,0,0,-1,1,-1,3,2
1537913970873385,-2,1,0,-1,-1,-2,2,-2
1537913970873385,0,-1,-3,-1,0,-1,-1,-1
1537913970874383,0,-2,-4,-2,-1,-2,0,-1
1537913970874383,0,-2,0,2,-1,0,-2,3
1537913970887348,0,-2,-1,2,-1,0,-2,-1
1537913970887348,-1,-1,-2,-2,-3,-1,-1,0
1537913970896324,0,1,-4,-2,-1,1,1,-1
1537913970896324,-1,-2,-1,0,1,0,0,2
1537913970911284,-3,1,0,-4,-2,1,-1,0
1537913970911284,-2,0,0,-3,-1,-1,-1,-1
1537913970912282,0,-1,0,-1,1,0,-3,-1
1537913970912282,0,-1,1,-2,-2,-1,-2,0
1537913970933225,-1,-1,-2,-2,-1,0,-4,-4
1537913970933225,0,0,0,-1,-3,1,-2,-1
1537913970935220,-2,-1,-1,-2,-3,-1,-2,-2
1537913970935220,-2,-1,-2,-1,-1,-1,0,-1
1537913970947188,0,0,0,-1,-2,-1,-2,0
1537913970947188,0,-2,1,-1,-1,-3,-3,-2
1537913970956165,-1,-2,-1,-1,1,1,-1,-1
1537913970956165,-1,-2,0,0,0,0,1,-1
1537913970971125,-1,-1,-3,-1,0,-1,1,-1
1537913970971125,-3,-2,-1,1,-1,-1,1,0
1537913970972122,2,0,3,-1,-2,-2,1,-1
1537913970972122,0,0,0,-2,-2,0,0,1
1537913970993067,0,-1,-1,1,1,-1,1,-2
1537913970993067,0,0,0,-2,0,0,0,-1
1537913970995063,-1,0,-3,1,-2,-2,2,-1
1537913970995063,0,0,2,0,0,-1,-2,-1
1537913971016005,-1,0,1,-2,-2,0,0,1
1537913971016005,-2,-1,-2,-1,-2,1,0,1
1537913971017003,0,0,0,-3,-3,0,-2,0
1537913971017003,0,1,-3,0,0,-1,0,0
1537913971030966,0,-1,-1,1,1,0,-1,0
1537913971030966,-1,-2,-1,-1,-1,-2,0,-1
1537913971031963,0,-1,-1,-4,-2,-3,1,-1
1537913971031963,-2,0,-3,0,-1,0,-2,1
1537913971052905,0,-1,-1,-1,0,1,-1,-2
1537913971052905,-1,-3,-1,0,1,-1,-3,0
1537913971054900,1,-2,0,0,0,-1,-2,1
1537913971054900,0,0,1,1,-3,0,-2,-1
1537913971075844,-1,-2,-1,0,-2,-3,-1,-2
1537913971075844,-1,-1,-2,-4,-3,0,1,-1
1537913971077840,-1,-1,-1,0,0,1,0,-2
1537913971077840,1,0,-1,1,-1,-2,-2,1
1537913971090805,0,-3,-2,-3,-4,-2,-2,0
1537913971090805,0,-1,0,1,-2,-1,-1,0
1537913971092799,-1,0,-1,-2,-1,-1,-2,0
1537913971092799,-2,-1,-1,0,-2,-1,-1,1
1537913971113743,-1,-1,1,-1,2,0,-2,0
1537913971113743,0,-1,1,-2,0,1,-1,-2
1537913971114740,-1,-1,-1,1,0,-1,1,0
1537913971114740,-1,-2,-1,-1,0,-6,1,-2
1537913971135684,-1,-1,1,1,-2,-2,-2,-1
1537913971135684,-2,-1,-2,2,8,6,0,0
1537913971137679,-1,-2,-2,-1,-4,5,0,-1
1537913971137679,-1,-2,1,-7,-16,-12,-1,-1
1537913971150645,-1,-2,0,-1,1,-1,-4,-3
1537913971150645,1,1,-1,2,1,-12,-4,0
1537913971156628,1,0,0,-6,-28,-16,2,1
1537913971156628,-3,-2,-3,0,13,7,0,-2
1537913971173585,-3,0,-1,-3,-3,1,1,1
1537913971173585,-1,-1,0,0,7,0,-3,-1
1537913971174583,-1,1,2,4,10,6,-5,-2
1537913971174583,1,3,-1,-2,-10,-44,0,1
1537913971195527,-1,0,1,3,10,34,2,-1
1537913971195527,-1,-2,-2,3,-1,2,-2,0
1537913971197521,-4,-2,-3,3,13,-24,-7,-3
1537913971197521,-1,-3,-3,-11,-37,34,5,-1
1537913971210485,2,-2,-3,-6,-2,-16,-2,-2
1537913971210485,1,0,0,-3,-10,1,1,1
1537913971217467,-3,-1,0,0,12,17,1,-1
1537913971217467,0,0,2,5,15,-3,-4,1
1537913971233424,0,-1,-2,2,-1,-8,-1,0
1537913971233424,-2,-2,0,-5,-4,5,1,-1
1537913971234422,2,1,0,0,3,-8,-1,-1
1537913971234422,-1,-2,-1,2,6,5,-3,-3
1537913971256363,-1,1,-1,0,-6,3,1,-2
1537913971256363,0,1,-2,-1,5,-9,0,-1
1537913971257362,-1,-4,-1,1,5,9,-1,1
1537913971257362,2,0,0,-3,-9,3,1,1
1537913971269328,-2,0,-1,-5,-1,-8,-1,1
1537913971269328,-3,-3,-1,1,11,4,-1,0
1537913971278303,0,0,0,-3,-27,-11,-2,-1
1537913971278303,-1,-4,-3,1,8,3,-3,-3
1537913971293266,-1,-3,1,-1,2,-5,1,-2
1537913971293266,-1,-3,1,0,-3,3,-1,-2
1537913971295260,0,-1,-3,-1,6,11,2,0
1537913971295260,0,-1,-1,-1,4,0,0,-2
1537913971316201,-1,-3,-1,-1,-3,-2,-3,1
1537913971316201,-2,-1,-2,-3,-2,0,3,-2
1537913971317199,0,-2,-2,0,-5,-1,0,1
1537913971317199,-1,-2,1,1,4,-2,-2,0
1537913971329167,0,1,-1,-1,1,-2,0,0
1537913971329167,-1,0,-4,-2,-3,-1,-3,-2
1537913971338143,-2,0,-1,-3,-5,-6,-1,-1
1537913971338143,-3,-1,1,0,2,3,-2,-2
1537913971353103,-1,1,-3,0,-4,1,-2,-3
1537913971353103,0,0,1,-2,-5,-3,-2,-1
1537913971355098,-1,-2,-3,-2,9,3,0,1
1537913971355098,0,1,-2,-1,1,1,-2,-1
1537913971376042,1,-2,1,-1,-2,-3,1,-2
1537913971376042,-1,-2,-1,0,-5,-4,-1,0
1537913971377039,-2,0,-2,1,3,4,0,-1
1537913971377039,0,-1,-2,-1,2,1,-2,0
1537913971390004,-4,0,0,1,-1,0,1,-7
1537913971390004,0,-1,3,2,1,3,7,3
1537913971398982,-4,-1,0,-1,1,2,-4,-4
1537913971398982,1,-1,1,0,1,-3,1,3
1537913971412944,-1,-1,0,0,-3,-2,0,0
1537913971412944,-4,0,-2,-1,-5,-1,-2,-6
1537913971414941,1,-2,-2,-1,-2,-3,-2,-1
1537913971414941,-3,-3,-2,1,1,-3,1,2
1537913971435882,1,0,-1,0,0,0,-2,1
1537913971435882,0,0,-1,-4,-2,-2,-3,-4
1537913971436880,0,-2,1,0,-2,0,-12,-1
1537913971436880,0,0,-1,-3,0,1,-5,-4
1537913971449845,-2,-2,1,-2,-2,-1,0,0
1537913971449845,1,1,0,-1,-1,-5,2,1
1537913971458821,-1,1,2,-4,0,1,5,-2
1537913971458821,-1,1,-1,-1,1,0,2,-1
1537913971473781,-1,-1,-1,0,2,-2,1,2
1537913971473781,-1,-2,0,-2,-3,0,0,0
1537913971474779,-2,-1,-1,-1,0,0,3,-1
1537913971474779,0,0,-2,-1,0,0,-2,-2
1537913971495722,-1,-3,-2,-2,-1,2,0,0
1537913971495722,1,0,-2,1,3,0,-3,1
1537913971497718,0,0,1,-2,-3,1,1,-2
1537913971497718,-2,-1,0,0,-2,1,0,-1
1537913971509686,-1,-4,-2,0,-1,0,1,0
1537913971509686,-1,-1,-2,-1,-2,0,-1,-1
1537913971518661,1,-3,0,3,-1,0,0,-2
1537913971518661,-4,0,1,1,-3,-2,-1,-2
1537913971533620,1,2,2,1,1,0,0,3
1537913971533620,0,-1,-2,-1,-2,-4,-3,3
1537913971534617,0,-1,-2,0,0,-3,-1,0
1537913971534617,-1,-2,-1,-2,-3,-2,-2,-6
1537913971555561,-2,-1,-1,-2,0,0,-1,-1
1537913971555561,0,-2,0,-2,-2,0,0,-2
1537913971557556,0,-1,-2,-1,0,-1,0,1
1537913971557556,0,1,-2,2,4,2,0,3
1537913971569524,-1,1,0,0,0,-1,-2,0
1537913971569524,0,-1,0,-1,-2,-2,-1,-2
1537913971578500,-2,-3,-3,0,-1,0,1,1
1537913971578500,0,1,-1,0,0,-2,-1,-1
1537913971593460,-2,-2,-3,-2,-1,-2,1,-1
1537913971593460,-2,0,0,-1,-2,0,-2,0
1537913971594457,-3,0,0,-1,0,1,0,-1
1537913971594457,-1,-2,-1,-2,0,1,-2,-1
1537913971616399,-2,-1,-2,1,-2,0,-1,1
1537913971616399,-1,-1,-1,-1,-2,-2,0,-4
1537913971617396,0,-1,0,-1,-1,-2,0,3
1537913971617396,0,-3,-2,-3,-1,-2,-1,1
1537913971629364,-1,-2,-1,-1,-3,-3,-4,-3
1537913971629364,2,0,1,1,1,1,-2,4
1537913971638340,-1,0,-1,0,-2,-1,1,-2
1537913971638340,-1,1,0,-1,-2,2,-1,-1
1537913971653300,0,-1,-1,2,0,-1,-1,-2
1537913971653300,-2,-3,-1,-2,-1,-3,-1,-3
1537913971655295,-2,0,-1,0,-1,0,-1,-1
1537913971655295,-1,-2,-1,-1,-3,0,1,-1
1537913971676240,0,-1,-2,-2,0,0,-2,-2
1537913971676240,-2,-2,-1,0,0,0,0,-2
1537913971677238,1,0,2,-1,-1,-3,-1,1
1537913971677238,-1,0,1,0,1,-2,-1,-1
1537913971689206,1,1,-1,-2,-1,-2,-2,1
1537913971689206,0,-2,-4,-4,0,0,-1,-2
1537913971698183,-1,-1,-1,-2,1,-1,-1,-3
1537913971698183,0,-2,0,1,-1,-2,1,-2
1537913971713142,1,0,2,1,-1,0,0,-1
1537913971713142,-2,-1,-1,-2,-2,2,-2,-1
1537913971715137,-2,-2,-1,0,-1,0,-2,-1
1537913971715137,-1,-1,-3,-1,-2,-1,1,0
1537913971736079,-3,0,0,0,0,0,-1,0
1537913971736079,-1,2,0,0,-2,-1,1,0
1537913971737077,-1,0,-1,-2,-1,2,-3,0
1537913971737077,-2,-2,-1,-2,-1,-1,-1,-2
1537913971750041,-2,0,-3,-2,-2,0,-1,-1
1537913971750041,0,-1,-2,1,0,1,0,0
1537913971758020,-2,-1,-1,-1,-2,-1,-1,-1
1537913971758020,0,-2,0,1,-1,0,-2,0
1537913971772980,-1,-2,-1,-1,-1,-1,0,-2
1537913971772980,-1,1,-2,1,0,-3,-1,0
1537913971779962,1,0,-3,-1,0,0,0,-2
1537913971779962,1,-1,-4,-1,-1,-2,0,-1
1537913971795920,-1,-1,1,0,0,0,-1,-2
1537913971795920,0,-2,-1,-2,-3,-2,-1,-3
1537913971796917,-2,0,-4,-1,-1,-1,0,0
1537913971796917,1,1,1,-1,-2,0,1,0
1537913971809882,-2,0,2,-1,0,-2,1,0
1537913971809882,-2,-2,-3,-2,0,-2,-1,1
1537913971818858,-2,-3,1,-1,-1,0,0,0
1537913971818858,-2,-1,-1,0,0,-3,0,-1
1537913971832820,0,-1,-2,-3,0,1,0,0
1537913971832820,1,0,-1,2,1,0,-3,-1
1537913971846783,1,0,1,0,0,-1,-1,-1
1537913971846783,0,-1,0,1,0,-2,-3,-1
1537913971855759,-1,-1,0,-2,-3,0,-2,-1
1537913971855759,-2,0,-1,-1,0,0,-2,-1
1537913971857754,0,-3,-3,-2,0,-2,-2,1
1537913971857754,-1,-1,1,-2,1,-2,-1,-1
1537913971878698,-1,0,-1,0,-1,-3,0,0
1537913971878698,-1,-1,-2,-1,-2,1,-1,-1
1537913971879695,-1,-1,-1,0,-1,-1,1,-1
1537913971879695,-2,1,0,-1,-2,0,1,-1
1537913971892660,-1,0,-1,0,1,-1,-1,-1
1537913971892660,1,0,3,-3,-1,-2,1,-1
1537913971899641,-1,1,-1,0,0,-2,-3,0
1537913971899641,-2,-1,-5,0,1,1,1,1
1537913971915599,-3,-2,-1,0,-1,-3,-1,-1
1537913971915599,-2,-1,-1,0,-4,0,-1,0
1537913971917594,0,-2,-1,-3,-1,0,1,-1
1537913971917594,0,-1,-1,-3,-2,1,-2,0
1537913971938538,1,1,-1,1,0,3,-1,-2
1537913971938538,1,-1,-3,-3,-3,-2,-1,-2
1537913971939535,-1,-1,0,0,0,-2,0,0
1537913971939535,-2,-2,0,-1,0,-1,-1,0
1537913971952501,-2,-3,2,-2,-1,-3,0,1
1537913971952501,-3,-3,0,0,1,-2,-1,-2
1537913971959482,1,1,0,0,-2,-2,0,-3
1537913971959482,0,-2,2,-1,0,-3,0,1
1537913971976437,-1,0,1,-2,-1,-1,0,0
1537913971976437,0,-2,0,1,1,-2,0,-1
1537913971977436,-2,-1,-3,1,-2,-1,-1,-2
1537913971977436,0,1,-1,-1,-1,-1,-3,-2
1537913971998380,0,-1,-1,0,-1,0,0,-1
1537913971998380,-1,-1,-2,-2,0,2,-1,-1
1537913972000374,0,1,-1,0,0,-2,0,0
1537913972000374,1,0,-2,0,-1,0,-1,-2
1537913972012343,-1,-1,-2,-2,-2,2,0,0
1537913972012343,-1,1,-2,0,-2,-2,0,-1
1537913972019324,-1,-2,-1,-3,-2,-2,-1,0
1537913972019324,-2,-3,1,-1,-1,-1,0,-1
1537913972036279,1,-1,-1,-2,-2,-2,-1,-1
1537913972036279,-1,-1,1,1,0,2,-1,1
1537913972037276,-2,0,0,1,1,0,-2,-2
1537913972037276,0,-1,-2,-1,-2,-1,-2,0
1537913972058218,1,-2,-1,-1,-1,0,0,-2
1537913972058218,-1,-1,0,-2,1,-2,-1,0
1537913972060214,-2,-2,-2,0,0,2,-2,0
1537913972060214,-2,-1,-3,0,1,0,-1,0
1537913972073178,-1,0,-1,-1,-2,-1,-2,-1
1537913972073178,-1,-1,0,-3,-1,-2,-1,-2
1537913972087140,0,0,3,-2,0,0,-1,-1
1537913972087140,-1,-1,-2,-1,-1,0,1,-2
1537913972096117,1,1,-2,-1,0,0,0,0
1537913972096117,-1,-1,0,0,-2,-1,-1,1
1537913972097114,-1,-3,2,-1,-1,-1,-1,1
1537913972097114,-1,-1,-2,-1,-2,0,-1,-1
1537913972118058,-1,-2,2,0,0,-2,-2,-2
1537913972118058,0,-1,-1,-1,-1,-1,-2,0
1537913972120053,-1,0,0,0,-3,0,-2,-3
1537913972120053,-2,-2,0,-1,-2,1,-2,-2
1537913972133018,-2,-1,0,0,-3,-1,0,-1
1537913972133018,-1,0,-3,-1,-1,0,0,-1
1537913972139999,0,1,-1,-3,-3,0,1,1
1537913972139999,-1,0,-1,1,-1,0,0,-2
1537913972155957,0,0,-1,-1,1,-1,-3,2
1537913972155957,-1,-1,2,-1,-5,0,-2,0
1537913972156954,1,-2,-2,-1,-1,-3,-1,-1
1537913972156954,-1,0,-1,-1,-2,0,0,-1
1537913972177898,0,-2,-4,4,2,0,1,0
1537913972177898,0,-2,-1,-2,-2,1,0,0
1537913972179893,-2,2,-1,-2,0,0,-2,-1
1537913972179893,0,0,0,0,-2,-3,0,-1
1537913972192859,0,-1,1,-1,-2,-2,-2,-3
1537913972192859,0,0,-1,-1,0,-2,-2,1
1537913972199840,-1,-1,-1,-2,-1,1,1,-1
1537913972199840,-2,-2,-1,-3,-1,-2,-2,-1
1537913972215798,-3,0,-1,0,0,0,1,1
1537913972215798,-2,-1,-2,0,0,1,1,0
1537913972217794,0,1,1,-2,-2,0,0,2
1537913972217794,1,-2,-2,-2,-1,1,-1,-1
1537913972238737,1,-1,1,-1,-2,-1,-1,-1
1537913972238737,-2,0,-2,0,-1,0,-2,-1
1537913972239736,-2,-2,-1,2,0,1,0,-6
1537913972239736,0,2,1,-1,-1,-1,-1,2
1537913972251702,0,-2,0,-3,2,-2,-2,-4
1537913972251702,1,-2,-1,-3,-1,-2,0,-1
1537913972260678,-2,-1,-1,-1,0,-2,0,-1
1537913972260678,-3,-1,1,1,0,-1,0,1
1537913972283618,-2,-2,0,0,-3,-1,2,0
1537913972283618,-1,0,1,1,1,-1,0,-2
1537913972284614,0,-2,-3,0,-2,-1,0,2
1537913972284614,0,-1,0,0,-1,1,-1,-2
1537913972298576,-1,0,-1,-1,-2,1,-2,0
1537913972298576,0,-3,2,-1,-1,0,0,-1
1537913972299574,2,-2,-3,0,1,0,1,1
1537913972299574,-1,1,-3,-1,0,0,0,0
1537913972312539,0,-2,-1,-2,-2,1,-2,-1
1537913972312539,-3,0,-1,1,0,-5,-4,-2
1537913972320517,-1,0,-1,-2,-5,-3,-1,0
1537913972320517,0,-2,-2,-3,-2,-2,-1,-2
1537913972335477,-2,-1,-2,0,-1,1,-2,-1
1537913972335477,-1,2,2,1,1,0,1,0
1537913972337471,-1,-2,0,0,-1,-2,-1,0
1537913972337471,-1,-1,2,-1,0,1,-1,0
1537913972365396,0,-4,-1,-3,-2,-1,2,-2
1537913972365396,1,-1,-1,-1,-2,0,-2,1
1537913972367391,-2,0,-1,0,-1,2,0,1
1537913972367391,0,-1,2,-2,-2,1,-1,-1
1537913972372378,-2,-2,-2,-1,-2,-1,-1,-1
1537913972372378,-1,0,-2,-2,-1,-2,0,-2
1537913972381354,-1,0,0,0,2,-3,-1,0
1537913972381354,-2,-1,-1,1,0,-1,1,1
1537913972396314,0,2,1,-1,-1,-4,0,1
1537913972396314,0,-2,-2,-2,0,-2,1,-2
1537913972397312,0,-2,0,0,-1,-1,-2,-2
1537913972397312,0,-1,0,-1,-1,-1,0,-2
1537913972418256,0,0,-1,-1,-1,-2,-3,-1
1537913972418256,-1,-2,-4,0,-2,1,-1,-1
1537913972420250,0,-3,-2,-1,-3,0,-1,-2
1537913972420250,-1,-2,-1,-1,0,-1,-2,-1
1537913972432219,0,0,-1,-1,-1,1,0,-2
1537913972432219,-1,-1,-1,-1,-3,-3,0,1
1537913972441195,-1,-1,-1,-1,-1,-3,-3,-2
1537913972441195,0,-1,-2,-1,0,1,0,0
1537913972456155,-1,-2,-1,-2,-2,1,-1,0
1537913972456155,0,1,2,0,1,2,-1,-1
1537913972457153,-1,0,0,-3,0,0,1,1
1537913972457153,-1,-1,0,-1,-1,-2,-2,0
1537913972478097,-3,1,0,-1,0,1,-2,-1
1537913972478097,0,-1,-2,-3,-3,0,-1,1
1537913972480093,0,1,-1,0,-2,0,-2,1
1537913972480093,0,1,-2,0,-1,-1,0,-1
1537913972492059,2,-2,-1,0,-1,0,0,0
1537913972492059,-1,-1,1,2,2,0,1,0
1537913972501036,0,0,-2,-1,-1,-1,-2,-1
1537913972501036,-2,0,0,-1,-2,-2,0,0
1537913972515996,0,-1,-1,-1,0,-4,0,-1
1537913972515996,0,-2,-1,1,2,-1,-3,-2
1537913972516993,-2,-3,-3,0,0,0,0,-1
1537913972516993,-2,-1,-1,2,0,0,0,-1
1537913972537936,-1,1,-3,-1,0,0,-2,1
1537913972537936,0,1,0,-1,-2,0,0,-1
1537913972539931,-1,1,0,0,0,-2,-3,-1
1537913972539931,0,-1,0,-2,-2,-1,-3,0
1537913972551898,-1,0,0,-2,-1,-1,-1,-2
1537913972551898,-2,-1,0,-2,1,-1,-1,-1
1537913972560874,1,-1,2,-1,-1,1,0,-1
1537913972560874,1,1,-1,-1,-2,0,1,-1
1537913972575834,-1,-2,-1,-1,-1,0,0,-4
1537913972575834,-1,-2,-2,-1,-3,0,-1,1
1537913972577829,-1,0,0,-3,0,-1,-2,0
1537913972577829,-2,-1,0,-2,0,-1,-2,-2
1537913972598773,-1,-2,-1,0,0,0,0,-2
1537913972598773,0,-2,-1,-1,-3,0,-1,-1
1537913972599770,1,-1,-5,-1,-1,0,0,-1
1537913972599770,-2,-2,-3,0,0,-1,0,0
1537913972611738,-2,-1,0,0,0,0,-1,0
1537913972611738,1,-1,-2,0,-2,-1,-1,-3
1537913972620714,-1,-4,0,0,-3,0,-1,1
1537913972620714,-2,-2,1,0,1,-2,-1,0
1537913972635674,-2,0,-3,2,-1,1,0,0
1537913972635674,-3,0,-2,-3,1,-2,-2,1
1537913972637669,-1,1,-2,-1,-1,-1,2,-2
1537913972637669,0,0,1,-1,-3,-3,-1,-2
1537913972665595,0,-1,-1,-1,-1,-3,0,-2
1537913972665595,1,-1,0,-2,1,-1,-2,-2
1537913972667590,-2,-2,0,-4,-1,0,-3,0
1537913972667590,0,-2,-1,-1,0,-2,0,-1
1537913972671579,0,1,0,-2,-2,0,-2,-1
1537913972671579,-2,-1,-1,0,0,-1,0,-1
1537913972680556,-1,-2,-1,0,-2,-3,-1,-1
1537913972680556,-1,1,0,-1,-1,1,-2,-1
1537913972695516,-2,1,2,-2,-1,-3,0,3
1537913972695516,0,2,1,1,0,2,0,-1
1537913972697512,-1,-2,-1,1,0,0,1,-1
1537913972697512,-1,-2,-3,-1,-1,1,-2,3
1537913972718455,0,-2,0,1,-2,1,-1,-2
1537913972718455,-2,1,-2,-2,-3,0,0,2
1537913972719453,-1,-2,0,-3,0,-1,-2,1
1537913972719453,-1,0,-1,1,0,-1,-2,-1
1537913972732419,1,-1,0,-1,0,-1,0,0
1537913972732419,0,-1,-4,-1,0,0,2,-1
1537913972741393,0,0,-1,1,0,-1,1,-3
1537913972741393,-2,1,-1,-2,-2,-1,-2,-1
1537913972756352,0,0,0,0,-1,1,0,0
1537913972756352,0,-3,1,0,-1,-2,-2,-1
1537913972757350,-1,0,0,2,-2,-1,-1,0
1537913972757350,-2,0,-1,-2,-2,0,1,1
1537913972779291,-2,-2,-2,1,0,-2,-2,-2
1537913972779291,0,1,-1,-2,1,-2,1,-2
1537913972780288,0,-2,-5,-3,-2,-1,1,0
1537913972780288,1,-3,-2,1,1,0,-2,-1
1537913972801232,-1,1,-3,0,0,-1,1,0
1537913972801232,-2,-1,-2,0,-1,2,-1,0
1537913972802230,0,0,1,-2,-2,-2,0,0
1537913972802230,-1,1,1,-1,-2,-3,1,-3
1537913972815194,-3,-2,0,-1,-1,-1,0,-1
1537913972815194,0,0,1,0,-1,-3,0,-2
1537913972822176,-1,-1,-1,-1,0,1,1,-3
1537913972822176,0,-1,-2,-3,-2,-3,-1,2
1537913972838133,0,0,-2,0,-2,-3,-3,6
1537913972838133,-1,-2,-1,-2,-1,-1,-2,0
1537913972840128,-2,-3,0,-1,-1,0,-3,0
1537913972840128,0,-2,-1,0,0,2,-1,1
1537913972861072,0,-3,-1,-3,0,5,0,-2
1537913972861072,-4,-3,-1,-1,-1,2,-3,-1
1537913972862069,-1,0,-4,1,-2,1,-1,-1
1537913972862069,-2,0,-1,2,0,0,0,-9
1537913972875034,4,-2,-3,-2,-3,-3,-1,1
1537913972875034,2,-3,-3,-2,-2,-1,2,0
1537913972882016,1,2,-1,0,-1,-2,1,2
1537913972882016,-4,0,1,1,-1,-2,2,-7
1537913972897973,-3,1,0,-2,-1,-2,3,-11
1537913972897973,0,2,2,0,-2,-3,-3,-1
1537913972899968,1,-3,-1,-1,0,-3,-1,-1
1537913972899968,-1,-2,-3,-3,-1,0,0,0
1537913972919914,-1,-3,-3,-4,-1,0,-2,4
1537913972919914,-1,-3,-1,-1,-2,-2,-2,-1
1537913972920912,1,-1,-2,-2,0,1,-1,5
1537913972920912,-1,-1,2,1,1,1,-3,-2
1537913972943850,3,0,0,-1,-2,-1,0,3
1537913972943850,1,1,-1,0,-3,-1,-1,3
1537913972943850,-1,0,-14,-1,-1,0,-1,3
1537913972943850,2,1,-74,-5,-4,0,1,0
1537913972957813,-4,1,-2,-10,0,2,0,-5
1537913972957813,1,0,35,-49,-3,-1,0,2
1537913972958810,-4,-1,42,4,0,2,-1,-3
1537913972958810,-6,-2,54,26,-2,2,4,-11
1537913972979754,-2,-4,5,32,-1,-1,-1,1
1537913972979754,-1,2,1,25,4,3,0,-9
1537913972980752,-2,-1,4,1,2,1,-4,-7
1537913972980752,0,-1,-6,-4,-2,-2,-3,3
1537913972994714,-2,-2,-15,-6,-1,-1,-1,-4
1537913972994714,-1,-3,-16,-7,-2,-4,3,2
1537913973002693,-1,-1,-18,-9,0,-2,-10,14
1537913973002693,2,0,-4,-6,0,-1,12,7
1537913973017653,-1,0,-2,-6,1,-2,-4,-9
1537913973017653,-5,-1,-6,3,-2,-3,-18,5
1537913973018651,5,-2,-12,4,-5,-3,6,6
1537913973018651,-2,-2,7,-6,-2,-4,-29,-5
1537913973040592,0,-1,3,-5,-2,-1,-23,-7
1537913973040592,-9,-3,-7,8,4,4,31,-41
1537913973040592,-6,-1,-3,-4,-6,-6,-26,-6
1537913973040592,0,-2,5,-6,-1,1,-21,-5
1537913973054555,0,-3,1,-3,-3,1,53,-5
1537913973054555,2,-1,-6,5,2,2,-57,-37
1537913973062535,-6,-3,2,-2,-2,-2,0,25
1537913973062535,4,1,3,-5,0,3,25,26
1537913973080485,-4,0,0,-2,-1,-3,-39,-10
1537913973080485,0,-2,-4,1,-2,-4,25,13
1537913973080485,1,-1,-1,-1,1,0,-2,-12
1537913973080485,-1,-1,0,-3,-3,-4,-2,0
1537913973100432,-6,-4,0,-1,-6,-2,30,20
1537913973100432,8,2,-2,2,4,8,-11,6
1537913973100432,-1,-1,-4,-3,-1,1,-5,-12
1537913973100432,1,2,1,0,0,6,44,5
1537913973114395,-4,0,-1,-1,0,-1,-4,-7
1537913973114395,-4,-2,0,3,2,-2,-19,0
1537913973122373,0,-1,0,0,-3,-1,13,-9
1537913973122373,-2,-2,0,-3,1,-2,-22,-8
1537913973137333,5,1,-1,-3,-3,-4,-34,31
1537913973137333,0,1,-1,2,-2,2,39,3
1537913973138331,-3,0,-2,3,3,1,-20,-9
1537913973138331,-1,-1,2,1,4,3,77,7
1537913973160272,-2,0,-2,-3,0,-1,-20,3
1537913973160272,5,1,-3,0,-4,-2,49,41
1537913973161270,0,0,-4,-5,-4,1,-15,-11
1537913973161270,1,0,-2,-2,1,-1,-45,8
1537913973174236,-3,-1,-4,-3,-4,0,45,-5
1537913973174236,4,1,0,-2,-1,-5,-81,-28
1537913973182213,3,0,4,3,3,4,65,21
1537913973182213,-2,-1,-3,-1,-3,-2,-12,-16
1537913973198170,1,-1,1,1,1,1,-12,-13
1537913973198170,-4,-2,2,0,-2,-5,-1,4
1537913973198170,-1,0,-1,-1,0,-4,7,-13
1537913973198170,-3,1,-1,-2,-1,-4,-40,-32
1537913973220112,1,0,-2,-1,0,1,-4,-11
1537913973220112,-5,-3,-4,-1,-3,-1,38,25
1537913973221110,-2,0,-3,-1,0,-1,-9,-12
1537913973221110,-1,-4,2,0,-1,-4,2,14
1537913973235072,0,-2,4,2,-1,-2,20,7
1537913973235072,0,-1,-1,-2,-2,-1,1,-5
1537913973236070,0,-1,-1,2,-3,0,-21,5
1537913973236070,-2,-1,-3,0,-2,0,-15,4
1537913973258011,-1,2,0,0,2,2,-17,-11
1537913973258011,1,0,-3,0,1,-1,16,37
1537913973258011,1,-1,-1,-1,0,0,-9,0
1537913973258011,-1,-2,3,1,2,-3,-3,14
1537913973279953,1,0,3,1,2,2,11,11
1537913973279953,-9,-3,-5,-2,-1,-6,-3,-41
1537913973280952,-2,0,-3,-1,-2,1,-2,-6
1537913973280952,0,-1,-4,-1,-2,13,-28,-9
1537913973294913,0,-1,-3,-4,-5,-34,-1,5
1537913973294913,2,-2,-1,0,0,30,-21,-4
1537913973295911,-3,0,1,-5,0,-39,27,-37
1537913973295911,2,1,0,3,2,56,9,66
1537913973325830,-4,3,-1,2,-4,-9,-30,-3
1537913973325830,-8,-5,-3,-4,-6,-54,-31,-4
1537913973326829,5,1,2,2,4,46,15,29
1537913973326829,14,6,1,-1,-3,-16,0,17
1537913973339793,-19,-8,-4,-7,-1,-20,-6,-26
1537913973339793,-4,-1,1,5,21,-3,46,-2
1537913973340792,8,1,-3,-11,-39,-29,-62,8
1537913973340792,-19,-8,-3,-4,-18,-29,20,-13
1537913973356749,18,6,2,3,0,44,32,7
1537913973356749,10,-2,2,-1,0,-11,-2,3
1537913973357746,-9,-2,-2,4,14,2,14,6
1537913973357746,-9,11,11,0,0,-10,-10,-4
1537913973377691,3,-37,-17,-3,-4,-16,-15,-5
1537913973377691,-69,-2,2,4,4,27,2,-19
1537913973378688,10,16,12,-3,1,-2,2,2
1537913973378688,3,-5,-14,-5,-3,2,9,-1
1537913973400630,6,47,26,13,14,13,2,0
1537913973400630,12,-95,-17,2,-4,-4,-6,4
1537913973400630,16,21,-6,-2,-3,3,-9,-15
1537913973400630,-6,-7,26,3,10,-4,22,3
1537913973415590,18,54,32,7,3,10,13,18
1537913973415590,4,64,9,-11,-12,-6,-21,-16
1537913973415590,-24,-38,-14,-1,-1,-11,-1,1
1537913973415590,16,-19,-22,-1,2,2,6,-11
1537913973437531,-2,-3,9,3,-2,-1,-1,11
1537913973437531,27,28,12,2,-4,4,3,14
1537913973438529,28,-9,-19,-1,10,2,2,15
1537913973438529,-87,-75,-30,-15,-3,-13,-18,-34
1537913973460470,31,46,-14,-6,-1,6,-4,6
1537913973460470,-13,-43,3,0,-8,-6,-11,1
1537913973460470,14,63,20,-1,3,5,11,4
1537913973460470,31,13,16,10,0,2,7,-22
1537913973474432,-3,-44,6,-7,-1,-3,-7,-10
1537913973474432,-30,-11,-13,-7,0,5,-1,5
1537913973482411,71,26,-19,3,6,-3,-3,11
1537913973482411,-53,-46,-58,-7,6,6,9,-7
1537913973497373,-5,-16,-5,3,-6,-3,-9,-20
1537913973497373,35,25,11,7,1,2,0,11
1537913973498370,-23,-20,56,5,1,7,6,-2
1537913973498370,32,13,30,-5,0,-6,-9,-6
1537913973520310,-29,34,6,-4,-3,-2,0,1
1537913973520310,-10,-3,-15,0,1,4,5,5
1537913973521308,-11,22,-8,1,-1,-3,-4,-6
1537913973521308,17,-5,-9,-4,-4,-5,-2,3
1537913973534273,-36,-45,-46,0,5,3,5,-17
1537913973534273,-11,9,-24,-3,-2,4,5,-20
1537913973542252,-10,-32,27,4,0,2,1,2
1537913973542252,17,41,16,3,3,-2,0,-1
1537913973558209,15,-20,22,4,-1,-3,-2,11
1537913973558209,-10,20,3,-8,-4,2,0,-2
1537913973558209,-21,-18,-41,0,1,1,4,-14
1537913973558209,3,72,20,11,1,-2,1,5
1537913973580151,-7,7,4,-6,-4,-5,3,-2
1537913973580151,13,-11,-14,12,41,7,-1,6
1537913973581148,-9,-10,0,4,-13,-7,-3,5
1537913973581148,59,17,11,-12,-32,-6,2,4
1537913973594113,-14,-34,-21,-3,2,5,2,-13
1537913973594113,9,22,8,-7,-27,-17,5,15
1537913973603088,-30,-18,-3,10,50,-41,-13,-7
1537913973603088,15,-1,13,10,-15,58,0,21
1537913973618048,15,12,-6,0,0,14,-3,-7
1537913973618048,38,-31,12,-5,-48,-18,-2,26
1537913973618048,-18,2,-7,-9,4,5,6,34
1537913973618048,-10,-14,-3,3,-8,-38,-2,-13
1537913973639989,9,-19,-3,1,19,9,6,2
1537913973639989,8,48,5,-3,4,7,-21,2
1537913973640987,-12,-37,8,6,-9,7,24,-8
1537913973640987,-6,21,-26,-5,18,3,-4,-2
1537913973654950,-6,0,12,9,3,14,14,19
1537913973654950,-2,-20,-1,2,6,-4,3,-22
1537913973662929,10,11,-1,-8,-11,7,-8,-9
1537913973662929,-24,27,-8,3,21,-5,-4,-29
1537913973677889,0,3,1,-13,-4,11,-13,16
1537913973677889,13,24,-10,-8,-26,-39,-12,-7
1537913973677889,10,-4,15,7,1,23,10,16
1537913973677889,24,-46,14,18,45,15,-3,30
1537913973699830,-24,39,-17,2,-27,8,8,-6
1537913973699830,-27,-19,-5,-14,18,-2,3,-49
1537913973700828,9,-42,1,-21,-16,-14,-19,4
1537913973700828,-16,49,-19,-6,-22,-12,-11,-7
1537913973714791,23,-9,6,5,6,-18,4,-12
1537913973714791,-13,-18,-2,9,13,18,0,32
1537913973722769,-4,35,-8,-3,-5,0,11,-19
1537913973722769,-33,-26,8,0,1,-8,-5,2
1537913973737729,17,-3,-2,-5,1,-8,-8,-15
1537913973737729,-10,5,7,4,8,6,-7,0
1537913973738727,-11,-10,-4,3,25,12,-10,-11
1537913973738727,-12,-26,-1,3,-12,4,3,-13
1537913973760668,22,32,-1,-3,-23,-28,2,21
1537913973760668,-15,9,-3,-22,-34,21,1,-17
1537913973760668,-28,-59,-19,-7,-5,-21,-5,-14
1537913973760668,49,2,15,-2,-18,-7,-8,16
1537913973783607,-14,-4,3,8,37,20,11,-7
1537913973783607,23,-9,5,11,11,0,-9,8
1537913973783607,5,7,-9,-4,-7,8,-18,1
1537913973783607,-27,18,-5,-10,1,-15,-9,-4
1537913973797570,4,-68,-7,2,-4,-4,-11,3
1537913973797570,47,75,17,8,8,-3,-6,-13
1537913973798567,-5,12,7,1,-21,-7,-7,-12
1537913973798567,13,-25,-7,-7,15,2,-7,2
1537913973820507,9,34,6,-1,-15,-34,-16,22
1537913973820507,-11,-23,-4,4,-4,43,2,1
1537913973820507,-12,31,-2,-1,7,-12,13,-13
1537913973820507,18,8,20,5,-2,7,29,2
1537913973843446,-19,-11,-11,-12,-8,-7,12,-9
1537913973843446,-20,-23,-9,0,7,-22,12,-1
1537913973844443,9,29,-1,1,-10,1,7,-1
1537913973844443,-22,-21,-6,0,1,8,8,-12
1537913973857408,16,4,-3,-2,4,3,-2,-1
1537913973857408,-16,-21,5,0,-2,-3,28,-6
1537913973858406,-1,-1,-4,-4,4,9,8,2
1537913973858406,3,14,-3,-1,-6,-4,3,-11
1537913973880348,-11,-21,1,0,-3,-2,-12,-9
1537913973880348,-4,2,0,-1,2,-8,-9,3
1537913973881345,-1,-10,-8,2,1,15,-3,0
1537913973881345,-4,2,-2,-6,-5,-9,-8,-2
1537913973903286,-9,1,2,-2,-3,-4,-16,-10
1537913973903286,0,-9,-1,3,4,5,-1,8
1537913973904284,-1,-2,-4,-1,-1,-1,-4,0
1537913973904284,-8,-4,-1,-3,-8,-6,-5,-8
1537913973917248,-20,-7,-4,-1,3,6,0,-8
1537913973917248,6,1,-2,0,0,-3,-9,6
1537913973918246,13,6,3,2,-7,-2,0,9
1537913973918246,-13,-4,-2,0,-1,-2,5,-1
1537913973940187,6,-1,0,-4,0,2,-13,-9
1537913973940187,-1,0,0,-3,2,-5,-2,-5
1537913973941184,0,1,-1,0,-3,-3,-7,-7
1537913973941184,-4,-8,-3,-1,3,0,1,-8
1537913973963126,-5,-1,0,1,-1,-1,8,6
1537913973963126,-4,3,0,1,-2,-4,-3,-6
1537913973964123,14,-1,-4,0,0,-8,1,3
1537913973964123,-3,-3,-4,1,-1,10,3,6
1537913973978086,-4,3,0,-3,0,-9,-6,-7
1537913973978086,-4,-2,-1,1,0,3,-3,0
1537913973978086,-10,-5,1,-1,0,-1,9,-4
1537913973978086,8,4,-2,-4,2,-4,11,32
1537913974001024,0,-4,-4,-1,-4,1,-10,-7
1537913974001024,-6,-4,2,-5,-1,-2,3,-3
1537913974002022,1,4,-1,-2,-1,2,0,-2
1537913974002022,3,-2,-2,0,0,-3,-5,-9
1537913974022965,-6,-2,2,1,1,2,-4,4
1537913974022965,4,-2,-1,2,0,0,31,7
1537913974023963,-3,4,2,-1,-4,2,-9,-2
1537913974023963,4,-3,-1,-1,-3,-3,-6,3
1537913974037925,-4,-1,-3,-2,-1,-9,-2,0
1537913974037925,4,-1,-2,-2,-3,6,-10,-5
1537913974037925,0,-3,2,-1,0,2,6,2
1537913974037925,-4,-2,-1,0,2,-4,-5,-10
1537913974060865,-2,-1,1,-1,4,-4,8,2
1537913974060865,3,1,1,1,-7,4,-6,6
1537913974061862,0,0,1,-4,0,0,-3,2
1537913974061862,0,1,0,0,0,-3,-9,-4
1537913974083803,0,0,-1,0,-3,-2,3,-3
1537913974083803,1,0,-1,0,3,-21,-5,2
1537913974083803,-4,-2,-2,3,1,30,1,-5
1537913974083803,1,-1,0,1,0,-7,0,-4
1537913974097766,0,2,1,-3,-2,8,8,0
1537913974097766,-1,0,-2,-1,-3,-6,-4,-1
1537913974098764,0,3,-1,0,-1,-11,-2,-2
1537913974098764,0,-2,-1,0,-2,2,0,-3
1537913974120705,-1,-1,-3,-2,-2,1,1,3
1537913974120705,-2,-3,0,0,1,-2,-2,-1
1537913974121702,1,-1,-1,-1,1,-6,0,1
1537913974121702,0,1,-1,-2,-2,6,-2,-2
1537913974143644,0,0,0,-2,-1,-3,-2,2
1537913974143644,0,-3,-1,-1,3,1,-2,-2
1537913974143644,-2,-2,1,2,10,-11,-1,-2
1537913974143644,1,-3,0,-4,-17,18,2,2
1537913974157607,0,1,-4,-6,-9,-16,0,0
1537913974157607,0,0,-1,-2,-6,2,0,-2
1537913974158605,-2,-3,0,0,-4,-8,0,-3
1537913974158605,-1,-1,-2,2,5,-6,-4,0
1537913974180547,0,0,0,1,3,17,-2,0
1537913974180547,-3,-1,-1,0,1,-2,0,1
1537913974181545,-2,-1,-1,-1,-1,3,-6,1
1537913974181545,1,-1,0,0,0,-8,2,-5
1537913974203485,-1,0,-2,2,1,2,1,2
1537913974203485,-3,-1,-1,2,2,-2,-1,-1
1537913974204483,0,-1,-3,-2,-5,2,3,0
1537913974204483,-1,-3,-1,-2,1,-3,-4,-1
1537913974217448,1,-2,0,0,2,-2,-1,3
1537913974217448,1,1,1,2,8,18,-3,2
1537913974218445,-2,-2,2,11,33,-3,-4,-1
1537913974218445,4,1,1,-7,-32,1,-2,0
1537913974240385,-1,-2,-3,-3,-3,-5,2,-6
1537913974240385,-3,0,-3,-9,-2,-6,8,4
1537913974241382,8,2,-3,1,-25,-10,11,7
1537913974241382,8,0,-1,-10,26,-3,-4,3
1537913974263324,-6,-3,-3,-11,-27,-11,-10,-3
1537913974263324,-2,-2,0,-2,-23,-1,-5,-2
1537913974264321,-5,0,-1,1,5,-1,-2,-18
1537913974264321,-14,-3,-3,10,6,-7,-8,9
1537913974277286,8,2,-2,6,12,4,14,17
1537913974277286,-2,-4,0,2,16,2,2,4
1537913974278284,3,-1,1,-1,-8,8,-1,1
1537913974278284,-2,3,-1,0,0,1,-2,-10
1537913974308204,-8,-6,-2,0,5,8,-7,-8
1537913974308204,-7,-1,-2,1,2,0,4,3
1537913974309201,11,2,-2,-4,-6,1,-3,1
1537913974309201,-6,-7,-6,-6,-4,-3,-2,-7
1537913974322166,2,1,0,3,3,-3,-1,3
1537913974322166,2,3,-1,-2,-6,-5,-4,-6
1537913974330145,-8,-3,0,-4,-3,-2,-2,-1
1537913974330145,-2,1,5,12,45,23,3,-4
1537913974337127,4,1,3,0,-28,-19,-5,2
1537913974337127,11,2,-3,-17,-37,-8,9,7
1537913974345105,-15,-5,-3,-10,-14,-8,-4,-4
1537913974345105,3,1,-3,-6,-12,-3,-1,-8
1537913974361062,-1,0,2,2,21,9,-5,-4
1537913974361062,2,-3,3,10,20,6,-3,2
1537913974361062,1,-2,1,-3,-2,-1,3,7
1537913974361062,-1,2,0,-1,-9,-6,-2,-1
1537913974383004,2,1,-2,1,4,5,1,-4
1537913974383004,-8,-4,-4,-1,-2,0,-2,-9
1537913974384002,2,-2,-5,-1,5,-5,-7,4
1537913974384002,1,2,2,0,-8,0,-2,-1
1537913974396971,0,-4,0,0,8,9,-1,-2
1537913974396971,-4,-3,-3,4,-2,-6,-1,-7
1537913974405943,-7,-1,0,0,5,34,1,-1
1537913974405943,7,0,-1,-8,-19,-43,-2,2
1537913974420902,-4,-1,0,-1,2,1,0,-2
1537913974420902,0,1,-1,2,11,16,-3,-9
1537913974421900,-1,0,-1,-2,3,-20,1,1
1537913974421900,-3,-5,2,4,10,3,-2,2
1537913974442843,-5,0,-4,-6,-26,-24,-7,4
1537913974442843,4,2,-2,1,12,-3,3,10
1537913974444838,-4,-5,0,1,7,29,7,-6
1537913974444838,0,1,-2,-3,-10,-18,1,0
1537913974456806,1,3,-1,-1,1,2,-3,-2
1537913974456806,0,-4,2,2,-2,-5,-6,-4
1537913974465782,-3,-6,0,-1,-5,-15,-1,2
1537913974465782,-3,4,-2,2,3,9,2,2
1537913974480742,2,0,4,3,10,22,1,-3
1537913974480742,5,-23,0,-2,-7,-1,-2,-3
1537913974482736,7,-1,1,-2,2,1,-1,0
1537913974482736,18,-14,-1,1,-4,-2,-1,0
1537913974503681,-4,18,-1,-5,-19,-25,1,-3
1537913974503681,-7,15,0,-6,13,11,-3,-2
1537913974504678,-4,3,-1,5,2,-12,-4,0
1537913974504678,4,6,-6,-8,-21,-1,-4,7
1537913974516646,-11,-9,5,12,33,-17,-3,-1
1537913974516646,1,-5,-5,-19,-59,-15,9,2
1537913974525622,0,-3,1,-3,-2,-4,-4,-2
1537913974525622,-7,-1,2,0,0,15,3,-2
1537913974540583,6,-2,1,0,1,-6,1,-4
1537913974540583,-1,1,3,9,19,-9,-5,-1
1537913974542578,0,1,-1,1,-5,5,0,3
1537913974542578,-2,3,0,-2,0,-6,4,-5
1537913974563523,-2,-1,-1,-2,1,17,5,1
1537913974563523,6,3,2,3,11,1,0,-1
1537913974564521,1,3,-2,-6,-14,1,-1,-2
1537913974564521,-6,-3,0,1,12,7,-1,-2
1537913974577484,0,-5,-2,-2,-2,5,-1,-2
1537913974577484,-10,0,-4,-3,-1,5,-2,-3
1537913974585462,-8,-3,-2,0,5,-15,-2,0
1537913974585462,-2,2,-2,-2,-10,3,-4,-5
1537913974599425,4,-4,-1,5,33,28,3,3
1537913974599425,2,1,-1,-1,-22,-14,-3,5
1537913974608401,6,1,2,-5,-56,11,6,4
1537913974608401,-12,-2,-2,-5,-6,-18,-2,-3
1537913974623361,-3,0,-1,-3,-7,6,1,-1
1537913974623361,-2,1,-1,3,19,10,-1,-3
1537913974624358,-2,0,0,6,26,-1,-2,-3
1537913974624358,1,1,2,1,0,10,2,-1
1537913974637323,1,-4,-1,-1,-11,2,0,-3
1537913974637323,-4,-1,0,4,20,-5,-8,-5
1537913974646299,1,0,0,-1,1,-5,-3,1
1537913974646299,5,1,1,-1,4,0,-4,7
1537913974660262,-3,-2,-1,-2,0,-5,-2,-5
1537913974660262,-2,-2,-1,-2,-6,-6,-1,-2
1537913974667243,0,-2,-2,0,2,-1,0,-2
1537913974667243,-4,-3,-1,2,2,-2,0,0
1537913974683201,-5,0,0,0,-2,7,0,-1
1537913974683201,-2,-5,0,-5,-18,-5,-1,1
1537913974685196,-4,-4,-3,-1,5,0,0,-2
1537913974685196,-10,-6,-1,2,8,-2,0,-4
1537913974706140,-4,-4,1,0,0,-2,0,-1
1537913974706140,-2,4,-4,2,9,7,-3,-1
1537913974707138,2,-2,0,-1,0,10,1,-1
1537913974707138,0,-4,-1,3,5,7,-1,1
1537913974720103,5,2,-2,-7,-17,18,-4,2
1537913974720103,2,-1,0,1,8,-34,-4,0
1537913974727085,2,-1,-3,-1,-6,8,-1,-2
1537913974727085,-1,4,1,2,12,7,1,-1
1537913974743042,8,1,2,2,4,2,0,-1
1537913974743042,-3,-2,1,1,5,2,2,0
1537913974745038,1,3,-1,0,6,-3,1,-1
1537913974745038,-12,-3,1,-3,-5,-4,-1,-3
1537913974765981,1,-2,-2,-1,-5,-16,0,-3
1537913974765981,1,-1,0,-2,-1,10,-9,-2
1537913974766979,-2,3,2,3,10,-41,10,1
1537913974766979,-1,-2,-1,0,-3,22,3,1
1537913974779944,7,1,-1,2,7,11,0,-4
1537913974779944,-4,-1,-1,-4,-13,66,4,-10
1537913974786925,-3,0,-2,-13,-45,-12,2,-7
1537913974786925,-1,0,1,8,-16,-63,-7,5
1537913974803880,-3,-1,-2,2,4,14,-6,-8
1537913974803880,-1,-1,1,8,60,-13,8,-1
1537913974804879,1,2,4,14,69,42,-8,-7
1537913974804879,6,-3,-10,-42,-111,-86,8,10
1537913974833798,-11,-3,4,24,104,-24,-39,-37
1537913974833798,0,-1,-3,-10,15,112,16,5
1537913974834795,6,1,-1,-4,-27,-94,-15,23
1537913974834795,2,4,15,39,103,61,-10,-9
1537913974839782,4,-1,-11,-42,-106,11,10,11
1537913974839782,-3,-9,-8,-12,-40,-104,-12,-1
1537913974846764,-19,-6,0,6,98,72,-3,-20
1537913974846764,23,15,3,-1,-71,-106,-3,-1
1537913974863719,-3,3,6,5,-18,-11,26,15
1537913974863719,-2,-7,11,37,83,6,-5,-14
1537913974864716,2,7,-6,-10,-9,-56,11,8
1537913974864716,-5,-1,-4,-5,30,72,4,6
1537913974885660,-13,-2,3,9,-23,61,4,-20
1537913974885660,8,0,-7,-22,-116,-36,10,14
1537913974887655,0,1,2,25,77,114,-15,1
1537913974887655,-4,-1,7,23,84,93,6,2
1537913974900620,-5,-8,-14,-23,-52,-20,-15,-7
1537913974900620,-3,3,6,12,58,48,17,19
1537913974906604,3,-1,-7,-31,-128,-75,-1,4
1537913974906604,-3,1,4,22,80,-56,-1,-7
1537913974923558,4,3,10,16,54,-40,-8,12
1537913974923558,-4,-7,-16,-24,13,6,-23,-9
1537913974924556,-6,-7,9,25,118,70,3,-7
1537913974924556,2,-1,-14,-38,-85,-26,-5,-2
1537913974945500,3,1,6,8,23,-16,16,19
1537913974945500,2,5,13,30,83,-81,-9,-6
1537913974947495,2,-6,-17,-41,-128,-113,14,1
1537913974947495,-11,-4,1,16,69,37,-8,-18
1537913974959463,0,-5,-7,-17,-56,96,3,-4
1537913974959463,0,6,5,5,4,-80,12,17
1537913974968440,7,-4,-4,-11,-41,67,13,3
1537913974968440,-8,-6,1,18,68,-9,-9,-13
1537913974983399,6,-4,-12,-28,-65,-117,-40,-25
1537913974983399,10,6,0,-5,-38,68,33,26
1537913974984397,0,5,7,16,51,64,-5,4
1537913974984397,-10,-12,-7,-31,-37,68,-10,-9
1537913975006337,-6,3,3,14,58,-3,15,5
1537913975006337,-1,-2,6,22,46,111,-32,-5
1537913975007335,2,-5,-8,-19,-58,-115,4,-4
1537913975007335,-5,-6,-16,-31,-64,-73,-20,-12
1537913975021297,-3,3,2,10,42,-7,11,22
1537913975021297,-3,-2,-4,-13,-7,6,-14,-19
1537913975028278,-4,0,6,27,67,8,2,-2
1537913975028278,-2,0,-1,-3,-26,34,5,8
1537913975043238,7,-1,-7,-21,-42,-36,18,11
1537913975043238,2,1,-4,1,33,8,1,-26
1537913975045233,2,-3,2,8,63,-31,-38,-3
1537913975045233,5,6,-5,-13,-8,-45,32,15
1537913975066177,-1,-2,0,-2,-11,127,2,8
1537913975066177,-10,-2,-6,-15,-44,-25,8,0
1537913975067174,4,-2,-8,-13,-56,-60,-15,3
1537913975067174,3,1,8,21,6,24,-9,-10
1537913975079143,-5,-1,5,16,46,-26,10,5
1537913975079143,0,0,-2,-7,-34,-34,-9,-8
1537913975088118,-6,-4,0,5,-17,32,1,-10
1537913975088118,-5,-4,0,0,15,0,7,12
1537913975103078,3,-1,-4,-10,-33,-2,-2,-4
1537913975103078,-3,0,4,3,1,67,-1,-4
1537913975105073,0,1,0,3,25,4,5,2
1537913975105073,3,0,-4,-18,-88,-6,5,6
1537913975126017,-3,-3,3,10,27,-44,-9,-6
1537913975126017,-2,1,-2,-3,-12,13,3,6
1537913975127014,0,0,0,1,10,37,2,1
1537913975127014,0,2,1,4,26,15,-3,-3
1537913975139980,-3,0,-1,5,15,-32,-4,-1
1537913975139980,-1,-3,-3,-6,-20,-68,-3,1
1537913975146962,-7,1,0,-1,-7,3,3,-3
1537913975146962,7,-1,-1,-2,-2,0,1,-1
1537913975162922,-1,-2,1,0,10,2,-4,1
1537913975162922,-1,0,-1,-4,-7,-22,-1,-1
1537913975164915,-2,-3,-1,-2,-6,13,4,-2
1537913975164915,-2,-3,0,6,17,11,0,1
1537913975185860,0,-2,0,0,10,3,0,-1
1537913975185860,0,-2,-1,-4,-15,-13,-4,-2
1537913975186856,0,2,-3,-1,-5,0,1,1
1537913975186856,-1,0,0,2,9,8,0,1
1537913975199821,-3,-1,-3,-2,2,-3,-2,-1
1537913975199821,0,1,-1,-3,-15,-13,-2,0
1537913975208798,-3,-1,2,4,21,12,4,-1
1537913975208798,1,0,1,-2,-8,-15,-1,-2
1537913975223759,-2,2,0,-3,-20,-2,-8,-6
1537913975223759,-2,-2,1,6,20,-6,3,2
1537913975224757,-2,-2,-3,-6,-16,-33,-5,-1
1537913975224757,0,0,0,-3,2,-15,4,-5
1537913975245698,-4,-2,0,-1,4,-18,-51,-11
1537913975245698,1,0,1,5,7,27,45,14
1537913975247692,0,-1,-3,-5,-12,-21,-116,-17
1537913975247692,-2,-2,-1,4,21,63,11,1
1537913975259660,6,2,0,-2,-1,-29,-3,15
1537913975259660,-9,-6,-3,-8,-15,-6,13,-19
1537913975268636,7,4,5,4,-1,-5,63,24
1537913975268636,9,7,-1,2,4,11,-56,-3
1537913975283596,-5,-20,-7,-4,8,-1,-16,-12
1537913975283596,-13,-2,-5,-5,-10,-8,-20,-10
1537913975284594,-5,4,-1,-3,-3,-4,25,-5
1537913975284594,-10,-8,2,0,5,26,3,0
1537913975307532,1,-17,-3,-2,9,29,127,12
1537913975307532,20,46,4,0,-10,-75,-81,4
1537913975308530,8,-30,5,1,-11,7,13,-10
1537913975308530,3,30,2,2,-15,-22,-50,1
1537913975319500,2,7,5,15,32,49,-59,2
1537913975319500,9,24,-3,-11,-10,25,50,3
1537913975328477,-6,-12,-5,-4,6,8,15,2
1537913975328477,-10,-22,-3,3,-6,-40,-19,-10
1537913975343436,-12,-7,-6,-8,-14,-7,-38,-9
1537913975343436,-5,-7,9,9,3,-10,-5,2
1537913975344434,-3,3,4,1,-4,25,-69,-15
1537913975344434,-1,-9,0,-1,-1,-17,76,10
1537913975365377,-10,4,-4,2,-3,8,-2,-7
1537913975365377,16,2,4,0,7,12,13,6
1537913975367372,-9,-16,-13,-4,-5,-17,-2,-13
1537913975367372,6,18,3,2,0,8,-20,-2
1537913975379340,1,-5,6,4,1,2,22,6
1537913975379340,-9,-17,-17,-12,-6,-7,-17,1
1537913975388316,-12,32,4,0,-2,4,-11,-1
1537913975388316,2,-15,1,2,3,6,5,-7
1537913975402279,1,7,2,-2,-11,-23,30,9
1537913975402279,5,-8,-6,1,-1,3,-16,-7
1537913975409260,9,-2,-3,-2,2,-30,-57,16
1537913975409260,-20,3,0,1,7,31,62,-1
1537913975426215,11,28,1,-2,-9,-20,-41,-6
1537913975426215,-2,-24,0,2,-2,9,-4,4
1537913975427213,-2,-14,-4,0,7,43,3,0
1537913975427213,-3,-1,0,-2,0,-24,-11,-4
1537913975448157,8,2,-1,-2,-2,-10,-24,2
1537913975448157,2,-6,-1,-1,-3,-2,-21,-5
1537913975450152,7,7,3,2,-1,-1,54,7
1537913975450152,0,-5,-2,-3,-2,-7,-21,1
1537913975462119,-8,1,-2,-1,-1,-22,-8,-6
1537913975462119,-3,-8,-2,-1,-2,20,-13,1
1537913975471096,-5,2,4,3,2,18,26,8
1537913975471096,3,-3,-6,-5,0,-10,8,-3
1537913975486055,-1,-5,-2,1,3,0,-5,1
1537913975486055,-14,-2,3,1,0,-13,20,-3
1537913975487052,5,6,-4,-3,-5,0,-8,-2
1537913975487052,0,-2,3,-4,0,5,-3,2
1537913975507996,-3,3,-4,-1,-2,5,2,0
1537913975507996,-7,-8,5,1,-5,-33,1,2
1537913975509991,-2,2,-1,2,1,33,-36,-9
1537913975509991,4,0,-3,0,-1,-24,14,9
1537913975521959,-3,-5,-1,-2,-2,-9,19,-4
1537913975521959,-1,3,-2,-1,0,13,16,3
1537913975530936,-4,-5,-3,-2,1,29,0,-7
1537913975530936,5,1,3,-1,-2,-23,-30,3
1537913975545897,4,-2,-1,-1,-1,18,-1,2
1537913975545897,2,-3,-2,-3,-2,-12,-12,-7
1537913975546894,-2,3,2,-1,0,-28,1,-2
1537913975546894,-8,-3,-2,0,1,26,35,-4
1537913975568834,-3,-2,0,-1,-2,-11,-10,-4
1537913975568834,2,1,-1,2,-2,32,8,1
1537913975569832,1,-1,-2,1,0,-23,-3,3
1537913975569832,3,3,1,3,1,0,-7,-1
1537913975582797,-1,-4,-4,-1,-2,7,10,1
1537913975582797,-5,0,1,0,-1,-30,-20,-10
1537913975589779,-1,1,-1,-1,1,7,17,2
1537913975589779,-1,-3,-4,-3,-3,-18,-3,0
1537913975605735,0,-2,1,-1,-2,-10,4,-1
1537913975605735,-2,1,3,0,2,23,-14,0
1537913975607731,0,2,-2,-3,1,11,28,-1
1537913975607731,-3,-3,0,-2,-5,8,2,2
1537913975628673,-2,-3,0,-1,0,-11,-8,-1
1537913975628673,3,-2,0,0,-1,13,5,5
1537913975629672,3,2,2,1,-3,-29,2,1
1537913975629672,-2,-4,-2,-3,-1,10,-7,-1
1537913975642636,-2,2,-1,-1,-2,11,1,-5
1537913975642636,1,-2,-2,1,0,-23,-2,11
1537913975649617,-6,-2,-2,-1,0,-5,11,-2
1537913975649617,-1,-2,-3,-2,-3,-13,-13,-8
1537913975665574,13,3,4,4,21,-8,0,1
1537913975665574,-18,-7,-3,-4,-23,5,-2,-8
1537913975667570,8,-3,-2,-4,5,-8,-4,-6
1537913975667570,4,1,3,2,-18,9,-2,2
1537913975688513,-38,-11,-3,-7,6,40,-5,-21
1537913975688513,57,16,1,7,24,-3,5,26
1537913975689511,30,7,2,6,18,10,-12,-3
1537913975689511,8,-9,-5,-12,-25,-40,-27,-22
1537913975702483,-1,-5,-1,-9,-26,-16,25,24
1537913975702483,-34,-4,-2,1,1,-32,16,-8
1537913975717436,-19,-5,-1,-3,-17,22,-4,2
1537913975717436,43,8,-1,9,54,30,3,16
1537913975725415,-21,-22,-5,0,-29,15,-1,-28
1537913975725415,39,43,8,-2,8,-37,11,20
1537913975727410,4,-3,0,0,-2,2,-12,-11
1537913975727410,-22,-4,3,2,-11,10,44,31
1537913975748355,-27,-5,-5,-14,-25,-13,22,-6
1537913975748355,-5,-13,-6,3,-1,-24,-27,-21
1537913975749352,-5,0,0,1,5,-40,2,-12
1537913975749352,-10,1,1,3,22,85,-8,-4
1537913975762317,17,0,3,7,15,-32,-29,-24
1537913975762317,-16,-3,-2,-2,-8,29,25,25
1537913975769298,5,-1,-3,-7,6,-1,15,-2
1537913975769298,-17,-11,0,-1,-16,-7,6,34
1537913975786254,23,10,-1,1,-2,-45,19,8
1537913975786254,-5,-10,-5,-9,-3,59,-34,-25
1537913975787251,-12,-5,-3,-2,-9,6,29,12
1537913975787251,-2,1,-2,-3,-7,-33,-20,-27
1537913975808194,9,4,2,5,14,-23,-31,15
1537913975808194,-11,-7,0,3,-7,24,16,-15
1537913975810189,7,0,-5,-3,5,-2,14,1
1537913975810189,1,0,-3,-2,-4,-27,-15,-7
1537913975823156,3,3,-1,1,6,32,-31,9
1537913975823156,-24,-12,-1,-1,4,-7,11,-4
1537913975829139,-7,-3,0,-5,-23,3,-3,-33
1537913975829139,5,3,-2,0,0,-16,0,53
1537913975846095,8,5,1,3,14,62,-25,1
1537913975846095,4,-5,-2,-6,-7,-8,5,22
1537913975847091,-11,0,-1,-1,-12,-17,-22,2
1537913975847091,-12,-2,0,1,25,-13,-8,-42
1537913975868033,16,5,-1,-6,-39,4,31,18
1537913975868033,-1,-3,1,10,32,-6,-15,4
1537913975870028,-5,-4,-3,-13,-32,40,20,-17
1537913975870028,1,-2,-1,-3,-7,-16,-6,26
1537913975882993,-9,0,2,4,17,-2,-26,-13
1537913975882993,-6,-3,0,-1,1,11,13,-30
1537913975888977,-15,2,1,1,7,-4,-31,-23
1537913975888977,31,6,-1,-1,0,14,37,-8
1537913975906929,-3,-2,-2,-1,0,-15,23,9
1537913975906929,3,-4,-1,-4,-10,15,2,-9
1537913975908924,-9,1,0,7,17,2,-22,12
1537913975908924,-5,-2,-4,-4,-11,-12,-32,-14
1537913975927873,0,2,1,3,15,21,25,-3
1537913975927873,-2,-5,-1,-4,-19,-17,41,16
1537913975929868,17,2,2,0,2,-4,3,-4
1537913975929868,-20,-4,-1,4,10,28,-7,-19
1537913975941836,2,1,-1,1,-6,-28,-22,-35
1537913975941836,-11,-2,-5,-6,-3,1,-41,0
1537913975950812,6,-2,2,2,-4,-10,55,34
1537913975950812,-6,0,1,-1,-8,-38,-9,-16
1537913975965772,-7,-4,1,3,16,13,18,-3
1537913975965772,-4,1,0,-2,0,31,-31,-10
1537913975966770,4,0,-1,1,4,8,10,31
1537913975966770,4,2,0,-3,-1,3,10,-1
1537913975988712,1,1,-1,0,0,4,26,-12
1537913975988712,-3,-1,-2,0,-3,-31,-13,17
1537913975989711,-7,-2,-3,-2,0,-27,-87,-31
1537913975989711,-6,0,1,0,-4,24,13,-10
1537913976001678,1,-3,0,-4,-13,-12,58,22
1537913976001678,11,1,-1,-1,2,-9,-2,-21
1537913976010653,-7,-2,-2,1,10,7,0,-1
1537913976010653,-3,-1,1,2,-6,-22,-17,10
1537913976025614,-6,-2,-1,-7,-16,13,-31,1
1537913976025614,6,2,-1,0,7,-11,-18,-10
1537913976027610,-2,-1,-2,-2,-11,-53,19,13
1537913976027610,3,1,-1,-1,4,32,8,4
1537913976048551,6,-2,0,1,13,3,3,8
1537913976048551,-4,-2,0,-2,-8,14,-12,6
1537913976049549,1,2,0,2,6,-5,14,10
1537913976049549,4,0,-1,-2,-8,-23,16,-9
1537913976061517,-4,-4,-1,1,1,18,-4,3
1537913976061517,-6,-2,-1,-1,3,-13,-7,15
1537913976070493,7,-2,2,2,2,28,54,-9
1537913976070493,2,-1,0,-2,-5,-13,-7,65
1537913976085452,-12,2,-1,0,4,11,-38,-29
1537913976085452,9,2,-1,0,-3,-10,17,4
1537913976087447,-4,-8,-5,-2,-7,-9,-11,-5
1537913976087447,-8,1,-1,1,3,27,12,-22
1537913976108391,-2,4,-1,-1,0,-17,14,-8
1537913976108391,1,-7,0,0,-2,2,17,7
1537913976109388,-8,-4,3,1,0,15,8,8
1537913976109388,-7,3,-1,0,2,-16,-23,-42
1537913976122353,11,0,2,-1,-1,-11,-12,37
1537913976122353,-4,-7,-3,1,-2,22,3,-19
1537913976131329,-1,3,-1,-3,0,-5,9,5
1537913976131329,-1,-1,0,0,-3,-22,-29,-16
1537913976146290,1,-4,-3,-2,-3,5,3,-1
1537913976146290,1,3,2,1,0,-2,18,1
1537913976147287,3,1,-1,-1,2,4,-52,-2
1537913976147287,0,-6,-2,-2,-3,-16,9,-8
1537913976168231,-1,2,-1,1,2,5,-3,8
1537913976168231,-6,-1,-4,-2,-3,13,-14,-1
1537913976170226,13,3,-1,-1,0,17,2,6
1537913976170226,-2,-3,-1,2,0,2,-25,-7
1537913976183192,-4,-4,0,1,-3,-26,-2,5
1537913976183192,-2,17,-1,-1,-1,-9,14,-2
1537913976191170,-1,1,0,0,1,35,-34,-1
1537913976191170,1,2,0,-2,-2,-3,-7,2
1537913976206130,8,3,0,-3,1,15,10,-4
1537913976206130,-13,-24,-1,-2,-1,-17,-5,-7
1537913976207128,3,2,-2,0,-2,12,2,9
1537913976207128,0,-1,-1,-1,-4,-11,-12,5
1537913976228071,3,5,0,3,6,-17,-14,1
1537913976228071,1,-5,-2,-2,-2,9,11,-11
1537913976230067,-8,-5,-3,-3,0,-16,-9,-6
1537913976230067,2,-4,-1,-2,0,22,51,8
1537913976242035,-1,-4,0,-1,-4,-8,-16,-2
1537913976242035,6,4,0,-2,-1,-13,-30,-14
1537913976251011,-2,-3,0,1,0,-2,16,19
1537913976251011,2,8,0,-3,-1,2,-2,7
1537913976265970,-5,-3,-4,-1,-3,2,24,6
1537913976265970,0,2,-2,-1,-1,2,-11,-8
1537913976271954,0,1,1,0,0,-11,10,-14
1537913976271954,-2,-4,0,-2,-5,1,-11,-5
1537913976287911,-4,-3,0,1,2,11,-4,-3
1537913976287911,2,-3,-2,-3,-2,3,5,5
1537913976289906,1,1,-1,0,1,-8,7,-2
1537913976289906,-3,-4,-2,-2,-2,-15,11,-2
1537913976301874,0,0,-1,-1,0,-20,-16,-2
1537913976301874,1,4,1,3,0,-8,15,7
1537913976316834,-5,-4,2,-3,-3,-2,-26,-11
1537913976316834,-1,0,-1,0,1,4,9,9
1537913976325810,0,0,0,-2,-1,-3,-9,-3
1537913976325810,-1,0,-2,-1,0,15,17,1
1537913976326808,-1,-1,-2,-2,-7,-20,-23,-3
1537913976326808,-3,-1,-2,1,2,-14,-2,-18
1537913976348750,-3,-6,0,0,-1,7,10,-3
1537913976348750,0,3,-1,-5,-7,-36,-25,9
1537913976350744,0,-3,0,0,2,34,17,-1
1537913976350744,-1,1,-2,-1,-3,-3,-11,-1
1537913976361714,1,0,0,0,-2,-7,11,2
1537913976361714,-2,-3,-1,-1,1,9,-4,-8
1537913976370691,4,3,0,0,-1,-29,5,-4
1537913976370691,-3,-1,0,0,-1,26,4,-10
1537913976385650,-3,-3,-2,-3,-1,-25,-49,2
1537913976385650,4,2,3,4,6,14,22,34
1537913976387645,1,1,-2,-3,0,13,25,11
1537913976387645,-1,-4,-2,-2,-2,-9,-19,-7
1537913976408590,-2,-2,0,-3,-4,1,5,5
1537913976408590,-1,0,0,2,-2,5,-25,-22
1537913976409588,-1,-2,0,0,-2,-23,-11,-3
1537913976409588,0,-2,-1,1,-1,-12,16,13
1537913976421555,-2,2,0,-1,-2,43,1,-18
1537913976421555,-1,-4,1,-1,-5,2,-2,-1
1537913976430531,-1,-2,0,1,5,10,9,1
1537913976430531,3,-1,-1,-4,0,18,2,-4
1537913976445491,-3,0,-3,1,-1,-12,-10,-2
1537913976445491,-2,-2,-4,-2,-4,0,8,-4
1537913976447486,0,1,-1,-1,-1,3,-8,3
1537913976447486,0,1,0,1,2,5,14,9
1537913976468430,1,-1,0,-2,-2,5,-1,2
1537913976468430,-1,0,-1,-2,1,11,5,-2
1537913976469428,-2,0,-4,-1,-3,-5,-5,-6
1537913976469428,-2,-3,-1,-1,1,4,5,1
1537913976482391,-1,2,-1,-2,-4,-12,3,4
1537913976482391,0,0,0,3,2,32,6,-6
1537913976491367,3,0,-1,1,5,-2,-6,1
1537913976491367,-1,-2,-3,-2,-3,-1,-14,1
1537913976506327,0,-4,-4,0,-1,-9,21,8
1537913976506327,1,-3,0,-3,-2,-9,-2,-4
1537913976507325,-2,-2,-2,0,0,2,-5,-12
1537913976507325,1,1,1,0,0,8,-3,20
1537913976528269,1,0,0,-2,-1,-2,-4,-11
1537913976528269,0,-1,0,-1,-2,-25,-11,8
1537913976529267,-2,-5,-3,0,2,1,5,-5
1537913976529267,-3,6,1,0,-1,-11,-9,-8
1537913976542231,0,-3,-3,1,-5,-15,11,10
1537913976542231,-1,-1,-2,-2,-1,-4,2,-10
1537913976551208,4,1,0,0,-1,-7,4,8
1537913976551208,-1,-3,0,-2,0,-9,-6,-6
1537913976567165,-4,-1,0,-3,2,11,-5,-3
1537913976567165,-1,0,1,-1,-2,-13,0,-4
1537913976568162,-3,-2,-1,-2,-5,-37,-3,1
1537913976568162,-2,-1,-2,2,2,24,7,0
1537913976588109,0,1,2,-1,0,-16,-9,-6
1537913976588109,-1,-2,-3,1,-1,-1,3,2
1537913976590104,-3,0,0,-1,-5,-33,-1,3
1537913976590104,1,-1,0,-1,-1,-26,-3,-6
1537913976611048,0,0,0,0,3,18,-7,4
1537913976611048,-1,1,-3,-2,1,-9,-4,1
1537913976612045,-1,-1,0,-1,-4,10,9,6
1537913976612045,-1,-2,0,-1,0,-17,9,5
1537913976626008,0,0,1,1,-1,-4,-2,-4
1537913976626008,-1,0,0,0,0,-6,3,6
1537913976627005,-2,2,-2,-1,-2,5,-6,-11
1537913976627005,0,-2,-1,0,0,-5,2,1
1537913976647949,-1,-2,-1,-1,1,7,-3,-5
1537913976647949,-2,0,-1,-1,0,1,-1,-2
1537913976654931,-2,-1,0,0,-1,19,6,7
1537913976654931,-1,1,-2,-1,-2,-12,-10,-6
1537913976670887,1,-3,1,-1,0,25,-2,-1
1537913976670887,0,-1,-4,-1,-1,-3,0,-3
1537913976671885,-2,-3,-1,-2,-2,14,-7,-2
1537913976671885,0,0,1,-1,-3,12,-7,-2
1537913976685847,-2,-3,-1,-1,-4,-7,4,2
1537913976685847,-1,-3,1,-2,1,8,-4,-3
1537913976686845,0,-2,-1,-1,0,8,7,4
1537913976686845,1,1,-4,1,-1,7,-4,0
1537913976708786,0,0,0,-2,-2,-7,-8,-7
1537913976708786,-3,0,1,-1,-2,2,2,0
1537913976709784,2,-1,-1,-2,-1,-3,0,3
1537913976709784,-2,1,-1,-2,-3,11,1,-5
1537913976730729,1,-1,-2,1,0,-6,-1,6
1537913976730729,-1,-2,-2,-2,0,-3,-1,-2
1537913976732724,-1,-1,1,-1,1,13,3,-3
1537913976732724,-1,-2,1,-1,0,1,-2,-3
1537913976745688,-2,-2,-4,-1,-2,-16,1,-1
1537913976745688,-1,-2,0,1,2,31,2,9
1537913976751673,-1,-1,-2,-1,-1,1,-4,-2
1537913976751673,0,-1,-1,-1,-1,1,-2,-2
1537913976768629,-2,1,-1,-1,1,17,1,-6
1537913976768629,2,-1,1,1,-2,-12,-4,11
1537913976769625,1,-1,-2,-1,-1,7,2,4
1537913976769625,-2,-3,1,-1,-2,8,1,0
1537913976790568,-2,1,-1,-1,0,5,2,4
1537913976790568,0,0,-1,0,-1,-1,-3,-6
1537913976792564,-1,-2,0,-1,0,12,0,-2
1537913976792564,0,-2,0,-2,-2,6,4,3
1537913976805529,0,0,1,-4,-3,-3,-5,-4
1537913976805529,-4,0,0,0,-1,5,-5,-7
1537913976811513,-1,1,-1,-1,-1,-6,3,-2
1537913976811513,-2,0,-1,-3,1,9,-1,2
1537913976828467,-1,-2,0,0,0,14,2,2
1537913976828467,-1,2,0,0,0,4,-2,-8
1537913976829466,-1,1,-1,-1,-3,-5,-5,1
1537913976829466,-2,-1,-1,-2,-2,14,3,-5
1537913976851407,0,-2,-1,0,-1,-2,-3,-1
1537913976851407,-1,0,-1,-1,1,-10,-10,-2
1537913976852405,-1,0,1,2,-1,-3,-1,-6
1537913976852405,0,-2,-2,1,-1,-2,5,12
1537913976865369,-2,-2,-2,-1,-3,-14,-3,2
1537913976865369,1,-1,-3,0,-1,-18,1,2
1537913976872349,-2,-2,1,1,3,27,-9,-2
1537913976872349,-3,-1,1,-1,0,-5,0,-9
1537913976888306,-1,0,-1,0,-1,11,1,0
1537913976888306,-1,-1,-1,-3,-2,-20,1,-3
1537913976889303,-7,-3,0,-3,-3,-6,-1,-17
1537913976889303,1,-3,-3,3,0,-2,5,4
1537913976911245,-1,1,0,0,1,-7,0,1
1537913976911245,-1,-1,-1,0,-1,4,-4,-5
1537913976912242,1,-1,0,-1,-1,-15,5,9
1537913976912242,-5,-1,-2,0,0,1,-2,-9
1537913976925208,1,-1,0,1,-2,-5,-1,-3
1537913976925208,-1,-1,0,0,-3,1,4,0
1537913976932189,0,0,0,-2,-2,-3,-7,7
1537913976932189,0,-1,0,-3,-5,-36,-7,-4
1537913976948146,1,0,-1,3,9,59,7,3
1537913976948146,-1,0,-1,-5,-3,-10,-8,-7
1537913976950141,1,-3,-2,0,1,-6,-1,4
1537913976950141,-1,0,-1,-1,-2,-4,-9,0
1537913976971085,-4,-2,0,-3,-2,-28,5,-11
1537913976971085,0,-1,-1,1,0,7,0,14
1537913976972083,2,1,-3,-2,-1,0,-3,5
1537913976972083,0,-2,-3,-1,-1,-9,-8,-2
1537913976985048,-3,-2,0,0,-5,-36,-42,-2
1537913976985048,2,0,-2,3,2,49,83,4
1537913976992029,3,2,-1,-3,-4,-24,0,4
1537913976992029,-1,-1,-3,-2,0,9,-2,-1
1537913977007987,1,-3,0,0,0,19,-5,-1
1537913977007987,-5,-4,0,-1,-3,-20,-15,-14
1537913977009982,-1,1,-2,1,0,16,-2,5
1537913977009982,1,2,1,1,0,-26,6,3
1537913977030927,1,-2,1,-4,-1,-6,11,-3
1537913977030927,5,-1,-3,-1,-2,-19,-23,2
1537913977031925,3,-4,-4,-2,0,23,14,-1
1537913977031925,-4,-2,-1,2,-5,8,-14,4
1537913977045888,-1,1,-1,-3,1,14,24,-1
1537913977045888,-2,2,-1,2,2,-7,12,-3
1537913977051871,-4,1,-2,-1,-3,-22,-7,-5
1537913977051871,1,-1,0,2,-2,0,-15,-5
1537913977068825,0,-2,-3,1,-1,-12,-4,-6
1537913977068825,-4,-4,1,-3,-2,17,-9,6
1537913977069824,0,-2,-1,1,0,5,-13,-11
1537913977069824,2,0,1,1,5,-13,-4,14
1537913977090765,2,1,-2,-2,-3,0,1,11
1537913977090765,0,-4,-1,-3,-1,-9,-11,-4
1537913977091763,-3,-1,-1,-1,-2,-6,7,-2
1537913977091763,3,-1,0,0,-1,-1,-6,-1
1537913977104727,-1,-1,0,3,0,15,2,-6
1537913977104727,-1,-2,-3,-3,-2,-4,-23,1
1537913977113704,-2,0,1,0,-1,-14,-9,-7
1537913977113704,0,-1,0,-3,0,5,16,0
1537913977128663,-1,1,-2,-1,0,-1,0,-2
1537913977128663,1,-1,1,1,-2,-10,-5,7
1537913977129662,-2,-2,0,-3,-1,2,6,-7
1537913977129662,-1,-1,0,-2,0,33,23,-10
1537913977150605,-5,-4,1,-1,-4,-30,-18,5
1537913977150605,-1,1,-2,0,-3,-1,-20,-8
1537913977152599,5,0,-3,2,0,12,-7,6
1537913977152599,0,0,-2,-3,0,-7,4,-1
1537913977164567,1,0,-1,1,-1,1,-4,0
1537913977164567,-1,-2,-3,1,0,-4,0,-3
1537913977173543,-1,-1,-1,-1,-1,-27,-10,-3
1537913977173543,-5,-3,-1,0,0,6,12,-4
1537913977188503,2,-1,0,-2,-3,1,-1,0
1537913977188503,2,1,1,0,-1,-11,-9,4
1537913977189501,-1,0,0,3,0,-2,19,-3
1537913977189501,0,-2,-1,1,-2,-15,-7,-2
1537913977210445,1,-1,-1,-1,-3,-1,3,12
1537913977210445,-3,-1,0,-2,4,12,-14,-3
1537913977212440,0,-2,-1,-5,-5,1,5,10
1537913977212440,1,1,-2,-2,-3,-40,7,6
1537913977224408,-2,1,1,0,-1,25,-17,-6
1537913977224408,1,-1,-3,1,-1,-7,10,1
1537913977233385,0,0,-2,0,-1,6,-5,2
1537913977233385,-1,-3,-4,-1,0,-3,-15,5
1537913977248346,-1,-2,-1,-1,-3,-5,6,-3
1537913977248346,-3,1,0,-2,-1,10,-3,-8
1537913977249343,-3,0,0,-1,0,-7,1,-4
1537913977249343,3,-1,-1,0,-2,9,-3,-2
1537913977271284,-4,-2,0,0,-3,-14,-13,-10
1537913977271284,0,-1,1,0,0,8,15,-7
1537913977272282,3,0,-1,-2,0,8,16,23
1537913977272282,-5,-2,0,-1,-2,41,11,-5
1537913977284249,-1,1,-3,-5,-4,-71,-39,-18
1537913977284249,-2,-4,-2,0,0,-1,52,9
1537913977293226,3,2,0,1,8,60,39,-1
1537913977293226,-1,-1,-2,-4,-1,15,8,-4
1537913977308185,-2,-1,-4,-4,-3,-37,-14,11
1537913977308185,-4,-2,0,0,-4,-10,-24,-12
1537913977310179,-6,-4,0,3,-2,-31,-60,-15
1537913977310179,-11,-5,1,1,-8,34,10,-11
1537913977331122,8,5,1,4,9,34,85,19
1537913977331122,7,3,-1,-1,4,0,-10,20
1537913977332120,-5,0,-2,1,18,14,16,-21
1537913977332120,-10,-4,2,4,10,-8,20,11
1537913977344088,2,-1,-2,-4,-6,13,-83,-26
1537913977344088,9,8,-1,-5,-29,-41,76,10
1537913977353064,-3,-3,-3,-5,-6,45,-6,9
1537913977353064,-3,-3,0,6,34,-19,-28,-26
1537913977368023,-9,-6,-3,-1,-16,42,-1,-48
1537913977368023,8,5,3,1,7,-6,-1,54
1537913977370018,-3,-3,0,-2,-7,-5,8,-31
1537913977370018,3,1,-1,-2,-10,-25,-7,8
1537913977390962,5,1,0,0,13,9,13,15
1537913977390962,-7,-4,-2,-1,1,7,-49,-36
1537913977391960,0,-1,0,-2,-12,-34,18,12
1537913977391960,6,3,-2,0,3,18,-6,5
1537913977404925,0,0,1,-2,-2,0,18,28
1537913977404925,-5,-5,-4,-1,-4,15,-18,-14
1537913977412904,1,-1,1,0,4,-40,-34,4
1537913977412904,-2,0,-1,-2,-9,17,-4,-7
1537913977427864,-3,-1,0,-2,0,-15,-15,-8
1537913977427864,-1,-1,-1,-2,2,-9,-4,-17
1537913977429860,1,1,-1,2,2,3,20,24
1537913977429860,4,2,-2,-5,-10,-15,-19,3
1537913977450803,-4,-4,-1,0,1,8,14,9
1537913977450803,0,-1,0,1,5,15,-43,-24
1537913977452798,3,0,-1,0,-4,4,21,10
1537913977452798,2,1,-1,-3,-7,-3,17,6
1537913977474740,1,-1,-2,1,7,9,9,11
1537913977474740,-5,-3,-3,-2,0,-3,6,-6
1537913977475738,-4,-4,-1,-3,-6,-25,-26,-5
1537913977475738,-1,-2,-1,-2,-3,13,-5,0
1537913977488702,-3,-1,1,2,1,-8,11,-6
1537913977488702,-2,-4,1,2,-1,-12,7,2
1537913977489699,-1,-2,-2,-2,-6,-3,-12,-4
1537913977489699,1,1,-2,-1,4,21,24,2
1537913977510644,-1,0,-1,0,-3,-17,-11,4
1537913977510644,-5,-1,1,-1,-2,14,-28,-8
1537913977512638,3,-1,0,1,5,-12,22,6
1537913977512638,-2,-3,0,-1,-4,-9,27,-1
1537913977524605,2,1,1,0,1,0,-6,-8
1537913977524605,-1,-1,-2,-1,1,4,20,2
1537913977533581,-7,-2,0,-2,-4,13,-25,-13
