timestamp,emg1,emg2,emg3,emg4,emg5,emg6,emg7,emg8
1537907213954639,-2,-7,-5,-5,-2,-2,-4,4
1537907213954639,3,7,7,-2,-2,-1,0,3
1537907213956634,-4,-5,18,1,-1,0,0,-2
1537907213956634,-1,-2,-36,-12,-1,0,0,-7
1537907213957631,-1,-21,-9,-1,2,-1,1,5
1537907213957631,0,-1,20,1,-2,-3,0,1
1537907213960623,1,4,5,0,-2,-1,-1,-3
1537907213960623,0,10,4,1,-1,-2,0,2
1537907213967604,-3,-22,-1,-3,-1,-2,1,-3
1537907213967604,-5,-5,1,-3,-1,0,-1,-2
1537907213978575,2,-6,-8,0,1,-1,0,5
1537907213978575,-4,-1,10,2,0,-2,-1,1
1537907213982564,3,15,-14,-6,-2,-1,1,-1
1537907213982564,-3,-16,0,2,0,0,-1,-2
1537907213997524,2,3,30,-2,0,-1,-1,-1
1537907213997524,1,1,-50,0,-5,-1,0,3
1537907214007498,-2,-15,67,14,2,-1,-2,-3
1537907214007498,2,18,-50,-2,-5,-1,-1,1
1537907214028442,-3,-6,-16,-5,2,0,0,1
1537907214028442,0,-12,-2,4,-1,-3,-2,0
1537907214028442,-1,15,5,-12,-1,-1,0,1
1537907214028442,0,-8,-1,-2,1,1,-1,3
1537907214042404,-1,-13,7,5,2,0,-2,1
1537907214042404,2,24,17,3,-1,0,-1,-1
1537907214084292,2,0,17,-11,-7,-1,-1,-2
1537907214084292,1,7,3,0,-2,-1,0,-1
1537907214084292,1,2,4,-5,-5,-1,-2,0
1537907214084292,-4,-7,1,4,1,-2,-2,-2
1537907214087284,-1,6,-2,2,4,0,1,2
1537907214087284,0,-8,-5,-5,-4,-2,-2,2
1537907214088282,-3,-6,3,-1,-1,-1,-2,-4
1537907214088282,2,13,-4,-1,1,1,1,2
1537907214096261,-2,-1,-13,0,0,-1,-2,-1
1537907214096261,0,-1,20,2,1,0,-1,-2
1537907214102244,-2,4,-9,3,2,-1,0,-2
1537907214102244,0,-1,4,-1,-1,0,-1,-1
1537907214111221,-1,-1,-4,0,-4,-3,-1,-1
1537907214111221,-3,-7,-26,-13,2,2,0,-2
1537907214125183,1,4,33,30,7,0,-1,2
1537907214125183,-1,-2,24,10,10,2,0,-1
1537907214133162,-1,4,-18,-12,-10,-5,-4,-4
1537907214133162,2,2,-3,-28,-5,2,1,1
1537907214156100,-2,-11,50,-19,-2,-3,0,0
1537907214156100,1,0,-4,36,-3,1,-1,-1
1537907214157098,-4,-7,32,48,13,-1,-5,-6
1537907214157098,4,20,-52,-64,-4,-4,0,5
1537907214170063,-3,-12,-4,-31,-16,-5,-4,-3
1537907214170063,2,2,33,18,3,-1,-2,0
1537907214179039,-1,-3,-10,8,-15,-11,-4,0
1537907214179039,-1,-3,18,108,44,11,8,2
1537907214193002,0,15,14,40,-14,-7,-2,-1
1537907214193002,-2,-34,-48,-38,19,10,7,5
1537907214194997,6,35,-30,-110,-72,-17,-3,0
1537907214194997,4,1,46,106,8,4,-1,1
1537907214215940,-2,2,62,67,43,15,3,-1
1537907214215940,-11,1,34,-79,-54,-19,-8,-10
1537907214217935,14,-12,-74,28,38,13,9,13
1537907214217935,2,16,64,-109,-49,-10,-7,-3
1537907214229903,-3,2,79,11,16,4,0,1
1537907214229903,0,4,-79,4,-31,-14,-7,-5
1537907214238880,-8,-31,-74,29,65,27,7,0
1537907214238880,-2,42,79,-65,-36,-16,-5,-4
1537907214253840,0,-27,-128,-76,-1,1,-2,-1
1537907214253840,3,7,47,18,31,22,9,6
1537907214254837,-3,-1,-50,94,-7,-4,-3,-2
1537907214254837,-8,-33,29,34,7,-1,-3,-4
1537907214275780,0,27,-33,1,8,5,3,1
1537907214275780,7,-3,-1,-60,-4,2,4,6
1537907214277775,-15,-12,111,-60,-34,-20,-14,-16
1537907214277775,7,-20,-48,21,24,12,5,9
1537907214289743,3,19,36,-23,-28,-12,-7,-2
1537907214289743,1,-10,-56,-14,30,6,-3,-1
1537907214298719,0,33,127,50,7,2,0,0
1537907214298719,-8,-18,-28,-53,-30,-11,-6,-9
1537907214313679,-2,-13,-31,10,8,-4,-2,-3
1537907214313679,-2,-5,-48,42,4,-4,-1,-3
1537907214314677,1,1,40,-51,-11,-2,1,-1
1537907214314677,-3,0,-27,27,12,4,0,-3
1537907214335620,1,-1,-33,13,1,4,3,2
1537907214335620,-2,4,33,7,-10,-7,-3,-1
1537907214337615,-1,4,-13,-9,-4,2,1,0
1537907214337615,-1,-12,-44,18,14,1,-1,-1
1537907214349583,0,3,-2,3,-3,0,-2,-3
1537907214349583,-3,1,24,-13,-15,-8,-5,-3
1537907214358559,2,-8,-13,3,13,1,2,2
1537907214358559,0,1,-9,12,3,0,-1,-1
1537907214372522,-1,-13,9,-29,-18,-6,-2,-1
1537907214372522,0,3,10,17,4,0,-3,0
1537907214379503,1,-8,-15,4,7,3,4,1
1537907214379503,-3,-13,-1,-3,0,-1,-3,-1
1537907214396458,-2,-1,-11,-5,-8,-1,1,-8
1537907214396458,6,3,3,20,5,1,2,31
1537907214397455,-5,-10,-5,1,4,-1,-11,-9
1537907214397455,-4,-1,-3,-14,-11,-5,-1,-10
1537907214409423,-7,-1,-10,-1,-1,-2,0,-14
1537907214409423,-8,7,7,12,0,-2,-7,-67
1537907214418399,-7,2,7,-8,1,6,15,64
1537907214418399,9,4,-3,5,3,-4,-4,33
1537907214433359,15,2,-8,5,0,3,3,29
1537907214433359,2,-2,4,0,-4,-7,-5,-35
1537907214439343,-1,7,-9,-7,-6,-4,3,13
1537907214439343,-10,0,-4,3,4,3,-4,-57
1537907214456298,-2,-11,-8,1,-1,1,2,17
1537907214456298,-3,18,15,4,1,2,-2,3
1537907214457295,3,-16,-12,-11,-8,-5,-3,-19
1537907214457295,2,9,-3,3,0,0,1,18
1537907214470260,1,48,9,-4,-3,-2,-5,-13
1537907214470260,-4,3,8,4,-1,1,3,12
1537907214478240,0,-7,-4,3,3,0,-2,-7
1537907214478240,-1,-3,-4,-2,-1,0,2,7
1537907214493199,-5,-3,32,1,-2,-2,-1,-9
1537907214493199,-1,-14,-33,-2,13,6,4,14
1537907214500180,3,32,-50,-24,-38,-13,-5,-6
1537907214500180,-2,-42,0,4,3,0,0,-6
1537907214516138,-2,-11,-5,-1,1,-2,-1,-5
1537907214516138,-1,-1,-1,0,1,-1,0,13
1537907214517135,2,-19,34,6,11,2,-2,-14
1537907214517135,-3,5,-17,1,-3,-3,0,0
1537907214530100,-1,-12,-12,-29,-7,-2,0,3
1537907214530100,2,3,7,23,-6,-3,-2,7
1537907214538079,-3,-6,-7,-18,5,2,0,-8
1537907214538079,0,8,5,-4,-3,0,1,3
1537907214553039,0,12,2,27,9,-1,-1,0
1537907214553039,-6,-29,3,-18,-14,-5,-2,-3
1537907214560020,3,29,-17,-9,2,1,-2,-7
1537907214560020,6,14,9,1,-1,2,3,5
1537907214575978,0,-9,-6,-2,0,-1,-3,-5
1537907214575978,1,13,5,17,5,0,2,4
1537907214576975,-1,-23,2,8,0,0,-1,-3
1537907214576975,-4,-4,-7,-16,-5,-2,0,1
1537907214598917,-3,-11,-24,-4,-2,0,0,0
1537907214598917,0,-2,21,1,-3,-1,0,2
1537907214599914,-1,3,23,15,15,5,-2,-1
1537907214599914,-1,12,5,-14,-8,-4,-2,-2
1537907214612879,-2,-23,3,6,-1,-1,0,-1
1537907214612879,1,4,-20,1,6,2,1,6
1537907214619861,0,-6,-3,0,-1,-2,0,-4
1537907214619861,2,19,17,14,5,0,-2,-1
1537907214635818,-4,-1,7,-15,-4,-2,1,-1
1537907214635818,-5,-23,-23,6,-9,-4,0,0
1537907214637813,4,2,16,3,3,0,0,-2
1537907214637813,-2,1,18,-2,-5,-3,-3,-1
1537907214658757,-1,-14,-33,-5,10,4,1,1
1537907214658757,0,10,-9,-4,-16,-7,-1,-1
1537907214659755,-2,-2,-2,4,1,1,1,-3
1537907214659755,-1,-3,46,17,3,0,0,-1
1537907214680698,1,5,17,14,4,1,0,0
1537907214680698,-4,-1,-17,-23,-6,-4,-2,-2
1537907214682693,4,-4,2,-14,0,1,0,1
1537907214682693,0,6,-5,6,1,-1,1,-1
1537907214695659,-5,-16,-38,4,1,0,0,-2
1537907214695659,0,-11,6,2,10,3,-2,2
1537907214697653,-6,-9,26,-1,-14,-6,-3,-2
1537907214697653,-2,-10,-9,-3,3,3,0,1
1537907214718597,3,11,23,1,-7,-4,-1,0
1537907214718597,0,-1,-22,-7,-3,-1,-1,-1
1537907214719594,-4,-4,6,5,6,-1,0,-4
1537907214719594,-1,2,-16,-1,-1,0,-1,-1
1537907214732559,-1,2,4,-3,-6,-2,-1,-2
1537907214732559,0,1,5,-4,1,0,0,0
1537907214741535,-2,3,-8,2,3,2,-1,1
1537907214741535,-1,3,-9,-6,-2,-2,-1,-1
1537907214755498,0,8,-4,-2,-3,-2,-2,-2
1537907214755498,0,0,10,-4,3,1,0,1
1537907214757493,0,-7,2,6,1,2,-1,-1
1537907214757493,-5,-12,-43,16,-2,-2,-1,-3
1537907214778437,0,1,32,-26,-9,-2,-1,-2
1537907214778437,5,23,23,20,5,1,2,3
1537907214779434,-4,-20,-40,-18,-9,-6,-5,-2
1537907214779434,-1,-11,15,-5,4,1,0,-1
1537907214792400,1,-4,8,2,0,0,-1,-1
1537907214792400,-1,7,0,-12,0,0,-2,0
1537907214801376,1,-1,-8,13,6,2,2,-1
1537907214801376,-2,-4,-4,-3,-1,-1,-1,-1
1537907214816335,-1,-2,-5,4,-2,-2,0,-1
1537907214816335,0,5,20,-3,2,-2,-1,0
1537907214817333,-1,-2,-6,1,-3,0,-2,-1
1537907214817333,0,-19,-12,-7,-3,-1,-1,0
1537907214838277,-1,7,6,5,1,2,0,0
1537907214838277,-4,0,8,-2,0,1,0,-3
1537907214840271,1,13,3,4,3,0,0,0
1537907214840271,-3,-8,-19,-5,-2,-2,-1,-1
1537907214863211,0,5,-17,4,-2,-3,-3,0
1537907214863211,0,-13,6,5,3,1,-1,0
1537907214865205,-1,13,-16,-20,2,0,0,-1
1537907214865205,1,-11,36,29,-4,-1,0,0
1537907214868198,2,3,-23,-10,2,3,-1,0
1537907214868198,-2,5,7,-23,-4,0,-1,-3
1537907214876175,2,-5,-3,22,1,-1,-1,-1
1537907214876175,0,11,-33,-32,-5,-3,-2,0
1537907214892133,2,5,22,12,-1,-2,-1,-1
1537907214892133,-2,-7,-3,7,1,-1,-1,-1
1537907214893130,2,5,22,12,-1,-2,-1,-1
1537907214893130,-2,-7,-3,7,1,-1,-1,-1
1537907214894127,-6,-9,26,-1,-14,-6,-3,-2
1537907214894127,-2,-10,-9,-3,3,3,0,1
1537907214894127,3,11,23,1,-7,-4,-1,0
1537907214894127,0,-1,-22,-7,-3,-1,-1,-1
1537907214900111,-4,-4,6,5,6,-1,0,-4
1537907214900111,-1,2,-16,-1,-1,0,-1,-1
1537907214900111,-1,2,4,-3,-6,-2,-1,-2
1537907214900111,0,1,5,-4,1,0,0,0
1537907214914074,2,5,22,12,-1,-2,-1,-1
1537907214914074,-2,-7,-3,7,1,-1,-1,-1
1537907214923050,-3,-1,29,-13,-3,-2,0,-1
1537907214923050,2,9,-2,19,6,2,0,-1
1537907214924048,-1,-8,-8,1,-1,0,-1,0
1537907214924048,1,13,2,-6,-1,-1,-1,0
1537907214928037,-3,5,5,10,5,0,1,-1
1537907214928037,0,2,6,-6,-6,-1,-2,-3
1537907214929035,3,15,-9,-15,-3,-2,0,0
1537907214929035,-2,-30,-9,5,-1,-1,-1,-1
1537907214935018,4,17,14,-3,-4,-1,-1,0
1537907214935018,-3,4,-23,-13,-3,-1,-1,-2
1537907214949978,-2,-23,1,7,2,-1,-1,-1
1537907214949978,0,9,20,4,-1,-1,-1,0
1537907214956959,-2,-5,-23,3,1,2,-1,-1
1537907214956959,0,23,22,-6,2,-1,1,2
1537907214964938,0,-9,-18,-7,-2,-2,-1,-1
1537907214964938,1,4,8,-1,2,1,1,-1
1537907214973914,-3,-5,-24,-10,-9,-4,-3,0
1537907214973914,1,-2,10,13,0,0,-2,-1
1537907214987877,-2,-18,6,0,1,-1,-2,0
1537907214987877,0,9,4,-1,-2,0,0,-2
1537907214994859,0,-15,29,6,3,0,1,-1
1537907214994859,0,0,-35,-9,1,-3,-1,-2
1537907215010816,-2,-10,-4,5,-1,-2,-4,-3
1537907215010816,0,-5,9,-6,-5,-4,-4,-1
1537907215025775,2,6,-25,6,1,-1,-1,-1
1537907215025775,-3,-12,0,-6,1,-1,0,-1
1537907215025775,-4,14,8,3,0,-2,-2,0
1537907215025775,0,1,3,-5,-3,-2,-1,-2
1537907215033755,-1,-5,-12,5,-2,-2,0,-2
1537907215033755,-1,-2,8,-4,-1,-1,-1,-1
1537907215046720,1,5,3,1,-1,-2,1,-1
1537907215046720,-2,-6,-34,0,-1,-1,1,1
1537907215055696,-2,0,21,4,1,0,-1,-2
1537907215055696,-2,1,8,2,1,1,-1,-2
1537907215070656,0,7,-8,1,-2,-1,-2,-2
1537907215070656,-1,-2,-8,-8,-4,-2,-1,-2
1537907215076640,-1,-1,-6,-2,0,-1,-2,-2
1537907215076640,1,3,5,-4,-1,1,0,-1
1537907215093594,0,8,-15,-3,0,0,0,-2
1537907215093594,-2,-9,10,12,2,0,-2,-1
1537907215094592,-2,-10,-6,-10,-3,-2,0,0
1537907215094592,-1,2,26,-4,-2,0,-1,-1
1537907215107557,-4,0,0,2,-2,-1,-2,-2
1537907215107557,2,7,-40,1,-2,0,-1,0
1537907215115535,0,7,12,-3,-2,-1,-1,-2
1537907215115535,2,-2,-3,0,0,0,-2,0
1537907215130496,-2,-3,13,0,1,-1,1,0
1537907215130496,-2,-1,1,-1,-3,-3,-1,1
1537907215137477,-2,-4,-3,-1,2,0,0,-2
1537907215137477,1,0,-8,-2,-3,-2,-1,-1
1537907215152437,-2,1,1,3,-1,-1,-1,-1
1537907215152437,-2,-4,-2,7,9,1,0,-1
1537907215159419,1,9,11,-11,-12,-2,-2,2
1537907215159419,0,-12,-21,-11,12,6,3,2
1537907215167397,-3,3,12,18,-12,-6,-2,-6
1537907215167397,-2,3,2,19,3,1,-1,-3
1537907215176373,0,-30,-57,-16,28,7,2,3
1537907215176373,5,27,81,8,-5,-7,-4,-3
1537907215190336,-1,-35,-69,-54,-24,-2,1,1
1537907215190336,2,23,67,28,2,3,4,2
1537907215198314,-2,24,18,77,21,5,2,-1
1537907215198314,1,-9,-9,-86,-11,6,4,3
1537907215213274,-4,-11,21,111,29,4,1,-3
1537907215213274,-3,10,65,-65,-33,-16,-9,-9
1537907215219258,2,-5,-101,25,5,-2,-3,-2
1537907215219258,-5,9,-10,50,5,2,1,-1
1537907215227237,4,4,57,-94,-42,-12,-2,0
1537907215227237,6,21,-128,35,30,14,5,6
1537907215236213,0,12,127,-79,-61,-20,-11,-4
1537907215236213,-3,-16,-63,32,18,2,-2,-1
1537907215252171,-3,22,-14,-24,19,5,-1,-1
1537907215252171,7,-5,15,95,19,8,7,5
1537907215257157,0,1,6,-49,12,6,2,0
1537907215257157,-1,-19,22,36,-2,-6,-4,-3
1537907215273115,-6,17,-75,-68,-43,-10,-4,-4
1537907215273115,-5,-17,2,11,-4,0,-2,-4
1537907215280096,1,15,-47,-37,-22,-5,0,1
1537907215280096,-3,-21,-11,-10,4,4,-1,0
1537907215287077,6,12,69,18,20,3,3,5
1537907215287077,-8,-6,80,-14,-15,-15,-10,-10
1537907215296054,1,13,-104,46,29,9,4,0
1537907215296054,3,15,11,30,-21,-8,-3,0
1537907215310016,1,-10,-41,-31,-1,0,-2,1
1537907215310016,0,-13,-36,-26,23,7,1,0
1537907215316997,-9,-17,127,-32,-30,-12,-5,-7
1537907215316997,3,5,-14,-5,7,3,1,1
1537907215332955,4,5,-20,52,24,9,1,0
1537907215332955,-1,-3,15,-39,-18,-7,-2,-4
1537907215339936,1,2,-34,26,26,9,4,4
1537907215339936,-6,-6,-6,-25,-10,-3,-2,-3
1537907215355893,4,-7,-34,10,-13,-3,0,-1
1537907215355893,0,16,57,-4,-4,-4,0,1
1537907215357888,2,2,-83,6,-4,-1,-1,-1
1537907215357888,-3,-18,38,-19,-1,-3,-2,0
1537907215369856,0,1,37,21,7,1,0,1
1537907215369856,0,0,2,-19,11,8,0,0
1537907215376837,-2,-36,-21,3,-8,-2,-2,-1
1537907215376837,-2,13,-24,-14,-23,-9,-4,-4
1537907215392795,-4,-21,7,-12,17,3,-2,-3
1537907215392795,1,8,30,46,12,4,2,3
1537907215399776,2,1,-43,-19,-8,-4,-2,0
1537907215399776,-3,-7,3,-23,-4,2,-1,-2
1537907215415733,-3,-12,10,-13,-9,-1,-3,-1
1537907215415733,0,2,-40,-2,-2,-2,-2,-1
1537907215417728,-1,9,27,-12,-2,-2,0,-2
1537907215417728,0,37,59,18,5,-1,2,0
1537907215429696,0,-46,-72,20,5,0,2,1
1537907215429696,3,-4,-82,-16,-8,-2,0,2
1537907215438672,-2,8,45,-2,19,7,1,-2
1537907215438672,3,22,-39,12,5,-2,0,-1
1537907215452634,-4,6,83,8,-2,-2,-5,-3
1537907215452634,-2,-11,-29,18,15,1,0,-1
1537907215459616,2,-1,38,-13,-19,-9,-5,-3
1537907215459616,0,8,37,2,10,6,3,2
1537907215475573,-4,-1,9,-8,-17,-8,-4,-4
1537907215475573,-5,-8,-58,-49,-12,-4,-3,-2
1537907215477568,0,6,68,46,5,1,0,0
1537907215477568,-2,-17,-19,-15,-15,-7,-3,-2
1537907215489536,2,21,19,14,15,5,2,2
1537907215489536,0,-4,44,-12,-1,1,0,1
1537907215498512,-4,10,28,-6,-14,-4,-2,-5
1537907215498512,0,-12,65,-10,-4,-1,-1,-2
1537907215512475,3,7,-63,-13,8,2,2,3
1537907215512475,-3,-7,-1,-30,-15,-6,-3,-2
1537907215519456,0,-3,-17,23,5,3,-1,2
1537907215519456,0,0,-13,-2,-3,-3,-2,2
1537907215536410,0,5,14,-5,-3,-1,-1,-3
1537907215536410,0,-8,0,9,-13,-5,-2,-1
1537907215537408,-2,-5,-6,-5,7,2,2,0
1537907215537408,-2,-13,-11,8,-2,0,-1,-2
1537907215549376,-1,3,-16,-12,-5,-3,-1,0
1537907215549376,4,4,-16,3,1,1,0,0
1537907215558352,-2,-7,15,4,-1,-1,-2,-1
1537907215558352,-1,-6,-39,4,7,0,-2,0
1537907215572315,0,2,16,12,2,-1,1,-1
1537907215572315,1,-1,9,-6,-6,-2,-1,-2
1537907215579296,-2,-8,-11,-5,-6,-2,-3,0
1537907215579296,1,5,-14,3,4,1,0,-1
1537907215596251,-4,-12,13,5,4,2,0,-1
1537907215596251,-1,-4,11,-7,-6,-2,-1,-1
1537907215597248,0,-6,-5,1,-1,-2,2,-1
1537907215597248,-2,1,-16,-1,5,0,0,-2
1537907215618192,0,15,20,7,-3,0,-3,-1
1537907215618192,1,0,-8,0,-2,-1,0,0
1537907215618192,-2,-11,-3,0,1,0,-1,0
1537907215618192,0,-7,-15,-11,-4,-1,-2,-2
1537907215633152,0,11,19,25,5,2,0,0
1537907215633152,-1,-7,1,0,-2,-1,-2,3
1537907215640133,0,4,1,1,3,-1,-1,-4
1537907215640133,-1,-7,-6,-4,-2,-2,-1,1
1537907215655093,2,17,-1,-5,-4,-4,0,0
1537907215655093,-8,-41,-5,-2,2,-1,-2,-5
1537907215656091,-5,14,4,0,0,-2,-3,-5
1537907215656091,1,-2,-3,3,2,1,-1,-14
1537907215678040,1,-15,4,-3,1,0,1,9
1537907215678040,-1,16,-1,4,-3,-1,0,4
1537907215678040,2,21,-6,-6,5,0,2,1
1537907215678040,-7,-12,-4,-20,-11,-5,-2,-9
1537907215693989,1,15,4,7,-4,-4,-2,-3
1537907215693989,-1,-9,11,-3,0,-1,0,2
1537907215699973,-3,-16,46,12,7,3,0,-2
1537907215699973,5,18,-43,9,-7,-3,-3,7
1537907215714933,0,6,-4,-32,-6,1,-1,-2
1537907215714933,1,-1,-7,-3,-1,0,1,3
1537907215715931,0,3,11,8,3,1,-1,2
1537907215715931,-1,2,29,8,10,3,0,4
1537907215737872,-2,-12,-5,8,-2,-2,-2,-3
1537907215737872,-2,6,-34,-6,-2,-2,-2,-7
1537907215738869,1,-1,-13,-7,-5,-2,0,1
1537907215738869,-4,-6,3,3,4,0,-2,2
1537907215759813,0,-7,2,-1,0,0,-1,-2
1537907215759813,0,12,6,-7,-1,1,0,-2
1537907215760811,-1,-8,-13,0,-4,-2,-1,0
1537907215760811,0,1,0,2,0,0,-1,2
1537907215782752,-3,-1,-6,-2,3,0,-1,-4
1537907215782752,0,10,16,-2,4,1,-1,0
1537907215783749,-2,-10,-13,-4,-7,0,-1,1
1537907215783749,1,-1,1,5,4,3,2,-1
1537907215805691,-5,-4,-21,9,5,0,0,-3
1537907215805691,1,4,26,35,-4,-3,-2,-2
1537907215805691,0,-3,-16,-17,-4,-3,-1,1
1537907215805691,1,1,10,1,7,2,2,2
1537907215820651,-2,-12,0,15,1,-1,-1,-1
1537907215820651,-2,10,-56,-40,-4,-1,-1,0
1537907215820651,2,0,40,7,2,-1,3,1
1537907215820651,-3,-2,5,3,-1,-1,-1,1
1537907215842592,1,-11,13,-5,-2,-1,-2,-1
1537907215842592,-2,-18,0,16,2,0,0,-3
1537907215843590,-3,15,-27,-6,-3,0,-3,-3
1537907215843590,-1,-8,-1,-5,-1,-1,-1,-1
1537907215865531,-4,-4,1,1,-1,-1,0,-2
1537907215865531,-2,-11,0,-3,-4,-1,-1,-1
1537907215865531,-2,-2,-13,-9,-5,-3,-1,-1
1537907215865531,0,8,18,-1,-6,-2,0,-1
1537907215880491,1,2,-17,3,3,0,1,0
1537907215880491,2,3,60,3,-1,-1,0,0
1537907215880491,-1,-8,-53,-10,-2,-1,0,0
1537907215880491,0,11,-27,8,3,1,0,-1
1537907215902433,0,-10,12,-11,-3,1,0,1
1537907215902433,1,9,-17,-8,-4,-2,-1,0
1537907215903430,-2,2,37,11,-1,-2,-2,-2
1537907215903430,1,-6,-15,-11,-3,-1,-1,-1
1537907215925371,1,5,11,6,-3,-2,-2,-1
1537907215925371,0,-4,11,-4,3,2,0,-1
1537907215926369,2,-2,-8,2,1,-1,0,0
1537907215926369,-1,11,-8,-3,0,-2,0,1
1537907215940331,-1,3,5,-4,-3,-3,-2,-1
1537907215940331,-2,-31,10,10,3,0,1,-1
1537907215941329,0,1,-9,1,0,0,-1,1
1537907215941329,-1,-4,10,-3,-1,-1,-2,-1
1537907215963269,1,7,-6,-1,-2,1,-1,-1
1537907215963269,-1,6,-8,-7,-5,-3,-3,-1
1537907215963269,-1,-7,14,3,1,1,0,-2
1537907215963269,-1,-8,-7,3,1,0,0,-1
1537907215986208,1,9,-8,-5,-2,-2,0,1
1537907215986208,1,2,-13,1,0,-2,-1,0
1537907215986208,-1,0,21,-4,-2,-1,-2,-1
1537907215986208,-2,-1,1,5,-2,-2,-2,0
1537907216000171,-3,-18,-21,-5,0,-4,-2,-2
1537907216000171,0,11,25,-4,1,2,0,0
1537907216001168,1,-4,-15,8,0,2,-1,2
1537907216001168,-2,-2,34,-4,0,0,-1,-2
1537907216023109,0,5,-32,-4,1,-1,-2,-3
1537907216023109,-2,-14,7,-5,-7,-3,-2,0
1537907216023109,-1,16,-7,1,1,0,1,-2
1537907216023109,-3,-17,-7,-8,-5,-1,-1,-1
1537907216046048,4,48,29,2,2,1,0,0
1537907216046048,-8,-32,-21,9,5,1,-2,-2
1537907216047046,1,-1,-2,-4,-4,-2,0,0
1537907216047046,-1,-4,-4,5,2,-1,-1,1
1537907216060011,-3,-5,5,-2,-1,-1,1,1
1537907216060011,2,17,-18,-7,-1,0,0,0
1537907216061009,0,-5,8,4,2,0,-1,-2
1537907216061009,-1,0,2,4,-4,-4,-1,0
1537907216082951,-2,-19,-11,-10,1,0,-3,-1
1537907216082951,5,18,-30,1,-4,-3,-1,2
1537907216083949,-2,-5,25,-1,0,-2,-2,-1
1537907216083949,0,-8,-22,-1,-1,-1,-1,-1
1537907216105890,1,-1,26,4,1,1,0,0
1537907216105890,0,7,19,-3,-2,1,-2,-2
1537907216106887,-7,-34,-70,0,-6,-4,0,-2
1537907216106887,3,28,55,-11,1,-1,0,-1
1537907216119852,0,-5,-6,18,3,0,1,2
1537907216119852,-1,2,-2,-19,-4,-1,-3,-2
1537907216120849,0,-1,5,-5,-3,0,-1,-2
1537907216120849,-5,16,-37,-2,5,1,-2,-3
1537907216142790,-8,-29,20,36,-8,-4,-3,-4
1537907216142790,0,5,-60,-39,-2,-4,-2,-3
1537907216143787,0,7,42,36,14,5,2,5
1537907216143787,5,4,32,20,9,3,1,3
1537907216165728,-5,34,64,-31,-14,-6,-4,-5
1537907216165728,-3,-23,-54,8,-2,-7,-4,-4
1537907216165728,-7,-56,-38,-73,-20,-7,-5,-5
1537907216165728,-6,-1,-43,-49,-35,-12,-7,-2
1537907216180688,10,9,41,44,3,2,1,7
1537907216180688,-6,-10,-37,10,18,1,-2,-3
1537907216180688,2,30,127,65,29,5,0,-3
1537907216180688,-1,-8,-5,1,10,-2,-2,-1
1537907216202630,1,-16,-128,51,0,-6,1,0
1537907216202630,1,27,47,-11,3,1,0,-1
1537907216203627,0,0,-34,-72,-40,-10,-3,0
1537907216203627,-6,-31,32,-44,1,7,2,-1
1537907216226566,6,-1,-40,-17,14,6,2,2
1537907216226566,0,-4,50,55,33,11,6,2
1537907216227563,-1,18,20,-2,-14,-9,-4,-3
1537907216227563,-1,-16,-19,-12,21,8,1,0
1537907216240529,-9,-31,-81,-19,-9,-6,-3,-6
1537907216240529,3,26,118,-23,-18,1,1,1
1537907216240529,-2,-23,-89,-29,-18,-4,-2,-1
1537907216240529,2,-6,20,99,11,1,0,2
1537907216262471,2,16,39,-36,9,3,-1,2
1537907216262471,-3,-14,91,-6,-30,-9,-3,-2
1537907216263469,7,29,-27,29,23,7,2,3
1537907216263469,-3,-13,16,3,8,1,-1,-1
1537907216286407,-1,-2,16,-15,-12,-2,-1,-2
1537907216286407,-2,2,-39,-6,-1,-1,-1,-1
1537907216286407,-1,-1,77,-55,-11,-1,-3,-2
1537907216286407,-4,-24,-93,36,-2,0,-1,-5
1537907216300370,5,19,-24,-14,-3,1,1,3
1537907216300370,-3,-2,-9,-26,-1,-2,0,1
1537907216301367,-4,-28,-11,52,10,1,0,0
1537907216301367,3,15,26,-6,-8,-5,-3,-1
1537907216322310,-5,-7,-87,-29,3,2,0,-5
1537907216322310,3,6,14,43,1,0,0,2
1537907216323307,-1,4,-22,13,2,1,1,2
1537907216323307,2,8,14,3,-3,-1,1,0
1537907216346246,-6,-8,63,-8,0,-2,-2,-2
1537907216346246,3,1,-26,-7,0,0,-1,-1
1537907216353227,0,5,-14,15,10,3,-1,0
1537907216353227,2,7,4,-19,-11,-4,-2,-1
1537907216360208,-3,-7,36,6,4,1,-1,-3
1537907216360208,-2,-5,-38,0,-3,-2,-1,0
1537907216361206,2,5,-10,0,5,0,0,-1
1537907216361206,-1,2,1,-3,-7,-2,-2,-2
1537907216383147,2,7,12,-4,-3,-1,-1,2
1537907216383147,0,-3,-10,13,6,1,1,-1
1537907216383147,-2,2,2,0,-1,2,0,-1
1537907216383147,-2,6,13,-13,2,-1,0,-1
1537907216413067,1,0,-7,6,3,2,0,1
1537907216413067,-2,-7,-4,2,-2,-1,-1,-2
1537907216414064,1,2,0,-1,-1,-3,-1,0
1537907216414064,-4,12,5,-3,-2,-2,0,-2
1537907216420048,-2,-15,-28,2,1,0,-2,-1
1537907216420048,-1,-9,3,-5,-3,0,0,0
1537907216421046,0,5,-8,0,0,-1,-1,1
1537907216421046,0,0,-3,-5,-3,1,0,1
1537907216442987,-1,2,31,0,-2,-3,0,-2
1537907216442987,0,-4,-25,-4,-4,-1,-3,-2
1537907216442987,-1,3,4,3,3,2,1,-1
1537907216442987,2,2,-1,-10,-8,-5,-4,0
1537907216465926,0,-6,10,1,1,0,1,0
1537907216465926,-3,-2,-7,1,-3,-2,-3,-17
1537907216466923,5,2,5,3,2,1,2,18
1537907216466923,0,-2,-16,-2,-2,-1,1,2
1537907216479889,2,12,10,-4,-3,-1,-3,3
1537907216479889,-3,5,-9,7,8,3,1,-3
1537907216487867,-6,-30,-14,-17,-19,-8,-3,-10
1537907216487867,3,37,-7,2,-1,-1,0,1
1537907216502827,1,-9,-10,2,-1,-2,0,-1
1537907216502827,0,-6,29,-3,7,0,-1,3
1537907216503825,-4,1,-55,11,2,0,-2,-6
1537907216503825,1,-3,96,21,2,0,0,3
1537907216525766,0,10,-17,6,5,3,-1,1
1537907216525766,2,11,-6,1,-1,0,-1,3
1537907216526763,-1,6,10,-2,9,1,2,2
1537907216526763,-4,-14,-5,-11,-4,-3,-3,-5
1537907216540726,-2,4,19,0,-4,-2,0,-2
1537907216540726,0,-3,-11,-3,1,0,1,4
1537907216540726,-1,5,10,-2,-1,-1,1,1
1537907216540726,-2,-11,-29,-2,-1,0,-1,-5
1537907216562667,-3,1,13,-3,-2,1,-2,-1
1537907216562667,-1,-5,-20,-4,-4,-1,-2,4
1537907216563664,0,3,16,3,0,0,-1,-4
1537907216563664,-2,-10,-22,-3,1,0,1,-2
1537907216585606,-1,-3,11,-2,2,2,-1,1
1537907216585606,-2,0,7,6,-3,-1,-2,-1
1537907216586603,-2,0,0,-5,2,2,1,-1
1537907216586603,0,-10,-46,-4,4,1,1,2
1537907216599569,2,7,56,14,2,-2,2,1
1537907216599569,-1,-6,-32,-15,-10,-4,-3,0
1537907216607547,-3,-2,-13,11,5,0,-3,-3
1537907216607547,-2,-14,23,6,10,4,-1,2
1537907216622507,-4,-14,-47,-10,-20,-7,-1,-4
1537907216622507,-1,3,25,-15,-1,0,1,0
1537907216623505,2,-1,1,1,4,2,1,1
1537907216623505,0,-5,-20,-12,-8,-3,-1,0
1537907216645446,0,-5,27,12,7,0,-2,-2
1537907216645446,-3,-11,-9,0,-3,0,0,1
1537907216646443,0,22,2,-3,-5,-2,-1,-1
1537907216646443,-1,7,7,3,3,2,1,-1
1537907216659409,-1,-2,1,-6,1,-3,-1,0
1537907216659409,-3,-7,-16,-3,-4,-3,1,1
1537907216667387,-1,1,21,1,0,0,-1,-1
1537907216667387,-2,-3,-28,-2,-4,-2,0,-1
1537907216691323,1,0,-10,-2,0,3,1,-1
1537907216691323,2,23,10,0,-3,-1,-2,0
1537907216691323,0,-20,16,11,1,0,-1,1
1537907216691323,-2,5,-22,-8,-4,-1,-2,-2
1537907216706283,-1,-6,65,4,5,1,0,0
1537907216706283,2,0,-70,-5,3,2,0,0
1537907216706283,0,7,23,-7,-8,-5,-4,-3
1537907216706283,-2,-8,-4,0,-4,-2,-1,-1
1537907216719248,-1,1,-3,2,1,-1,1,1
1537907216719248,0,-1,22,14,1,1,0,-1
1537907216728225,-1,-4,-1,-17,-1,0,2,-1
1537907216728225,-1,3,-14,0,-1,-1,0,-1
1537907216743184,-3,-7,-14,-11,-2,0,-3,-2
1537907216743184,0,4,11,6,-1,-1,-2,1
1537907216743184,0,-9,-7,1,0,0,0,-1
1537907216743184,1,2,13,4,4,0,1,-2
1537907216766123,-1,-1,-16,-6,-1,-1,-1,0
1537907216766123,-1,-6,11,-2,-4,-3,-1,-1
1537907216767121,-1,9,-11,2,1,2,1,-1
1537907216767121,1,1,8,0,0,0,-2,-1
1537907216779089,-1,4,-7,-1,-3,-2,0,-1
1537907216779089,0,-7,7,-1,2,-1,-1,-1
1537907216788064,-1,1,-1,-3,-1,1,-1,-3
1537907216788064,1,1,9,-3,-2,-3,2,1
1537907216803025,-2,5,-7,1,2,2,0,-1
1537907216803025,0,1,6,3,-2,0,0,2
1537907216803025,-1,-5,-5,5,3,-1,0,1
1537907216803025,1,5,-7,-5,-4,0,-1,0
1537907216825963,-1,2,1,-9,-1,-1,0,0
1537907216825963,-2,-5,14,20,4,-1,0,-3
1537907216826961,-1,0,-66,-21,-11,-5,-5,0
1537907216826961,-2,-9,17,0,-1,-1,0,-2
1537907216839926,-1,6,-19,0,0,-1,-3,1
1537907216839926,1,-1,22,4,5,2,2,-1
1537907216847905,1,5,7,3,-3,-2,0,0
1537907216847905,-3,-10,1,-1,2,0,-1,0
1537907216862877,-1,12,9,-2,-2,-1,0,-3
1537907216862877,0,2,-14,-1,1,-1,-1,1
1537907216863862,-1,-11,6,1,3,0,0,-2
1537907216863862,-2,5,-5,-7,-6,-1,-2,-1
1537907216885804,0,-11,-5,17,8,1,0,-1
1537907216885804,-1,-1,-4,-13,-7,0,-1,0
1537907216886802,-1,1,-6,-4,3,1,-1,0
1537907216886802,-1,0,51,7,-1,-1,-1,0
1537907216899767,0,-6,-16,4,-1,-2,0,-1
1537907216899767,-3,-7,-39,-20,-13,-4,-2,-2
1537907216908742,0,0,12,1,-3,-1,0,-2
1537907216908742,0,-2,-7,-3,4,2,0,-1
1537907216922705,1,-5,27,1,1,-1,-2,-2
1537907216922705,-3,-3,-25,-2,1,0,-2,-2
1537907216923703,-1,-2,8,-4,-6,-1,-1,0
1537907216923703,4,30,-9,19,8,2,3,3
1537907216945645,-3,-26,-43,-10,1,1,1,0
1537907216945645,1,10,71,12,3,0,1,1
1537907216946642,-3,-9,-27,-23,7,3,-1,-1
1537907216946642,-3,-20,-25,42,0,-2,-1,-4
1537907216968583,7,57,56,3,-8,-4,-1,1
1537907216968583,-5,-13,14,16,15,3,0,-2
1537907216969580,-2,-12,-8,8,9,3,-1,-4
1537907216969580,-2,-23,-11,-96,-26,-6,-3,-1
1537907216984541,-1,3,-79,65,19,6,-1,-5
1537907216984541,-1,0,73,-74,-76,-24,-3,1
1537907216984541,3,45,62,-1,16,3,0,5
1537907216984541,5,-3,-5,59,30,7,0,2
1537907217005484,-8,-19,79,12,-2,-3,-2,-6
1537907217005484,-1,2,-73,-38,-37,-20,-10,-6
1537907217006482,-1,-8,43,47,11,8,3,0
1537907217006482,-6,-17,-126,-62,-29,-10,-3,-4
1537907217028423,-2,13,116,82,16,3,-2,-2
1537907217028423,6,17,-13,76,60,22,9,5
1537907217029421,-7,-16,-57,-63,-45,-20,-9,-6
1537907217029421,-4,-3,-99,-42,2,0,-3,-2
1537907217042385,-7,-24,-24,-58,-16,-7,0,-1
1537907217042385,1,-8,8,-5,41,16,5,3
1537907217043383,2,6,65,42,8,3,1,-1
1537907217043383,-5,11,90,-18,-15,-4,-4,-5
1537907217066322,2,-11,-74,-26,-7,3,0,5
1537907217066322,3,16,-31,-27,-8,-3,2,3
1537907217066322,-2,-18,-24,37,12,2,2,0
1537907217066322,-4,4,81,46,16,1,-1,-2
1537907217088263,-2,8,-6,-62,-23,-5,-1,-2
1537907217088263,-3,-26,-44,64,29,8,1,-1
1537907217089262,1,13,-65,-65,-21,-5,-2,-1
1537907217089262,0,-14,60,37,-23,-9,-1,-2
1537907217102226,2,-4,-40,-23,9,4,1,2
1537907217102226,-4,2,44,27,9,1,-2,-3
1537907217111202,-4,-16,-2,5,-6,-5,-3,-4
1537907217111202,0,12,0,-4,-4,-3,0,-1
1537907217126162,-2,-21,57,24,19,7,3,1
1537907217126162,-7,-4,-45,-33,-25,-10,-8,-8
1537907217127159,4,19,-16,-19,-14,-2,-1,3
1537907217127159,3,8,19,-16,32,9,6,2
1537907217148102,0,-21,-36,16,1,-1,-2,-1
1537907217148102,-3,28,42,-2,-12,-7,-4,-4
1537907217150097,-2,-3,9,11,5,2,1,0
1537907217150097,1,-9,-10,3,10,3,0,2
1537907217162066,1,5,-7,-22,-14,-6,-4,-2
1537907217162066,-3,-14,1,8,2,1,0,0
1537907217171041,1,-1,-1,6,12,3,0,1
1537907217171041,-1,10,2,-14,-10,-3,0,-2
1537907217186001,-1,-3,-25,-2,-9,-4,0,-2
1537907217186001,-2,0,-6,-13,2,4,1,-2
1537907217186998,-3,2,13,11,3,-3,-1,-3
1537907217186998,-1,-3,-10,9,-5,-1,-1,1
1537907217207942,1,12,-10,-15,-6,-1,2,1
1537907217207942,3,-3,7,9,7,3,3,2
1537907217209937,-3,-1,8,-9,2,2,1,-2
1537907217209937,2,2,-16,4,-1,1,-1,-2
1537907217221905,3,4,-5,-9,-3,-3,-1,1
1537907217221905,1,2,3,-14,-4,0,-1,0
1537907217230881,0,-7,-10,5,-4,-3,-1,0
1537907217230881,-1,0,-4,3,2,0,0,-1
1537907217245841,-1,2,7,4,4,1,-1,-1
1537907217245841,0,-7,-1,-4,-5,-2,1,1
1537907217246838,2,2,-3,-3,-2,-1,-1,-1
1537907217246838,-5,-14,-4,8,1,-1,-1,0
1537907217268780,0,12,6,-9,-2,-1,-1,-2
1537907217268780,2,-11,-9,-3,0,-1,-1,-1
1537907217269777,-2,0,-1,3,4,1,1,0
1537907217269777,1,3,0,-10,-4,-2,0,0
1537907217281745,-1,5,-30,-2,-9,-4,0,0
1537907217281745,-1,5,30,-3,0,-1,-2,-1
1537907217298700,-2,-22,-2,5,1,-1,0,0
1537907217298700,2,7,2,5,1,2,-1,0
1537907217305681,-4,-28,-5,-8,-2,-1,0,-2
1537907217305681,0,45,50,13,7,3,-1,-1
1537907217307676,2,-20,-71,-46,-9,-3,-1,0
1537907217307676,0,33,32,26,-8,-6,-1,0
1537907217328620,0,-9,-22,-9,-3,-1,-2,1
1537907217328620,-2,-13,-2,-10,5,0,0,1
1537907217329618,0,8,52,-16,-18,-4,-4,-2
1537907217329618,-2,-14,-41,4,2,1,1,-2
1537907217341585,-1,-18,-46,1,-1,1,-1,-1
1537907217341585,0,15,56,17,4,-3,-1,-2
1537907217350561,3,34,9,11,0,1,-1,1
1537907217350561,-2,-37,2,-10,0,-2,0,-1
1537907217365521,-3,-4,19,9,4,2,0,-2
1537907217365521,-2,-14,-71,-30,-9,-4,-1,-2
1537907217367516,0,-6,-12,17,11,2,3,0
1537907217367516,-2,9,-3,-7,-3,-1,-2,0
1537907217388460,-1,6,27,-4,2,1,-1,-1
1537907217388460,-1,-10,2,18,3,1,-1,-3
1537907217389457,-5,-2,-16,-10,-6,-2,0,-3
1537907217389457,2,1,-10,-6,-2,1,-1,1
1537907217402423,-1,14,17,-2,0,-1,-1,1
1537907217402423,-1,-5,-9,-8,-6,-1,-2,0
1537907217411399,-4,-8,0,19,6,1,-1,-2
1537907217411399,-1,1,-2,-6,3,1,0,-2
1537907217426359,-1,6,8,-3,-1,-3,-3,-1
1537907217426359,3,-3,-16,2,2,2,-1,-1
1537907217427356,-1,-6,9,13,2,0,0,-1
1537907217427356,0,-3,29,-15,-8,-6,-2,-2
1537907217448300,2,-1,-50,-13,-5,-1,-1,-2
1537907217448300,0,-8,9,-3,1,-1,0,2
1537907217450295,2,9,-8,8,3,1,0,0
1537907217450295,2,-2,6,8,7,1,1,-1
1537907217462263,-1,-1,28,7,-2,-4,-1,-3
1537907217462263,-3,16,-29,-10,-5,-1,0,-3
1537907217471239,-1,-4,28,2,-9,-6,-1,0
1537907217471239,0,-1,0,-20,-4,0,-1,0
1537907217486198,-3,0,-6,7,-1,0,-1,-2
1537907217486198,-3,-15,-6,-4,-1,-2,-1,0
1537907217487196,-1,18,14,11,3,-2,-2,-1
1537907217487196,-1,6,-16,-2,-2,1,-1,-1
1537907217508140,1,-3,15,4,-1,0,0,0
1537907217508140,-2,-12,-3,7,-3,-1,-2,0
1537907217510135,-1,-1,0,-5,2,0,-2,-1
1537907217510135,0,-7,-10,8,4,3,-1,2
1537907217522103,1,13,-10,-1,-2,0,1,0
1537907217522103,-2,-3,-1,-4,-6,-5,0,-1
1537907217531079,-3,-6,0,-14,-2,-1,-2,-2
1537907217531079,-1,6,-1,1,1,0,-2,-1
1537907217546039,0,0,7,1,-2,-2,-2,0
1537907217546039,0,-1,-7,0,-1,-1,-1,1
1537907217547036,0,2,10,0,3,1,0,0
1537907217547036,-3,-14,16,11,1,-1,0,-5
1537907217567980,1,10,-15,-5,1,-3,-2,1
1537907217567980,-1,-16,-20,-3,-6,-4,-2,-2
1537907217569975,1,17,0,-5,-5,0,-1,2
1537907217569975,-1,-8,-8,-1,-3,-3,-1,-1
1537907217581943,0,1,30,-1,0,2,1,-2
1537907217581943,-1,-1,-12,8,4,1,1,-2
1537907217590919,-3,-15,-7,-11,-1,0,-1,0
1537907217590919,2,21,-8,5,-4,-2,-1,0
1537907217605879,0,-9,46,5,1,0,-1,0
1537907217605879,0,3,-40,-1,1,-1,0,0
1537907217607874,-3,-13,4,-5,-1,0,-1,-2
1537907217607874,1,8,-11,-6,-2,-2,-1,0
1537907217628819,-5,-5,1,-1,1,1,-2,-2
1537907217628819,0,7,12,-3,-9,-4,-1,1
1537907217629817,1,4,-21,0,2,-3,0,-2
1537907217629817,-3,-14,18,-3,-2,-1,-1,-1
1537907217641784,-1,-3,-9,4,1,0,0,0
1537907217641784,-1,-1,0,-7,-2,1,0,0
1537907217650760,-1,-5,0,1,0,0,0,-1
1537907217650760,0,4,-8,-8,1,2,-3,-1
1537907217665720,-4,-3,-6,13,-1,-4,-1,0
1537907217665720,0,0,0,-3,-1,1,1,-1
1537907217667715,0,5,24,3,1,-2,-1,-1
1537907217667715,-3,-11,-20,-10,-5,-3,-1,-1
1537907217688658,0,-8,-33,-10,-4,-2,-2,-2
1537907217688658,-1,-6,36,11,3,1,0,-2
1537907217689656,1,-1,-24,0,-5,-1,-1,2
1537907217689656,1,14,3,3,1,2,2,-1
1537907217701623,-2,-2,-2,-6,-1,-2,-1,0
1537907217701623,-1,4,4,-3,1,-2,-2,-1
1537907217710599,-2,-13,10,6,1,0,-1,-1
1537907217710599,-1,-2,1,1,-3,-2,-1,0
1537907217725559,2,13,-3,-2,-1,1,-2,-2
1537907217725559,-2,-6,0,-3,-1,0,0,0
1537907217727554,0,4,-5,1,1,0,-2,-2
1537907217727554,-1,-5,-4,2,-2,-4,-2,0
1537907217748497,0,3,-1,-6,-3,-1,0,1
1537907217748497,-1,1,2,-2,0,0,-1,-3
1537907217749495,-2,-2,-6,0,0,0,0,-2
1537907217749495,-2,1,0,1,0,-1,1,-1
1537907217762461,0,-1,5,2,3,1,0,-2
1537907217762461,-1,6,1,4,5,1,-1,-1
1537907217771436,-1,0,-14,-15,-12,-5,0,1
1537907217771436,-2,10,4,-1,1,2,-1,0
1537907217786396,-4,-29,-19,3,2,-2,0,0
1537907217786396,-3,7,19,-1,-1,-4,-3,-2
1537907217787393,-2,-12,24,6,1,-1,-1,-3
1537907217787393,1,11,-46,-3,1,0,-1,-1
1537907217808337,0,3,14,10,1,2,0,-1
1537907217808337,0,0,-7,-6,-2,0,-2,0
1537907217810332,-1,-13,8,-4,2,1,1,0
1537907217810332,-2,-12,12,-21,-6,-2,-1,-1
1537907217822300,1,3,-21,18,5,2,1,-2
1537907217822300,2,11,-4,41,12,4,2,2
1537907217831276,-1,25,63,32,6,-1,-3,-2
1537907217831276,-3,-20,-40,-63,-26,-9,-3,-3
1537907217845239,3,-9,1,95,53,18,7,4
1537907217845239,1,-20,-3,-63,-16,-5,1,3
1537907217852220,-2,-5,-46,-1,-9,-2,1,-1
1537907217852220,2,5,-2,-10,-31,-13,-6,0
1537907217868177,-6,11,-33,67,50,8,0,-1
1537907217868177,-6,-5,71,-120,-61,-19,-11,-8
1537907217870172,6,1,-24,81,41,16,9,7
1537907217870172,6,12,-9,26,1,-1,1,4
1537907217891116,-4,-9,28,-87,-37,-15,-7,-5
1537907217891116,3,12,-3,48,17,2,-3,-2
1537907217892113,-6,-11,-28,0,14,3,-2,-5
1537907217892113,3,0,-27,58,39,14,5,2
1537907217905078,4,15,4,22,2,5,3,3
1537907217905078,-4,-11,28,35,19,3,3,-1
1537907217912060,-2,1,-40,-59,-32,-7,-3,-2
1537907217912060,-1,5,81,69,43,10,3,-1
1537907217928017,-4,6,-40,-105,-50,-15,-6,-4
1537907217928017,-2,-5,-39,-1,-14,-4,0,1
1537907217930012,2,12,10,7,7,-1,1,1
1537907217930012,-4,-2,14,-18,-35,-10,-4,-4
1537907217950956,1,-2,6,-26,-4,-2,0,-1
1537907217950956,-4,-26,-11,27,1,1,0,0
1537907217951953,1,14,1,-13,-2,-3,-2,-1
1537907217951953,1,-3,9,20,15,2,-1,1
1537907217964919,-1,10,33,-6,-14,-5,-4,-2
1537907217964919,1,-17,-47,-2,-5,0,0,-1
1537907217971900,-1,0,61,6,3,0,-2,-3
1537907217971900,-1,-23,-82,-60,-12,-4,-2,-2
1537907217988855,-1,-8,20,16,-14,-3,0,-1
1537907217988855,3,22,-18,21,21,7,2,1
1537907217989852,-3,-7,2,-17,-9,-2,-2,-1
1537907217989852,-6,2,33,25,3,0,1,-2
1537907218010796,-1,-2,15,12,7,2,0,-1
1537907218010796,-2,2,-63,16,7,-1,0,-1
1537907218012791,1,4,-31,-14,-35,-9,-4,-2
1537907218012791,-1,-7,3,-28,-4,0,-2,-1
1537907218025756,0,-1,8,-1,6,-1,-1,0
1537907218025756,1,6,6,1,-6,-2,-2,0
1537907218033735,-1,-13,-18,3,7,1,0,-1
1537907218033735,-1,1,11,5,6,0,-1,0
1537907218048695,-1,5,-10,-12,-10,-3,-2,0
1537907218048695,-1,-1,10,-10,3,2,1,-2
1537907218049692,-3,-9,-4,-8,0,-1,-1,0
1537907218049692,-2,10,19,-3,0,1,-1,0
1537907218078615,-2,-14,-3,-10,-6,-2,-1,0
1537907218078615,-1,2,0,1,-2,0,0,0
1537907218079612,1,-1,7,-1,2,1,-1,-1
1537907218079612,-1,-2,0,1,2,3,0,-3
1537907218084599,-1,-3,-14,-2,-10,-5,-2,-1
1537907218084599,-1,2,10,-1,4,1,-1,0
1537907218093575,3,4,-1,-5,-3,-1,0,0
1537907218093575,-2,-7,2,-7,-8,-5,-2,-2
1537907218108535,-1,5,0,1,2,2,0,1
1537907218108535,-1,0,6,-3,0,-1,-1,-1
1537907218109532,-1,-1,-1,-7,-4,0,-2,-1
1537907218109532,0,4,-3,2,-1,-1,0,1
1537907218130476,-2,-5,-2,-2,-3,-2,0,0
1537907218130476,-2,0,1,0,-1,0,-1,1
1537907218132471,-1,-4,-1,-13,14,3,1,0
1537907218132471,0,-2,5,33,-7,-4,0,-1
1537907218144439,-1,0,-6,-6,-8,-2,-1,-1
1537907218144439,1,3,-5,-8,-2,-2,1,0
1537907218153415,-1,-5,2,0,3,-1,-1,0
1537907218153415,2,-2,-2,-20,26,9,3,1
1537907218168375,-4,14,10,1,-40,-13,-5,-3
1537907218168375,4,4,25,-6,-9,-2,-2,-1
1537907218169372,-5,-12,-83,-53,-19,-3,-1,0
1537907218169372,3,-20,6,-5,-4,-2,-1,1
1537907218191313,2,6,-6,8,15,4,0,1
1537907218191313,-3,-5,13,5,5,2,-2,-2
1537907218192311,-3,7,17,11,-4,-2,-1,-2
1537907218192311,-2,-2,10,4,-2,-2,-1,-2
1537907218204279,-2,-5,-5,-12,3,-1,0,1
1537907218204279,0,1,0,7,0,-2,0,-1
1537907218213255,0,-6,7,11,6,2,2,0
1537907218213255,-5,4,-13,-13,-7,-3,-2,-3
1537907218228215,2,-2,9,6,1,2,1,-2
1537907218228215,-2,4,-12,-12,1,-2,-2,0
1537907218230210,-1,-3,8,19,0,1,0,-1
1537907218230210,-2,6,6,12,-1,0,0,-1
1537907218251154,0,2,-4,-20,4,2,-2,0
1537907218251154,-1,-8,-11,1,4,0,0,0
1537907218252152,0,2,9,0,-14,-6,-2,-2
1537907218252152,0,1,9,9,-2,-2,-1,-1
1537907218264119,2,-5,-26,18,5,1,0,0
1537907218264119,-2,-8,0,-14,0,-1,-2,0
1537907218273095,-1,0,6,-8,0,-3,-1,-1
1537907218273095,-1,14,6,0,1,0,0,-1
1537907218288055,-3,-20,-14,-12,-2,0,0,-2
1537907218288055,-1,-3,16,30,21,6,2,0
1537907218290050,-5,-3,2,1,-19,-6,-3,-2
1537907218290050,3,22,-27,-19,-6,-2,-2,-1
1537907218310994,-3,-7,12,0,10,2,-1,0
1537907218310994,-1,10,-3,12,-5,-1,0,0
1537907218311991,-4,-5,14,4,6,0,-1,-1
1537907218311991,-3,-12,-3,1,-2,-1,-1,-1
1537907218324956,-1,7,5,-3,1,-1,0,-2
1537907218324956,0,0,-2,-1,-5,-1,0,-1
1537907218333933,1,0,-7,-15,-3,1,-2,-1
1537907218333933,-2,-4,-1,1,4,1,-1,0
1537907218347895,0,5,5,10,4,3,0,0
1537907218347895,-2,-8,-8,14,-9,-3,-1,-3
1537907218354876,1,1,15,-4,1,0,-2,-1
1537907218354876,0,2,-22,-18,-1,-1,1,-1
1537907218370834,-2,-3,4,-11,2,0,-2,-2
1537907218370834,1,10,-21,-3,-8,-3,-2,-1
1537907218372829,-3,-13,5,13,2,-1,-1,0
1537907218372829,1,-12,6,6,0,1,1,0
1537907218384797,-2,0,1,-6,1,-1,1,-3
1537907218384797,-2,0,3,-6,-2,0,0,0
1537907218393774,2,0,-12,1,-1,0,-1,-1
1537907218393774,1,5,5,-8,-8,-5,-2,-1
1537907218408734,-1,2,-2,6,1,1,-2,-1
1537907218408734,1,-2,2,-11,-4,-1,-1,0
1537907218409731,1,1,-1,0,5,0,1,0
1537907218409731,-1,-1,0,2,-4,-3,-1,-1
1537907218430675,0,-9,1,7,-4,-1,-2,1
1537907218430675,-1,-1,-4,-20,10,3,2,1
1537907218432671,-1,3,2,30,-11,-5,-1,-1
1537907218432671,-1,2,1,-9,-2,0,-1,-2
1537907218444638,2,4,-1,-11,3,0,0,0
1537907218444638,-1,-6,2,10,-1,-1,-1,-1
1537907218453614,-2,4,-5,-23,0,1,0,-3
1537907218453614,-1,-3,48,11,1,-1,-1,-2
1537907218468574,0,-6,-35,-5,-8,-5,-2,-3
1537907218468574,3,17,-12,3,5,3,0,1
1537907218469571,-1,-9,4,3,3,0,0,-1
1537907218469571,-4,-8,-7,5,-2,0,-1,-1
1537907218490514,1,17,34,6,4,1,1,0
1537907218490514,-3,-4,3,-5,-3,0,-1,-3
1537907218492509,-1,4,-7,6,2,0,1,1
1537907218492509,-2,-5,-1,-10,-2,0,-1,-2
1537907218504477,0,-2,-3,7,1,1,0,0
1537907218504477,-2,-1,-5,-1,-7,-5,-3,-2
1537907218513453,-1,3,2,-1,4,0,0,1
1537907218513453,-3,-6,-9,3,-1,-1,0,-1
1537907218528413,1,6,-6,2,2,1,1,-1
1537907218528413,-2,-13,1,3,-8,-4,-2,-1
1537907218529411,0,0,3,-16,5,4,-1,0
1537907218529411,1,8,-9,12,2,-1,0,0
1537907218551351,-1,-7,-4,-17,-8,-4,0,-2
1537907218551351,-2,-2,2,-2,4,0,1,0
1537907218552349,1,8,-2,0,-4,-2,0,1
1537907218552349,-1,-6,-11,-5,-4,-3,-3,1
1537907218564317,-5,-8,7,7,3,1,-2,0
1537907218564317,0,3,0,-10,0,0,-1,0
1537907218573292,1,-2,0,12,2,0,-1,-1
1537907218573292,1,7,-7,2,3,1,0,-1
1537907218588252,-1,-6,8,-2,-2,-3,-1,0
1537907218588252,-1,-15,1,-2,-2,-2,0,-3
1537907218590247,-3,7,-15,-1,2,0,0,-1
1537907218590247,2,2,2,-5,-1,0,0,-1
1537907218611191,-2,-2,-1,-1,0,-1,-1,-1
1537907218611191,-1,-3,-3,-4,-3,0,-2,0
1537907218612189,-1,-3,5,3,1,-1,-2,-4
1537907218612189,-2,-2,-1,-4,3,1,-1,0
1537907218633132,-2,4,-8,-6,-11,-5,-2,-2
1537907218633132,0,5,4,12,3,2,-1,0
1537907218635127,-2,-6,1,-7,-5,-2,-1,-1
1537907218635127,1,0,-3,19,5,2,0,-1
1537907218648092,1,2,-7,-35,-15,-7,-2,-2
1537907218648092,-1,0,0,-7,-1,-1,-2,-1
1537907218650087,0,0,-2,-4,4,3,3,-1
1537907218650087,-2,-7,-6,-6,-5,-4,-3,-1
1537907218671031,3,17,-6,0,1,1,-1,1
1537907218671031,-4,-21,4,1,-2,-1,1,-1
1537907218672029,0,1,-2,-1,-2,-1,-1,1
1537907218672029,-1,-3,3,0,-1,1,1,0
1537907218692973,2,-1,-4,5,-2,-2,-3,0
1537907218692973,0,13,0,-2,1,0,0,-1
1537907218694968,-2,-11,0,6,1,1,0,-1
1537907218694968,-2,4,-3,-4,-2,-2,1,-1
1537907218707933,0,-12,3,6,2,1,0,0
1537907218707933,-1,1,-2,-3,-1,0,-1,0
1537907218709928,1,1,4,1,-4,-2,-2,-1
1537907218709928,-2,-4,-4,-1,1,0,-2,-2
1537907218730876,0,0,3,1,2,0,-2,0
1537907218730876,2,8,1,1,-3,-3,-1,0
1537907218732868,-3,4,-3,-1,0,0,0,0
1537907218732868,-2,-11,-2,-4,-6,-4,-1,-1
1537907218753811,1,-1,2,9,7,2,0,-2
1537907218753811,2,-6,-6,-4,-3,-3,-2,0
1537907218754809,0,9,1,-2,1,0,-2,-1
1537907218754809,-3,5,-5,-2,-7,-2,-1,-1
1537907218768770,0,4,1,-2,0,-1,-1,-1
1537907218768770,-4,-15,-10,17,10,2,-2,0
1537907218769768,1,15,49,-21,1,0,0,-2
1537907218769768,6,20,-39,-18,-10,-1,-1,-2
1537907218792706,0,-12,34,64,31,6,3,0
1537907218792706,2,36,-53,-47,-4,1,0,-1
1537907218793704,-3,-25,40,49,-8,-8,-3,0
1537907218793704,3,10,29,-14,-18,-5,-1,1
1537907218813650,-9,-12,58,66,86,25,7,1
1537907218813650,1,3,-79,-98,-98,-35,-10,-2
1537907218814648,2,-13,79,78,64,18,6,4
1537907218814648,-6,12,-10,-3,-25,-10,-4,-4
1537907218827613,4,20,-5,-25,13,6,3,3
1537907218827613,-4,-9,28,-27,-40,-10,0,-1
1537907218834594,-2,-8,-78,4,-14,-9,-5,-3
1537907218834594,0,-14,-9,-40,33,13,4,-1
1537907218850551,2,-4,-3,-31,-22,-1,2,1
1537907218850551,0,2,6,-39,13,6,0,0
1537907218852546,0,6,-7,10,-15,-6,-2,-3
1537907218852546,-4,-17,15,44,44,12,1,-1
1537907218873490,-4,9,-28,-68,-100,-34,-11,-7
1537907218873490,1,-10,48,43,38,12,4,1
1537907218874487,6,15,27,69,57,15,6,5
1537907218874487,-4,-9,9,-22,9,-1,-2,-2
1537907218887453,-3,7,-37,-85,-62,-18,-5,-5
1537907218887453,-4,-29,11,73,0,-6,-3,-4
1537907218896429,-7,-20,-14,-18,-17,-3,0,-2
1537907218896429,7,9,-29,54,1,1,1,1
1537907218910391,2,-5,3,47,18,3,-1,1
1537907218910391,-2,2,-36,-30,11,1,0,-2
1537907218912386,2,-4,37,-23,1,3,1,0
1537907218912386,-2,-6,-14,-61,-43,-11,-2,-1
1537907218933330,-5,-15,21,77,1,-6,-6,-4
1537907218933330,-1,13,17,17,3,4,-1,0
1537907218935325,1,8,-39,34,51,13,4,0
1537907218935325,-2,3,3,6,-47,-17,-6,-3
1537907218947293,0,-11,12,55,36,13,6,2
1537907218947293,-2,3,15,-66,11,3,1,-4
1537907218956269,1,10,2,-6,-53,-17,-7,-2
1537907218956269,0,-12,11,27,22,3,1,0
1537907218971229,0,4,-17,-3,16,6,0,0
1537907218971229,0,-5,24,76,22,5,1,-1
1537907218973224,-2,2,-42,-71,-33,-9,-4,-3
1537907218973224,1,-4,5,15,23,8,1,2
1537907218993171,-1,12,15,-38,-28,-8,-2,-2
1537907218993171,1,2,20,22,8,-1,1,0
1537907218995166,-2,-3,-11,-13,-3,-1,0,-1
1537907218995166,-3,-1,6,12,-2,-1,-1,-2
1537907219016110,-1,-7,-14,1,11,1,-1,0
1537907219016110,1,4,0,19,9,2,2,-1
1537907219017107,0,-7,-25,-27,-11,-4,-2,0
1537907219017107,-3,-10,26,-18,10,2,0,-4
1537907219031070,-3,-1,8,-49,-40,-11,-4,-4
1537907219031070,1,5,-59,11,6,1,0,1
1537907219032066,0,-2,-8,0,2,0,0,-1
1537907219032066,0,-7,-10,-7,3,-3,-1,-1
1537907219053011,1,1,2,-9,12,3,1,-1
1537907219053011,-3,-7,25,10,-8,-2,-3,-2
1537907219055006,-2,-3,-7,-9,2,0,-1,-1
1537907219055006,0,7,-3,6,-3,0,1,-1
1537907219066973,-1,-3,-3,1,4,1,0,-1
1537907219066973,-3,-2,7,3,-2,0,-1,0
1537907219083928,2,3,-6,-17,-7,-2,1,-1
1537907219083928,1,3,13,4,0,-2,-1,0
1537907219090909,-1,-2,-17,2,-7,-3,-3,-2
1537907219090909,1,-3,1,6,9,1,-2,0
1537907219091907,1,-3,-1,-4,-6,0,0,2
1537907219091907,12,4,3,5,-4,-1,2,9
1537907219113849,-13,-6,-13,5,10,1,-2,-4
1537907219113849,-10,-2,4,2,-1,-2,-5,-15
1537907219114847,-5,-1,5,-13,-11,-5,-3,-5
1537907219114847,-2,0,-1,2,0,1,0,-4
1537907219126815,11,3,-9,-2,1,-1,3,7
1537907219126815,2,0,11,2,0,1,2,7
1537907219135790,-2,-4,-3,-6,-7,-3,-3,0
1537907219135790,-4,-2,-5,5,5,1,-2,0
1537907219150749,10,2,-2,6,6,2,0,0
1537907219150749,0,-2,2,0,-6,-3,0,1
1537907219152744,-34,-8,-2,-6,0,0,-3,-13
1537907219152744,-3,5,1,0,-2,-2,-3,-5
1537907219173687,-5,-2,-1,-1,3,2,0,-3
1537907219173687,8,-1,0,2,-3,0,1,2
1537907219174685,10,-1,-4,-5,-3,-1,3,9
1537907219174685,0,-1,1,-1,0,0,-2,-2
1537907219187650,-3,-1,-3,0,20,5,-1,-4
1537907219187650,-1,1,3,10,-25,-10,-2,-1
1537907219195629,3,-1,-1,4,-7,-3,-1,1
1537907219195629,-5,2,3,12,6,1,0,-1
1537907219210589,7,-1,-9,-38,-13,-3,-3,0
1537907219210589,-5,-4,0,8,16,6,1,-2
1537907219212584,4,1,0,8,19,5,2,0
1537907219212584,2,2,-2,-17,-44,-16,-5,-2
1537907219233527,2,-6,-6,7,4,0,1,4
1537907219233527,-10,-11,0,0,3,-1,-2,-4
1537907219234525,1,-6,-3,-9,-9,-4,-4,-3
1537907219234525,-4,4,1,9,20,6,2,-2
1537907219248488,-5,5,1,10,-1,-1,1,2
1537907219248488,3,-10,2,-7,-3,0,-1,2
1537907219256466,-1,2,1,7,0,-1,-2,-3
1537907219256466,-3,0,-3,-3,5,1,0,-1
1537907219270429,-3,1,1,15,-1,-2,-1,-2
1537907219270429,3,9,-1,-2,1,1,1,1
1537907219272424,1,5,1,-6,1,0,0,1
1537907219272424,-2,-5,-1,2,-1,-1,0,0
1537907219293368,-2,-3,2,0,-2,-2,-4,-2
1537907219293368,3,1,-8,-2,0,0,1,1
1537907219295362,0,-3,0,0,-2,0,-1,0
1537907219295362,-1,-5,-1,-14,-12,-4,-4,-1
1537907219307330,0,-7,-4,-16,-6,-2,-1,0
1537907219307330,1,2,-1,-5,0,-4,-3,0
1537907219316306,5,1,0,4,-3,-2,-1,2
1537907219316306,-1,-6,-3,-4,4,2,-2,-2
1537907219331266,-7,-3,0,4,5,2,-2,-6
1537907219331266,-5,-1,-1,-8,-3,-2,-1,-3
1537907219332263,-10,0,-2,-6,-4,-2,-1,-6
1537907219332263,0,5,-1,7,6,2,2,2
1537907219353207,-1,-10,-1,3,-2,-4,0,0
1537907219353207,1,8,0,2,1,-1,1,1
1537907219355202,3,5,1,1,0,-1,-1,2
1537907219355202,2,-1,-1,1,2,1,0,2
1537907219367170,-6,4,-1,3,-2,-1,-1,-5
1537907219367170,-2,-6,-1,-3,1,1,-1,0
1537907219376146,3,-1,0,3,0,-2,0,-1
1537907219376146,-2,1,-1,-3,-8,-5,-2,-1
1537907219391106,1,2,-3,4,0,1,0,3
1537907219391106,0,-3,1,-6,8,2,-1,-2
1537907219392104,-2,-1,-4,-9,-12,-4,-3,0
1537907219392104,-2,-4,-1,-9,7,4,-1,2
1537907219413048,0,0,3,19,-6,-2,0,0
1537907219413048,0,0,-6,-21,-6,-3,-1,0
1537907219415042,1,1,2,-3,-3,1,-1,0
1537907219415042,-2,-2,-3,0,-1,-1,-1,-1
1537907219427010,1,-1,-1,-2,3,1,-2,-2
1537907219427010,-3,3,2,10,2,-1,-3,-2
1537907219435986,-5,-3,-2,-6,0,0,0,-5
1537907219435986,-2,0,0,4,1,0,-1,-3
1537907219450946,-1,1,0,1,-1,1,1,1
1537907219450946,1,-3,-1,2,-4,-3,-1,1
1537907219451944,2,-2,-3,-5,-2,-2,0,1
1537907219451944,-1,-3,0,5,2,-1,-1,-2
1537907219472888,3,2,-2,-8,-5,-2,-2,0
1537907219472888,-1,-1,1,0,0,0,-1,0
1537907219474882,1,-1,-2,2,3,2,-1,0
1537907219474882,-3,-1,0,0,2,-1,0,-1
1537907219495826,-3,-1,-1,5,-1,-2,0,0
1537907219495826,-2,0,0,-11,-5,-1,0,-1
1537907219496824,0,-2,-3,0,-7,-4,-2,-1
1537907219496824,1,-1,0,3,2,-1,-2,-2
1537907219509789,0,-1,1,4,1,-1,0,-1
1537907219509789,-3,-1,0,17,11,1,0,0
1537907219516770,0,0,-3,-9,-5,-4,-2,0
1537907219516770,3,-1,4,-4,-10,-2,0,0
1537907219533725,-1,-1,-4,-3,1,0,-1,2
1537907219533725,-5,-2,1,4,3,0,-2,-2
1537907219534722,2,-1,1,-2,6,0,-3,-6
1537907219534722,-2,-2,-2,-3,2,0,-1,-2
1537907219555666,0,0,0,-5,-3,-2,0,0
1537907219555666,-2,-2,-2,1,-1,-1,-2,-5
1537907219557661,1,-1,-2,-1,0,-1,1,3
1537907219557661,-1,0,-2,-2,-1,0,-1,-1
1537907219570626,0,-1,-1,-2,0,0,0,-1
1537907219570626,1,-1,-1,-1,-1,1,0,0
1537907219572621,0,-2,0,1,1,-1,-1,-1
1537907219572621,1,-1,-2,2,-1,-2,-1,-1
1537907219593565,2,-1,1,-2,0,1,-1,-1
1537907219593565,-1,0,1,-4,-6,-2,-1,0
1537907219594562,-1,-2,-1,13,6,0,-1,-1
1537907219594562,-2,-3,-4,-16,-4,0,0,0
1537907219615506,-2,0,-2,-2,-2,-3,-3,0
1537907219615506,0,0,-1,-4,-5,0,0,0
1537907219617501,0,-1,1,0,3,0,-1,-1
1537907219617501,-7,-3,-1,8,4,-1,-2,-5
1537907219630466,0,-1,0,-3,-1,-2,-3,-1
1537907219630466,-1,0,0,1,-1,-1,0,0
1537907219632461,-3,-2,0,-2,-1,1,1,2
1537907219632461,3,0,-1,-1,-1,-2,-1,3
1537907219653405,-2,-2,-2,-2,0,-1,0,-1
1537907219653405,-4,-1,0,4,1,-1,0,-2
1537907219654402,-4,-3,-1,-2,-1,0,0,-2
1537907219654402,0,2,-1,-2,-3,-2,-1,-2
1537907219676344,0,0,-1,-6,-2,-3,-1,0
1537907219676344,3,-1,-1,0,1,-1,-2,1
1537907219677341,-4,0,1,1,2,-1,-2,-3
1537907219677341,0,-2,-2,0,-1,-1,-1,0
1537907219691304,2,1,-1,-3,-4,-2,-2,0
1537907219691304,0,0,-2,-4,-1,-2,0,-1
1537907219692301,-1,-1,1,1,-6,-3,0,-2
1537907219692301,-5,-3,-5,4,3,1,0,0
1537907219713245,-1,-2,-5,0,0,-1,-2,-2
1537907219713245,0,0,13,-1,0,-1,-2,0
1537907219715240,1,0,-12,-7,1,0,0,0
1537907219715240,4,2,10,6,-1,-1,2,2
1537907219743166,-2,-1,-7,-1,-2,-1,1,0
1537907219743166,-5,-5,-8,-5,-3,-1,-3,-3
1537907219745161,0,-1,2,5,5,1,0,0
1537907219745161,1,0,-2,-18,-14,-2,-2,-1
1537907219750148,-2,2,6,-4,8,1,-1,0
1537907219750148,2,0,24,8,-4,-3,-1,-1
1537907219757129,-2,9,-13,-12,-10,-5,-2,-2
1537907219757129,1,-12,-8,13,3,-2,1,2
1537907219773088,-1,2,-21,13,-4,-2,-1,-1
1537907219773088,0,-3,20,-18,4,1,0,1
1537907219775083,-2,-6,8,-32,-3,-2,-2,-2
1537907219775083,1,12,20,40,10,4,2,0
1537907219796025,-5,-9,-4,31,20,3,-1,-2
1537907219796025,-1,4,-75,0,-4,-6,-2,-1
1537907219797022,4,14,69,21,-1,0,0,2
1537907219797022,1,14,-27,-3,0,0,-1,1
1537907219809986,-1,11,34,13,-3,-1,1,-1
1537907219809986,-1,-16,-18,39,35,11,3,0
1537907219817965,-8,-28,-27,-79,-93,-29,-13,-9
1537907219817965,-1,-5,-44,-34,9,3,0,-2
1537907219832925,-5,-16,-18,59,-5,-6,-4,-5
1537907219832925,11,36,7,-31,2,2,0,4
1537907219834920,1,-14,22,85,65,22,7,5
1537907219834920,-5,-12,0,-104,-50,-13,-5,-4
1537907219855864,4,1,-34,-25,-13,-3,-1,-1
1537907219855864,-10,-14,67,-78,-60,-16,-7,-9
1537907219856861,1,4,-38,13,10,5,-2,0
1537907219856861,3,11,40,81,44,12,5,4
1537907219869826,-2,-6,-6,-26,-9,-9,-2,0
1537907219869826,-1,3,57,60,-12,-4,-2,-2
1537907219878803,0,1,-6,50,23,11,6,4
1537907219878803,-6,-22,-31,-25,-46,-20,-8,-4
1537907219893763,3,11,-7,-32,11,4,1,3
1537907219893763,4,-5,-43,56,80,23,11,8
1537907219894760,-5,-9,17,-58,-63,-22,-8,-3
1537907219894760,0,14,-11,-14,24,10,-1,-2
1537907219916701,2,-7,28,-21,2,1,1,3
1537907219916701,-1,4,2,53,-25,-8,-5,-3
1537907219917699,1,1,-8,-17,46,15,7,3
1537907219917699,-3,-5,23,50,-9,-5,-3,-2
1537907219929667,1,7,10,27,18,4,2,2
1537907219929667,1,-1,-7,-31,1,3,2,1
1537907219938643,-3,3,25,4,-3,-4,-2,-5
1537907219938643,-3,-8,8,34,-4,0,0,-3
1537907219953603,1,2,-12,-7,22,10,1,1
1537907219953603,-3,-7,-7,18,-61,-22,-6,-1
1537907219954601,5,2,-46,33,19,6,3,3
1537907219954601,-6,1,40,-17,-25,-11,-4,-4
1537907219975545,-6,-7,-5,-36,-46,-12,-5,-5
1537907219975545,-2,-4,12,-60,39,13,3,-2
1537907219977541,2,1,-69,50,-80,-29,-10,-4
1537907219977541,-1,-1,6,16,47,15,4,2
1537907219989508,-1,1,-1,3,6,3,1,-2
1537907219989508,-2,-13,-26,16,8,-2,-2,-3
1537907219998485,0,7,15,-10,36,10,2,0
1537907219998485,3,4,28,-48,-3,0,0,1
1537907220021422,-5,-9,-41,-29,-17,-6,-4,-3
1537907220021422,0,5,-5,-5,6,2,-1,-1
1537907220022420,-3,0,-38,34,9,-1,1,-3
1537907220022420,0,-1,69,-35,-40,-14,-3,-4
1537907220035384,0,3,36,58,43,13,4,3
1537907220035384,-2,-7,-44,-10,-2,-6,-4,-2
1537907220037379,3,-1,12,3,0,-1,0,3
1537907220037379,-2,-9,-45,56,22,7,1,-3
1537907220049347,-1,2,-2,-46,-28,-9,-2,-1
1537907220049347,4,1,13,-3,11,3,3,2
1537907220058323,-3,0,17,-52,-15,-4,-5,-2
1537907220058323,2,-3,-32,34,31,9,4,0
1537907220073282,1,6,30,-20,-6,-2,-1,-1
1537907220073282,0,3,-9,1,-25,-9,-2,0
1537907220075277,-1,-2,3,-28,18,6,1,0
1537907220075277,0,1,0,7,4,0,0,2
1537907220096221,-2,-2,-13,-4,-3,0,-2,-1
1537907220096221,2,0,14,-12,-2,-1,-2,0
1537907220097219,-4,0,4,9,8,1,3,0
1537907220097219,1,-2,-18,0,0,-1,-1,-1
1537907220109187,-4,-2,5,15,-11,-4,-2,-5
1537907220109187,-2,-2,-15,-4,2,-1,-1,-4
1537907220124147,0,-2,24,-12,-3,0,-2,-2
1537907220124147,4,2,-13,-12,-8,-2,-1,2
1537907220133123,-3,-4,-5,-5,-2,-3,-2,0
1537907220133123,0,-2,8,-2,-1,1,-1,-1
1537907220135118,1,1,-3,0,8,2,0,0
1537907220135118,-3,-2,-1,-11,-4,0,-2,-1
1537907220156062,1,-1,-1,9,4,0,-2,-2
1537907220156062,-5,0,0,0,-3,0,0,-2
1537907220157059,0,1,5,-5,-4,-2,-1,2
1537907220157059,-2,0,-13,-4,-2,-2,-1,-2
1537907220169028,5,0,9,3,-2,1,-2,1
1537907220169028,-3,0,-3,-2,-2,-1,-1,-2
1537907220178004,-5,-1,1,-6,5,2,-2,-2
1537907220178004,1,1,-3,-10,-7,-3,-2,0
1537907220193963,1,-3,-5,2,-4,-3,2,1
1537907220193963,2,-1,3,0,1,-2,-1,2
1537907220194961,1,0,3,-1,1,0,0,0
1537907220194961,-3,-2,-1,17,13,4,1,0
1537907220215903,-3,0,-1,0,-2,-5,-3,-3
1537907220215903,0,-3,-6,-12,-14,-2,-1,0
1537907220216901,0,-1,3,0,4,0,-1,-1
1537907220216901,1,1,-5,-14,8,3,-1,0
1537907220229866,-3,2,9,17,-21,-7,-1,1
1537907220229866,0,-3,-1,3,3,0,-1,1
1537907220238841,-3,-1,0,3,6,0,0,-2
1537907220238841,-2,0,-3,-8,-10,-4,-1,-1
1537907220253800,0,-2,-2,-4,15,4,1,-1
1537907220253800,0,-1,-1,-2,-2,-2,0,1
1537907220254798,1,-1,1,-1,-7,-1,-1,1
1537907220254798,-2,0,-3,-2,3,-2,-2,-2
1537907220275742,-2,-3,-1,4,2,-1,-3,-2
1537907220275742,-2,1,1,3,-2,0,-1,-1
1537907220277737,-1,0,-4,-6,3,2,0,0
1537907220277737,0,0,-1,-3,-6,-3,-1,0
1537907220289705,1,-2,-2,-3,3,2,1,0
1537907220289705,-2,-1,0,-5,-4,-3,0,-1
1537907220298681,-1,-2,-3,1,1,0,-1,-2
1537907220298681,0,0,-4,-2,-7,-2,-1,0
1537907220314638,1,0,1,4,-4,0,0,-1
1537907220314638,0,0,-2,-3,5,1,0,2
1537907220316633,2,-3,3,-1,-2,-2,-2,1
1537907220316633,1,-3,0,13,1,0,-1,-2
1537907220335582,-2,-2,-4,-22,-4,0,0,-3
1537907220335582,-1,0,0,4,-1,-2,1,0
1537907220337577,-3,-2,-2,-5,-5,-2,1,-2
1537907220337577,0,-1,-1,-6,-3,-2,-1,0
1537907220349545,-1,-3,-2,0,3,1,0,1
1537907220349545,-3,1,0,1,-2,-2,-1,-3
1537907220358522,-2,0,-2,0,-2,0,0,-1
1537907220358522,-2,0,0,1,1,0,-2,0
1537907220373481,0,1,-2,-1,0,0,0,-1
1537907220373481,1,-1,-2,3,5,1,1,0
1537907220374479,0,-1,-2,0,-2,-2,-1,0
1537907220374479,-1,0,-3,-4,-4,-1,-1,-2
1537907220395423,-1,-1,-1,-1,2,0,0,-1
1537907220395423,0,-1,0,-1,0,2,-2,-2
1537907220397418,-1,0,-1,-3,-1,-1,-1,0
1537907220397418,-2,-3,-3,0,-1,0,0,-1
1537907220409385,0,0,-1,-1,-6,-2,-3,-1
1537907220409385,0,-2,0,-2,3,1,0,0
1537907220418361,1,-2,-1,7,3,0,-1,0
1537907220418361,-3,-3,1,-3,0,-2,-1,-1
1537907220433320,-1,1,-1,2,-5,-3,0,-1
1537907220433320,-2,-1,-1,-2,1,-1,0,1
1537907220434318,0,-1,0,0,2,1,1,-2
1537907220434318,0,-1,-2,-2,-2,-3,-2,1
1537907220456259,-2,-1,1,6,2,-1,-1,-2
1537907220456259,0,0,-1,-2,-2,0,-1,1
1537907220457256,-1,0,1,-2,-2,-3,-1,-1
1537907220457256,-1,-1,0,1,-2,0,0,1
1537907220469224,-1,-2,1,-4,0,1,0,-3
1537907220469224,-2,-1,-2,1,-1,0,0,-1
1537907220478200,-1,-1,-1,-1,0,-1,-1,1
1537907220478200,-2,-1,-3,0,-2,-1,-2,-2
1537907220493160,0,1,-1,1,0,0,-1,-1
1537907220493160,-1,-1,0,-2,0,0,0,-3
1537907220495155,-1,0,-1,-5,-2,-1,0,-3
1537907220495155,2,0,-1,-7,-4,-1,-1,0
1537907220515102,0,1,1,4,2,1,1,3
1537907220515102,0,-2,-2,10,4,-3,-4,-1
1537907220516099,-2,-3,-2,-4,-5,-2,-3,-1
1537907220516099,0,0,-1,-1,-4,-2,1,-2
1537907220538042,-1,0,-1,-4,2,2,1,-1
1537907220538042,-1,-1,0,-9,-3,-1,2,0
1537907220538042,1,3,0,-2,5,4,1,1
1537907220538042,1,-3,-1,14,9,1,-1,1
1537907220553002,-4,-3,-2,-3,-8,-3,-5,-3
1537907220553002,-1,-3,-3,24,10,-1,-3,-3
1537907220553002,-2,-1,0,-28,8,4,2,-2
1537907220553002,-4,0,4,70,4,-4,-1,-3
1537907220574943,-2,-10,-13,-28,-9,-3,-2,-1
1537907220574943,0,-2,16,-48,-10,-3,-2,-2
1537907220575941,2,9,-10,26,-18,-5,-2,0
1537907220575941,2,9,13,64,22,5,1,1
1537907220597882,2,-2,-6,-75,-1,5,1,1
1537907220597882,-5,-12,-28,30,-32,-14,-5,-3
1537907220598880,-6,-8,55,25,-8,-5,-6,-6
1537907220598880,2,-6,-104,-98,28,13,4,4
1537907220612843,-3,5,43,36,-34,-14,-8,-4
1537907220612843,0,2,29,-29,8,8,2,2
1537907220613839,-5,-8,-34,-50,-3,-2,-3,-3
1537907220613839,-5,-7,-4,-42,-57,-20,-9,-7
1537907220634783,3,8,-12,11,17,6,1,0
1537907220634783,1,8,29,46,31,10,2,-1
1537907220635780,0,0,-1,51,3,-6,-1,-1
1537907220635780,-4,-8,-7,1,-23,-8,-4,-3
1537907220657721,2,5,24,-23,51,16,6,4
1537907220657721,4,6,-38,12,-6,-8,1,2
1537907220658718,-2,-11,-45,5,3,0,-1,0
1537907220658718,1,-2,-6,-52,34,10,3,1
1537907220672680,-4,1,20,-2,-95,-43,-13,-6
1537907220672680,0,-2,4,19,55,16,5,2
1537907220673678,3,1,8,-13,28,7,2,1
1537907220673678,-3,-11,0,-18,31,4,1,-2
1537907220695619,-1,0,48,10,-12,1,-1,-2
1537907220695619,-1,-1,-26,-33,-13,-4,-1,-1
1537907220695619,-1,3,5,51,-5,-2,-1,-2
1537907220695619,1,4,27,8,-19,0,-1,0
1537907220717560,3,4,-8,29,47,14,4,2
1537907220717560,-3,-3,-4,3,-13,-5,-3,-3
1537907220718558,1,-7,-93,-14,9,6,3,4
1537907220718558,-4,6,65,-18,-31,-14,-5,-5
1537907220732520,3,-2,-2,-27,22,7,3,2
1537907220732520,-1,1,34,2,-16,-5,-2,-1
1537907220733518,-1,-3,-17,-1,-12,-3,-1,-1
1537907220733518,4,9,11,18,1,2,2,1
1537907220755459,2,-2,13,-13,14,4,1,1
1537907220755459,-5,-9,-59,-21,-22,-7,-2,-3
1537907220755459,3,5,32,38,32,9,4,2
1537907220755459,2,4,0,32,4,2,-1,1
1537907220777400,0,-5,-5,25,-2,1,-1,1
1537907220777400,2,2,10,22,17,5,-1,1
1537907220778398,-2,0,13,21,-1,-3,-2,-1
1537907220778398,-1,-1,0,16,5,1,-2,1
1537907220793358,-3,-1,-22,-34,-16,-5,-2,-4
1537907220793358,-1,3,9,-1,-9,-3,-4,-1
1537907220800339,2,3,2,-23,-20,-5,-3,1
1537907220800339,-3,-2,8,16,4,3,0,-1
1537907220815299,-3,-2,-6,20,15,4,2,1
1537907220815299,-1,0,0,6,-5,-3,-2,1
1537907220816297,-2,1,31,-26,-9,-4,-1,-3
1537907220816297,2,0,-10,1,16,4,1,0
1537907220837240,-3,-5,-24,13,-5,-4,-1,0
1537907220837240,-1,-3,-2,-18,-9,-2,0,-3
1537907220838238,-3,1,12,-24,0,0,-3,-1
1537907220838238,-4,-4,-7,-8,-18,-5,-1,-3
1537907220853198,-1,-6,-23,12,-5,-5,-3,-2
1537907220853198,0,0,8,18,12,4,-1,0
1537907220853198,3,5,-3,-10,-9,-3,0,1
1537907220853198,-2,-1,14,3,-8,-3,-1,-3
1537907220875139,-2,-3,-34,2,2,0,-2,-1
1537907220875139,0,2,2,-14,0,0,1,1
1537907220876137,0,-1,17,0,9,2,1,0
1537907220876137,-1,0,-2,-11,-6,-2,0,0
1537907220898078,0,0,1,5,-2,0,0,-1
1537907220898078,1,-1,-1,2,9,2,1,2
1537907220899075,-5,-3,-4,-11,-9,-4,-4,-3
1537907220899075,-2,-2,5,-5,-2,-1,-2,-3
1537907220913038,-3,-1,-7,9,7,-1,-1,-2
1537907220913038,2,-1,1,-8,-7,-4,-4,-1
1537907220913038,-4,-1,9,-10,-5,-3,0,-4
1537907220913038,1,0,-8,-3,-3,0,1,1
1537907220934979,-3,-2,-1,11,5,2,0,-2
1537907220934979,1,1,-1,-9,-6,0,0,-1
1537907220935976,0,-1,-1,-12,-8,-3,0,0
1537907220935976,-1,-1,-5,5,7,4,5,9
1537907220957918,1,-1,-1,6,2,0,6,-7
1537907220957918,-1,-2,2,-9,-11,-6,-25,-3
1537907220958916,2,0,-1,0,4,5,14,4
1537907220958916,-2,-2,-3,-1,0,-7,-2,-11
1537907220972878,-6,0,0,-5,-8,-5,-20,0
1537907220972878,-1,1,0,2,3,2,12,0
1537907220972878,1,-2,2,-3,0,1,-5,1
1537907220972878,-3,-1,-2,-3,-6,3,10,-1
1537907220995817,-1,-2,-1,-1,1,-1,5,1
1537907220995817,1,-3,-3,-1,-2,2,2,-2
1537907221002798,-4,-1,-1,0,0,-2,-1,0
1537907221002798,1,0,2,-1,1,-2,-2,1
1537907221018755,2,-1,-1,0,2,-2,-4,-3
1537907221018755,-1,2,1,0,-2,-2,-4,0
1537907221018755,2,-1,2,-4,-3,0,1,-1
1537907221018755,-5,-1,-2,0,0,0,-7,-3
1537907221033715,1,-1,-2,-1,-1,-1,-3,1
1537907221033715,1,-3,-5,-8,-1,0,11,3
1537907221040696,-3,0,-1,2,-2,-5,-5,-4
1537907221040696,-1,-2,-3,-2,0,-4,-8,-3
1537907221055657,0,1,1,3,-1,3,5,1
1537907221055657,-1,1,4,5,8,1,2,2
1537907221055657,0,-1,-6,-14,-13,-7,-7,-2
1537907221055657,-1,-1,-2,-5,-5,-1,-6,1
1537907221077598,-1,-2,-1,-2,1,2,2,-1
1537907221077598,-4,-2,-1,-6,-11,-5,-2,-2
1537907221078595,-1,-1,1,5,5,1,-3,0
1537907221078595,0,0,-2,-6,-5,-1,3,2
1537907221091560,0,0,-1,2,2,1,1,0
1537907221091560,-2,-1,-1,-1,1,0,-2,-2
1537907221099539,-3,-2,0,-2,3,3,-1,-1
1537907221099539,2,1,-2,-3,-5,-4,-1,0
1537907221115496,0,0,-2,8,3,0,1,1
1537907221115496,-1,-2,-2,-9,-6,-3,-2,-1
1537907221115496,1,2,3,2,-1,1,-1,1
1537907221115496,2,-2,0,-1,3,2,0,-3
1537907221137438,-1,-1,-2,0,1,0,-2,2
1537907221137438,-4,-4,-3,2,-3,-3,0,-4
1537907221138436,0,-2,-2,-13,-5,-2,1,2
1537907221138436,1,-1,0,4,2,0,-2,1
1537907221152398,1,-1,-2,0,-5,-3,-1,-2
1537907221152398,-1,-2,-1,-1,0,-1,0,-2
1537907221153396,-2,-1,1,5,3,0,-1,0
1537907221153396,0,-1,-1,2,0,-1,-1,-1
1537907221175338,1,-3,-1,-2,-2,-1,1,-1
1537907221175338,0,-1,-1,0,1,0,-2,-2
1537907221176335,-1,-1,-2,0,2,0,-4,-1
1537907221176335,-2,-2,-3,-2,-4,-1,-1,-1
1537907221197279,-1,1,0,-1,1,-1,1,0
1537907221197279,-2,-1,-1,-1,-1,-1,-1,-1
1537907221198277,0,-3,-1,-1,-1,-2,-2,-1
1537907221198277,-2,1,0,1,1,0,-1,0
1537907221212240,-1,-1,-1,1,1,-2,-1,-1
1537907221212240,0,0,-1,-2,-1,-1,-2,0
1537907221213237,-2,0,-1,0,0,-1,-1,-4
1537907221213237,-1,-2,-1,0,1,-1,-3,-1
1537907221235177,1,0,0,-6,-4,0,0,1
1537907221235177,-3,-2,-1,1,-1,-1,0,-1
1537907221236175,0,-1,1,3,0,0,-1,-2
1537907221236175,0,0,-1,-4,0,-1,-1,1
1537907221258116,-3,0,0,3,0,0,-1,-1
1537907221258116,0,0,-1,-2,-2,-2,1,0
1537907221258116,-2,0,-2,-2,-2,-2,1,-2
1537907221258116,0,-1,-1,-1,1,1,1,0
1537907221273076,1,-1,2,-2,1,0,0,0
1537907221273076,-1,-1,-1,-1,-2,-1,0,-2
1537907221273076,-3,-3,-1,6,2,-2,-2,0
1537907221273076,0,0,-1,-3,-3,-2,1,-1
1537907221295017,0,-1,-1,-2,-2,-1,1,0
1537907221295017,0,-1,1,2,2,0,0,1
1537907221296015,-2,-3,-1,-4,-3,0,0,-2
1537907221296015,1,0,1,0,2,1,-1,0
1537907221317956,-2,-1,-4,1,-2,-3,-5,-2
1537907221317956,-2,0,-2,-3,0,-2,-1,-2
1537907221318954,-1,-1,-1,-2,-3,0,-1,0
1537907221318954,-1,-1,-1,-2,-2,0,-2,1
1537907221331919,2,0,-1,-1,-2,-2,0,1
1537907221331919,0,-1,-1,1,1,0,-1,-1
1537907221339897,1,-1,-1,0,1,0,-1,0
1537907221339897,-4,-2,1,1,0,-2,-1,-2
1537907221354858,2,-2,-2,-3,-3,-2,1,0
1537907221354858,0,0,-2,-1,-2,-1,0,0
1537907221355856,-2,0,-1,-3,-2,-1,-1,-3
1537907221355856,-2,-1,-2,0,0,1,-1,-2
1537907221378794,-1,-2,0,-4,-3,0,0,-1
1537907221378794,0,-1,-1,1,1,1,0,1
1537907221378794,3,0,-1,1,-3,-4,0,1
1537907221378794,-1,-2,-1,-2,-2,-1,0,-1
1537907221391760,-2,0,-2,0,0,1,-3,-2
1537907221391760,0,-2,0,-1,-1,1,1,-2
1537907221399738,-1,0,1,1,-1,0,-2,-1
1537907221399738,-1,0,-2,-1,-3,-3,0,-2
1537907221415695,0,1,0,0,2,-1,0,-2
1537907221415695,1,0,0,-1,-1,-1,1,-1
1537907221415695,-2,0,0,-3,0,-1,-2,-1
1537907221415695,0,-2,-1,3,0,-4,-1,0
1537907221438633,-3,-1,0,0,-4,0,0,-1
1537907221438633,-2,0,-2,-2,-2,-3,-2,-2
1537907221438633,-1,1,-1,0,0,0,1,0
1537907221438633,0,-1,-1,-1,1,2,-1,1
1537907221451599,-1,-1,-2,-1,0,-1,0,0
1537907221451599,-2,-1,0,1,-2,-2,-1,0
1537907221460574,0,0,-2,0,0,0,-2,0
1537907221460574,-3,-2,0,-2,-3,0,-1,0
1537907221475534,-1,-3,-1,-3,-2,-2,0,0
1537907221475534,1,-4,3,14,2,0,-1,-1
1537907221475534,-1,8,-12,-27,7,2,0,-1
1537907221475534,-2,-2,4,11,-5,0,-1,-2
1537907221497475,-6,-6,-8,5,-6,-5,-6,-5
1537907221497475,2,6,5,-3,12,7,3,2
1537907221498473,2,4,46,23,1,-2,0,-2
1537907221498473,1,-18,0,15,13,2,1,1
1537907221512436,-8,-13,-23,-94,-86,-27,-12,-6
1537907221512436,0,-5,-4,41,41,14,5,4
1537907221520414,-5,-3,-50,-18,-64,-23,-10,-7
1537907221520414,-2,-23,-23,0,1,3,2,-1
1537907221535374,3,0,-23,63,-6,-5,0,2
1537907221535374,3,17,50,8,1,-2,-3,-1
1537907221535374,4,-1,-31,-46,44,18,9,5
1537907221535374,-4,3,36,-43,-44,-18,-8,-5
1537907221558313,-1,-8,-60,112,40,14,5,0
1537907221558313,1,16,63,-79,-4,2,4,1
1537907221559311,-1,-1,-4,-46,-26,-3,-3,-1
1537907221559311,3,5,-4,59,27,4,3,2
1537907221572276,4,13,52,-48,13,3,1,1
1537907221572276,-3,-9,-54,36,30,8,0,0
1537907221580254,3,5,44,56,-8,-6,1,2
1537907221580254,0,3,-8,-5,-18,-3,-2,-2
1537907221595214,-1,-4,25,-53,41,15,3,-1
1537907221595214,-3,-10,-24,2,-71,-25,-9,-7
1537907221603193,1,-5,-17,32,20,5,3,3
1537907221603193,-1,0,-13,-30,16,5,0,-1
1537907221618153,6,12,43,36,32,9,7,6
1537907221618153,-3,-10,-48,-73,-47,-15,-8,-5
1537907221619150,-3,-13,7,-29,-1,0,-2,-4
1537907221619150,-1,1,-10,18,3,-1,1,-1
1537907221641092,0,-4,-20,-14,12,3,1,-1
1537907221641092,-3,0,60,18,9,1,2,1
1537907221641092,-4,2,-17,1,1,-1,-2,-2
1537907221641092,-2,7,11,-40,-27,-6,-4,-1
1537907221655054,0,3,7,5,5,2,1,0
1537907221655054,-4,-5,-42,-1,-21,-7,-4,-3
1537907221656052,2,6,23,8,2,0,0,0
1537907221656052,0,5,8,63,43,16,4,1
1537907221677993,-3,0,32,-44,-46,-13,-6,-4
1537907221677993,-1,-4,6,0,13,3,-2,-1
1537907221678992,0,-1,46,-53,-10,-7,-3,1
1537907221678992,-4,-4,-78,10,-19,-11,-6,-4
1537907221700932,-1,-2,14,10,-9,-1,-1,-2
1537907221700932,2,1,-1,2,20,6,1,1
1537907221701929,1,-3,-14,12,16,7,3,2
1537907221701929,2,3,31,-11,2,-1,-1,0
1537907221714894,-3,-3,-13,-4,-8,-5,-4,-1
1537907221714894,2,1,-22,7,29,9,3,1
1537907221715892,-1,-4,-5,62,28,8,3,-1
1537907221715892,-5,-7,35,-51,-62,-23,-9,-6
1537907221739829,2,5,-3,44,12,3,2,1
1537907221739829,0,-3,-17,13,-3,0,0,1
1537907221740826,-2,-4,5,-9,2,0,-1,0
1537907221740826,-1,6,11,-20,18,7,2,0
1537907221760773,-2,-5,-18,-7,11,4,2,0
1537907221760773,-5,-6,34,-65,-51,-14,-5,-5
1537907221761770,1,5,-35,11,-1,0,-3,1
1537907221761770,1,1,-16,4,13,3,1,3
1537907221774735,-3,-2,4,-14,-9,-4,-3,-2
1537907221774735,0,0,-13,20,-5,-3,0,-1
1537907221775734,-3,-3,-4,6,-3,-1,-1,-2
1537907221775734,1,1,2,-2,2,1,0,0
1537907221798671,0,0,-2,15,9,2,-1,-1
1537907221798671,0,-3,-2,-10,27,9,2,1
1537907221798671,-1,-3,-13,-32,-59,-20,-6,-3
1537907221798671,-1,0,12,8,2,0,-2,-3
1537907221820612,-3,-2,-25,8,-2,1,1,0
1537907221820612,-2,1,13,-8,3,0,0,1
1537907221821609,-1,-4,-3,12,6,2,1,-1
1537907221821609,3,1,-5,21,10,4,2,2
1537907221835572,-1,0,-1,-13,-11,-7,-2,-2
1537907221835572,0,-2,-4,18,8,2,0,-1
1537907221835572,-1,-2,2,16,11,2,-1,-1
1537907221835572,-1,0,-4,-12,-1,0,-2,0
1537907221858510,1,-3,4,18,1,-1,-2,0
1537907221858510,-1,0,-8,16,-9,-6,-1,-2
1537907221859508,-2,-2,16,-18,-1,1,0,-2
1537907221859508,-1,-2,-18,-5,3,-1,0,0
1537907221880452,0,0,2,-7,5,1,-1,2
1537907221880452,0,-1,-9,16,14,3,1,1
1537907221882447,-5,-6,-4,-16,-42,-15,-6,-4
1537907221882447,0,1,5,-2,9,3,1,0
1537907221895412,2,3,3,-10,-4,-1,0,-1
1537907221895412,-1,-5,-19,2,-1,-1,-1,-1
1537907221896409,-1,1,1,11,6,1,1,0
1537907221896409,1,0,7,14,9,2,0,0
1537907221918351,0,0,-4,-61,-15,-4,-3,-2
1537907221918351,-1,-2,1,9,-10,-7,-4,-3
1537907221919348,1,0,-3,1,9,1,-1,-1
1537907221919348,-1,0,2,-5,-4,0,0,-1
1537907221941290,0,-2,-2,17,1,1,-1,-1
1537907221941290,0,2,3,-1,-4,1,1,0
1537907221941290,1,-1,-5,4,9,2,1,0
1537907221941290,-2,-2,1,2,8,1,0,0
1537907221955253,0,2,6,19,2,0,-1,0
1537907221955253,-1,-1,-3,1,-8,-4,-2,0
1537907221956251,0,-1,3,27,25,9,1,0
1537907221956251,-3,-3,7,-9,-14,-5,-3,0
1537907221978193,-2,-2,-6,11,4,0,1,1
1537907221978193,-2,-3,-18,-20,-8,-4,-2,-1
1537907221979191,1,0,15,5,-2,-2,-1,-1
1537907221979191,0,0,-1,-4,4,-1,0,-1
1537907222001130,-2,-2,1,2,4,0,-1,0
1537907222001130,-1,-1,5,10,3,1,1,0
1537907222002128,-2,-3,-5,-13,3,1,1,-1
1537907222002128,0,1,2,10,18,6,2,2
1537907222015094,-2,-3,-12,-34,-33,-12,-4,-2
1537907222015094,-3,-1,0,-3,0,-2,-1,-1
1537907222016091,-2,-3,3,24,-21,-7,-5,-1
1537907222016091,0,1,1,1,-14,-3,-2,0
1537907222038032,-2,-2,-6,2,11,4,0,0
1537907222038032,0,3,13,-4,7,3,-1,0
1537907222039029,0,-1,-8,10,4,0,-1,0
1537907222039029,0,0,-3,9,3,0,0,0
1537907222060970,-2,-1,5,12,7,2,0,-2
1537907222060970,-2,-2,-5,-24,-13,-4,-3,-1
1537907222061968,0,1,0,-6,-8,-2,-1,-1
1537907222061968,-1,-4,-4,-33,-6,-2,-2,-1
1537907222074932,-2,-2,6,11,-14,-5,-2,-2
1537907222074932,0,-1,-3,-3,1,-1,0,0
1537907222075930,0,2,-1,-10,6,0,-1,0
1537907222075930,-1,-1,3,-4,2,0,0,-2
1537907222097870,-2,-2,-14,-1,-4,-2,-1,-1
1537907222097870,1,-1,5,8,1,2,0,0
1537907222099865,-1,-1,-2,0,12,2,0,2
1537907222099865,-1,0,2,-18,-20,-7,-3,-1
1537907222120809,0,0,3,8,9,1,0,-1
1537907222120809,-1,0,-2,10,-4,-1,-1,-1
1537907222121806,-1,1,-3,-1,3,0,1,0
1537907222121806,-1,-1,0,17,7,2,1,0
1537907222134772,1,-1,1,1,7,1,0,-1
1537907222134772,-2,0,-1,-13,-7,-1,0,0
1537907222143748,1,0,4,2,10,2,1,-1
1537907222143748,1,2,-2,12,5,0,0,0
1537907222158708,-1,-2,3,-2,-5,-1,-2,-1
1537907222158708,-1,-1,1,-3,7,2,-1,-1
1537907222159705,-2,0,1,1,-2,0,1,0
1537907222159705,-1,0,-2,19,10,2,0,1
1537907222180649,-1,0,-3,-27,0,-1,1,-1
1537907222180649,-1,-3,1,24,-8,-3,-4,-2
1537907222182644,-2,-3,-3,9,8,4,-1,-1
1537907222182644,-1,-2,-7,-8,-12,-5,-3,-1
1537907222194612,0,-1,2,-2,-2,1,-1,0
1537907222194612,-1,0,-1,-6,5,-1,0,1
1537907222203588,1,1,-3,-8,-9,-3,-2,-1
1537907222203588,-1,-2,-4,-2,0,-1,-1,-1
1537907222218548,0,0,1,12,-1,-1,-1,1
1537907222218548,1,-1,1,7,7,3,0,-1
1537907222219545,-2,-1,0,-1,-5,-2,-1,-1
1537907222219545,0,0,-4,3,-8,-1,-2,-1
1537907222242484,-3,-2,-1,-4,-1,-2,-3,-3
1537907222242484,0,-2,0,-4,-5,-2,-2,-1
1537907222243481,-3,-1,-1,-1,2,0,1,0
1537907222243481,-2,0,-3,-7,0,0,-1,-2
1537907222254452,-3,-1,2,7,2,-1,0,-1
1537907222254452,0,0,-2,-7,9,1,2,-1
1537907222263429,-1,-4,-3,-11,-18,-7,-3,-2
1537907222263429,0,-3,0,1,4,2,0,-3
1537907222278388,2,3,1,21,2,0,0,1
1537907222278388,-2,0,1,8,-4,-5,-1,0
1537907222279386,-1,-3,-3,5,5,1,-2,-1
1537907222279386,-1,-1,-2,-27,-2,0,-2,-1
1537907222300329,0,-1,0,-1,1,1,0,-1
1537907222300329,-1,0,0,7,3,1,0,-1
1537907222302324,-1,-1,-1,1,-4,0,0,0
1537907222302324,0,0,-1,5,4,0,-1,0
1537907222314292,0,-1,2,8,12,2,0,0
1537907222314292,-1,0,-3,-26,-21,-4,-3,-2
1537907222323268,-2,-1,-3,-3,1,0,-1,-1
1537907222323268,0,1,-2,3,-5,-4,0,-1
1537907222346207,-1,-1,0,-4,-4,0,0,0
1537907222346207,-2,-2,-3,-19,5,0,-2,-2
1537907222347204,2,0,3,1,-4,-2,0,-1
1537907222347204,0,-1,0,7,-1,1,-1,1
1537907222361167,-1,-2,-1,0,5,0,-1,-1
1537907222361167,1,1,-3,16,4,1,0,-1
1537907222362164,-2,-2,-1,3,1,-3,-1,-2
1537907222362164,-3,1,2,12,10,0,1,0
1537907222374132,1,2,-1,-5,-6,-5,-1,1
1537907222374132,1,0,4,6,-6,-2,0,0
1537907222383108,0,0,0,1,0,2,0,0
1537907222383108,-1,-3,-1,1,-4,-1,0,-1
1537907222398068,-2,-2,-1,4,6,1,-1,-1
1537907222398068,-1,-1,1,14,15,3,0,-1
1537907222400063,-2,-3,-6,-31,-14,-5,-2,-1
1537907222400063,-1,-3,-1,-9,-18,-4,-2,-1
1537907222421007,0,-1,0,-8,-7,-3,0,-1
1537907222421007,-1,-3,-3,2,2,0,0,-1
1537907222422004,-2,-1,-2,-3,-5,-1,-2,-2
1537907222422004,-1,0,-2,6,1,-2,-1,0
1537907222434970,-2,-2,-2,-23,-7,-2,-1,-1
1537907222434970,-1,-1,0,17,3,-1,-1,0
1537907222442948,1,1,0,10,8,3,-1,3
1537907222442948,-1,0,1,7,5,1,2,-2
1537907222457908,-1,0,-3,-6,-13,-3,-3,-3
1537907222457908,-1,-1,3,1,-2,-1,-1,0
1537907222459903,-1,-1,-4,-18,1,0,0,0
1537907222459903,1,-1,-4,-12,-6,-1,0,1
1537907222480847,0,0,1,12,12,4,0,0
1537907222480847,-1,1,1,-23,-11,-4,-2,-2
1537907222481844,-1,0,-1,2,3,-2,0,-1
1537907222481844,-1,-3,3,9,0,0,0,-2
1537907222494809,1,-3,-5,-3,2,0,-1,1
1537907222494809,1,-1,4,3,-3,-2,0,-1
1537907222503786,-1,-1,-1,2,-7,-4,0,-2
1537907222503786,0,1,-1,-5,1,1,-2,0
1537907222518745,-2,-1,0,4,-2,-3,-1,-1
1537907222518745,0,0,-2,5,6,2,0,1
1537907222519743,0,0,1,6,4,1,0,-1
1537907222519743,-1,1,-1,2,1,-1,-2,0
1537907222540687,0,0,-1,-26,3,2,1,0
1537907222540687,-2,-3,-3,9,-16,-7,-4,-2
1537907222542681,-1,1,0,-11,3,2,1,-2
1537907222542681,-1,-3,-6,2,-3,-2,-2,-1
1537907222563626,-1,-2,2,0,4,0,0,0
1537907222563626,0,1,0,-1,8,1,1,2
1537907222564623,0,-2,-4,-7,-12,-5,-2,0
1537907222564623,-2,-2,0,1,3,-1,-1,-3
1537907222578586,-2,-2,-4,7,-5,-2,-2,-1
1537907222578586,0,-1,1,-1,7,3,2,1
1537907222579584,-1,-3,-5,-4,-3,-1,-2,-2
1537907222579584,0,1,-2,-10,-9,-2,-1,-1
1537907222600528,-1,-2,-2,-2,-3,-2,-2,-3
1537907222600528,0,-1,-3,2,2,0,0,0
1537907222602523,-2,0,5,9,-1,-3,-1,-2
1537907222602523,0,0,0,-2,-1,0,0,-1
1537907222623467,-1,-1,-1,22,-3,-1,-1,0
1537907222623467,-2,-3,-4,-2,-3,-3,-3,-1
1537907222624465,2,-1,-2,4,3,1,0,0
1537907222624465,-1,-1,0,2,-2,-1,0,0
1537907222637430,-2,-2,0,0,1,2,1,0
1537907222637430,-1,1,-1,-26,-5,-2,0,-2
1537907222644412,0,1,0,-6,5,1,-2,1
1537907222644412,0,-1,2,0,-6,-1,-2,-3
1537907222661369,0,0,3,3,-3,-2,0,0
1537907222661369,-2,-2,-2,8,5,2,0,0
1537907222662365,-1,-1,-5,4,-4,-3,0,0
1537907222662365,0,-2,-3,-16,-2,-2,-1,-1
1537907222683307,0,0,-1,0,-1,-1,-1,-1
1537907222683307,-1,0,-1,6,1,-1,-2,-2
1537907222689290,-2,-1,3,2,8,2,1,0
1537907222689290,-1,0,2,17,4,-1,-2,0
1537907222698266,-1,-2,-6,-7,-5,-2,-1,-2
1537907222698266,-1,0,-1,-5,-3,0,0,-1
1537907222700261,-2,-1,-3,1,-2,0,-1,2
1537907222700261,0,-1,0,-6,2,0,-1,0
1537907222721205,-1,-1,-3,-3,5,-1,-3,-3
1537907222721205,-1,-1,-3,3,-14,-6,-2,-3
1537907222722203,0,0,1,0,3,0,0,-1
1537907222722203,-2,-2,-3,10,3,0,-2,0
1537907222744143,0,-1,-2,-13,-6,-2,-2,-1
1537907222744143,-1,0,-2,-4,-3,-2,-2,1
1537907222745141,-1,-1,2,9,3,3,1,-1
1537907222745141,-2,-3,-3,-3,-9,-4,0,-2
1537907222758106,0,0,-2,-7,-2,1,0,0
1537907222758106,2,-2,3,19,-4,-2,-2,-1
1537907222764090,-1,-2,-1,-14,-2,1,-1,0
1537907222764090,-1,0,2,-3,4,3,-1,0
1537907222781046,1,-1,0,8,2,0,-2,0
1537907222781046,-1,1,-3,-9,0,1,0,-1
1537907222782042,0,0,-1,3,1,0,-2,-2
1537907222782042,0,-1,-1,-2,-1,0,0,-3
1537907222802986,-2,0,-2,-3,-5,-3,0,-1
1537907222802986,0,-2,-1,-2,3,1,0,-1
1537907222804981,-1,-1,-3,-4,-4,-3,-2,-1
1537907222804981,-4,-3,0,-2,1,-3,0,-4
1537907222817946,2,0,-1,1,-3,-3,-2,0
1537907222817946,3,-1,1,-3,2,2,0,2
1537907222824927,-2,-2,-2,0,-6,-5,-4,-3
1537907222824927,0,-1,-2,-3,-2,-1,-1,0
1537907222840884,0,0,0,2,1,1,0,1
1537907222840884,-3,0,-2,-2,1,0,-3,-2
1537907222841882,1,-1,-2,-2,0,4,5,1
1537907222841882,0,-1,-2,-3,-2,-5,-1,3
1537907222863823,-5,-1,1,0,0,-3,-4,-5
1537907222863823,-2,-1,-3,-2,-1,-1,1,-1
1537907222864821,-1,0,-1,3,1,-3,-3,-3
1537907222864821,0,-3,-5,-7,-1,10,10,-3
1537907222876789,3,1,2,3,1,0,39,24
1537907222876789,-8,-2,-4,-6,-5,-17,-70,-16
1537907222885765,2,5,3,6,-1,-1,1,0
1537907222885765,6,3,-1,-2,-4,-5,-9,-4
1537907222900724,1,-2,-1,-2,-1,4,5,-1
1537907222900724,-2,-2,-1,-9,0,5,17,-1
1537907222902719,-3,-3,-1,4,6,-3,-2,3
1537907222902719,-1,1,0,6,2,-2,-2,0
1537907222923663,-5,-2,-3,-4,-7,-3,-9,-8
1537907222923663,0,0,1,0,1,0,14,4
1537907222924661,1,-3,-4,-8,-6,-1,-6,-2
1537907222924661,-1,0,0,5,3,2,7,1
1537907222936628,3,-2,-3,-1,-1,-5,-10,-7
1537907222936628,-6,0,2,0,-2,0,4,-1
1537907222945604,-1,-1,0,-4,3,4,6,2
1537907222945604,2,-1,-1,-3,-3,-5,-3,2
1537907222960564,-8,2,2,-2,-3,-1,-9,-1
1537907222960564,16,0,-1,0,2,2,6,2
1537907222962560,-10,-2,0,-2,-3,-2,-2,-7
1537907222962560,-2,0,-1,1,2,-1,-2,0
1537907222983504,-3,0,-2,1,1,0,-8,-7
1537907222983504,0,-2,-2,0,2,3,12,4
1537907222984501,4,-3,-2,1,-2,-2,-1,1
1537907222984501,1,0,-1,-3,-3,-2,-4,1
1537907222997467,-2,-3,-2,0,2,-1,-2,-2
1537907222997467,-3,-3,-1,0,-2,0,4,-1
1537907223005446,1,-2,-3,-2,-2,-2,-2,-2
1537907223005446,-3,2,0,-5,-3,-1,-2,-1
1537907223020406,4,-1,1,0,0,-1,-2,3
1537907223020406,-4,-2,-1,-1,1,0,1,-1
1537907223022402,-2,0,0,-4,-4,-1,0,-1
1537907223022402,-2,-2,0,4,1,0,0,0
1537907223043344,0,-1,0,-1,-2,1,-2,-3
1537907223043344,-3,0,-2,-2,0,-1,-1,0
1537907223044342,1,1,-1,-3,0,-1,2,2
1537907223044342,-3,-3,-1,-1,0,-1,-2,-3
1537907223057307,0,-1,0,-1,0,-1,-2,-2
1537907223057307,-1,-2,1,0,-3,0,1,-1
1537907223072267,1,-2,-4,1,-1,-2,-3,-2
1537907223072267,-3,-2,-3,-2,-2,-2,-2,-1
1537907223081243,2,0,-1,0,-1,0,-2,0
1537907223081243,-3,-1,-1,-1,0,-1,1,-1
1537907223082241,-1,-3,1,-2,-2,-1,-1,0
1537907223082241,-1,0,-1,1,1,0,-1,-2
1537907223103184,0,-2,-1,-1,-1,0,0,0
1537907223103184,-1,-2,-1,1,0,-2,-1,-2
1537907223105178,2,1,-1,-3,-2,0,0,1
1537907223105178,-2,-3,-1,4,0,-1,0,-2
1537907223117146,-3,-4,-2,0,0,-1,-2,-2
1537907223117146,3,0,-1,-2,-5,-2,1,-1
1537907223126122,-4,-1,0,0,1,0,-3,-3
1537907223126122,-2,0,-1,-3,-3,-1,-1,1
1537907223141082,0,0,-2,-5,-4,-1,-1,1
1537907223141082,0,-1,-1,1,1,0,0,-2
1537907223142079,1,0,0,1,-1,0,1,0
1537907223142079,1,-2,0,1,2,0,1,0
1537907223163024,-4,-1,-2,-1,-1,-2,-2,-3
1537907223163024,-3,0,-1,0,-2,-1,0,0
1537907223165018,0,-3,-1,-1,0,1,-2,-2
1537907223165018,-1,-1,1,-1,0,0,-2,-3
1537907223176986,2,0,0,-1,-2,-2,-1,-1
1537907223176986,1,-1,0,-1,1,0,-1,-1
1537907223185963,-2,-3,0,4,2,-1,-1,0
1537907223185963,-2,0,-1,-5,0,0,0,1
1537907223200922,-1,1,-1,11,1,0,0,0
1537907223200922,-2,-1,-5,-16,-11,-3,-1,0
1537907223201920,1,-1,1,8,1,-1,-2,1
1537907223201920,-1,-2,-2,-12,-5,-3,0,0
1537907223222864,-4,-2,1,-2,3,0,-2,-2
1537907223222864,0,-2,0,4,2,1,-1,-1
1537907223224859,-1,-1,-1,-1,-2,0,0,-3
1537907223224859,1,-1,0,0,-1,-1,1,1
1537907223245804,0,1,-1,-1,-1,-1,-1,1
1537907223245804,-1,-1,-2,2,4,-1,-2,-1
1537907223247800,1,2,-1,-5,-3,-2,-2,1
1537907223247800,-1,-2,0,6,2,-2,-1,-1
1537907223260763,-3,-2,0,-1,1,0,0,-2
1537907223260763,1,0,1,2,1,0,-1,0
1537907223262758,-1,-2,-1,1,0,-1,2,-3
1537907223262758,2,-1,-4,-5,-6,-3,0,-1
1537907223283702,2,0,-1,-2,0,0,0,1
1537907223283702,-2,0,0,-1,3,0,0,-1
1537907223284701,-4,-3,-2,-3,-2,-1,-1,0
1537907223284701,4,-1,1,2,-1,1,0,0
1537907223296668,0,-2,-1,-5,-5,-3,-1,4
1537907223296668,-11,-6,-1,2,-3,-4,-7,-15
1537907223305643,-2,3,0,1,1,-1,1,-1
1537907223305643,-5,0,-2,-3,-4,-1,3,3
1537907223320602,5,-1,-2,-2,-1,-2,-4,-5
1537907223320602,0,0,-1,-2,-1,0,2,3
1537907223322597,-7,0,0,1,2,2,11,16
1537907223322597,5,0,3,2,2,0,-4,-6
1537907223343541,-3,-2,-2,-5,-3,-6,4,-22
1537907223343541,13,3,1,3,1,2,5,40
1537907223349525,-24,-13,-7,-5,-5,-9,6,-51
1537907223349525,-14,0,2,9,4,2,-22,29
1537907223356506,2,3,-3,-11,-4,2,15,4
1537907223356506,1,4,0,2,2,2,9,-16
1537907223365482,10,4,1,-3,-2,-6,1,30
1537907223365482,7,-5,-3,2,0,-3,-4,1
1537907223380442,-16,-3,2,6,7,16,-9,-20
1537907223380442,2,-1,3,2,0,9,24,65
1537907223386427,-35,-11,-5,-5,-12,-39,-81,-90
1537907223386427,-3,-4,-4,-7,-5,0,-1,-37
1537907223403381,2,2,2,3,3,-3,-13,-25
1537907223403381,-1,-1,-4,-6,-3,3,10,-16
1537907223404378,25,7,2,4,6,38,13,2
1537907223404378,-9,-1,-2,-1,-5,-37,-4,39
1537907223417344,-24,-10,-5,-6,-4,1,-6,-26
1537907223417344,3,2,-1,6,2,-3,-4,-10
1537907223426319,10,4,5,2,5,26,15,23
1537907223426319,-9,2,1,2,0,1,24,-72
1537907223440282,14,-1,-1,2,-4,-6,-6,97
1537907223440282,-2,-4,-3,-3,2,0,6,14
1537907223447264,-5,1,2,1,-1,0,-13,14
1537907223447264,23,2,1,-1,1,3,24,39
1537907223462224,-7,-3,0,-2,-5,-14,-7,-29
1537907223462224,19,6,1,-2,1,7,-8,-21
1537907223471200,-5,-6,-5,-4,-2,-3,-17,-1
1537907223471200,-8,8,4,5,8,12,31,24
1537907223477183,18,1,2,2,-2,-3,-8,39
1537907223477183,-1,-5,-4,-4,-10,-1,-20,47
1537907223486160,3,0,-8,2,3,-9,-2,-41
1537907223486160,-3,-6,-7,-9,-11,-40,-25,-61
1537907223500123,4,4,5,7,4,17,21,23
1537907223500123,-6,3,2,2,6,11,2,-128
1537907223507104,-18,-9,0,-3,-5,8,22,84
1537907223507104,-10,-11,-7,-9,-7,-21,-29,9
1537907223523061,19,12,3,1,-2,13,0,22
1537907223523061,-3,-11,-1,-4,-4,-26,6,-73
1537907223525055,-9,3,5,4,1,-30,-24,18
1537907223525055,20,7,2,3,3,4,-12,-26
1537907223546000,-4,-7,-1,0,2,-1,-11,-16
1537907223546000,-13,-2,0,0,0,1,-15,-86
1537907223546997,2,0,-3,-6,-8,-12,-5,-82
1537907223546997,10,6,3,1,7,45,18,68
1537907223560959,-3,-2,1,5,15,107,9,-33
1537907223560959,3,5,-3,-5,-21,-86,-28,50
1537907223566943,-6,0,-1,3,3,1,32,-46
1537907223566943,-11,-9,0,2,0,22,-15,-4
1537907223582901,-33,-6,-4,-6,-4,14,12,15
1537907223582901,10,1,0,0,5,38,-8,-11
1537907223584896,37,10,4,2,1,13,29,14
1537907223584896,-5,-8,-5,-6,-4,-23,7,73
1537907223606837,1,-3,2,3,5,-36,21,75
1537907223606837,-5,-6,-4,-3,-8,-27,-26,-4
1537907223608831,2,3,1,-1,-3,-3,-3,3
1537907223608831,13,8,2,3,8,40,23,-4
1537907223627781,32,8,1,-2,-8,-52,-2,56
1537907223627781,-7,-8,-3,-1,2,11,15,65
1537907223629775,-14,-3,1,2,6,46,5,19
1537907223629775,3,-3,-3,-5,-8,-39,-5,41
1537907223643738,5,2,2,3,-1,-24,8,-52
1537907223643738,-3,-4,-2,-2,-1,17,-19,-4
1537907223644736,17,3,0,2,8,58,7,30
1537907223644736,-27,-4,-2,-4,-7,-47,-16,-59
1537907223665679,-23,0,-6,-6,-11,-35,-35,2
1537907223665679,-7,1,2,0,-1,4,19,-38
1537907223667674,-2,2,0,0,6,12,-19,-99
1537907223667674,7,-1,-1,-1,-2,25,5,26
1537907223679642,28,-1,-3,-4,-6,-16,-4,-16
1537907223679642,-10,-1,0,2,0,11,-17,16
1537907223688618,2,-8,-4,-5,-7,-36,4,58
1537907223688618,3,5,2,3,4,21,28,25
1537907223703579,-42,-15,-5,-5,-1,-1,-19,-116
1537907223703579,-16,-5,-1,1,2,13,18,-7
1537907223704576,29,12,5,5,2,-42,3,64
1537907223704576,3,-3,-5,-7,-6,30,-10,32
1537907223725520,-34,-12,-7,-10,-8,-1,-1,63
1537907223725520,22,13,0,0,5,-18,1,29
1537907223727514,-21,-10,-7,-5,-6,-22,20,13
1537907223727514,19,8,3,3,6,35,-17,-24
1537907223739482,-1,2,3,5,2,-51,25,-71
1537907223739482,-1,-3,2,2,2,11,-21,24
1537907223748458,-5,-8,-8,-12,-16,-65,-26,0
1537907223748458,24,8,10,14,17,8,47,54
1537907223763418,-12,-2,-3,-4,-4,17,34,32
1537907223763418,15,3,-2,-2,-2,-12,-52,-66
1537907223764416,-8,-7,-4,-2,-2,28,17,24
1537907223764416,-15,1,1,0,1,33,-17,-76
1537907223785359,19,5,2,5,8,3,-30,37
1537907223785359,-7,-3,-3,-4,-11,-51,25,48
1537907223787354,-11,0,0,-3,2,32,-2,-8
1537907223787354,-21,-6,-3,-2,-1,1,-28,-12
1537907223800320,17,2,-3,-3,-2,35,3,-50
1537907223800320,-7,-2,-1,-1,4,20,3,22
1537907223807301,10,-1,1,-1,-5,-24,-27,18
1537907223807301,-36,-8,-3,-6,-8,-20,8,-88
1537907223823258,1,-6,-7,-6,-3,10,20,102
1537907223823258,7,4,3,2,-2,-29,-23,-50
1537907223824256,-20,3,2,2,4,0,4,1
1537907223824256,0,-3,-1,-1,-2,-15,-13,-24
1537907223846197,13,4,1,1,1,11,-20,24
1537907223846197,-44,-12,-5,-4,3,41,11,-41
1537907223847194,22,9,3,7,7,9,20,10
1537907223847194,-5,-4,-4,-4,-11,-52,-33,-36
1537907223860159,11,4,1,2,7,28,2,32
1537907223860159,-2,2,0,0,0,-5,16,98
1537907223867141,10,3,-1,-1,0,32,8,-14
1537907223867141,-5,-2,-2,-2,4,-10,-2,18
1537907223883098,9,1,1,2,-9,-39,-2,-24
1537907223883098,-2,-2,0,-1,1,20,19,-2
1537907223885093,-10,-4,-2,-4,-5,-7,-8,-10
1537907223885093,43,7,3,2,6,27,5,91
1537907223906037,-5,-7,-3,-5,-6,2,-2,-33
1537907223906037,2,-2,-1,0,-3,-10,-6,7
1537907223907035,-3,-7,-3,-1,-2,-7,-9,-16
1537907223907035,1,-2,0,1,3,14,21,46
1537907223920000,-3,-1,-4,-5,-6,-57,-36,-98
1537907223920000,7,-2,-1,1,0,1,1,29
1537907223926981,5,1,-1,-1,1,-1,-3,-1
1537907223926981,-19,-7,-2,-1,-3,-7,-13,-46
1537907223942938,5,2,1,1,2,14,9,15
1537907223942938,-5,-3,-2,-2,0,12,5,-2
1537907223944933,-6,-2,-1,-3,-3,-11,-4,-3
1537907223944933,1,7,-1,-2,-3,-15,2,-13
1537907223965877,-8,-1,4,13,3,9,2,1
1537907223965877,14,2,5,24,15,5,10,18
1537907223966874,-13,-6,-10,62,12,5,1,7
1537907223966874,4,-1,-6,-102,-39,-7,0,-6
1537907223979840,-6,-3,0,22,6,7,-3,-10
1537907223979840,-4,-3,-1,0,-7,-2,-1,-3
1537907223986821,9,0,6,57,27,7,6,7
1537907223986821,-4,2,1,7,1,2,1,-16
1537907224002778,0,-4,0,55,-15,-8,-6,-10
1537907224002778,3,25,-5,-127,-33,-4,2,5
1537907224004773,6,-8,3,19,-17,-4,-1,5
1537907224004773,7,16,0,96,19,2,1,-3
1537907224025718,-8,-20,-10,79,34,17,5,4
1537907224025718,4,-10,4,15,19,11,8,7
1537907224027712,0,12,9,-110,-30,-8,-4,-4
1537907224027712,-7,-15,-4,-12,7,0,-5,-10
1537907224039681,5,24,11,-3,-7,1,3,4
1537907224039681,2,4,-24,-5,3,-2,-1,-1
1537907224048658,0,-10,3,33,1,-2,-2,-3
1537907224048658,-2,-4,1,46,10,-2,-1,-5
1537907224063617,-2,2,17,-46,-17,-3,-3,-1
1537907224063617,3,-4,-13,11,2,1,3,4
1537907224064614,1,-1,-13,-39,-3,-1,-1,1
1537907224064614,-3,-3,18,15,2,-2,-1,-2
1537907224085559,-1,-3,-2,33,13,6,2,-2
1537907224085559,-3,-4,-3,-51,-23,-7,-3,-4
1537907224087554,0,0,-3,-10,-1,-5,-2,1
1537907224087554,0,-3,0,-18,-5,-2,-3,-5
1537907224099521,-1,-1,-10,-9,-3,-2,-1,-2
1537907224099521,0,-4,17,39,14,5,2,4
1537907224108499,-2,2,-10,23,4,0,0,-1
1537907224108499,1,-1,-2,-10,-4,-1,2,-1
1537907224123457,-1,2,-1,-68,-13,-5,0,0
1537907224123457,0,-4,1,57,9,4,2,2
1537907224124455,-2,0,2,-24,-6,-1,-1,-2
1537907224124455,-4,-1,-4,1,-3,-3,-2,-5
1537907224147394,-2,-2,-4,-3,4,2,0,0
1537907224147394,0,-3,1,7,2,1,0,-3
1537907224148391,0,1,3,41,14,1,1,-2
1537907224148391,-4,-3,-7,-53,-39,-13,-6,-7
1537907224159361,1,4,4,0,3,4,1,1
1537907224159361,2,1,-2,-5,3,1,-1,1
1537907224168337,0,-3,0,-12,-3,-2,-2,-2
1537907224168337,0,0,-4,14,10,3,1,1
1537907224182300,0,-1,1,2,2,1,1,0
1537907224182300,-1,-2,3,24,-2,-1,0,-1
1537907224191275,0,-1,0,-12,-2,-3,0,-2
1537907224191275,0,-2,-2,20,10,1,2,0
1537907224206235,0,-2,-2,-13,-6,-2,-3,-2
1537907224206235,1,1,6,10,6,2,0,-1
1537907224207233,0,6,-9,-4,-2,-3,-1,0
1537907224207233,-3,-10,-1,-24,-3,-2,-2,0
1537907224219200,1,12,-9,-22,-2,0,-1,-1
1537907224219200,-4,-13,6,34,-1,-3,-1,-1
1537907224228176,-1,-2,-9,-53,-9,0,-2,-2
1537907224228176,0,-2,4,16,3,2,0,-1
1537907224242139,-2,10,-6,7,1,1,-1,-2
1537907224242139,0,-16,8,-12,-5,0,-1,1
1537907224249120,1,-1,-7,2,0,-2,0,-2
1537907224249120,4,15,-9,10,4,2,2,0
1537907224266075,-2,-7,6,-14,-1,0,0,1
1537907224266075,-2,5,-6,7,-6,-3,-1,-1
1537907224267073,-2,0,5,10,2,-1,-1,-1
1537907224267073,2,5,2,3,3,0,-1,0
1537907224279042,0,-4,-4,-3,5,2,1,-2
1537907224279042,-3,-1,1,-13,-13,-7,-2,-4
1537907224288017,-1,-8,16,1,-2,0,-1,0
1537907224288017,-2,-6,-8,-3,-4,-1,-1,-1
1537907224302978,2,2,-10,16,3,0,-1,1
1537907224302978,2,3,-33,-19,-4,-2,-1,0
1537907224308961,0,1,-2,-6,2,0,-2,-1
1537907224308961,-2,-9,-12,34,4,-1,1,-1
1537907224325916,-2,-8,14,-10,-9,-3,-2,-2
1537907224325916,1,6,5,1,1,1,0,0
1537907224326914,-3,-13,4,2,-2,0,-1,1
1537907224326914,-2,-1,6,5,4,1,0,0
1537907224339878,-2,-2,-10,-4,-1,-2,0,-2
1537907224339878,0,2,2,-10,0,-1,-2,0
1537907224347857,0,4,3,4,-3,-1,-1,0
1537907224347857,-2,-3,2,-10,2,0,-2,-1
1537907224362818,-1,5,3,-3,-1,-2,-1,-2
1537907224362818,-1,-12,-14,-1,2,-1,0,-1
1537907224369797,0,18,15,7,3,1,0,1
1537907224369797,5,3,-24,-5,-1,0,0,2
1537907224385754,2,-1,8,5,-1,0,0,0
1537907224385754,-3,2,9,4,0,0,1,-2
1537907224386752,-5,-1,-18,0,-5,-4,0,-3
1537907224386752,2,21,49,-4,-2,0,-1,0
1537907224399717,-4,-9,-33,-11,-5,-2,-2,-1
1537907224399717,5,9,-8,11,5,2,0,3
1537907224408693,-2,-7,27,3,-3,-1,-1,-1
1537907224408693,-2,7,11,-4,0,-2,0,-1
1537907224422656,-3,-16,-29,-6,-5,-4,-2,-1
1537907224422656,-3,16,40,5,-2,0,-3,-2
1537907224429637,2,-1,-11,-3,0,1,-1,1
1537907224429637,-3,-15,-35,-9,-2,-1,-1,-2
1537907224453574,3,-4,3,0,-1,-1,-1,4
1537907224453574,-2,22,17,-4,-5,-3,-3,-8
1537907224455569,-5,-20,18,2,0,-1,-1,-5
1537907224455569,-8,-7,-9,-6,-4,-5,-4,-3
1537907224468534,-1,-1,-35,-2,4,2,1,-2
1537907224468534,0,-14,6,-2,-2,0,3,17
1537907224469531,-3,10,8,0,-4,-7,-9,-25
1537907224469531,3,1,7,0,3,0,-4,-11
1537907224482496,-8,-2,18,-1,-1,-2,-13,-31
1537907224482496,1,-20,-20,-2,4,1,7,1
1537907224489478,-2,14,-13,2,-4,-1,0,11
1537907224489478,-4,-8,-44,-15,-9,-3,-1,0
1537907224505435,-4,-47,-19,-17,-2,-2,-3,3
1537907224505435,1,46,77,23,3,1,-3,-2
1537907224507430,7,17,-15,18,7,4,3,8
1537907224507430,-1,5,14,-19,-11,-5,-3,3
1537907224528374,-2,-13,-57,-5,2,2,4,3
1537907224528374,-6,2,5,-6,-1,-3,-1,-1
1537907224529372,-2,-32,-67,-14,-5,-1,1,-1
1537907224529372,-1,6,25,21,1,-1,-1,-4
1537907224542337,3,6,29,-3,1,-1,3,4
1537907224542337,-6,-9,-7,-3,0,0,-1,-3
1537907224549317,5,-1,-19,-1,-2,0,-2,10
1537907224549317,-5,-1,26,2,0,0,0,-2
1537907224565275,3,1,-23,-14,-6,-2,8,47
1537907224565275,2,10,-6,6,4,0,-13,-64
1537907224567270,-4,-4,4,1,0,0,-1,13
1537907224567270,-2,2,44,1,-2,0,0,3
1537907224588213,-4,-4,30,12,0,-1,-1,-3
1537907224588213,7,-8,-71,-19,6,4,4,13
1537907224589211,-5,-12,-9,-3,-14,-6,-2,-7
1537907224589211,2,4,69,-10,2,-1,0,0
1537907224602176,3,21,22,12,1,1,1,-3
1537907224602176,-3,-11,3,-5,-4,-4,-3,7
1537907224611152,-1,-6,10,2,9,5,2,-7
1537907224611152,-1,3,-44,-15,-20,-8,1,5
1537907224626113,-3,-1,17,0,3,-1,-3,-13
1537907224626113,0,-10,-31,-14,-10,-4,-1,7
1537907224627111,-2,7,24,11,7,2,1,4
1537907224627111,-3,-16,-47,12,8,3,0,-4
1537907224648055,5,32,47,-5,-3,0,0,-7
1537907224648055,1,-6,-15,5,2,1,2,7
1537907224650050,-1,-2,19,5,3,1,2,-4
1537907224650050,3,18,0,1,-3,-3,0,2
1537907224662017,-7,-11,-73,-11,-1,0,-2,-36
1537907224662017,-4,-31,35,10,1,5,3,31
1537907224670995,4,32,-45,-10,-5,-2,4,22
1537907224670995,-6,-16,4,-4,0,-1,-8,-25
1537907224685954,-1,1,17,8,3,-1,-1,5
1537907224685954,-2,-7,-4,1,-6,-3,0,-10
1537907224686954,2,6,10,-7,-1,-1,1,-3
1537907224686954,-4,-10,-7,8,2,-1,-1,7
1537907224707895,3,6,28,19,2,-1,-3,-1
1537907224707895,0,-2,-17,-16,-9,-1,9,32
1537907224709890,-3,-6,-4,-25,-3,-2,1,-2
1537907224709890,4,12,-3,-4,2,2,1,1
1537907224721857,-1,-1,11,8,-5,0,1,-2
1537907224721857,0,5,-11,7,4,-1,-3,-3
1537907224736818,2,18,19,7,2,-1,-6,-20
1537907224736818,0,-18,-11,-1,3,3,3,9
1537907224745794,-2,3,32,-2,0,0,-2,3
1537907224745794,3,1,-28,0,-1,-2,4,1
1537907224746792,-4,-9,-4,-2,-2,-2,-6,-18
1537907224746792,0,-10,-4,1,2,1,-2,-3
1537907224768731,0,6,43,3,-6,-3,0,2
1537907224768731,-4,-6,-22,-2,0,-2,-3,-23
1537907224769729,4,-25,-24,-11,0,1,3,39
1537907224769729,0,30,-29,-3,2,1,2,5
1537907224781697,-2,10,27,-8,-1,-1,-1,4
1537907224781697,-3,-33,49,18,3,0,-3,-6
1537907224790673,-5,-21,19,9,-5,-2,-1,-13
1537907224790673,0,9,-50,-17,-4,-2,-2,-1
1537907224805633,0,2,-17,-9,-4,0,2,15
1537907224805633,-2,14,7,-9,0,-2,-4,-3
1537907224807628,-7,-3,2,9,-2,-5,-7,-31
1537907224807628,-2,-9,18,7,1,2,1,12
1537907224828571,2,-1,-16,1,6,2,-2,-12
1537907224828571,-2,7,-2,2,-3,-1,0,5
1537907224829569,3,4,3,11,2,0,0,4
1537907224829569,-3,0,28,-10,2,-2,1,-7
1537907224841537,1,-9,-35,-4,-6,-1,-2,4
1537907224841537,-1,6,9,-26,-9,-4,-3,-4
1537907224850513,-1,6,-5,10,-1,1,-1,1
1537907224850513,1,-7,-23,-12,3,2,2,-3
1537907224865473,0,12,-22,7,0,-1,-1,2
1537907224865473,1,9,15,-3,1,-1,-3,-4
1537907224867468,-2,-1,1,2,3,-1,0,-6
1537907224867468,-2,-7,3,5,-3,-2,0,1
1537907224888412,0,-9,-15,-2,1,-1,-1,2
1537907224888412,0,12,-5,6,-4,-2,-1,-2
1537907224889409,0,-1,19,-6,-1,0,-2,3
1537907224889409,-1,-17,-1,11,0,1,1,2
1537907224902374,-3,-5,-4,-9,-1,-3,-1,-22
1537907224902374,2,2,-7,8,2,-1,-9,11
1537907224910353,2,-7,-5,-8,-2,-1,1,7
1537907224910353,1,-3,7,3,-1,-1,-1,-1
1537907224925312,-4,1,22,3,-2,0,0,-2
1537907224925312,-2,-1,-46,-5,2,1,-1,-14
1537907224927308,-1,-7,16,-2,-1,0,2,0
1537907224927308,1,10,20,-4,1,-1,-2,3
1537907224948251,2,0,-53,-10,-7,-2,-2,1
1537907224948251,-2,-6,21,17,-2,0,1,-2
1537907224949249,-2,8,-2,-26,-3,0,0,2
1537907224949249,-2,-2,-1,7,2,0,0,-5
1537907224962214,-3,-20,13,-3,-2,-1,0,4
1537907224962214,6,36,0,-8,-4,-2,4,3
1537907224971190,1,35,15,11,0,-1,-1,-1
1537907224971190,-5,-47,0,12,3,1,-2,-4
1537907224986150,0,2,-15,-2,3,0,-1,1
1537907224986150,-2,-2,-7,-3,-1,0,-2,-1
1537907224987147,-3,-10,1,1,0,-1,-3,-3
1537907224987147,1,14,-1,-3,-3,-1,0,-9
1537907225016075,1,4,2,2,-1,-1,3,16
1537907225016075,-3,-18,25,4,2,1,-4,-9
1537907225017068,0,-5,-19,-10,-6,-4,-1,1
1537907225017068,-1,-3,-40,-3,-3,-1,-2,-7
1537907225022053,-4,0,22,0,-2,-1,-2,-4
1537907225022053,-2,-8,-2,-1,2,0,2,0
1537907225031030,1,-4,-17,0,1,0,-3,-26
1537907225031030,-1,10,10,-1,-4,-2,-3,10
1537907225045990,0,3,10,1,-1,-1,0,5
1537907225045990,-1,-4,-3,-1,2,2,3,-10
1537907225046987,-4,-7,1,11,0,0,-4,-11
1537907225046987,1,2,-3,14,2,1,1,1
1537907225067931,0,0,-5,-21,-11,-3,-3,-3
1537907225067931,-3,-16,-5,10,4,-1,-2,0
1537907225069926,4,-2,-29,-15,-9,-1,2,8
1537907225069926,-3,6,16,9,10,2,0,-6
1537907225081894,1,0,9,5,-5,-4,-2,7
1537907225081894,-2,6,38,-8,-5,-2,-3,0
1537907225090870,-2,-18,-50,-2,-1,-2,0,2
1537907225090870,1,4,10,-4,-1,0,1,9
1537907225105830,-1,-12,-13,2,8,2,2,-7
1537907225105830,-1,3,-4,3,2,-2,-2,2
1537907225106827,-3,7,22,-2,1,0,-1,5
1537907225106827,0,0,5,9,1,-1,0,-1
1537907225127771,-1,-6,-6,-11,-1,-1,0,2
1537907225127771,0,8,10,-5,-3,-2,-1,-5
1537907225129766,-2,-1,19,4,2,2,2,7
1537907225129766,-1,-12,-13,-8,-8,-3,-2,-3
1537907225141734,1,5,12,7,1,0,-1,-2
1537907225141734,-1,-6,-28,-3,-2,0,0,5
1537907225150710,1,1,19,0,0,0,1,1
1537907225150710,-3,0,-17,-13,-8,-4,-1,2
1537907225165670,0,13,32,10,4,-1,-2,-3
1537907225165670,3,-2,-55,-3,3,2,2,1
1537907225167664,-4,-11,6,-1,2,-2,-3,-1
1537907225167664,1,5,0,-6,-6,-2,-3,-2
1537907225188608,-1,0,3,1,1,0,1,1
1537907225188608,-1,6,25,5,-3,-1,-2,1
1537907225189606,-5,-12,6,9,-7,-3,-2,-1
1537907225189606,0,0,1,-4,1,0,1,1
1537907225201574,0,1,-28,-3,-1,-1,-1,-2
1537907225201574,-1,5,6,-1,1,-1,-2,-1
1537907225210550,1,1,-10,-3,1,-1,-1,-1
1537907225210550,-3,-6,6,-1,-1,-2,-2,-5
1537907225225510,-4,-4,-14,2,0,-1,0,-1
1537907225225510,1,0,7,-1,-2,-1,2,1
1537907225227505,-1,2,9,1,1,-1,0,-4
1537907225227505,-1,5,12,-1,2,1,3,8
1537907225248448,4,-1,-43,-2,1,0,-1,2
1537907225248448,-3,-2,-6,-5,-3,-1,-1,-1
1537907225249446,1,-4,31,0,-2,-2,-2,1
1537907225249446,-1,-1,-23,9,0,-1,0,-5
1537907225261414,-4,-3,-4,-12,-3,-1,-3,-3
1537907225261414,-1,-3,-6,-8,-4,-1,0,1
1537907225270390,3,11,8,12,3,1,1,0
1537907225270390,-1,-4,6,-7,-4,-1,-1,-1
1537907225284352,-2,3,6,4,0,0,1,0
1537907225284352,-3,-5,-13,-5,-3,-3,-1,-2
1537907225293329,0,4,-19,0,0,0,0,7
1537907225293329,-1,-10,4,-10,-6,-4,-5,-11
1537907225308288,-2,7,6,27,5,0,1,-2
1537907225308288,-2,-4,16,-29,-13,-2,-2,0
1537907225309286,1,2,12,-9,-2,0,2,4
1537907225309286,0,1,-38,-5,1,0,-1,2
1537907225322251,-2,-7,10,-4,-3,-1,-1,-4
1537907225322251,-1,-5,-11,12,4,-1,1,-1
1537907225331227,0,-2,7,3,1,0,-1,0
1537907225331227,0,0,-9,-10,-3,-2,-2,-1
1537907225346187,0,7,21,5,0,1,0,-2
1537907225346187,1,2,1,7,2,1,0,2
1537907225347185,-1,-3,-24,-7,-1,0,-2,-2
1537907225347185,1,-1,31,5,2,1,1,3
1537907225368129,-2,4,-14,-4,0,-1,-5,-13
1537907225368129,-4,-8,-1,3,0,0,0,1
1537907225370123,0,4,6,-9,-5,-1,-8,-20
1537907225370123,-6,1,-44,-5,0,-1,-1,1
1537907225391067,0,-6,48,-5,-4,-2,-3,-8
1537907225391067,5,3,-33,3,1,-1,0,6
1537907225392065,1,-1,5,5,2,0,0,-3
1537907225392065,-2,-3,11,8,1,-1,1,-3
1537907225405030,0,-2,-5,-7,-3,-2,1,4
1537907225405030,-4,3,13,2,0,-2,-2,-7
1537907225406027,-2,-7,-3,3,-1,0,1,5
1537907225406027,2,1,-34,-10,-4,-2,0,2
1537907225427969,-1,-3,-4,0,1,0,1,5
1537907225427969,-1,-5,25,-9,0,0,-1,-3
1537907225427969,-1,-3,-8,15,-2,1,2,4
1537907225427969,0,6,20,0,-2,-3,0,1
1537907225449910,-1,-1,1,-15,-9,-2,-3,0
1537907225449910,-2,-9,-5,0,-1,-1,0,-2
1537907225450907,-2,9,-24,-11,-1,0,0,0
1537907225450907,-1,-10,18,10,3,0,-1,-2
1537907225464870,1,2,15,5,2,1,1,1
1537907225464870,-2,-3,-39,-11,-1,1,0,1
1537907225465868,2,0,-4,0,1,-2,3,3
1537907225465868,0,8,9,2,0,-2,-2,-1
1537907225487808,-2,-10,-9,-2,-1,-1,0,-4
1537907225487808,-3,2,21,6,-1,-1,-3,1
1537907225487808,0,1,13,5,-1,-1,-1,-2
1537907225487808,0,-8,-34,-6,-2,0,-2,1
1537907225509750,-3,-1,10,1,-1,0,1,2
1537907225509750,0,-2,-3,4,0,-1,0,-3
1537907225510748,-5,2,0,-4,-2,-2,-5,-7
1537907225510748,3,-3,29,2,1,0,0,-5
1537907225524710,-1,2,-2,3,-1,-1,-1,-1
1537907225524710,-1,-4,-16,-2,1,-2,-1,2
1537907225525708,1,4,14,-2,-2,1,0,3
1537907225525708,-2,3,-1,0,-2,-1,0,-3
1537907225547649,-1,-2,-21,-5,-2,-1,-2,3
1537907225547649,2,9,23,5,-1,-2,1,3
1537907225548646,-1,-8,-2,0,0,0,0,-3
1537907225548646,-1,0,-20,-6,1,2,-1,0
1537907225569590,0,-5,8,0,-1,-2,0,2
1537907225569590,-1,-1,18,4,0,1,0,-6
1537907225570588,-1,1,-23,-2,-2,-1,-2,1
1537907225570588,0,0,30,2,-1,0,0,3
1537907225585548,-1,2,-11,-3,0,-2,-2,-3
1537907225585548,2,-7,-2,-2,0,-1,-1,-2
1537907225585548,-2,-5,7,-2,-2,-2,-2,3
1537907225585548,-1,3,11,3,-1,0,1,-1
1537907225607489,-1,-4,-13,0,-1,0,0,0
1537907225607489,2,12,-4,2,0,1,-3,-2
1537907225608486,-1,-5,-1,-5,-1,0,0,0
1537907225608486,-1,0,5,3,0,1,-1,-2
1537907225630428,2,5,12,2,1,0,0,2
1537907225630428,-2,-7,-30,-4,-1,0,0,0
1537907225630428,0,-2,-1,-5,0,0,1,0
1537907225630428,-2,2,34,1,-3,-1,0,-1
1537907225645388,0,-4,-19,0,-1,1,-3,-1
1537907225645388,0,6,2,5,-2,-1,-1,1
1537907225645388,0,-8,8,1,1,0,-2,-2
1537907225645388,-1,0,5,-3,-1,-1,-1,-4
1537907225667330,-2,-3,0,1,0,-2,-2,12
1537907225667330,-6,-1,-4,-7,-1,-2,-1,6
1537907225668327,2,4,0,1,0,-1,-1,-1
1537907225668327,1,1,-4,1,1,1,2,8
1537907225690267,-1,-3,12,0,-2,0,-3,-12
1537907225690267,-5,-1,-13,1,0,1,0,-8
1537907225690267,1,1,-17,0,-2,-2,-1,6
1537907225690267,-2,2,-4,-6,-5,-3,-2,-7
1537907225705228,0,-8,-19,9,3,0,2,-2
1537907225705228,2,-6,24,-6,1,-1,-1,1
1537907225706225,-5,-6,3,-7,-3,-2,0,-3
1537907225706225,0,1,-9,-5,-1,-1,-1,-2
1537907225727169,1,3,-16,0,-3,-2,-2,-3
1537907225727169,-1,-3,35,7,3,1,0,1
1537907225728166,0,1,-36,-1,1,-3,-1,-1
1537907225728166,-4,-6,-8,-2,1,-1,-1,1
1537907225750108,2,2,27,2,1,0,1,6
1537907225750108,0,-3,-6,-1,-4,-2,0,-4
1537907225751106,-1,4,-19,-5,-1,-1,-1,-2
1537907225751106,3,2,19,2,0,1,-2,0
1537907225765069,-2,2,-16,-7,0,-1,-1,-4
1537907225765069,-2,-11,-4,-6,-2,-3,0,-1
1537907225766066,1,6,25,4,-1,0,-1,0
1537907225766066,-1,-3,-11,6,2,1,2,3
1537907225787009,-1,-3,-4,-3,-3,-1,-4,-6
1537907225787009,0,3,-9,0,-1,-1,1,-1
1537907225788006,-3,-8,5,0,0,0,-2,-1
1537907225788006,0,-2,-2,-1,-2,-1,-2,-3
1537907225809947,1,4,15,0,-1,1,1,0
1537907225809947,0,-3,-25,-1,-1,-1,-1,-3
1537907225810945,-1,1,7,1,0,-1,-1,0
1537907225810945,-1,-4,-6,-3,-2,-1,-1,-1
1537907225824907,-1,9,2,-3,1,-3,0,-2
1537907225824907,-4,-19,-3,0,0,0,-3,-5
1537907225825905,-1,-2,0,0,-1,0,1,9
1537907225825905,1,-1,-2,1,0,0,0,-2
1537907225847846,0,-2,-16,-6,-1,-1,0,1
1537907225847846,0,5,8,1,-2,-1,0,-1
1537907225847846,-2,5,-6,-1,1,0,-1,-6
1537907225847846,-3,-8,-16,-9,-2,-3,-3,-1
1537907225869787,1,1,35,4,-2,0,1,1
1537907225869787,1,3,-21,-3,0,0,-4,0
1537907225870785,1,-5,7,4,1,0,-1,1
1537907225870785,1,5,3,5,2,0,2,5
1537907225884748,-4,-3,10,-2,-3,-3,-5,-10
1537907225884748,0,6,6,0,-3,-2,-1,1
1537907225885745,-1,-4,-47,-15,-3,0,-2,-1
1537907225885745,-4,-5,19,-3,2,0,-1,-2
1537907225907686,-1,-5,-24,3,0,-1,0,4
1537907225907686,0,0,20,3,-1,-1,-2,0
1537907225908684,-1,3,30,3,0,-2,0,-3
1537907225908684,0,-2,-47,-4,-2,-1,0,-2
1537907225929627,1,2,5,-3,0,-1,1,3
1537907225929627,1,7,-14,-3,0,1,-1,0
1537907225930625,-2,-10,7,6,1,-1,0,-2
1537907225930625,-2,0,7,-4,-6,-1,-3,-5
1537907225953564,0,-2,-8,1,1,0,0,0
1537907225953564,0,0,8,-1,1,-1,1,0
1537907225953564,1,3,1,-1,-1,-1,-1,1
1537907225953564,-1,2,-7,2,2,-3,-2,1
1537907225967526,-2,-5,-18,-3,-2,1,-1,0
1537907225967526,-2,1,14,-1,-1,-1,-1,-1
1537907225968524,-1,-3,-1,-2,-1,-2,-1,-2
1537907225968524,-1,-1,13,-1,-3,0,1,0
1537907225990465,0,2,-11,0,-2,-1,-2,-4
1537907225990465,0,0,16,1,1,1,0,2
1537907225990465,-2,0,-2,-1,-2,1,-1,2
1537907225990465,1,2,-28,0,-1,-1,-2,-1
1537907226004427,-3,-8,9,7,2,0,1,0
1537907226004427,2,0,0,-9,-4,-1,-1,0
1537907226012406,0,-1,-4,0,0,-2,-1,0
1537907226012406,-1,4,9,0,0,1,1,1
1537907226027367,-2,-3,-7,-2,-2,-1,1,0
1537907226027367,0,7,-4,6,-3,-3,-3,-4
1537907226028364,0,-9,32,-1,-1,0,1,-1
1537907226028364,1,0,-1,2,2,-2,-2,-2
1537907226050306,1,1,-26,-6,1,-1,-1,0
1537907226050306,-2,-11,-14,-1,-1,0,-2,-1
1537907226050306,2,13,0,-3,-1,-1,-1,-1
1537907226050306,0,10,17,3,-1,-1,-1,-1
1537907226064269,-1,-1,14,-1,-1,1,1,-2
1537907226064269,1,-6,-10,-4,-2,-2,0,0
1537907226072247,-2,-5,-9,-1,-3,-1,0,0
1537907226072247,-1,-5,1,-1,0,1,-1,-2
1537907226087210,1,2,-9,-4,-1,0,0,1
1537907226087210,-2,2,13,0,-3,0,-1,-1
1537907226088206,0,1,-1,3,2,-1,2,6
1537907226088206,-2,1,0,-1,-1,-2,-3,-10
1537907226110148,-2,-1,4,-2,-2,-1,-2,-1
1537907226110148,-1,-6,3,4,1,0,0,1
1537907226111145,-1,-3,-14,-7,-4,-1,-2,-3
1537907226111145,2,0,0,2,0,1,0,3
1537907226133085,-3,-3,1,-4,-2,-1,-1,-1
1537907226133085,-1,5,6,-1,1,-1,0,-2
1537907226134084,-2,6,-21,-3,0,0,-1,-1
1537907226134084,-2,-13,4,-1,-1,-1,0,-1
1537907226148045,0,0,4,0,-1,0,0,-3
1537907226148045,-2,-3,-14,-1,0,-1,-1,0
1537907226148045,-2,7,16,1,-4,0,-1,-4
1537907226148045,-1,-3,-12,-1,0,-2,1,3
1537907226170982,-1,-2,6,0,-2,-2,-1,1
1537907226170982,-5,-1,-14,-4,-2,-2,0,-1
1537907226170982,0,-3,7,4,0,-2,-1,-5
1537907226170982,0,0,19,3,0,-2,-2,0
1537907226183948,0,0,-3,-4,1,1,-3,1
1537907226183948,0,1,-23,2,3,0,-1,1
1537907226192924,1,-8,-1,-10,-6,0,-2,-1
1537907226192924,-2,1,-4,-2,-2,-1,-2,1
