timestamp,emg1,emg2,emg3,emg4,emg5,emg6,emg7,emg8
1537917529652963,0,-2,0,1,1,-6,-4,0
1537917529652963,-1,-1,0,3,3,9,2,9
1537917529652963,-2,-1,-2,0,2,-1,-3,-3
1537917529652963,-1,1,-2,1,0,1,0,-9
1537917529655954,-1,-2,-1,-4,-9,-1,-1,-4
1537917529655954,-3,-1,0,-3,-4,-11,20,-18
1537917529655954,-3,-3,-2,-1,1,9,-35,-14
1537917529655954,-2,-1,-1,2,5,-2,-40,43
1537917529663933,3,2,-3,-2,-11,-6,18,5
1537917529663933,-2,-1,-1,-2,1,7,28,-10
1537917529668920,0,1,1,0,0,1,9,16
1537917529668920,-5,-2,-1,2,16,-7,-6,-21
1537917529680888,-1,0,-2,-3,-31,3,-7,-5
1537917529680888,0,0,0,-2,-3,-4,-24,6
1537917529694850,-1,-2,-3,-5,-12,-3,10,-12
1537917529694850,1,-1,-2,-2,-1,-3,2,0
1537917529698840,-3,0,1,4,18,4,-1,9
1537917529698840,0,1,0,0,6,0,-7,-17
1537917529724771,0,0,0,-1,0,17,23,6
1537917529724771,0,-1,1,0,-1,10,33,1
1537917529762669,2,1,-2,-3,-2,-8,-14,20
1537917529762669,-1,0,0,0,1,19,10,-10
1537917529763667,0,0,-1,1,6,-13,-28,-6
1537917529763667,1,1,0,0,-3,-8,31,16
1537917529766658,1,0,-1,2,6,11,7,-9
1537917529766658,2,-2,-2,-1,-1,-5,-4,48
1537917529767656,1,1,1,0,-1,10,-6,-4
1537917529767656,-2,-1,-1,3,7,-1,-11,-7
1537917529775636,-4,-2,-1,-3,-5,-7,-23,-3
1537917529775636,-3,0,-1,-1,-2,-1,8,-7
1537917529781620,-1,0,-1,0,-2,-16,-26,-6
1537917529781620,-1,-1,-1,-1,-1,6,6,-3
1537917529797576,0,-1,0,-1,0,-4,-5,-15
1537917529797576,-5,-1,-2,-3,-2,-10,-30,-55
1537917529803560,-2,-3,-2,-2,-2,6,-6,19
1537917529803560,-1,-1,-2,0,-1,1,30,0
1537917529812536,1,1,0,1,1,6,13,-6
1537917529812536,-1,-3,1,2,3,-8,-4,-5
1537917529835475,1,0,-1,-5,-1,6,14,-14
1537917529835475,-1,-2,-1,-5,-12,-6,-23,-1
1537917529837469,-1,-2,-1,0,-2,-4,-36,-5
1537917529837469,0,0,0,-2,-9,-26,9,14
1537917529849437,-4,-1,-2,-2,-1,26,-8,-34
1537917529849437,1,-1,-1,0,5,7,-27,38
1537917529858413,0,0,0,0,2,-12,12,2
1537917529858413,-1,-1,1,1,0,-4,-9,-2
1537917529872376,-1,-1,-2,2,3,-3,7,1
1537917529872376,-3,-2,-2,-4,-4,7,-2,-17
1537917529874372,-1,-1,-1,-1,1,0,-1,8
1537917529874372,0,0,-3,-3,0,8,-1,2
1537917529895315,-1,1,1,2,-1,-3,14,4
1537917529895315,1,1,1,-2,-3,-4,-2,25
1537917529896312,-2,-2,0,1,2,7,11,2
1537917529896312,2,1,2,1,4,2,18,8
1537917529909277,-4,-3,-3,-4,-13,-11,-14,-8
1537917529909277,3,1,1,3,12,11,2,-20
1537917529916259,0,0,1,-4,-14,-12,15,-4
1537917529916259,0,1,-1,-3,4,13,3,12
1537917529933213,-3,-3,-2,0,-11,-5,5,-1
1537917529933213,-3,-2,-4,-3,1,-9,-21,-1
1537917529934211,-2,0,-2,-1,7,-19,11,-4
1537917529934211,1,0,1,5,25,54,0,-18
1537917529955155,0,-1,1,3,-13,-34,-4,14
1537917529955155,-2,-3,-2,-5,-12,-6,-6,-14
1537917529957149,0,-3,-2,-4,-7,3,-4,0
1537917529957149,0,-1,-1,0,-6,-13,-1,0
1537917529970115,0,0,1,1,18,19,-1,-3
1537917529970115,-1,1,0,2,4,-6,-2,-5
1537917529976099,-2,1,-1,-2,3,6,8,6
1537917529976099,-2,-2,-2,-1,-8,-7,-16,-2
1537917529993054,0,-2,1,-2,0,3,8,-2
1537917529993054,0,0,0,-2,-7,-8,7,-10
1537917529994051,-1,-1,0,3,5,9,-9,3
1537917529994051,-1,0,0,5,0,1,24,4
1537917530014995,0,0,0,2,4,-5,-1,16
1537917530014995,-3,0,0,0,-4,3,8,-3
1537917530016990,-1,0,2,12,9,9,-10,-5
1537917530016990,-1,1,3,15,29,-8,-6,-1
1537917530028957,-1,-2,-4,-7,-20,-4,9,3
1537917530028957,-4,-3,-8,-17,7,-5,-8,-10
1537917530037934,-4,-7,-10,-32,-25,-8,-4,-1
1537917530037934,-2,-2,-7,-36,-72,-16,-5,-3
1537917530052894,1,1,2,-1,-7,-2,8,1
1537917530052894,1,0,5,11,3,2,-6,1
1537917530053891,1,2,5,19,23,4,6,1
1537917530053891,1,0,3,14,29,-6,3,1
1537917530075832,0,1,-1,3,12,14,-1,1
1537917530075832,-1,-2,0,4,-4,-3,0,-3
1537917530076829,-1,-1,0,5,5,3,5,-1
1537917530076829,-1,-1,-2,1,6,7,-6,-1
1537917530088797,0,-2,0,-3,-5,-7,2,2
1537917530088797,0,-2,-1,2,5,-11,0,-2
1537917530097773,0,-2,-1,1,4,30,4,1
1537917530097773,-2,-1,1,9,34,3,-2,1
1537917530112733,-3,-1,3,13,38,-50,-5,-9
1537917530112733,6,0,1,-4,-28,63,22,10
1537917530114728,0,-1,-3,-12,-39,2,-26,-4
1537917530114728,-3,-4,-11,-21,-38,-97,19,-7
1537917530135672,17,0,-3,-1,20,111,-3,41
1537917530135672,-6,0,5,20,71,-53,-18,-43
1537917530136670,4,11,21,42,35,112,10,2
1537917530136670,4,2,-6,-36,-54,-79,25,21
1537917530148637,0,-6,-9,-20,15,75,-43,-25
1537917530148637,-10,0,4,-4,-90,-73,34,32
1537917530157614,5,-7,-22,-36,8,42,-33,-10
1537917530157614,-2,-7,-8,-41,35,-39,41,-9
1537917530172573,12,9,16,28,58,-118,-3,45
1537917530172573,-8,1,1,-10,-50,20,7,-28
1537917530174569,-13,5,23,81,113,2,-43,-9
1537917530174569,14,1,-6,-18,-128,127,34,18
1537917530195512,-11,-19,-29,-52,61,-21,-24,-23
1537917530195512,-4,-2,-2,3,77,-38,-3,-9
1537917530196510,0,-1,0,-8,22,-4,22,21
1537917530196510,-2,5,24,84,127,-2,-36,-19
1537917530209475,5,12,26,82,79,32,16,-7
1537917530209475,-6,-17,-39,-93,-70,-13,-16,8
1537917530217453,-2,2,3,14,80,0,15,-8
1537917530217453,-14,-7,-15,-33,-93,-12,-39,-15
1537917530232413,-17,-10,-24,-65,-78,-91,0,-23
1537917530232413,5,3,7,19,37,29,-5,8
1537917530234408,-3,-6,1,-1,45,-13,5,-8
1537917530234408,1,11,15,36,37,11,-20,-2
1537917530255352,8,11,16,44,37,98,51,12
1537917530255352,-1,-3,-13,-14,-47,-7,-23,4
1537917530256350,1,-9,-11,-44,-108,-78,19,3
1537917530256350,4,0,9,14,-16,-9,-20,0
1537917530269315,-2,-6,-12,-22,-128,34,15,34
1537917530269315,3,5,14,36,125,112,2,4
1537917530278291,-1,3,-11,-38,-83,-75,10,-1
1537917530278291,-2,1,2,-3,19,58,-3,8
1537917530293251,-9,-1,-3,-25,-32,3,-13,-24
1537917530293251,4,0,4,16,49,26,-8,4
1537917530294248,-2,1,-6,-11,-75,-30,12,7
1537917530294248,13,0,-3,6,54,47,-12,16
1537917530315192,-6,6,12,33,94,25,5,-12
1537917530315192,3,-7,-20,-43,-84,-8,11,6
1537917530317187,10,2,-6,-1,24,-5,10,8
1537917530317187,-7,-4,3,18,86,-51,-3,-8
1537917530329155,-9,-7,-5,-20,-96,-83,-1,-12
1537917530329155,-5,-8,-8,-19,-46,69,-5,-3
1537917530338131,-3,2,4,-3,-40,-63,5,-10
1537917530338131,17,0,-3,-15,-58,-95,-26,23
1537917530353091,13,-4,-12,-36,-61,118,-9,20
1537917530353091,6,16,36,94,127,-52,11,-14
1537917530354088,-4,-9,-11,-29,-84,50,-6,-6
1537917530354088,-7,-4,-6,-11,16,127,7,-5
1537917530377028,-7,2,8,25,68,-52,4,-15
1537917530377028,-13,-6,-19,-66,-99,-121,-7,-1
1537917530378025,17,5,11,49,122,89,-4,12
1537917530378025,-12,2,5,25,35,-88,7,-13
1537917530388995,5,3,7,14,48,98,17,6
1537917530388995,-7,-6,-8,0,9,9,2,-7
1537917530397972,-15,3,8,13,84,53,1,-18
1537917530397972,-7,-5,-12,-41,-128,-106,18,-10
1537917530411934,9,5,13,33,92,-9,10,10
1537917530411934,-1,1,12,39,64,53,-15,-6
1537917530418915,-5,-6,-7,-15,-73,-112,-2,-3
1537917530418915,14,1,-2,-7,-60,51,-11,14
1537917530434873,-15,-8,-15,-33,-32,-53,-8,-18
1537917530434873,-1,3,14,34,73,63,4,-1
1537917530436868,-3,-2,-6,-21,-55,-11,-9,-3
1537917530436868,-27,-8,-2,8,42,62,5,-29
1537917530448836,7,0,-3,-2,-17,56,-10,-1
1537917530448836,8,3,0,-10,-68,85,3,9
1537917530457812,1,-2,-1,-12,-14,-77,3,1
1537917530457812,-2,-2,-2,3,60,70,2,-3
1537917530471774,-4,-2,-1,-2,7,-14,-1,-1
1537917530471774,12,5,4,30,107,14,15,17
1537917530478755,-11,-7,-6,-6,1,45,-4,-11
1537917530478755,6,5,4,12,85,9,-11,12
1537917530495710,-5,-4,-11,-25,-80,-20,-14,-10
1537917530495710,-17,-1,6,-3,-52,-54,13,-15
1537917530496707,11,4,3,15,0,-38,-2,13
1537917530496707,0,0,7,15,53,22,-4,-5
1537917530508675,1,-1,1,20,7,-95,1,4
1537917530508675,1,-5,-9,-23,-41,-14,-1,-2
1537917530517651,-10,-4,-5,-22,-69,94,-4,-10
1537917530517651,5,-2,-2,-6,-49,61,1,10
1537917530532611,2,1,2,5,-17,13,-9,-8
1537917530532611,-1,-3,-1,6,40,20,-4,-1
1537917530538595,-11,-9,-18,-50,-53,-109,-7,-7
1537917530538595,4,2,6,19,97,53,-4,4
1537917530555549,2,-1,-7,-21,-80,-72,-7,-7
1537917530555549,-13,-5,-11,-32,-51,-42,-7,-18
1537917530556547,5,0,7,31,77,79,-7,3
1537917530556547,-7,-5,-10,-19,-62,-90,-5,-6
1537917530577491,-2,-1,1,7,20,-72,14,2
1537917530577491,2,1,-2,0,-39,-43,-10,3
1537917530579486,-3,-1,0,3,21,33,6,2
1537917530579486,-6,-2,-2,-11,-59,-33,6,-10
1537917530592451,8,5,6,20,34,-10,3,11
1537917530592451,8,3,4,10,44,5,-12,4
1537917530594446,-5,-2,-5,-19,-70,18,-3,-8
1537917530594446,2,-4,-7,-10,-33,-11,-17,4
1537917530615390,-2,3,11,29,112,12,24,3
1537917530615390,-2,1,1,-15,-33,-4,-5,-3
1537917530616387,2,5,7,18,38,10,4,-1
1537917530616387,7,1,1,7,41,54,-4,19
1537917530638328,-7,-6,-10,-32,-106,29,-13,-9
1537917530638328,8,1,-1,-4,-20,14,2,9
1537917530639326,1,-1,3,10,7,-13,-3,0
1537917530639326,5,0,-5,-10,-26,-58,7,3
1537917530653289,-3,0,0,6,23,24,4,-5
1537917530653289,4,-2,-6,-7,-16,2,-5,6
1537917530654286,-1,-1,0,5,24,-8,1,0
1537917530654286,-8,-1,1,5,6,34,1,-12
1537917530675230,0,0,-2,-9,-4,26,1,-6
1537917530675230,1,-1,-3,-2,-15,-11,-5,-4
1537917530677224,0,2,2,7,35,7,1,-1
1537917530677224,-3,-2,-5,-4,-38,-6,7,-5
1537917530698168,-1,0,-1,-3,-2,15,-4,4
1537917530698168,3,-2,-3,-3,-19,-7,-2,2
1537917530699166,3,-1,-1,0,7,1,1,5
1537917530699166,0,-1,2,2,1,-18,0,-5
1537917530712131,-1,1,-1,-3,0,7,0,0
1537917530712131,1,1,1,9,15,-5,0,2
1537917530719112,-1,0,-1,4,15,-1,4,-1
1537917530719112,-3,-1,0,-2,3,-6,0,-7
1537917530734073,-3,-1,0,-4,0,-3,-9,0
1537917530734073,-3,-1,2,2,5,-2,0,-2
1537917530743049,-5,-2,0,1,4,2,4,-7
1537917530743049,3,2,1,3,3,-10,-10,4
1537917530758009,0,-3,-2,-4,-10,-2,8,6
1537917530758009,0,0,1,2,3,-2,8,1
1537917530759006,0,1,0,2,6,2,-2,-6
1537917530759006,-3,-3,-2,-4,-5,-10,-1,-7
1537917530779950,0,0,-3,-3,-1,-4,-7,-2
1537917530779950,-2,-3,1,2,3,1,1,-3
1537917530781945,-4,1,-2,0,0,-6,-5,-13
1537917530781945,8,0,6,4,1,-6,-3,-9
1537917530793912,4,-4,-4,-6,2,-1,-3,17
1537917530793912,-1,-1,0,1,1,-1,-6,5
1537917530802889,5,0,-3,-2,3,1,-3,17
1537917530802889,-6,1,-1,-2,-5,-9,0,4
1537917530825827,-3,2,0,-1,0,1,-4,-4
1537917530825827,1,-1,-1,-1,2,0,2,2
1537917530826825,3,1,0,2,4,2,1,9
1537917530826825,-8,-3,-3,-4,-3,-1,5,-8
1537917530840787,3,1,2,1,2,2,-4,3
1537917530840787,-3,0,-2,2,2,0,7,-13
1537917530841785,2,-2,-1,1,2,2,-3,23
1537917530841785,1,-1,0,1,2,0,6,6
1537917530853752,-5,-3,-2,-2,-8,-1,-2,-4
1537917530853752,-2,-1,-1,0,1,-3,-6,-9
1537917530862729,0,0,-1,-2,-1,-2,-10,-12
1537917530862729,2,-1,-3,-3,-3,-3,7,6
1537917530876691,-5,-4,-2,-2,1,-1,-4,-6
1537917530876691,0,1,1,2,3,-2,1,4
1537917530883672,-1,-1,1,-1,1,-1,3,-4
1537917530883672,-5,-1,-1,0,-1,-2,-4,-4
1537917530900627,2,1,1,0,1,1,1,2
1537917530900627,1,0,1,0,-1,-1,-4,3
1537917530901625,1,-1,1,-1,-1,1,2,4
1537917530901625,-1,-1,1,-1,-1,-1,-1,-1
1537917530913593,-1,-1,-2,0,-2,-4,-2,-6
1537917530913593,0,-2,-3,-3,-1,-2,-2,0
1537917530922569,1,1,-1,-2,0,-1,2,0
1537917530922569,-3,0,0,2,2,-3,1,-4
1537917530937529,-1,-3,-3,-1,0,3,-1,-1
1537917530937529,0,-1,0,-3,-7,-10,-3,1
1537917530943513,0,0,-2,0,-2,-1,0,-3
1537917530943513,0,-2,-1,-2,0,1,-2,2
1537917530960468,-3,-1,1,2,0,1,0,-5
1537917530960468,-2,0,-2,-1,0,4,-3,-1
1537917530961466,-3,-1,-2,-1,-2,0,-1,-4
1537917530961466,-2,-1,-4,0,0,1,-2,-2
1537917530974432,0,0,-1,-3,-3,-4,1,-2
1537917530974432,-1,0,-1,-4,-1,0,0,0
1537917530983408,0,-1,0,1,1,-2,1,-1
1537917530983408,-1,-1,0,0,1,0,-2,-2
1537917530997370,-1,0,-4,-3,0,0,-1,-4
1537917530997370,-2,0,0,0,0,-1,-1,-1
1537917531004352,-2,-1,-1,0,1,0,-2,0
1537917531004352,0,0,-2,-3,-1,0,1,0
1537917531020308,-2,-3,-2,-3,-3,0,-2,-2
1537917531020308,0,-1,-1,1,-1,1,-3,0
1537917531022303,0,-2,-1,-2,0,-1,0,1
1537917531022303,-1,0,-1,0,-2,-1,-3,0
1537917531043246,0,0,1,1,1,0,-1,-3
1537917531043246,-2,0,-3,-1,-2,-1,-2,-3
1537917531044244,-2,-1,-1,2,1,-1,-1,-1
1537917531044244,-1,-2,-1,-2,-1,-2,-1,-1
1537917531057209,-2,-2,-2,0,-1,-1,0,-1
1537917531057209,-1,-1,-2,-4,-1,-1,0,0
1537917531064190,-1,-1,-1,1,0,-1,0,-2
1537917531064190,-2,-2,0,0,-1,-2,-1,-1
1537917531080148,-2,1,0,0,-2,-2,-1,0
1537917531080148,0,-3,-1,-1,0,0,-1,0
1537917531082143,0,-1,0,-2,-2,-2,0,-1
1537917531082143,-1,-2,0,-2,-1,-1,0,0
1537917531103086,-1,0,0,3,1,0,0,-2
1537917531103086,0,0,-2,-3,-2,-1,0,-1
1537917531104084,0,-1,0,-2,-2,0,0,-1
1537917531104084,-1,-1,-1,0,-3,-3,-2,-1
1537917531117049,-1,-2,0,0,0,-2,0,-2
1537917531117049,-1,-1,-3,-1,0,0,-1,0
1537917531124031,-1,-2,-1,-2,-2,0,-1,-1
1537917531124031,-1,0,0,-2,-1,-1,0,-2
1537917531139988,-1,-3,1,-2,0,0,-3,-1
1537917531139988,-1,0,1,3,1,0,-1,-1
1537917531145972,-2,1,-2,2,-1,-2,0,-2
1537917531145972,-1,1,-3,-3,-1,0,-1,-2
1537917531162926,-1,1,0,-1,-1,0,0,0
1537917531162926,-2,-1,1,3,3,4,-2,-2
1537917531163924,1,0,-1,-2,0,-10,-3,-1
1537917531163924,-2,-2,1,3,9,15,0,-1
1537917531176890,-1,0,1,10,48,16,-2,-3
1537917531176890,3,-2,-5,-21,-91,-84,2,3
1537917531183872,-4,0,5,20,103,74,-14,-9
1537917531183872,8,2,-4,-14,-78,-33,19,12
1537917531200826,-6,-8,-10,-13,-31,-15,-21,-12
1537917531200826,-5,-1,6,29,123,25,-11,-4
1537917531201826,4,-3,-15,-44,-128,10,38,14
1537917531201826,-8,-3,2,10,119,46,-22,-12
1537917531222768,5,4,2,0,74,-48,-8,5
1537917531222768,3,2,0,-5,-100,106,29,9
1537917531224762,4,5,8,19,-32,-80,0,2
1537917531224762,-8,-11,-21,-35,-14,-88,-6,-16
1537917531236729,2,6,12,20,38,109,11,3
1537917531236729,-7,0,7,27,127,89,-36,-14
1537917531245705,-7,-7,-14,-45,-53,-83,-22,-17
1537917531245705,-1,0,9,24,68,87,8,9
1537917531260665,2,-3,7,12,38,19,12,8
1537917531260665,-2,-9,-20,-52,-53,-86,-21,-10
1537917531261662,-2,0,14,58,96,118,-15,-5
1537917531261662,3,-1,-16,-48,-107,-128,-20,-12
1537917531282606,-15,2,4,-1,43,35,-8,-14
1537917531282606,21,7,2,-1,-66,-87,41,29
1537917531284601,-6,-4,-6,-17,-74,-97,7,-7
1537917531284601,0,-3,8,33,83,75,-18,-2
1537917531296569,8,-2,-9,-21,-104,42,23,7
1537917531296569,-21,-1,9,29,121,127,5,-31
1537917531305545,-14,-10,-24,-40,-69,-110,3,3
1537917531305545,18,2,6,9,32,67,3,10
1537917531320505,1,10,3,16,57,54,9,2
1537917531320505,5,12,9,11,39,22,20,4
1537917531321502,0,-23,0,22,127,64,-37,2
1537917531321502,-10,17,-14,-62,-128,19,23,1
1537917531342447,2,-8,-6,-22,-20,-42,-9,6
1537917531342447,9,5,2,16,34,-67,1,25
1537917531344442,-1,5,22,40,85,114,-4,-13
1537917531344442,-4,-9,-6,-1,-13,85,-9,4
1537917531356411,-6,-9,-8,-12,-50,-7,-9,-8
1537917531356411,-5,7,2,11,41,-98,-22,-10
1537917531365387,12,4,-7,-24,-102,81,38,23
1537917531365387,-3,-4,4,25,100,-91,6,-5
1537917531381344,-6,2,2,-2,-33,-85,-1,-5
1537917531381344,3,-7,-8,-14,-22,-54,1,3
1537917531383339,2,10,5,10,58,-72,8,0
1537917531383339,-3,7,10,26,57,120,6,-4
1537917531403285,-1,-3,4,4,-50,-65,2,0
1537917531403285,-4,-6,-2,-19,-107,127,21,2
1537917531404283,3,7,1,3,67,-85,-30,0
1537917531404283,-6,-8,-9,-24,-125,11,33,8
1537917531416250,6,6,9,45,127,80,-12,2
1537917531416250,-5,-8,-16,-37,-68,-49,-13,-13
1537917531425225,7,4,-4,-8,68,58,0,10
1537917531425225,2,-1,8,21,10,-45,-5,2
1537917531440185,2,-2,-11,-18,-77,86,1,7
1537917531440185,-7,-2,2,5,-4,2,-3,-19
1537917531442180,0,-2,-2,-2,-37,94,3,-6
1537917531442180,3,-1,4,18,83,-92,-13,1
1537917531463124,-1,-3,-6,-24,-20,-79,1,-2
1537917531463124,-4,-2,3,17,46,-41,-14,-3
1537917531464121,0,-3,-3,-9,-54,-53,11,7
1537917531464121,0,6,3,2,41,10,-13,-3
1537917531476089,-9,-6,-4,-11,-48,-33,5,-10
1537917531476089,-3,-6,-5,-16,-24,-36,-1,2
1537917531485065,-5,0,4,17,46,39,-12,-8
1537917531485065,0,-4,0,-4,-45,13,-6,4
1537917531500025,-6,-4,-5,-4,-8,-21,0,-6
1537917531500025,-6,-2,6,14,49,84,2,-5
1537917531502020,-3,8,-3,-9,-53,-11,3,-3
1537917531502020,-3,-3,-1,-2,-16,19,2,-7
1537917531522964,4,5,2,6,-18,-45,18,9
1537917531522964,1,-2,-4,-1,-15,3,-9,-2
1537917531523961,-4,-4,0,-4,2,-18,5,-7
1537917531523961,-4,-3,-4,-13,-39,-18,5,-3
1537917531536926,-1,0,0,10,67,33,-11,-5
1537917531536926,3,-2,-3,-6,-14,24,-3,10
1537917531544905,3,-1,-4,-9,-37,-24,4,6
1537917531544905,0,0,4,13,29,-5,-10,-4
1537917531559866,2,1,0,4,10,2,-5,3
1537917531559866,1,-1,-2,-5,-20,-34,0,1
1537917531561861,-3,-4,-4,-5,5,13,-6,-7
1537917531561861,-1,-1,2,7,12,15,3,1
1537917531582805,0,-1,-3,-6,-4,-21,-2,-3
1537917531582805,1,-1,-4,-10,-11,13,3,2
1537917531584801,-3,-1,3,8,18,17,0,-1
1537917531584801,-1,1,-1,2,-2,-5,-2,2
1537917531596767,0,-2,-3,-8,-17,-13,-3,3
1537917531596767,-1,-1,2,5,20,-2,-7,-5
1537917531605744,0,-1,1,3,3,4,4,4
1537917531605744,1,0,-4,-9,-20,-20,0,-2
1537917531620705,-6,-5,-6,-9,2,3,-12,5
1537917531620705,1,2,4,8,16,12,0,-10
1537917531621702,-3,-2,-1,1,0,-10,-15,-16
1537917531621702,1,-2,-2,-6,-10,7,34,25
1537917531642646,-3,-2,0,3,8,4,-16,-26
1537917531642646,6,0,0,1,2,1,5,-20
1537917531644641,4,-2,-1,-5,-10,-5,4,55
1537917531644641,-1,-2,-2,0,3,-3,-13,-1
1537917531656607,0,-2,-1,-1,1,-1,-1,-3
1537917531656607,-2,-1,-2,-2,-5,-9,2,7
1537917531665583,-8,-3,-1,2,5,3,-1,-18
1537917531665583,0,-2,-1,-1,1,1,-9,-11
1537917531680543,3,0,-2,-4,-1,-1,12,15
1537917531680543,-2,-3,-1,-1,-3,3,-6,-2
1537917531681540,0,1,-3,-1,3,0,-2,-5
1537917531681540,-3,-2,-2,0,1,-1,-5,-2
1537917531704479,-1,0,-1,-1,-1,-2,-3,-12
1537917531704479,-1,0,0,0,4,-2,0,14
1537917531705477,-1,-1,-1,-2,-2,-1,-1,-7
1537917531705477,-1,0,1,2,-5,-3,2,-3
1537917531716447,-2,-2,0,1,1,2,0,1
1537917531716447,0,0,-2,-3,3,1,-5,0
1537917531725423,1,-3,0,0,-1,-2,4,-1
1537917531725423,0,0,-2,-2,-3,1,-7,-6
1537917531740384,1,0,1,3,1,4,1,2
1537917531740384,0,-1,-1,-2,0,1,0,4
1537917531741381,-1,0,0,1,-2,0,1,-8
1537917531741381,-1,-1,-1,0,2,-1,-4,0
1537917531762325,-2,-2,0,0,0,-1,-1,0
1537917531762325,-3,-2,-1,0,-2,-2,1,3
1537917531764319,-1,-2,-2,-3,0,1,-2,-4
1537917531764319,-2,-2,0,-1,0,0,-3,-3
1537917531776288,2,3,-1,-2,-2,-3,0,3
1537917531776288,-1,-2,-1,0,-1,1,-2,-2
1537917531785264,0,-2,-1,-3,-3,-1,0,-3
1537917531785264,-2,-1,-2,0,-2,1,-1,2
1537917531800223,0,-1,-1,1,0,-2,2,-4
1537917531800223,-1,0,0,-1,0,-1,-1,1
1537917531802218,-1,-1,-1,1,0,-2,-1,-2
1537917531802218,-1,-2,-3,-3,-3,-2,-2,-4
1537917531823162,0,-2,0,0,-1,0,-1,-1
1537917531823162,-1,-2,0,-2,-1,-1,-1,-1
1537917531824161,-1,-1,-2,-1,0,-1,1,0
1537917531824161,-1,0,-1,0,-2,-2,-2,-2
1537917531836129,-2,-1,-1,1,1,0,0,1
1537917531836129,-1,-1,-1,1,1,-1,-1,2
1537917531845103,0,0,-1,-2,-1,0,-1,-4
1537917531845103,0,0,0,0,1,-1,0,-1
1537917531860063,0,-3,0,1,1,1,-1,0
1537917531860063,-2,1,-2,-2,-3,-2,-1,-1
1537917531866047,-2,-1,-2,0,-1,-1,0,0
1537917531866047,1,-1,0,0,-2,-1,-1,-2
1537917531883002,-1,0,-1,-3,-2,-1,-2,0
1537917531883002,-1,-1,-1,1,0,0,-2,-1
1537917531883999,-1,-1,-1,-2,0,-1,0,0
1537917531883999,-1,-1,-1,0,0,-1,-2,0
1537917531896964,-1,1,0,-1,-1,-2,0,-2
1537917531896964,-1,-2,-1,-1,-2,-1,-2,0
1537917531904943,0,0,-1,-1,-2,-1,-1,-2
1537917531904943,-1,-1,0,0,-2,-1,0,-1
1537917531919903,0,0,-1,-3,-3,-1,-1,0
1537917531919903,-1,-1,-2,-2,-2,-1,-2,0
1537917531926884,-1,-1,1,1,-1,0,0,-1
1537917531926884,-1,0,0,-2,-1,-2,-2,-1
1537917531942841,-2,-2,0,0,0,-1,1,1
1537917531942841,-1,2,-1,-1,0,0,0,-1
1537917531943839,-1,-2,0,0,0,-1,-1,1
1537917531943839,0,0,0,1,0,0,-1,-1
1537917531965780,0,-2,-1,-3,-1,-1,-1,0
1537917531965780,1,-2,-1,-1,0,-1,-1,0
1537917531966777,-1,-2,-1,-3,-2,-3,-2,0
1537917531966777,-2,-1,-1,-1,-1,0,1,2
1537917531979742,-1,-2,-3,0,-1,0,0,-1
1537917531979742,0,0,0,0,0,-1,0,-1
1537917531986724,0,0,0,0,0,-1,-2,0
1537917531986724,-1,-1,-1,0,-2,1,-1,0
1537917532002681,0,0,-1,-1,0,1,1,0
1537917532002681,-3,-2,-3,-2,-2,-1,0,0
1537917532004676,1,0,-3,-3,-4,-1,-1,0
1537917532004676,-1,-1,-1,-1,0,-2,0,-2
1537917532025620,-1,-1,1,3,2,0,0,0
1537917532025620,-2,0,2,3,3,0,1,0
1537917532026617,-1,-1,0,1,0,0,0,1
1537917532026617,0,-1,-1,-1,0,1,-1,-2
1537917532038586,0,-1,-3,-2,-3,-1,-2,-1
1537917532038586,0,0,-1,-2,-2,-1,0,-2
1537917532055540,-1,0,0,-1,-2,-1,-1,-3
1537917532055540,-1,-3,-1,-1,-2,0,2,1
1537917532062521,-1,-4,-2,-2,-1,3,-18,-5
1537917532062521,0,1,0,1,0,-7,-9,0
1537917532064516,-5,-1,-3,-1,0,0,35,2
1537917532064516,3,1,0,-1,-1,-5,-26,-3
1537917532085460,0,2,2,0,0,6,-14,-6
1537917532085460,6,2,1,2,4,6,92,17
1537917532086457,-1,-4,0,0,-3,-10,-42,-3
1537917532086457,0,-4,-7,-9,-7,-3,16,-4
1537917532107401,-21,-3,0,3,2,22,6,-6
1537917532107401,9,0,3,4,5,8,-45,-4
1537917532108399,12,7,6,19,55,-33,16,11
1537917532108399,-3,3,5,12,7,9,-34,-3
1537917532122361,8,3,0,-2,7,29,38,-2
1537917532122361,-14,-11,-5,-2,33,-15,-41,-13
1537917532122361,0,-1,-8,-27,-72,26,4,8
1537917532122361,-16,-8,1,20,91,80,37,-10
1537917532144303,10,-1,0,-5,-91,-61,6,19
1537917532144303,-8,-3,-17,-35,-75,-65,-25,-3
1537917532145300,-5,-18,-20,-28,6,-90,-65,-29
1537917532145300,-31,-1,1,-13,8,93,19,4
1537917532159263,29,9,-2,-21,-45,-79,-4,-9
1537917532159263,-4,4,16,40,98,-12,-37,-3
1537917532167241,13,-14,0,-6,-128,-30,23,29
1537917532167241,-12,14,13,19,88,54,8,-28
1537917532182201,-12,15,17,27,3,-54,12,24
1537917532182201,15,-11,-35,-38,0,99,3,11
1537917532183199,-4,-14,-3,12,117,-52,-1,-13
1537917532183199,3,15,14,-12,-100,-119,2,2
1537917532204143,-22,-1,12,-17,-78,-37,-11,-3
1537917532204143,-19,8,23,47,85,66,-13,-32
1537917532205140,5,4,0,24,34,127,25,-1
1537917532205140,7,-19,-37,-74,-127,-91,10,3
1537917532228079,-1,-3,-12,-8,96,67,-37,-8
1537917532228079,-27,-8,-4,-10,37,13,44,-17
1537917532228079,26,10,13,20,37,58,11,37
1537917532228079,-18,2,10,39,42,22,-10,-29
1537917532242042,6,2,-10,-32,-63,31,12,-3
1537917532242042,-4,-15,-6,4,-10,127,28,-25
1537917532243039,-12,3,8,7,11,-106,-14,-14
1537917532243039,25,13,13,36,69,-14,-3,13
1537917532264980,-16,-15,-18,-22,-14,-17,10,-11
1537917532264980,-8,-5,-9,-17,-44,27,-6,-9
1537917532264980,-21,4,17,18,61,100,22,-27
1537917532264980,-2,-18,-9,-14,-85,-93,-20,17
1537917532278943,11,-9,-10,-15,-45,-65,-4,-11
1537917532278943,5,13,3,-1,45,10,-3,9
1537917532286921,-6,1,-1,2,-19,-94,-10,4
1537917532286921,-2,-22,-16,-34,-44,11,10,4
1537917532301881,-9,11,11,43,127,127,4,4
1537917532301881,-14,1,-5,-23,-96,-116,-1,12
1537917532302879,28,11,4,2,42,92,-9,1
1537917532302879,16,11,18,50,124,11,-28,6
1537917532325818,2,-13,-28,-45,-79,-1,17,5
1537917532325818,11,7,18,30,99,-99,2,11
1537917532326815,-40,-20,-8,-3,69,95,-24,-32
1537917532326815,1,-6,-25,-79,-109,-81,-9,0
1537917532347759,10,-1,0,5,104,127,-7,12
1537917532347759,8,7,14,44,103,73,-11,10
1537917532348756,-13,-2,-17,-34,-105,-86,-5,-4
1537917532348756,-2,1,-6,-8,-35,105,9,-7
1537917532361721,13,0,1,18,61,-42,-7,0
1537917532361721,8,-4,-4,-18,-54,-72,-5,-5
1537917532362719,8,-6,-4,-10,-105,-125,8,29
1537917532362719,15,15,30,102,127,127,-3,20
1537917532384660,-16,-11,-18,-44,-73,-105,-9,-14
1537917532384660,2,-3,-3,-1,84,77,0,5
1537917532385658,-3,-2,-10,-24,11,100,13,-5
1537917532385658,-5,12,12,29,86,50,9,-8
1537917532398623,4,0,9,23,34,15,-8,2
1537917532398623,9,4,-4,-26,-120,-70,1,3
1537917532407598,-9,6,8,30,113,121,-1,-18
1537917532407598,-19,-15,-20,-44,-81,-17,22,7
1537917532421561,4,9,11,25,52,-94,8,4
1537917532421561,7,-4,-2,-9,15,-14,1,11
1537917532429540,-7,1,2,4,-13,-35,0,-8
1537917532429540,6,0,-4,-8,8,24,-7,-2
1537917532452479,1,-3,9,23,61,75,4,0
1537917532452479,6,6,2,2,-5,-18,14,7
1537917532453477,4,1,1,5,49,36,-6,10
1537917532453477,18,4,4,12,22,-128,-3,3
1537917532459460,-6,-10,-4,-8,-47,-21,4,-1
1537917532459460,-1,-3,-4,-3,6,75,-8,-4
1537917532467439,5,15,5,-1,-36,-21,3,3
1537917532467439,-5,-7,-9,-10,-9,-26,-3,1
1537917532490378,-6,-2,5,13,37,-5,-4,-7
1537917532490378,2,6,5,6,-39,-7,-2,3
1537917532491376,5,-1,-7,-13,4,-18,4,4
1537917532491376,-13,-7,-5,-12,-16,-6,-8,-7
1537917532504340,19,4,6,14,30,68,-5,2
1537917532504340,10,-2,-5,-7,-20,-12,-1,2
1537917532505338,-3,-2,-4,-8,-32,-15,2,-3
1537917532505338,9,0,0,0,13,42,-5,0
1537917532519300,-10,0,-1,2,-4,16,-4,-2
1537917532519300,-4,-5,-2,-5,-17,-6,3,-1
1537917532527279,5,0,3,5,11,15,-2,-1
1537917532527279,-6,-3,-1,-4,-7,-13,-13,-9
1537917532542239,-6,-3,-2,-4,-6,9,11,18
1537917532542239,-4,-1,-2,-3,-16,-7,-4,-12
1537917532543237,-4,-1,-1,0,-3,-5,-4,-4
1537917532543237,1,0,-3,-9,-2,8,-11,8
1537917532564181,-5,0,1,4,-3,1,-14,-35
1537917532564181,-3,-3,-4,-2,-8,16,5,8
1537917532565179,3,4,0,-2,-1,0,7,-18
1537917532565179,2,-2,-2,-5,0,-1,7,64
1537917532579141,5,2,3,7,7,18,-1,10
1537917532579141,-30,-9,-6,-7,-19,-16,-23,-29
1537917532587120,23,6,3,2,5,6,42,69
1537917532587120,8,2,3,2,3,2,11,-19
1537917532602081,-5,-2,-1,0,-3,2,-4,-5
1537917532602081,-4,-1,1,0,-3,4,11,18
1537917532603079,-11,-4,-3,-4,-5,-8,-25,-29
1537917532603079,-1,-1,-3,-3,3,9,-2,-17
1537917532625020,-1,1,-2,-1,-1,2,5,15
1537917532625020,3,-2,-1,0,-5,-3,-5,-18
1537917532625020,-6,-3,-4,0,-3,-1,-9,-4
1537917532625020,2,-1,1,-2,-3,-2,4,-3
1537917532650949,-6,-3,-2,-2,-4,0,-11,-18
1537917532650949,5,-1,0,-2,-4,1,3,13
1537917532650949,-3,-2,-1,-2,-2,-2,-4,-2
1537917532650949,-1,0,-1,-3,0,1,-2,-4
1537917532661920,-1,-1,-3,0,-3,-1,1,2
1537917532661920,3,1,2,2,1,5,0,1
1537917532662917,-2,0,-2,-2,-3,-3,-1,0
1537917532662917,-6,0,-1,-1,-2,-1,-3,-15
1537917532677876,0,0,0,-1,1,2,-3,5
1537917532677876,4,1,-1,0,-2,1,2,3
1537917532678874,-4,-3,-1,-2,-2,-5,-6,-12
1537917532678874,0,0,-1,-3,-1,0,-3,0
1537917532692837,-1,0,2,0,-1,1,-2,1
1537917532692837,1,-1,-2,-1,0,1,-1,1
1537917532698820,0,0,-2,-1,-1,-2,-4,-3
1537917532698820,0,-2,-1,1,2,2,-1,1
1537917532713780,1,0,1,0,-2,-1,2,2
1537917532713780,-2,0,0,-2,-1,-1,2,-4
1537917532721759,0,-2,0,-1,-1,0,-2,-1
1537917532721759,0,-1,1,0,1,-2,0,-1
1537917532736719,-1,-1,-2,-2,-2,0,-4,-4
1537917532736719,3,-2,1,1,0,1,-2,3
1537917532737717,-1,-1,-1,1,0,0,-2,-1
1537917532737717,-1,-3,1,-1,-2,0,0,-1
1537917532752677,0,-1,1,-1,-1,-1,-1,-1
1537917532752677,0,-2,-1,1,0,1,0,1
1537917532758661,-2,0,0,-3,0,0,2,-1
1537917532758661,-1,-3,-1,1,-1,-1,-2,-4
1537917532773620,0,-2,-2,-1,-1,-2,-2,1
1537917532773620,1,0,-1,-1,-1,-1,-1,-1
1537917532781599,-2,-3,0,-2,-4,-3,-2,-2
1537917532781599,-2,0,-1,0,1,0,0,0
1537917532797556,-3,-1,1,0,1,-1,0,-1
1537917532797556,0,2,0,-4,-3,-2,-1,-1
1537917532797556,0,2,0,-2,0,0,-2,-2
1537917532797556,-1,0,0,-1,0,-1,-2,-2
1537917532812516,0,0,0,0,0,0,0,0
1537917532812516,-1,-2,0,-1,0,0,-1,1
1537917532818500,1,0,-1,0,-1,0,-2,-1
1537917532818500,0,-1,-1,-1,-1,-2,0,-3
1537917532833461,1,0,-1,-3,1,1,-1,-2
1537917532833461,-2,0,0,0,-1,-2,-1,-1
1537917532841440,-1,0,-2,-3,1,-1,-2,-3
1537917532841440,0,-1,2,-1,-1,1,-2,0
1537917532857397,0,-1,-1,-2,-1,0,0,1
1537917532857397,0,0,-2,-2,1,-2,-2,0
1537917532857397,-1,-2,-1,1,-1,-1,-1,0
1537917532857397,-2,-1,-3,-2,-1,-1,1,-1
1537917532872358,0,1,0,-1,-1,-1,-1,-2
1537917532872358,1,-2,0,0,-2,2,1,0
1537917532879338,-2,-1,-3,-1,-2,-1,-1,0
1537917532879338,-1,-1,-1,0,0,0,-1,0
1537917532894298,0,0,0,0,-1,-1,0,-2
1537917532894298,-2,-3,-1,-2,-1,-1,0,-2
1537917532901280,-1,-2,0,-2,-2,-1,-1,0
1537917532901280,0,1,0,0,-1,-1,-1,2
1537917532917237,-1,-1,0,1,0,-1,-2,-1
1537917532917237,0,0,0,0,1,-1,-1,-2
1537917532918234,0,-1,0,0,-2,-1,-1,0
1537917532918234,0,1,-1,-2,-2,-1,0,-3
1537917532939178,-4,-4,0,-1,-1,0,0,-1
1537917532939178,4,-1,-1,0,-3,-1,-2,-1
1537917532940176,0,0,-2,-3,-2,-1,-1,-1
1537917532940176,-1,0,-1,0,0,-1,-2,0
1537917532954138,2,3,-1,0,-1,0,0,1
1537917532954138,-2,0,0,2,-1,-1,0,0
1537917532961120,-2,-3,0,-2,-2,-1,-2,0
1537917532961120,-1,-2,1,0,-1,0,-2,-2
1537917532976080,-2,-1,-3,-1,-1,-1,-1,-1
1537917532976080,0,1,0,-2,0,0,-1,0
1537917532984059,2,2,0,2,-1,-2,0,-1
1537917532984059,-3,-1,0,-2,-2,-1,0,-1
1537917532993035,-2,-2,-1,-1,-1,-1,1,0
1537917532993035,1,0,-2,-1,5,2,1,1
1537917532999019,-1,-2,0,3,6,2,-2,0
1537917532999019,4,0,2,4,18,10,1,-2
1537917533013979,-10,0,3,10,55,43,2,0
1537917533013979,-4,0,-1,-6,-59,-88,-9,2
1537917533020960,14,2,-1,0,37,89,-6,-2
1537917533020960,13,2,-20,-31,-74,-76,-6,-6
1537917533037915,-4,5,1,14,72,81,-22,-15
1537917533037915,7,-20,2,11,9,-61,-5,2
1537917533043899,-5,-11,-6,-40,-99,-1,42,14
1537917533043899,-14,4,-6,8,112,119,-18,-8
1537917533052876,8,-11,19,-6,-40,-106,-1,11
1537917533052876,6,41,-2,-22,-69,73,23,-6
1537917533058860,-12,-9,0,35,55,63,26,-42
1537917533058860,23,28,22,-10,-13,84,22,49
1537917533073820,4,-47,-16,-3,43,-8,-7,-4
1537917533073820,5,51,39,31,51,-67,-24,-6
1537917533081797,-17,-8,-23,-11,-44,-96,-15,-11
1537917533081797,-11,-3,-15,5,37,106,4,-13
1537917533104735,-6,11,-3,12,-27,59,23,10
1537917533104735,-12,-37,-29,-2,78,92,-20,-26
1537917533105733,10,7,12,-25,-46,-63,-13,15
1537917533105733,-12,-59,19,39,88,13,-4,-10
1537917533112715,12,41,-20,-30,-87,-101,-36,1
1537917533112715,3,1,-2,1,14,41,6,-5
1537917533118698,1,19,-18,0,0,-61,5,3
1537917533118698,16,9,-13,-12,-14,-85,-21,44
1537917533133658,3,-20,19,52,94,93,-12,6
1537917533133658,-17,-23,-32,-62,-128,-102,25,-21
1537917533141637,10,18,4,6,81,58,-10,31
1537917533141637,8,-20,13,7,43,32,10,-3
1537917533156597,-19,9,1,-2,-3,53,7,-21
1537917533156597,5,-11,-4,1,-21,-1,-6,26
1537917533163578,3,-13,22,22,51,50,0,5
1537917533163578,-14,8,-6,-13,-60,-27,-3,-30
1537917533179535,4,11,-9,-11,-3,-46,2,6
1537917533179535,2,8,5,29,122,127,-3,4
1537917533180533,-10,-1,-2,-23,-97,-125,-6,-8
1537917533180533,4,-32,-26,-21,-110,-101,8,6
1537917533193498,-6,25,36,4,43,-14,-4,-12
1537917533193498,2,3,17,-6,-69,-66,-7,9
1537917533201477,-4,-8,-33,-11,-28,127,7,-13
1537917533201477,-5,-17,21,42,105,84,-19,-4
1537917533216437,11,58,19,-28,-120,-124,-12,-5
1537917533216437,-29,-32,-7,-9,-25,-41,-5,-11
1537917533224415,7,7,-1,-1,2,53,-5,0
1537917533224415,2,4,-2,6,13,26,22,0
1537917533239375,8,-8,-12,0,39,69,13,8
1537917533239375,-2,6,11,21,69,54,2,2
1537917533240373,-2,-11,-3,-1,-12,-78,-26,-4
1537917533240373,-18,6,-7,-2,12,-21,6,-4
1537917533262314,7,3,7,8,16,-64,1,11
1537917533262314,6,-17,-5,-9,-35,-77,11,14
1537917533262314,-5,-12,6,7,25,23,-4,-6
1537917533262314,4,21,7,4,16,-73,12,2
1537917533276276,-9,-16,-13,-4,-7,-43,2,-6
1537917533276276,4,4,6,4,8,-3,-2,1
1537917533284255,2,0,1,6,27,0,4,3
1537917533284255,-3,13,0,-4,8,68,-11,-8
1537917533299215,-9,-16,-8,-10,-34,1,1,-3
1537917533299215,2,3,-5,-6,12,38,-5,0
1537917533300213,-3,-6,7,1,-1,21,-2,-2
1537917533300213,0,8,-7,-7,-11,-8,-3,-8
1537917533322154,1,-22,-12,-7,-22,18,11,4
1537917533322154,-4,1,4,5,13,25,2,-3
1537917533323152,-3,7,7,16,51,15,-11,-1
1537917533323152,1,0,-6,-13,-65,-75,-7,-5
1537917533336117,-2,-11,-8,-12,-20,14,6,-2
1537917533336117,-3,5,1,1,1,-17,-1,1
1537917533344096,1,-3,-3,0,9,-24,2,3
1537917533344096,1,3,2,-3,-20,-3,0,-1
1537917533360052,-2,-6,-2,3,13,33,4,0
1537917533360052,3,3,-5,-1,8,23,0,-1
1537917533360052,0,0,3,1,-5,-19,-1,0
1537917533360052,-5,2,5,-1,-20,-10,-2,-5
1537917533381994,-2,-5,-8,-5,-11,5,0,-2
1537917533381994,2,-1,-3,-1,5,4,-1,1
1537917533382991,0,2,2,0,-6,-16,1,1
1537917533382991,0,3,1,-2,-14,-26,-2,-2
1537917533395957,1,-4,-5,-3,2,6,0,0
1537917533395957,0,-2,0,0,6,12,2,1
1537917533404933,-1,1,4,1,5,-6,1,1
1537917533404933,0,1,-4,-6,-14,-6,0,-2
1537917533419893,-1,-7,-3,-1,-2,7,-1,-1
1537917533419893,-1,-1,0,2,3,9,0,0
1537917533419893,0,1,3,0,-3,-10,-1,-1
1537917533419893,0,1,-4,-4,-12,-9,0,-2
1537917533433856,-3,-4,-3,0,-2,5,2,-3
1537917533433856,0,0,-3,-3,1,-4,-2,1
1537917533441834,-1,1,2,1,3,-6,-1,-1
1537917533441834,-2,0,-2,-2,-8,-4,-1,-1
1537917533456794,-1,0,-2,1,1,7,0,-2
1537917533456794,0,-1,-3,-1,3,6,0,-1
1537917533463776,0,1,1,0,-3,-5,-1,0
1537917533463776,-3,-2,1,-2,-7,-1,-1,-2
1537917533479733,-2,-3,-2,0,-2,0,0,0
1537917533479733,1,0,0,2,2,1,1,-1
1537917533480731,-3,-1,0,-2,-3,-4,0,0
1537917533480731,-1,1,-1,2,-4,-6,0,-2
1537917533501674,0,0,0,-2,-2,2,-1,0
1537917533501674,-5,-2,-2,-1,1,2,-1,-1
1537917533502672,1,0,-1,-1,1,-2,2,0
1537917533502672,-2,2,0,-2,-3,-1,-1,-1
1537917533516634,-1,-1,-1,-1,-1,3,-1,-2
1537917533516634,0,0,0,-1,1,1,-1,0
1537917533523615,-2,-3,0,-3,-3,-3,-1,-2
1537917533523615,0,-2,1,-1,-3,-4,-3,-2
1537917533547552,-1,-2,-2,-2,1,1,2,1
1537917533547552,1,0,-2,0,0,0,2,0
1537917533548549,-1,0,0,-1,0,-3,0,-1
1537917533548549,0,-1,-3,0,-2,0,2,2
1537917533561514,1,0,1,0,-1,0,-2,-1
1537917533561514,1,-3,1,0,0,0,0,-2
1537917533569493,-1,-1,-2,0,-1,-1,1,-1
1537917533569493,-1,-1,-2,0,-1,-2,-1,-2
1537917533585450,1,-2,-3,-2,-2,-2,-2,1
1537917533585450,1,0,0,-1,-1,-2,-1,3
1537917533586448,0,-1,-2,-1,-1,-2,-1,-2
1537917533586448,-2,0,-1,0,-1,-1,-2,-1
1537917533607392,1,-2,0,-1,1,-2,0,0
1537917533607392,1,-1,0,2,0,2,2,0
1537917533609387,-4,-1,-2,1,0,0,-1,-1
1537917533609387,0,-2,-3,-5,-3,-3,-1,-1
1537917533621355,0,1,1,-1,-2,1,0,3
1537917533621355,-3,-1,-2,-1,-1,-1,-1,-2
1537917533630331,0,0,0,0,0,0,-1,-2
1537917533630331,-2,-2,-1,1,-1,-2,-2,0
1537917533644293,-1,-2,-2,0,0,0,0,-5
1537917533644293,-2,0,1,-2,-1,-1,-1,0
1537917533651274,0,-3,-2,-1,0,-1,0,-1
1537917533651274,-2,-2,0,-1,-2,-1,1,-3
1537917533668229,-2,-3,-1,-1,0,0,-1,-1
1537917533668229,-1,-1,-3,-2,-2,-3,-1,0
1537917533669226,1,-2,-1,-2,-2,1,3,1
1537917533669226,-2,-2,-1,0,-1,0,-6,-1
1537917533681195,-1,-1,0,1,0,-3,-1,-3
1537917533681195,-1,0,0,-2,0,-1,3,-4
1537917533690170,2,1,0,-1,-2,-1,-4,-1
1537917533690170,-15,-1,0,-1,-2,0,2,-1
1537917533704133,18,2,1,1,0,2,-6,6
1537917533704133,1,-1,0,2,8,1,-18,-4
1537917533713109,-15,0,1,3,22,25,-58,-3
1537917533713109,21,2,-2,-1,6,10,81,9
1537917533728069,-9,-2,-5,-9,-8,-39,-11,-10
1537917533728069,-7,1,-2,9,6,55,27,4
1537917533729067,9,-12,-4,-6,-12,-51,-10,11
1537917533729067,-26,-5,-3,11,72,82,-39,-14
1537917533741035,8,-7,10,-5,-86,-52,24,25
1537917533741035,-9,-7,-29,-8,57,-23,-22,-24
1537917533750011,12,32,3,14,49,58,-7,20
1537917533750011,-6,-2,36,-29,-123,-75,28,-19
1537917533764970,5,5,11,20,62,-35,-28,7
1537917533764970,-4,18,-10,-3,3,64,22,16
1537917533778933,-2,36,11,5,36,-3,6,-25
1537917533778933,-26,0,-23,-1,31,-56,-19,-12
1537917533787909,31,-51,-46,-5,-43,6,5,3
1537917533787909,9,-103,-20,-32,-115,-39,1,1
1537917533788907,20,80,57,13,87,-21,-34,-14
1537917533788907,0,7,34,7,-61,-50,-3,5
1537917533801872,-26,7,75,10,-65,-8,-32,-6
1537917533801872,7,62,-27,-19,13,76,-19,3
1537917533810848,-4,-82,-39,5,35,-28,43,18
1537917533810848,35,72,18,11,12,-58,-8,3
1537917533824810,-20,-7,-55,3,97,-9,-20,5
1537917533824810,-16,6,28,-1,-37,-18,10,-37
1537917533831792,0,-29,-14,-21,-92,-42,-14,-5
1537917533831792,40,-23,-13,15,76,23,-19,16
1537917533847749,-21,-11,-17,-1,28,40,7,7
1537917533847749,13,6,4,-2,-33,-62,-5,-6
1537917533848746,-15,-24,-24,-17,0,74,14,8
1537917533848746,-1,-30,-40,-15,-31,-30,0,1
1537917533870688,-6,19,40,10,7,86,10,-26
1537917533870688,-39,-66,-21,5,54,28,-21,-18
1537917533871686,45,80,58,7,-103,-77,38,35
1537917533871686,-35,-36,-23,-4,20,52,-12,-5
1537917533884650,-4,22,-3,-2,2,-22,3,11
1537917533884650,43,-14,13,10,0,-27,10,39
1537917533891633,23,36,-35,-13,12,46,-3,-18
1537917533891633,21,2,26,3,-6,14,9,22
1537917533907589,-8,-27,-20,-20,-41,-7,22,-16
1537917533907589,-8,39,46,17,15,-18,10,5
1537917533909584,-38,-64,1,6,-7,-1,-5,-40
1537917533909584,10,17,8,5,18,42,-7,20
1537917533937509,3,-30,-24,-2,26,-27,-8,-17
1537917533937509,-8,7,-6,-2,-28,-49,25,-23
1537917533939504,-7,14,-9,-2,-5,-10,-13,-2
1537917533939504,-17,-29,-28,-15,-9,18,-4,-9
1537917533944490,11,30,71,19,22,31,0,4
1537917533944490,-35,-21,11,6,10,5,-23,-17
1537917533951472,24,6,25,13,-18,-18,13,17
1537917533951472,-6,-36,-28,-9,-4,7,-1,-2
1537917533967429,1,9,-36,-9,8,13,7,-4
1537917533967429,17,35,18,8,19,-10,-4,11
1537917533969424,-25,-44,-15,-6,-2,-32,-3,-6
1537917533969424,0,14,-4,-7,-16,35,-2,-4
1537917533991365,6,15,2,-9,-4,-5,1,3
1537917533991365,-1,11,5,5,-1,-4,1,3
1537917533992363,-14,-23,-12,-7,-11,2,1,1
1537917533992363,4,10,1,2,10,-11,-1,-4
1537917534004331,-4,13,8,-2,-7,-4,-1,-9
1537917534004331,5,-18,-16,-6,6,4,-5,7
1537917534011312,-5,-4,2,4,7,17,4,-3
1537917534011312,2,14,17,5,-4,-12,-5,-4
1537917534027269,-3,-11,-22,-11,0,9,2,1
1537917534027269,5,7,-3,2,7,-2,-2,7
1537917534029264,-4,-2,-5,-4,-1,10,6,0
1537917534029264,-7,4,12,6,-3,-7,-10,-8
1537917534050208,2,-4,-8,-4,-4,-7,-2,5
1537917534050208,6,6,-8,1,6,0,-2,6
1537917534051205,-5,0,4,-3,-3,4,1,-4
1537917534051205,-3,-9,-3,0,-1,3,4,-1
1537917534064171,3,3,4,1,2,3,6,0
1537917534064171,5,6,3,5,1,-6,-1,-1
1537917534073147,-9,-13,-12,-10,-2,7,-12,-9
1537917534073147,-2,4,-6,-4,1,-10,-15,-3
1537917534088107,0,3,3,3,-1,-3,11,-2
1537917534088107,-2,3,3,1,-1,7,19,7
1537917534090101,-5,-8,-8,-7,-4,2,-7,-1
1537917534090101,2,2,1,-2,3,-7,-10,-2
1537917534110048,-3,1,0,-1,-2,-3,-14,-3
1537917534110048,0,-5,-2,-2,-3,-2,-29,1
1537917534112043,-1,-2,-2,3,1,6,4,-1
1537917534112043,-2,2,2,-2,0,-4,25,-1
1537917534124011,1,0,3,3,-3,-2,-9,4
1537917534124011,2,1,-3,-3,3,-1,4,3
1537917534138971,-1,0,-2,2,-2,1,-4,-1
1537917534138971,-2,0,0,3,-3,-4,-21,-5
1537917534147947,-3,-2,-3,-2,-1,1,4,-4
1537917534147947,1,1,-2,-2,3,2,5,-4
1537917534148944,-3,0,-1,-1,-2,4,-6,-2
1537917534148944,1,-3,5,3,2,-7,8,-1
1537917534169888,0,1,-1,0,2,3,1,0
1537917534169888,0,-1,-1,-3,-2,-1,-7,0
1537917534171883,-2,-3,-1,1,0,2,13,0
1537917534171883,-2,0,-4,1,0,1,-5,2
1537917534183850,-2,0,-4,-3,-3,-4,-3,0
1537917534183850,-2,-1,2,-2,-1,-4,-12,-4
1537917534192827,1,-1,-2,2,0,-7,-11,2
1537917534192827,-1,0,-1,-1,0,7,11,1
1537917534207787,-2,-1,0,-2,-2,-1,-5,-3
1537917534207787,-1,-2,-1,-1,-2,-2,3,-3
1537917534208784,-3,-2,0,-1,-3,2,0,-2
1537917534208784,-1,0,1,-1,0,-2,-8,-1
1537917534230725,-1,-3,0,1,0,0,6,-1
1537917534230725,0,-1,0,-1,0,-3,-16,-2
1537917534231723,-3,-1,0,-2,-3,-1,6,-2
1537917534231723,-1,-2,-1,0,0,0,3,2
1537917534244688,0,1,-2,1,-1,-1,2,1
1537917534244688,-1,-1,-2,-3,0,1,6,0
1537917534251669,-1,0,1,0,1,-4,-7,0
1537917534251669,0,-2,-1,0,-1,2,0,-1
1537917534267627,-1,-2,-3,-2,-1,1,0,-2
1537917534267627,0,0,-1,-1,0,-2,-10,-1
1537917534269622,1,-3,1,-1,1,-2,8,-1
1537917534269622,1,0,-1,-1,-2,1,1,1
1537917534290566,2,1,-1,-1,0,1,0,-1
1537917534290566,0,0,-1,1,1,1,6,-1
1537917534291563,-3,-2,-2,2,1,0,4,-3
1537917534291563,-5,-2,-3,-3,-1,1,0,-1
1537917534304528,-1,-3,-2,-2,-1,0,-5,1
1537917534304528,-5,-2,0,-1,-5,-6,3,0
1537917534311509,5,0,-1,-2,-1,-2,1,-1
1537917534311509,-3,-1,0,-1,0,0,15,-4
1537917534327467,-10,-2,2,2,3,6,-4,-3
1537917534327467,28,2,-1,1,9,-4,4,3
1537917534329461,-30,-4,-1,3,10,12,-5,-8
1537917534329461,0,-5,-5,-6,14,-6,-7,-2
1537917534350405,2,21,-5,-8,-17,-75,-7,-5
1537917534350405,-6,4,12,12,19,101,12,6
1537917534351403,-14,-36,-24,-17,-69,-67,2,11
1537917534351403,27,9,17,27,80,14,-12,-1
1537917534364368,-22,2,7,-17,-55,-6,11,2
1537917534364368,5,-4,-9,-12,-2,-17,-21,14
1537917534372347,18,9,-16,-4,-15,28,0,10
1537917534372347,6,-24,-17,-14,-2,54,14,-1
1537917534387307,19,14,21,19,45,-27,-18,5
1537917534387307,-11,-40,-6,-7,-70,-52,14,10
1537917534389301,-4,31,-12,3,63,75,0,-11
1537917534389301,-1,42,40,2,-21,-128,-33,28
1537917534410246,-10,-30,0,1,16,121,15,-25
1537917534410246,-11,0,6,4,16,-73,-12,-25
1537917534411243,-8,-23,2,6,9,-79,-7,-19
1537917534411243,4,-5,-15,9,27,-3,14,-1
1537917534424208,4,-12,-27,-7,-2,100,28,31
1537917534424208,4,-14,9,5,47,-63,-3,15
1537917534433184,-2,68,-5,-13,33,13,-5,0
1537917534433184,11,-37,35,9,-61,-23,19,0
1537917534448144,5,-15,16,7,-31,-115,-16,-28
1537917534448144,12,-16,-32,-6,6,33,-5,38
1537917534449141,2,8,16,26,76,-9,4,-5
1537917534449141,-4,8,-17,-21,-41,13,23,-12
1537917534470085,-12,-27,-35,-25,-62,-42,-7,5
1537917534470085,0,16,7,0,26,24,1,4
1537917534472080,-4,-20,-7,-17,-67,-102,-9,-11
1537917534472080,8,49,4,12,51,25,-6,17
1537917534484048,9,-8,30,18,39,109,0,4
1537917534484048,-21,9,-19,1,31,-61,12,-22
1537917534493025,1,-31,9,-24,-39,32,4,3
1537917534493025,-22,-11,-6,-2,-25,-3,-16,-19
1537917534507984,26,24,6,10,35,-14,-5,9
1537917534507984,-12,5,10,10,12,76,0,-15
1537917534508982,0,-15,-13,0,-2,35,15,34
1537917534508982,-6,-20,-21,-11,-36,17,-11,-27
1537917534529925,-19,24,7,15,25,-50,-1,-34
1537917534529925,22,-19,-4,-9,20,49,-1,14
1537917534531920,6,38,19,-2,-79,-39,17,-8
1537917534531920,-18,0,-11,-14,-4,-1,-21,3
1537917534552864,16,-9,-6,-22,-51,23,-9,-11
1537917534552864,-12,-3,-8,2,45,-10,7,-9
1537917534553862,4,-19,-5,-20,-76,-76,-23,30
1537917534553862,10,14,5,13,31,43,8,-2
1537917534567824,0,-9,-17,0,8,3,10,13
1537917534567824,-10,-8,-15,-11,-39,-14,-15,-14
1537917534568822,1,13,13,10,48,82,5,7
1537917534568822,-21,-6,6,10,6,13,8,-12
1537917534590763,3,-13,-16,1,35,-26,1,3
1537917534590763,-3,26,5,-4,-36,27,5,-7
1537917534591761,5,-2,2,15,68,23,2,-21
1537917534591761,-1,-18,-12,-10,-47,-40,-17,24
1537917534603728,-3,22,14,-3,11,-8,0,-24
1537917534603728,-2,-7,2,2,-10,21,-1,8
1537917534612704,6,-5,7,15,48,66,-12,10
1537917534612704,7,-8,-12,-17,-30,-93,-11,6
1537917534627664,-12,4,-10,-14,-22,74,3,-28
1537917534627664,5,26,16,-1,-42,-19,-1,-26
1537917534629659,-10,-60,-16,-4,14,6,-5,-13
1537917534629659,-3,41,9,3,14,12,-2,-15
1537917534650603,7,7,8,8,0,-49,2,18
1537917534650603,-2,5,0,1,0,7,4,-18
1537917534651601,5,5,-2,2,-1,-3,3,-3
1537917534651601,-8,-15,-2,1,14,15,3,-8
1537917534663568,-18,-6,-5,0,3,-18,-2,4
1537917534663568,9,1,3,2,2,3,-3,13
1537917534672544,1,0,0,-3,-8,-20,-5,2
1537917534672544,1,-10,-7,-5,-6,11,4,3
1537917534687505,-7,3,0,1,6,-4,-4,10
1537917534687505,-2,-7,-3,-5,-11,-27,-2,4
1537917534689499,3,11,8,3,-7,-7,4,-3
1537917534689499,0,-5,-2,0,10,7,4,-1
1537917534710443,2,-3,1,4,3,-3,0,11
1537917534710443,-5,1,5,1,-4,-8,3,-4
1537917534711440,4,4,-3,-2,-4,-4,2,-4
1537917534711440,-3,-5,-5,-2,7,14,0,5
1537917534734379,0,-5,-2,-4,0,-12,-3,7
1537917534734379,-1,-1,3,0,-11,-7,-2,0
1537917534735376,-3,5,2,1,2,1,-2,-2
1537917534735376,2,-9,-3,-1,0,-5,0,1
1537917534747344,-2,0,-2,-1,-2,-7,2,4
1537917534747344,-3,1,0,-4,-5,-8,-2,6
1537917534754326,-2,0,2,2,-1,-3,-2,4
1537917534754326,-2,-3,1,3,5,4,-3,-1
1537917534770283,-2,-5,-3,-3,-4,-4,-4,-3
1537917534770283,-2,0,-1,-1,-4,1,-2,-5
1537917534771281,-3,-2,-2,0,-1,-5,-1,-7
1537917534771281,-2,-3,-1,-1,-2,3,-1,-14
1537917534793222,-2,0,0,0,1,-1,-3,-12
1537917534793222,-1,-2,-2,-3,-5,-7,-3,-5
1537917534794219,2,1,1,-1,-1,-1,1,-1
1537917534794219,0,0,0,-1,2,0,0,2
1537917534808183,-1,-4,-3,-2,0,-3,0,9
1537917534808183,-1,2,-1,-1,0,-2,0,2
1537917534815163,-1,1,1,0,-3,-2,-1,2
1537917534815163,-2,-3,-1,-3,1,3,1,6
1537917534831120,-1,-2,0,1,-1,-4,-2,5
1537917534831120,-2,-2,-1,-3,-2,-3,-1,1
1537917534832118,-1,-2,-3,-4,-5,-3,0,-1
1537917534832118,1,-2,-2,-1,1,-3,-1,1
1537917534853062,0,1,-1,-1,-1,-2,-1,1
1537917534853062,-1,1,1,-1,-1,-1,2,-2
1537917534854059,-1,0,-1,1,0,-2,-1,-2
1537917534854059,-1,-1,-1,-1,0,1,0,-1
1537917534867024,-2,-2,-2,0,1,-1,0,1
1537917534867024,0,-2,-1,-2,-2,-1,-2,-1
1537917534880988,-2,-1,0,-1,1,-2,0,-4
1537917534880988,0,-3,-1,-2,-2,-1,-2,1
1537917534889963,-1,0,0,-1,-1,1,-1,1
1537917534889963,-2,-1,-1,0,-1,-4,-1,-1
1537917534891958,1,0,0,1,-1,1,-1,-1
1537917534891958,-1,0,-1,-1,-1,0,0,-2
1537917534912902,0,-1,0,-3,0,0,1,1
1537917534912902,-1,-2,-1,0,0,-1,-1,-1
1537917534913899,-1,0,0,1,1,0,3,-3
1537917534913899,-3,-2,-1,2,1,1,0,-7
1537917534926865,-1,-1,-3,-2,0,-2,-1,-1
1537917534926865,-1,0,-1,-2,1,-1,2,1
1537917534933846,-4,-1,-2,2,2,1,-1,-4
1537917534933846,-2,0,-2,-2,-2,1,-1,0
1537917534949803,-2,0,0,0,0,8,0,-4
1537917534949803,5,-2,-3,-1,-1,-7,-3,5
1537917534951798,-7,-2,-1,-1,0,-9,1,-10
1537917534951798,-25,-6,-3,-1,1,1,-1,-7
1537917534972742,34,1,-3,0,4,-1,-4,18
1537917534972742,-4,-1,-3,-2,-10,-2,-3,-7
1537917534973739,5,0,1,3,13,-18,-3,10
1537917534973739,-2,-1,-3,-6,-22,25,3,-2
1537917534986704,-7,-2,0,5,29,37,3,-6
1537917534986704,2,-7,-3,-4,-25,-36,-3,8
1537917534993686,-1,13,-1,1,35,-62,-13,-3
1537917534993686,2,0,-5,-5,-25,26,8,3
1537917535010640,-3,2,-1,-8,-13,-14,-3,-2
1537917535010640,-5,-12,-1,-2,-22,14,-2,-7
1537917535011638,-13,-19,-9,-5,-32,11,5,-10
1537917535011638,8,11,28,19,71,27,-15,12
1537917535032582,-10,1,-4,1,-28,-68,5,-9
1537917535032582,12,17,-16,-11,29,-10,-16,30
1537917535034577,-16,-38,-3,-4,-54,5,21,-24
1537917535034577,26,21,-7,0,3,-38,-21,-33
1537917535046544,9,-9,-5,-12,-36,-17,18,67
1537917535046544,2,-11,6,9,17,-13,-20,16
1537917535055520,9,43,8,4,23,23,27,27
1537917535055520,-9,-27,-48,-5,47,21,-21,0
1537917535070480,0,52,48,-2,2,-35,-28,-20
1537917535070480,-12,-24,-6,-13,-49,-71,2,-26
1537917535071478,-1,-18,-13,7,20,61,-16,0
1537917535071478,-10,32,-1,-3,-4,-24,0,5
1537917535092422,-1,-42,-24,-9,-34,-47,11,18
1537917535092422,-8,12,-6,-10,-38,47,10,-11
1537917535094417,14,-1,25,18,80,40,-11,-5
1537917535094417,-15,0,-3,5,30,-51,14,-29
1537917535107382,9,-60,-24,-26,-67,-4,-12,-17
1537917535107382,-1,18,27,18,37,-13,14,-16
1537917535115361,0,-14,-7,14,51,-28,5,14
1537917535115361,8,18,0,-19,-51,98,16,-18
1537917535130321,-8,-26,-19,3,22,8,-4,18
1537917535130321,-4,37,25,19,73,27,6,-8
1537917535131319,-5,15,-4,-21,-30,83,-10,-14
1537917535131319,5,-14,29,20,-7,-28,11,3
1537917535152262,-13,-1,-6,2,39,-79,-20,-15
1537917535152262,4,-27,-20,-13,-23,112,14,24
1537917535154257,-2,18,10,11,21,-104,-4,11
1537917535154257,10,4,1,-6,-1,-74,-14,0
1537917535166224,-19,-31,-15,-2,-37,79,22,-13
1537917535166224,1,37,14,16,79,46,2,-10
1537917535175201,-7,8,13,-4,-29,-56,-5,-17
1537917535175201,2,-19,-4,2,26,32,-1,19
1537917535190160,0,25,7,4,-4,-26,-4,-17
1537917535190160,-8,-44,-15,3,-2,0,-14,-25
1537917535192156,-7,27,4,-14,-58,5,4,-1
1537917535192156,16,-9,-4,4,14,38,8,31
1537917535213099,-7,21,3,7,16,26,-1,-20
1537917535213099,1,5,7,-6,-55,-64,-1,13
1537917535214097,-1,-31,-11,-2,-13,27,-2,-2
1537917535214097,-3,-5,1,-5,-22,-36,2,22
1537917535227062,-4,20,7,10,55,92,0,-9
1537917535227062,12,-6,-9,-7,-9,-91,10,7
1537917535234044,5,-10,-9,-5,0,35,-2,11
1537917535234044,-10,-1,-5,1,4,10,3,-9
1537917535250001,1,8,18,5,2,28,6,-4
1537917535250001,-5,-1,-5,2,23,23,-7,-2
1537917535251995,3,-7,-2,-1,-5,-3,-4,17
1537917535251995,-5,-5,-4,-4,-25,-10,2,1
1537917535272939,3,-1,-3,-2,6,-22,-3,8
1537917535272939,-5,-7,-1,2,-4,13,-2,-6
1537917535278923,0,4,-3,-5,-8,-16,-3,-11
1537917535278923,-9,-9,1,-2,-22,-16,-6,-16
1537917535285905,9,18,3,1,17,17,3,11
1537917535285905,-1,2,-5,-6,-8,5,-6,-12
1537917535294881,1,-9,-6,-6,-19,3,4,7
1537917535294881,0,-6,2,1,2,-5,-2,12
1537917535308844,-2,-1,-4,-2,8,4,-5,1
1537917535308844,-3,-1,-1,-3,-7,0,8,-4
1537917535317819,3,-3,-3,-2,-6,-11,-3,-3
1537917535317819,-3,-1,0,-4,-8,0,0,-6
1537917535332779,0,4,3,3,2,-2,-5,-4
1537917535332779,1,-1,-2,-2,-7,-3,-1,7
1537917535333777,1,-3,-3,-2,4,5,-7,-6
1537917535333777,1,2,3,-1,-4,-4,3,0
1537917535346742,-3,-1,0,3,2,6,-1,-6
1537917535346742,-3,-4,-1,1,1,3,-2,4
1537917535355718,1,-1,-3,-4,-3,1,0,-3
1537917535355718,0,5,0,-6,-8,-1,0,0
1537917535370678,0,0,-2,0,0,-7,-2,-6
1537917535370678,-2,-2,-2,-2,-2,4,-1,-3
1537917535371676,2,0,0,1,-3,-7,-2,-1
1537917535371676,-1,-5,-3,-5,-8,-7,-3,-4
1537917535392619,1,0,-1,1,3,4,3,2
1537917535392619,-1,-2,0,0,-2,1,0,-2
1537917535394614,-1,-1,-3,-2,-1,-1,0,-1
1537917535394614,-1,-3,-1,0,-1,-3,-3,5
1537917535406582,-5,-1,0,0,-1,2,-2,2
1537917535406582,-1,0,-1,2,-3,2,-4,2
1537917535415558,1,2,-1,-3,-3,-5,-4,3
1537917535415558,-2,-2,1,0,0,2,-3,0
1537917535430518,3,1,-2,-3,-2,-3,0,0
1537917535430518,-4,-1,-1,-2,-4,-1,-1,0
1537917535431515,-3,-1,1,-2,-1,-1,-2,-7
1537917535431515,0,0,0,0,-1,-1,-2,5
1537917535452459,0,-1,1,1,-1,2,0,-2
1537917535452459,2,-1,-2,0,2,-1,-1,-1
1537917535454455,-3,0,-2,-1,0,3,2,-3
1537917535454455,-1,-2,0,-4,-8,-6,-2,0
1537917535466422,0,-2,-3,-2,-1,-3,-2,-2
1537917535466422,-2,-4,-5,-2,-5,1,-1,0
1537917535475399,3,0,2,-1,3,-1,0,3
1537917535475399,2,12,3,5,23,15,1,4
1537917535490358,-5,-3,-4,-4,-21,-8,0,-6
1537917535490358,2,0,-1,-1,14,7,-2,-1
1537917535491356,-1,-2,-2,-8,-35,-31,1,9
1537917535491356,0,-7,-2,2,5,-11,-7,2
1537917535512300,0,2,1,4,23,35,4,0
1537917535512300,-1,-2,2,4,-5,-38,1,-4
1537917535514295,-1,-4,-4,-2,2,78,3,0
1537917535514295,-3,-3,-4,-9,-39,-49,3,-7
1537917535526262,3,0,-1,0,5,-5,-6,11
1537917535526262,0,-7,-3,1,19,39,-1,1
1537917535535239,0,14,12,17,42,-48,-1,-6
1537917535535239,-4,1,1,0,-7,3,6,-12
1537917535550198,-2,0,1,-1,-13,-39,-6,-1
1537917535550198,0,-4,-7,-21,-91,-63,1,2
1537917535551196,-3,0,-4,0,17,56,2,-3
1537917535551196,1,-8,-2,7,48,37,-6,5
1537917535573137,-4,-9,2,12,81,47,-8,-12
1537917535573137,6,9,0,-6,-66,-101,7,6
1537917535574135,-7,-7,-9,-11,-22,25,-2,-8
1537917535574135,-10,-5,-1,-5,-40,-4,2,-5
1537917535586102,1,7,-1,9,63,14,1,-4
1537917535586102,-3,2,8,22,117,127,-12,-7
1537917535595078,1,-1,-3,-7,-62,-92,8,9
1537917535595078,6,-14,-17,-25,-83,-79,-2,15
1537917535610038,8,13,9,0,-26,10,3,0
1537917535610038,-1,-5,-2,-7,-34,62,11,3
1537917535616022,0,2,9,27,117,34,-19,-9
1537917535616022,-5,-7,-6,-6,-1,127,-2,-5
1537917535632977,-8,-9,-3,-1,-29,7,-2,-10
1537917535632977,-4,4,-16,-29,-80,-117,0,-5
1537917535633975,1,1,11,12,81,-19,-32,10
1537917535633975,16,-6,-6,-16,-63,-7,22,27
1537917535645942,-8,1,-2,-16,-44,-61,-16,-9
1537917535645942,-6,0,7,16,104,106,-1,-7
1537917535654918,4,2,3,15,61,-78,-9,-1
1537917535654918,-9,1,-3,1,20,66,-4,-18
1537917535669878,4,-9,-2,15,41,82,6,11
1537917535669878,6,-6,-16,-30,-57,-125,14,8
1537917535675862,1,13,6,1,21,109,28,-2
1537917535675862,4,5,10,0,8,-4,-7,5
1537917535692817,-7,-8,-4,-7,7,108,0,-9
1537917535692817,-5,13,24,57,127,127,-22,-17
1537917535693815,-2,-16,-17,-24,-96,-83,0,-1
1537917535693815,-5,7,-8,-33,-94,-61,-5,-10
1537917535714758,7,3,6,15,68,-2,-8,8
1537917535714758,-3,-2,9,24,76,39,2,1
1537917535716753,-3,-5,-4,-5,7,-41,1,-5
1537917535716753,-2,-2,-1,4,17,86,8,-5
1537917535729718,11,11,4,20,5,-22,19,18
1537917535729718,-3,-10,-11,-31,-32,-20,-7,1
1537917535736699,-4,5,-1,-5,11,127,5,-3
1537917535736699,-1,-1,2,11,97,13,-17,-13
1537917535753655,-2,3,8,18,89,68,-11,-6
1537917535753655,4,-11,-9,-19,-121,-98,4,6
1537917535755649,-13,-17,-11,-2,-21,69,21,-22
1537917535755649,14,22,14,13,81,-82,-39,16
1537917535775596,-2,-7,-13,-39,-96,75,24,-6
1537917535775596,-6,2,7,21,72,31,-7,-2
1537917535776593,3,6,-4,-25,-125,-125,-11,-8
1537917535776593,-8,-4,11,35,92,73,-3,-17
1537917535790556,2,-1,-1,6,46,-63,-19,4
1537917535790556,-1,-9,-18,-42,-121,-3,17,0
1537917535791553,2,-4,-1,4,-6,36,-4,10
1537917535791553,-4,-7,-4,5,-1,-55,6,2
1537917535812497,3,7,2,-5,-11,21,2,1
1537917535812497,1,6,12,33,127,125,-19,-6
1537917535814492,-7,-15,-22,-53,-68,-71,1,-2
1537917535814492,-5,3,-3,-9,-18,62,8,-1
1537917535835436,-1,-9,-7,-15,-50,-63,0,4
1537917535835436,5,7,7,15,34,-5,-5,7
1537917535836433,-4,0,8,19,30,42,11,-14
1537917535836433,5,-10,-11,-3,5,-2,4,18
1537917535850396,-8,5,-4,-12,-53,-66,2,-9
1537917535850396,5,-2,-1,-5,-25,8,3,6
1537917535851393,4,2,5,10,20,56,-3,4
1537917535851393,-7,-4,1,5,15,16,5,-12
1537917535872337,3,-1,-4,1,-22,-78,2,5
1537917535872337,-2,2,-1,-2,26,31,-5,-1
1537917535874332,2,1,1,7,21,13,-1,4
1537917535874332,-3,-4,-4,-14,-71,-35,-5,-4
1537917535895276,-1,-4,1,2,20,17,-5,-3
1537917535895276,-5,-3,-8,-20,-62,-41,-1,-8
1537917535896274,2,-2,1,5,17,-1,0,6
1537917535896274,-1,3,5,10,27,20,3,-1
1537917535909239,-6,-1,-3,-8,-26,-30,-4,-7
1537917535909239,-1,-1,0,5,41,-5,-6,0
1537917535916220,2,0,0,7,-1,-1,-3,5
1537917535916220,-2,-1,0,0,-14,-26,5,-1
1537917535940156,-4,-4,-3,-7,-18,3,-2,-3
1537917535940156,0,-1,-1,2,18,-6,0,1
1537917535956113,2,2,-1,1,2,5,-2,2
1537917535956113,-1,1,3,12,47,16,-1,-3
1537917535956113,0,-1,-2,-3,0,54,5,-1
1537917535956113,-4,-9,-9,-13,-47,-7,4,-1
1537917535958108,1,1,6,10,60,45,-9,-1
1537917535958108,0,7,-5,-14,-53,-76,1,-2
1537917535969078,-2,-1,2,3,18,23,-3,1
1537917535969078,-2,0,-1,-3,-19,-17,2,-4
1537917535976060,0,-5,-4,-3,-12,5,-2,-1
1537917535976060,3,0,4,10,45,41,-2,-1
1537917535993015,-1,0,-1,-2,-12,-21,2,0
1537917535993015,-1,-2,-2,-1,-7,-3,0,-4
1537917535994012,1,1,-2,0,-8,-14,-2,2
1537917535994012,-4,-1,1,-1,-1,-1,0,0
1537917536014956,-2,-3,-3,-2,-19,-22,-1,-1
1537917536014956,1,1,3,0,-3,-12,1,1
1537917536016951,1,4,2,3,2,-3,-1,1
1537917536016951,-1,-1,-3,-6,-19,-23,1,0
1537917536029916,-4,-4,-2,-3,1,8,0,-2
1537917536029916,0,1,1,2,14,3,-3,0
1537917536035900,-2,1,-3,-4,-17,-20,-1,2
1537917536035900,-1,-4,0,4,2,7,2,-3
1537917536051857,-1,-4,-3,-1,0,-1,2,-2
1537917536051857,2,5,0,-1,-6,-8,0,1
1537917536059836,-2,-1,0,-3,-16,-17,-1,-1
1537917536059836,-3,-3,0,0,-1,0,1,-2
1537917536074796,1,0,0,1,6,4,-2,-2
1537917536074796,3,-4,-4,-4,-12,-17,2,0
1537917536076791,-7,-12,-3,-2,-4,0,-1,-3
1537917536076791,4,18,4,1,9,9,0,1
1537917536088759,-1,1,2,-1,-3,-5,-1,-1
1537917536088759,1,0,-1,1,-2,-1,0,0
1537917536097735,-5,-7,1,1,-1,-3,-2,-2
1537917536097735,7,1,-1,1,1,2,0,1
1537917536112695,-1,-1,-3,-5,-8,-6,-1,1
1537917536112695,-3,0,1,0,-1,0,-2,-1
1537917536113693,2,1,-2,-1,-1,-1,0,1
1537917536113693,-3,-8,-2,-1,-5,-7,-1,-2
1537917536135634,-1,0,-1,0,0,1,0,0
1537917536135634,1,-1,0,-1,2,1,0,1
1537917536136631,-1,1,1,-3,-7,-4,0,1
1537917536136631,-2,-2,-2,-2,-1,1,-1,-2
1537917536150594,0,-1,-1,0,0,1,0,-2
1537917536150594,-3,-3,1,1,-1,-4,-2,-3
1537917536157576,2,3,-1,-1,-3,-3,-3,-1
1537917536157576,-1,-3,0,-1,-1,-1,0,0
1537917536172534,-4,-2,0,0,4,1,-1,0
1537917536172534,0,0,0,-2,-3,-5,1,-1
1537917536174530,2,2,-3,-5,-4,-2,0,-2
1537917536174530,-1,-5,-3,-1,1,2,-1,0
1537917536195473,-1,-1,-2,-1,-2,-2,-1,0
1537917536195473,-1,-1,0,2,0,0,1,1
1537917536196471,2,2,0,-1,1,-1,0,0
1537917536196471,-4,-3,0,1,0,0,-1,-1
1537917536208438,0,-1,0,0,-1,0,-1,-1
1537917536208438,0,-1,-1,-1,-2,-2,-1,0
1537917536217414,-1,1,0,-1,0,-1,1,0
1537917536217414,-2,-2,0,0,-2,-2,-1,-2
1537917536232375,-1,-1,-1,-2,-3,-1,-1,0
1537917536232375,-4,-1,-1,-2,-2,-1,-2,-2
1537917536234369,-1,0,2,1,0,-2,0,0
1537917536234369,-3,-3,0,-2,-1,0,-1,-2
1537917536255313,-1,0,0,0,1,2,0,-1
1537917536255313,0,-1,-1,1,-1,0,-1,0
1537917536256311,-2,-1,-1,-1,-1,-2,-1,0
1537917536256311,1,-1,-2,-3,2,-2,0,1
1537917536277255,-1,-2,0,0,2,3,-3,-1
1537917536277255,0,-2,-1,1,3,2,2,2
1537917536279249,0,1,3,7,50,2,-6,-3
1537917536279249,-1,-2,-2,-8,-67,-75,0,2
1537917536292215,0,0,2,6,36,102,1,-3
1537917536292215,-8,-6,-11,-21,-53,-93,-20,-11
1537917536294209,-3,-3,-2,-4,-7,56,-4,-4
1537917536294209,6,5,1,-1,-41,-6,21,6
1537917536315153,-4,-5,-4,-3,40,-58,-22,-5
1537917536315153,2,-2,4,10,37,73,28,8
1537917536316151,5,4,6,18,54,-83,-16,11
1537917536316151,-6,2,-11,-30,-54,-63,13,-6
1537917536329116,-1,-6,-1,-10,-33,34,12,2
1537917536329116,2,19,18,33,83,22,-16,-18
1537917536338092,-8,-8,-6,-13,-65,-42,4,-29
1537917536338092,3,-1,6,17,15,-47,-9,31
1537917536353052,-2,-1,3,13,64,66,-11,-10
1537917536353052,-2,-10,-15,-32,-96,-128,16,2
1537917536354049,3,-7,-17,-23,-56,-39,12,7
1537917536354049,-5,-10,-1,-9,47,97,1,-20
1537917536374994,-3,4,-3,8,65,31,0,-1
1537917536374994,8,21,35,53,127,126,-10,18
1537917536376988,-11,-4,-20,-53,-78,14,41,-4
1537917536376988,3,-1,1,12,71,76,-5,-8
1537917536388956,14,-3,-5,-2,-51,48,14,30
1537917536388956,-11,-21,-28,-42,-88,-52,-4,-7
1537917536397932,-1,7,14,24,39,-30,-7,-6
1537917536397932,-6,-4,-8,-21,-76,50,11,-2
1537917536412892,-3,-5,0,-3,29,38,4,-14
1537917536412892,-1,3,2,11,44,31,-7,2
1537917536413889,10,2,11,23,86,87,-13,28
1537917536413889,-9,-11,-22,-54,-53,-11,26,-19
1537917536434833,-5,4,14,27,72,-120,-29,-8
1537917536434833,3,-5,-18,-45,-124,83,37,-3
1537917536436828,-10,-3,-1,2,-13,-24,-9,-13
1537917536436828,8,8,15,42,117,127,-33,6
1537917536448796,-3,-5,-16,-44,-128,-102,5,1
1537917536448796,-9,-5,3,4,32,70,-12,-8
1537917536457772,3,4,13,38,103,32,-30,3
1537917536457772,1,-3,-8,-6,-40,-46,26,4
1537917536472732,0,0,-5,-16,-4,11,20,5
1537917536472732,3,5,6,12,19,-45,-3,4
1537917536473729,5,5,18,56,93,84,-30,8
1537917536473729,1,-11,-14,-28,-51,22,-4,6
1537917536496668,-3,1,-5,-9,0,78,0,-6
1537917536496668,6,2,2,4,45,86,6,6
1537917536497666,5,8,6,13,24,23,19,9
1537917536497666,-1,1,5,14,-9,55,5,-2
1537917536508636,-1,1,3,6,-2,-7,-13,-8
1537917536508636,-5,0,11,33,83,42,-43,-25
1537917536517612,-1,-11,-33,-84,-128,-89,27,6
1537917536517612,3,3,4,17,83,-87,-16,2
1537917536531575,3,1,2,1,29,-38,7,4
1537917536531575,2,1,0,3,22,29,-1,8
1537917536540551,-2,1,7,15,45,-1,-3,6
1537917536540551,0,4,11,25,64,-36,-10,-2
1537917536555511,4,-3,-7,-19,-69,-90,9,10
1537917536555511,-2,-3,-7,-11,21,32,9,1
1537917536556508,-7,-2,-5,-11,-7,-27,-14,-19
1537917536556508,4,10,20,55,86,36,-30,-3
1537917536568476,-8,-14,-23,-55,-42,-49,12,-2
1537917536568476,-4,-3,-3,-3,31,16,0,-2
1537917536577452,8,4,-1,-9,0,16,24,10
1537917536577452,-2,-2,1,11,24,-2,-14,-4
1537917536592412,-2,0,11,33,46,16,-14,-6
1537917536592412,1,7,-5,-11,-46,11,10,0
1537917536594407,-2,-6,-5,-7,13,-7,-14,-2
1537917536594407,-4,1,1,-1,22,48,-8,-4
1537917536615351,2,-1,4,10,-24,-11,4,-8
1537917536615351,-5,-14,-21,-54,-128,17,36,3
1537917536616348,12,7,8,21,53,122,1,4
1537917536616348,-5,-2,2,6,67,-21,-6,-1
1537917536637292,2,1,-6,-18,-61,-71,-3,6
1537917536637292,-2,-1,5,16,26,-18,-25,-6
1537917536639287,-6,-2,-1,-1,-29,54,-1,-13
1537917536639287,3,2,5,9,54,85,4,3
1537917536652252,-8,-8,-14,-33,-12,113,-5,-10
1537917536652252,-1,0,4,14,60,-26,-6,0
1537917536654247,-7,-2,0,1,46,45,-22,-16
1537917536654247,-4,-1,-12,-32,-93,-58,2,-5
1537917536675191,4,7,11,27,33,-35,-8,6
1537917536675191,4,1,4,13,33,28,-1,8
1537917536676188,-6,-11,-14,-28,-104,59,8,-5
1537917536676188,-1,-2,0,-3,-5,92,-7,0
1537917536705111,2,-2,5,19,52,83,-6,2
1537917536705111,-8,-11,-18,-43,-111,-128,10,-5
1537917536707105,5,-1,0,1,0,-31,0,5
1537917536707105,1,2,1,-4,-14,-4,-1,0
1537917536713090,-1,10,6,14,6,127,-3,-2
1537917536713090,-1,-1,1,5,-4,-24,6,-1
1537917536714087,-3,-3,-1,-2,-4,-28,6,-1
1537917536714087,-6,-5,-8,-13,-14,35,1,-8
1537917536735031,-7,-5,-6,-22,-59,-108,17,-11
1537917536735031,6,2,3,10,41,16,-11,12
1537917536737026,-4,0,0,-3,-4,24,6,-4
1537917536737026,5,0,-3,-3,-14,-6,11,9
1537917536757970,-2,1,6,14,47,26,-4,1
1537917536757970,-1,-1,2,7,2,-23,-2,-3
1537917536758967,0,3,-3,-12,-48,-61,8,-1
1537917536758967,-1,2,4,9,34,1,-5,-3
1537917536772930,2,1,3,13,30,13,-2,3
1537917536772930,-1,-8,-6,-12,-38,-8,-1,2
1537917536773927,1,7,5,11,54,-36,-12,-1
1537917536773927,-3,0,-1,-2,-5,63,8,-3
1537917536794871,3,0,-3,-3,-27,-98,-3,4
1537917536794871,-4,-2,1,1,-4,-51,-3,-5
1537917536796866,-1,-6,-5,-6,-23,13,4,-2
1537917536796866,-3,0,-2,-3,-9,-56,0,-1
1537917536817809,-5,-4,0,-3,-3,36,1,-7
1537917536817809,3,3,5,13,21,-1,-3,4
1537917536818807,-2,-3,-3,-2,-1,-33,-1,-1
1537917536818807,-1,-2,-5,-9,-41,-62,0,1
1537917536831772,-3,-3,1,9,31,66,-2,-4
1537917536831772,1,2,0,-4,-32,-60,-7,-1
1537917536838753,-1,-2,-2,-7,-21,4,3,1
1537917536838753,-2,-4,-3,-5,-2,-13,-3,-2
1537917536854711,0,1,3,11,43,18,-2,2
1537917536854711,0,3,3,0,2,55,-1,-2
1537917536856706,-4,-4,-4,-4,-7,-13,-3,-1
1537917536856706,-3,-2,-1,-3,-2,-1,0,-3
1537917536877650,2,2,2,4,1,-20,-2,3
1537917536877650,-1,1,-2,0,16,42,0,-1
1537917536879645,0,-2,0,0,16,8,-2,-3
1537917536879645,-2,-1,-1,-2,-7,-14,-3,0
1537917536891613,-1,-1,-3,-2,-4,8,0,1
1537917536891613,-2,0,0,2,13,2,-4,-2
1537917536898595,-1,1,0,6,15,3,-1,0
1537917536898595,1,0,-1,-2,-10,-28,0,1
1537917536916547,0,0,0,-2,-1,6,1,0
1537917536916547,-3,-1,1,6,16,10,-1,-2
1537917536917544,2,0,0,0,4,-5,-1,-1
1537917536917544,1,-2,-3,-3,-11,-3,-1,0
1537917536937491,-3,1,1,-2,1,3,0,0
1537917536937491,2,-2,1,0,7,3,-2,-1
1537917536939487,-2,-3,-2,-1,-3,0,-2,0
1537917536939487,0,5,0,0,-3,-10,0,1
1537917536951453,-2,1,-2,0,3,0,0,-1
1537917536951453,-1,-2,0,0,5,-2,-2,-1
1537917536960429,-1,-2,0,0,0,2,-1,-1
1537917536960429,3,-6,-3,0,1,-4,0,-2
1537917536974391,0,0,-3,-3,-6,-4,-3,-2
1537917536974391,3,-1,-1,-1,4,8,1,2
1537917536975389,2,12,0,2,1,2,1,0
1537917536975389,-9,-7,-1,-1,-3,-4,-2,-1
1537917536997330,0,-9,-1,0,1,1,-1,0
1537917536997330,-4,7,-3,-3,-1,-2,-1,-1
1537917536997330,13,10,2,3,3,1,-2,1
1537917536997330,-9,-5,0,-2,-3,-7,0,0
1537917537029245,9,-1,-4,-1,-2,0,0,0
1537917537029245,-13,-5,0,3,2,3,-3,-1
1537917537030242,-5,-5,0,1,-1,-3,-1,-3
1537917537030242,3,6,0,0,-2,-1,-2,-1
1537917537034231,-4,-5,0,1,2,0,-1,0
1537917537034231,4,0,-3,-4,0,2,0,0
1537917537035229,-1,-2,-2,-4,-2,-1,-1,-2
1537917537035229,0,-2,-2,-3,-1,-3,-3,-3
1537917537057170,-3,1,-1,-1,0,-1,-1,-1
1537917537057170,1,0,-1,0,1,-1,-3,-1
1537917537072130,-6,-5,-1,-1,1,-1,-1,-2
1537917537072130,1,-1,-2,0,0,-2,-1,-3
1537917537080109,1,3,0,0,-1,0,-1,-2
1537917537080109,1,-1,0,-1,1,0,-1,0
1537917537081107,-3,-7,-1,-1,-2,-2,0,0
1537917537081107,1,0,0,-2,-2,-1,-1,1
1537917537094072,1,0,1,0,-3,1,0,0
1537917537094072,0,-2,-1,0,0,0,-1,0
1537917537095070,-2,-4,0,0,0,-1,-1,-3
1537917537095070,0,1,0,1,-1,0,0,-4
1537917537117010,-1,1,-2,-1,0,2,1,2
1537917537117010,-1,-3,-3,-3,-2,-2,0,-2
1537917537118009,-1,-2,-1,0,1,0,0,0
1537917537118009,0,1,-1,-2,-1,0,-1,-3
1537917537139950,-1,-3,-2,1,-1,-1,1,-1
1537917537139950,-1,-2,0,0,0,2,-2,-5
1537917537140947,1,-2,-2,-3,-2,0,0,3
1537917537140947,-2,-2,-1,-1,1,-3,1,0
1537917537154909,-1,-1,0,1,1,-1,-1,-1
1537917537154909,1,0,0,0,0,-1,0,0
1537917537154909,-2,-3,0,2,0,0,-1,-3
1537917537154909,-1,-2,-1,-1,-1,0,-2,0
1537917537176850,-1,1,-1,-3,-2,-3,-2,1
1537917537176850,1,0,-1,0,-1,0,-1,-1
1537917537177847,-1,-2,-2,-2,-2,0,-1,-1
1537917537177847,-1,1,-1,0,0,0,1,1
1537917537199789,0,1,1,-1,-1,-1,-2,-2
1537917537199789,0,-2,0,-2,0,-2,-1,-2
1537917537200786,0,0,-1,-2,0,-2,0,0
1537917537200786,0,0,-1,0,0,-1,-1,-1
1537917537214749,-2,0,0,-2,-2,0,-2,-1
1537917537214749,-3,-2,-1,-2,-3,-2,0,2
1537917537214749,-1,-1,0,-1,0,-1,-3,-2
1537917537214749,1,-1,-1,-1,-1,0,-1,0
1537917537236690,-1,-2,-2,0,0,0,0,-2
1537917537236690,-1,-2,0,-1,-1,-2,-1,-3
1537917537237688,-2,-2,1,0,1,0,-3,-1
1537917537237688,-1,-2,0,-4,-1,0,-2,-1
1537917537259630,-1,0,-2,-2,1,0,-2,-1
1537917537259630,0,0,-2,0,-1,1,-1,1
1537917537266611,-2,-1,-1,0,-2,-2,1,0
1537917537266611,-1,0,-1,-2,-1,0,-1,-1
1537917537274592,-1,-1,0,0,0,-1,-1,0
1537917537274592,-1,0,-1,0,-1,-2,0,-1
1537917537275588,0,-2,-1,-1,-1,-1,0,0
1537917537275588,-1,-3,-2,-1,-1,-2,0,0
1537917537297528,-1,-1,1,3,1,1,1,-2
1537917537297528,0,-1,-3,-3,-2,1,-1,-1
1537917537297528,0,-1,-1,0,-2,-1,-3,-3
1537917537297528,-1,-1,-1,0,-2,-1,1,-1
1537917537311491,0,0,-1,-1,-2,-3,-2,0
1537917537311491,-1,0,0,0,1,-1,-1,1
1537917537319470,-1,-1,-2,-2,-1,-1,-1,2
1537917537319470,0,-1,0,0,-2,-2,-2,-3
1537917537334432,-1,-1,-1,-1,-1,2,-2,-2
1537917537334432,0,1,-1,0,-1,0,-1,-1
1537917537335428,0,-3,-2,-1,0,0,-2,0
1537917537335428,-2,-1,-1,1,2,-1,0,0
1537917537357368,1,0,0,-3,-1,-1,0,1
1537917537357368,-2,-2,-1,-1,-1,-3,-1,0
1537917537357368,-1,-1,0,-1,1,2,0,-1
1537917537357368,-1,-1,-2,-1,0,-1,-3,-1
1537917537371330,-2,0,-1,-1,0,-2,-2,1
1537917537371330,0,-2,-2,1,-1,-1,0,-2
1537917537379309,-3,1,-1,-1,-1,-2,0,0
1537917537379309,-1,-1,0,-1,0,-1,0,-2
1537917537394269,-1,1,2,0,-3,-4,-1,-1
1537917537394269,-2,0,-1,0,-1,-1,-3,0
1537917537395266,-1,0,-1,0,-1,-1,1,-1
1537917537395266,1,-1,0,-2,-3,1,0,-1
1537917537417207,-1,-3,-2,-2,-1,1,0,-2
1537917537417207,0,0,2,2,1,0,-2,-1
1537917537417207,0,-2,-1,0,-1,-2,1,-1
1537917537417207,-2,-1,-2,0,1,-1,1,0
1537917537431170,-1,-2,-2,-1,-1,0,-1,0
1537917537431170,-1,-2,-2,-1,0,1,0,-1
1537917537439149,-2,0,0,0,-3,-1,-1,-2
1537917537439149,0,0,0,2,0,-2,0,-1
1537917537454110,-1,-1,-1,0,-3,0,0,0
1537917537454110,-1,-1,0,-1,0,-3,1,-1
1537917537462088,0,-2,0,1,0,0,-1,0
1537917537462088,-2,0,-4,-2,-5,-1,0,-1
1537917537477048,-1,2,-1,-2,-1,-1,0,0
1537917537477048,1,-2,-1,-2,-1,0,-2,-1
1537917537478045,0,0,-1,-1,-1,-2,-2,-2
1537917537478045,-1,0,0,0,-1,0,-1,-1
1537917537491011,0,-1,-3,1,1,-1,0,-2
1537917537491011,-1,-2,0,3,0,0,-2,-1
1537917537499986,-2,-3,-1,-1,-2,0,-2,0
1537917537499986,1,-1,-2,-2,-2,-2,-1,1
1537917537514946,-2,0,0,-1,-1,-2,2,-2
1537917537514946,-1,0,-1,0,-1,-4,-1,0
1537917537514946,0,-1,-1,0,0,-1,-3,0
1537917537514946,1,0,0,-1,0,1,-2,-1
1537917537536888,-1,-2,-1,-2,-1,0,-3,-2
1537917537536888,0,0,-1,-1,-1,-3,1,-1
1537917537537885,-1,-1,-2,-1,-3,0,-1,0
1537917537537885,-5,-1,-1,-1,-1,0,-1,0
1537917537550850,2,-2,-2,-2,0,-2,-1,0
1537917537550850,-1,-1,-2,-1,-1,0,-1,-1
1537917537559827,0,0,0,-4,-1,-1,-1,-1
1537917537559827,-2,-1,1,2,1,-1,-2,0
1537917537574787,-2,0,-1,1,-1,-1,1,-1
1537917537574787,-1,-1,-1,-1,-1,-2,0,0
1537917537574787,-1,-2,-1,0,-1,-1,-1,0
1537917537574787,-1,-1,-2,0,-1,-1,-2,-3
1537917537597725,-2,-2,0,1,0,0,0,0
1537917537597725,0,-1,-3,-3,1,1,-1,0
1537917537598723,-3,-1,0,3,8,9,0,-1
1537917537598723,2,1,2,8,43,39,1,1
1537917537620664,-4,-3,-3,-4,-30,-25,4,1
1537917537620664,-2,0,2,4,31,-45,-13,-4
1537917537620664,-1,-1,-4,-7,-50,27,11,1
1537917537620664,1,1,1,4,31,75,4,2
1537917537634627,-1,1,0,2,32,2,0,0
1537917537634627,-2,-6,-10,-22,-45,-21,-7,-4
1537917537635624,-4,-3,-5,-14,-17,-10,-7,-3
1537917537635624,0,1,4,10,-2,-8,1,-1
1537917537657566,1,2,13,28,110,93,-5,-4
1537917537657566,5,2,2,6,-16,-16,10,7
1537917537657566,2,-1,-3,-10,2,-2,-13,0
1537917537657566,-7,-3,-3,-5,-14,-89,-22,-11
1537917537680504,-1,-4,-11,-28,-71,50,6,-1
1537917537680504,-3,1,6,23,59,-33,-20,-7
1537917537680504,2,1,1,-3,-60,-33,8,-1
1537917537680504,-3,-10,-18,-36,-70,-51,9,2
1537917537694466,-4,0,5,9,12,-57,-25,-7
1537917537694466,-5,-3,-6,-18,-71,47,24,-5
1537917537695464,-4,1,4,9,5,53,10,-7
1537917537695464,7,13,21,50,123,111,12,4
1537917537717405,-2,-10,-22,-47,-128,-128,-4,3
1537917537717405,-1,0,-2,0,54,127,18,1
1537917537717405,3,4,10,29,117,81,-3,10
1537917537717405,0,-4,-7,-14,-57,0,17,7
1537917537740343,4,2,-4,-5,-19,-34,7,8
1537917537740343,-3,1,10,16,65,43,-6,-3
1537917537741341,-4,-3,-3,-3,31,21,-7,-9
1537917537741341,4,-2,-9,-24,-86,-91,10,13
1537917537754307,-3,0,2,8,31,34,1,-6
1537917537754307,7,2,4,8,27,65,-11,11
1537917537755304,-8,-3,-3,-6,-45,81,-1,-15
1537917537755304,-2,-1,-1,-1,7,-40,-14,-2
1537917537777245,-1,4,10,21,31,59,-13,-7
1537917537777245,-4,-6,-11,-21,-52,-61,-1,8
1537917537777245,0,-3,-6,-8,-24,-51,0,6
1537917537777245,0,1,4,8,60,120,-21,-3
1537917537800183,1,1,-2,2,-36,44,0,2
1537917537800183,-6,-7,-13,-25,-33,-43,-13,-12
1537917537801181,3,1,-1,1,30,-83,-5,2
1537917537801181,-3,-2,0,4,42,104,0,-10
1537917537814146,-3,2,10,30,69,-27,-27,-14
1537917537814146,-7,-10,-18,-51,-102,-96,25,-7
1537917537815144,6,2,1,6,9,30,21,17
1537917537815144,-5,-2,-2,-4,2,-59,-21,-8
1537917537838082,0,2,4,5,-13,-72,11,1
1537917537838082,4,3,0,-2,-56,39,12,3
1537917537839079,-4,-2,-2,-2,14,39,-2,-3
1537917537839079,-2,0,4,12,22,124,6,-2
1537917537860024,5,-1,-10,-19,-48,-81,19,13
1537917537860024,-1,-1,0,0,-56,-6,2,0
1537917537861021,0,3,8,27,86,60,-15,-4
1537917537861021,-10,-12,-20,-52,-86,-32,-3,-12
1537917537873986,0,-1,-4,-9,25,37,9,3
1537917537873986,0,3,10,27,80,-46,-19,-3
1537917537874984,-1,-2,-2,-4,7,68,1,-4
1537917537874984,-3,1,1,3,-5,34,9,-4
1537917537896925,-1,5,17,48,125,127,-25,-5
1537917537896925,-5,-12,-31,-77,-70,-93,21,1
1537917537897922,0,0,-3,-6,77,41,4,2
1537917537897922,3,3,5,10,63,28,-5,7
1537917537919864,-3,-4,-5,-15,-34,117,18,0
1537917537919864,4,7,15,45,80,86,-19,0
1537917537920861,-2,-2,-2,-6,-44,-67,-3,-3
1537917537920861,2,-2,-3,-5,-9,39,15,1
1537917537934825,7,6,4,14,23,-51,4,10
1537917537934825,-3,2,9,33,99,1,-32,-8
1537917537934825,-7,-14,-24,-56,-128,-128,15,-2
1537917537934825,3,2,5,16,15,-45,-9,0
1537917537956765,-3,-1,-1,-8,-6,80,15,0
1537917537956765,2,5,3,12,24,11,4,3
1537917537957763,-2,-1,3,8,9,-35,-14,-1
1537917537957763,-3,2,6,17,42,-21,-9,-7
1537917537979703,-3,-5,-4,-7,30,90,16,3
1537917537979703,9,2,1,8,16,63,9,15
1537917537980701,-6,-1,-4,-15,-28,21,-2,-12
1537917537980701,6,-3,-8,-14,-39,16,-3,20
1537917537994664,-2,-1,-2,-8,-1,-7,-6,-5
1537917537994664,2,2,7,12,-7,-16,11,0
1537917537995661,3,2,5,13,25,12,3,5
1537917537995661,-2,-1,0,1,-10,-39,0,-3
1537917538016605,-8,-2,-1,1,13,-61,-24,-14
1537917538016605,4,5,8,24,80,1,10,4
1537917538017602,1,-4,-12,-27,-87,-46,8,10
1537917538017602,-5,-3,-1,2,80,44,-20,-8
1537917538040541,-2,-2,-2,-11,-80,-124,7,-5
1537917538040541,-1,-1,-3,-9,-65,-32,6,-5
1537917538040541,0,-1,3,3,-24,-21,1,2
1537917538040541,1,1,3,8,10,-17,-8,-1
1537917538054504,0,-2,-3,-2,30,59,-2,-1
1537917538054504,-3,-1,3,11,45,56,-9,-4
1537917538055501,0,6,10,29,90,14,-19,-4
1537917538055501,-3,-5,-7,-16,-34,15,3,-9
1537917538077442,4,-3,-6,-9,-19,-45,-2,10
1537917538077442,-6,0,0,3,46,76,-11,-8
1537917538077442,3,-3,-7,-16,-41,-42,4,7
1537917538077442,-3,-1,-4,-8,-19,12,10,-2
1537917538100381,1,1,1,-2,14,-17,5,0
1537917538100381,-4,0,3,8,34,50,-17,-9
1537917538100381,-3,0,1,1,6,55,0,-7
1537917538100381,0,1,1,6,-5,-51,4,-1
1537917538114344,-2,0,-1,2,4,-102,-13,-2
1537917538114344,-1,-3,-6,-18,-48,-4,5,0
1537917538115341,2,2,5,9,46,12,0,-2
1537917538115341,-3,-4,-9,-19,-115,-24,15,0
1537917538137282,1,3,5,15,71,54,-11,1
1537917538137282,-5,-5,-3,-8,-30,26,5,-4
1537917538137282,-1,0,2,5,52,32,1,2
1537917538137282,4,1,1,5,20,-1,-9,-2
1537917538160222,-3,-3,-5,-11,-50,-7,6,-2
1537917538160222,-1,2,3,15,62,38,-17,-4
1537917538161219,-1,-3,-5,-10,-26,72,0,-5
1537917538161219,-5,-4,-8,-23,-82,-116,-5,0
1537917538174184,-4,-3,-3,-7,-10,31,-3,0
1537917538174184,2,1,4,9,59,-83,-8,2
1537917538182163,-5,-5,-8,-13,-29,-3,-7,-6
1537917538182163,1,2,3,7,37,-2,4,1
1537917538197122,0,-2,-2,-2,-2,55,2,-2
1537917538197122,-2,0,2,8,6,73,2,-3
1537917538197122,1,-2,-3,0,-12,-69,-7,1
1537917538197122,1,0,0,1,10,-1,4,-2
1537917538220061,3,-1,3,8,77,68,2,2
1537917538220061,-1,-1,-3,-7,-39,-29,1,-2
1537917538221059,-2,3,5,15,70,89,0,-4
1537917538221059,0,-3,-3,-7,-24,-28,4,3
1537917538234024,-1,1,1,4,42,7,-2,-2
1537917538234024,-2,-2,-5,-11,-51,-36,9,0
1537917538242003,3,-1,2,3,4,14,-3,3
1537917538242003,-2,0,4,12,46,-8,-10,-1
1537917538257960,-3,-1,-4,-6,-33,18,9,0
1537917538257960,3,1,1,1,26,5,-2,1
1537917538257960,-5,0,-1,-2,-11,21,1,-3
1537917538257960,0,0,1,5,32,-13,-6,0
1537917538279901,2,-1,-4,-7,-27,-23,-2,1
1537917538279901,-1,-2,-5,-12,-20,-37,5,4
1537917538280899,0,2,3,18,63,49,-5,-4
1537917538280899,4,1,-1,-5,-37,2,9,6
1537917538293864,0,0,-2,-5,-29,-5,1,0
1537917538293864,-1,-3,-1,-3,-7,66,2,-1
1537917538301842,3,0,-2,-6,-34,-128,7,6
1537917538301842,-4,-1,1,1,9,17,2,-8
1537917538317800,1,1,2,6,43,36,3,0
1537917538317800,-1,-2,-1,-3,-23,-12,-3,-1
1537917538318797,2,2,5,12,14,-96,-2,1
1537917538318797,-4,-5,-10,-20,-56,29,-3,-6
1537917538339741,-3,0,0,4,21,-40,-3,-1
1537917538339741,1,-1,1,4,23,61,2,3
1537917538340739,-4,-4,-4,-11,-20,-42,-6,-5
1537917538340739,1,0,3,8,49,80,3,1
1537917538353704,4,0,0,0,-3,41,-3,6
1537917538353704,-1,-2,-5,-10,-39,-98,2,-1
1537917538361682,0,-1,-1,0,1,55,0,2
1537917538361682,-1,-3,4,9,20,-2,-5,-2
1537917538377640,2,1,-1,-2,-13,-18,7,0
1537917538377640,0,-2,-3,-10,-40,-25,-2,0
1537917538378638,0,-4,-3,-4,-4,19,1,-1
1537917538378638,-1,1,0,2,17,-18,-1,1
1537917538400578,-3,-1,1,0,-10,-11,0,-3
1537917538400578,0,-1,-2,1,3,1,-5,0
1537917538400578,-2,1,5,15,60,8,-1,-2
1537917538400578,0,-3,-9,-15,-65,-54,8,1
1537917538413544,-5,-5,-2,-6,-19,18,-5,-7
1537917538413544,5,1,0,-1,-25,-95,-4,13
1537917538421522,3,1,3,10,29,52,4,2
1537917538421522,-1,-1,2,2,20,-15,0,0
1537917538437480,-1,-1,-2,-8,-30,-29,-2,-2
1537917538437480,-2,0,0,-3,-8,12,4,-3
1537917538438477,1,1,1,5,4,-10,2,2
1537917538438477,-1,1,1,5,18,67,-5,2
1537917538460419,6,-2,-4,-9,-21,-58,-4,12
1537917538460419,-3,-1,2,12,58,85,-4,-3
1537917538460419,-1,-1,-2,-6,-32,55,7,-3
1537917538460419,-3,-2,-1,-2,-12,-16,-6,-4
1537917538473384,-4,-5,-8,-15,-21,-3,-5,-4
1537917538473384,-2,1,2,6,23,11,-9,-5
1537917538482360,-2,-3,-3,-9,-33,24,5,3
1537917538482360,0,2,5,14,44,14,-6,-1
1537917538497320,-1,-1,-1,-2,-41,-64,3,-1
1537917538497320,-1,-2,-1,1,15,7,-1,-2
1537917538498317,0,-1,0,-2,5,-31,-10,-2
1537917538498317,0,1,2,4,35,28,-3,-1
1537917538520259,-2,-1,1,2,8,12,1,-4
1537917538520259,1,0,0,2,1,-67,7,5
1537917538521256,-2,-1,0,-2,-6,-10,-7,-5
1537917538521256,3,2,1,2,14,40,3,3
1537917538542200,-6,-1,-1,5,28,5,-16,-5
1537917538542200,-5,-2,-1,1,14,70,5,-8
1537917538544195,1,-3,-7,-18,-50,-88,-11,5
1537917538544195,0,-1,-3,-8,-48,-36,7,1
1537917538557160,-3,1,8,18,92,40,-14,-7
1537917538557160,0,-3,-5,-11,-36,-73,-6,-1
1537917538565139,-3,-4,-6,-9,-13,-65,-7,-3
1537917538565139,-5,-1,-2,1,36,54,-2,-3
1537917538580098,-2,-2,-2,-5,-38,-27,-3,-4
1537917538580098,-4,-3,-1,-2,1,1,-5,-3
1537917538581096,-1,0,-1,-5,-36,-24,4,0
1537917538581096,1,0,1,8,57,39,-5,3
1537917538603037,-2,2,5,19,93,5,-13,-3
1537917538603037,-3,-4,-13,-34,-110,-113,3,-4
1537917538604034,-2,0,2,6,48,107,-4,-3
1537917538604034,1,-1,-1,-4,-23,-108,-8,0
1537917538617000,1,1,-1,-3,-19,42,9,1
1537917538617000,1,2,4,10,40,75,0,1
1537917538623981,-4,-3,-3,-3,-18,-66,-8,-4
1537917538623981,-2,-3,-3,-3,-11,42,1,-5
1537917538639939,8,3,-1,-7,-39,-111,24,20
1537917538639939,-6,-3,-1,-4,28,103,-2,-11
1537917538641934,-1,0,1,-3,-10,-21,14,0
1537917538641934,4,0,1,1,40,3,1,7
1537917538662879,-8,-6,-4,-7,-36,85,-2,-10
1537917538662879,1,3,9,30,125,34,-42,-6
1537917538663876,-4,-7,-13,-36,-89,-2,8,-2
1537917538663876,0,-2,-1,-3,-20,-39,7,2
1537917538676841,0,1,-1,-3,5,-26,9,3
1537917538676841,3,1,3,7,5,33,7,5
1537917538683823,2,4,7,22,92,126,-5,2
1537917538683823,-1,0,0,1,0,-30,2,1
1537917538699779,-3,-2,1,1,-20,-12,-1,-6
1537917538699779,-1,-3,-9,-16,-51,-42,2,-1
1537917538701774,0,-2,-4,-6,-46,-3,11,3
1537917538701774,-3,0,-3,-4,-34,-12,10,-4
1537917538722717,-2,-3,-3,-7,-27,-74,-12,-1
1537917538722717,-2,-3,-3,-5,-3,75,13,-1
1537917538723715,1,1,5,14,52,50,4,0
1537917538723715,-1,0,3,7,3,-13,-4,-3
1537917538736680,0,-1,-3,-6,-49,-47,-8,-2
1537917538736680,-1,-4,-7,-14,-68,-109,10,2
1537917538743661,1,2,2,7,48,68,-3,-2
1537917538743661,-1,-2,-3,-8,-20,60,0,-2
1537917538760616,0,1,3,15,116,-51,-14,-3
1537917538760616,-1,-4,-4,-12,-27,35,9,-2
1537917538761614,4,2,6,16,87,-48,-8,3
1537917538761614,-3,-4,-7,-9,-19,8,-10,-6
1537917538782558,-1,0,2,3,9,100,13,-1
1537917538782558,2,3,4,5,-32,-70,-6,4
1537917538784552,-5,-4,-4,-5,-15,-73,4,-2
1537917538784552,-3,-2,-1,-6,-33,-48,0,-5
1537917538796520,0,-2,-3,-3,16,78,6,3
1537917538796520,0,0,0,4,35,-46,0,0
1537917538803501,-2,0,-1,-3,-24,82,5,-7
1537917538803501,5,-1,-2,-4,-24,-92,1,12
1537917538820456,2,2,5,11,24,90,9,2
1537917538820456,-3,-3,-5,-11,-46,-32,3,0
1537917538821454,-1,-1,-1,2,8,-24,-10,-2
1537917538821454,-6,-1,0,1,33,82,-6,-4
1537917538842399,0,-1,0,0,33,9,-7,-3
1537917538842399,1,-3,-6,-14,-60,-99,4,3
1537917538844393,4,1,0,2,20,2,-1,2
1537917538844393,-5,-2,-1,-5,-7,6,-13,-8
1537917538857358,0,-2,-4,-10,-19,52,-7,0
1537917538857358,4,1,7,13,44,-14,10,3
1537917538863341,-5,-4,-7,-13,-44,-14,-5,-5
1537917538863341,1,0,2,4,-7,-67,3,1
1537917538880296,-4,-1,0,3,42,71,-6,-7
1537917538880296,-3,-2,1,3,5,-44,-16,-1
1537917538881294,0,1,-1,5,26,-52,7,0
1537917538881294,0,-4,-11,-18,-57,-58,0,-1
1537917538902238,-4,-3,-3,-9,-11,4,3,0
1537917538902238,1,0,3,10,77,17,-3,0
1537917538904233,1,2,7,23,110,75,-7,1
1537917538904233,-1,-1,0,-2,5,27,4,-2
1537917538917199,-2,-3,-4,-11,-51,-77,5,1
1537917538917199,-2,2,0,7,46,100,-4,-2
1537917538924180,-1,-1,0,0,-24,-6,-2,0
1537917538924180,0,1,3,6,21,20,6,2
1537917538940137,1,2,5,13,57,44,3,-1
1537917538940137,-2,-2,-5,-12,-69,-46,-1,-3
1537917538941134,-4,-6,-9,-24,-89,-98,-3,-2
1537917538941134,3,4,4,6,24,83,5,2
1537917538963075,-1,-3,-3,-8,-52,-95,5,-3
1537917538963075,-1,-1,-1,-1,3,23,2,-4
1537917538964073,-1,-2,-1,-6,-18,-29,-3,2
1537917538964073,-4,-3,3,14,73,13,-13,-6
1537917538977038,0,-4,-14,-35,-118,-115,5,1
1537917538977038,0,0,-1,0,23,45,4,-1
1537917538984019,-1,1,2,1,6,7,-3,-3
1537917538984019,0,1,3,9,44,66,-2,1
1537917538999976,2,0,1,5,32,28,-1,1
1537917538999976,-3,-3,-1,-4,-33,14,-2,-3
1537917539001971,0,-1,-2,-2,-29,-39,14,2
1537917539001971,3,0,-3,-4,-9,-31,0,3
1537917539022915,-4,0,-1,2,20,85,0,-4
1537917539022915,7,3,0,-2,-28,-91,-2,8
1537917539023912,-1,0,1,2,9,36,0,3
1537917539023912,-2,0,-2,-5,-23,-34,2,-2
1537917539035880,0,0,-1,1,-7,18,-5,-1
1537917539035880,-2,1,6,21,107,127,-7,-3
1537917539044856,0,0,-1,-3,-29,-43,-14,-3
1537917539044856,-3,-2,-1,5,83,59,-10,-5
1537917539059816,-3,-5,-13,-32,-73,-105,-8,-3
1537917539059816,-3,-1,-1,2,24,84,8,-3
1537917539061811,3,3,7,19,89,-30,-10,-1
1537917539061811,-2,0,-2,-1,42,-56,20,2
1537917539082755,-3,-5,-8,-15,-63,-17,-5,-5
1537917539082755,-1,0,-3,-7,-3,42,0,-1
1537917539083753,3,0,1,9,31,51,-5,5
1537917539083753,2,4,4,13,69,63,7,-1
1537917539096718,-3,-2,0,0,-3,18,-2,-4
1537917539096718,0,-5,-6,-12,-61,-128,-4,3
1537917539104697,1,3,5,14,82,127,8,0
1537917539104697,-4,-5,-7,-17,-69,-66,-17,-7
1537917539119657,-4,2,5,11,21,-57,1,-5
1537917539119657,4,0,1,8,7,30,17,3
1537917539121652,-1,-4,-11,-24,-92,29,-7,-4
1537917539121652,-3,-1,-1,-2,-2,39,5,-1
1537917539150574,-3,1,5,9,46,45,-4,-9
1537917539150574,-1,-4,-6,-16,-77,-85,2,2
1537917539151572,1,-2,-1,-4,-9,-2,7,2
1537917539151572,2,-1,-3,0,-16,45,-6,1
1537917539156558,0,2,7,18,61,64,5,6
1537917539156558,-4,-2,-6,-12,-34,11,6,-4
1537917539165535,0,-1,-1,-1,19,53,1,0
1537917539165535,2,1,1,6,23,42,-6,1
1537917539180495,-2,-4,-8,-15,-41,-40,-11,-10
1537917539180495,3,-1,-1,-8,-24,-46,-3,11
1537917539181493,6,-1,-6,-17,-111,-128,19,14
1537917539181493,0,2,5,13,34,51,-10,-1
1537917539202436,4,5,6,23,98,112,4,4
1537917539202436,-4,1,2,6,32,47,-15,-7
1537917539204431,-11,-6,-10,-21,-69,-48,-4,-16
1537917539204431,-1,-3,0,5,22,18,-2,-1
1537917539216399,2,0,-4,-9,-70,-75,-6,4
1537917539216399,-4,-4,-10,-22,-29,-84,3,-3
1537917539225374,-2,1,7,20,127,63,-13,-4
1537917539225374,-3,0,6,12,54,71,-8,-4
1537917539240334,-5,-11,-21,-52,-128,-105,13,-2
1537917539240334,0,3,6,11,52,127,2,-1
1537917539241331,-2,-1,-1,4,20,51,-6,-1
1537917539241331,2,-2,-4,-8,-33,-67,8,6
1537917539261278,4,3,10,24,82,94,-10,2
1537917539261278,-1,2,2,8,9,-80,-4,-3
1537917539270254,-2,-3,-4,-7,-10,3,0,-2
1537917539270254,-5,0,1,2,-3,29,4,-6
1537917539276238,3,0,0,2,-19,-78,-5,5
1537917539276238,-4,0,2,11,83,108,-12,-9
1537917539285215,-1,-1,0,-2,-31,44,-7,0
1537917539285215,-2,-1,-2,-3,-37,-128,-11,-3
1537917539300175,2,-2,0,0,-14,-63,-6,2
1537917539300175,3,1,3,10,71,116,16,3
1537917539301173,-3,-2,-4,-5,-25,-60,0,-5
1537917539301173,-2,-1,-1,-3,-27,17,7,0
1537917539323113,2,-1,-2,-8,-62,-34,6,3
1537917539323113,-1,0,1,5,29,6,2,-2
1537917539324113,5,3,3,10,47,-8,4,6
1537917539324113,1,-2,-4,-11,-40,75,15,4
1537917539336080,-3,0,5,15,80,127,-7,-4
1537917539336080,3,-2,-1,-1,-30,-97,-2,0
1537917539345056,-2,0,-3,-8,-53,-60,6,0
1537917539345056,-5,1,-2,-4,-9,-80,11,-14
1537917539360015,4,3,6,22,100,127,1,6
1537917539360015,1,-1,-2,-9,-66,-103,5,5
1537917539362011,-1,0,-1,0,17,-7,-4,-4
1537917539362011,-1,1,2,6,40,2,-18,-4
1537917539382954,-5,-3,-3,-11,-53,-84,14,-7
1537917539382954,-1,-2,-7,-20,-47,-7,14,-4
1537917539383952,5,0,-1,-2,14,47,22,10
1537917539383952,1,-2,-1,0,9,-24,-6,1
1537917539395919,0,1,5,8,31,32,5,2
1537917539395919,-1,-1,-6,-10,-53,-57,-1,2
1537917539404897,-4,0,1,4,2,-5,-4,-9
1537917539404897,5,-2,-1,-5,-21,58,7,9
1537917539419857,3,2,5,15,54,-21,4,5
1537917539419857,-2,-2,-2,-9,-13,-10,8,0
1537917539421852,-2,-1,2,5,36,55,-4,-6
1537917539421852,3,0,0,-1,-3,-119,0,8
1537917539442795,-2,0,0,-3,-4,-11,-6,-2
1537917539442795,-2,2,7,21,77,7,-28,-8
1537917539443792,-8,-6,-9,-15,-5,35,-17,-9
1537917539443792,-2,-4,-11,-23,-108,-51,12,2
1537917539464735,0,-1,0,0,21,9,-5,2
1537917539464735,1,2,2,5,23,18,4,-1
1537917539466732,-1,-1,-2,-1,-16,-41,-9,-1
1537917539466732,1,0,1,4,23,38,-10,-5
1537917539479694,-4,-5,-6,-17,-59,-53,0,-3
1537917539479694,-2,1,5,16,56,90,-5,1
1537917539481691,0,-1,1,6,5,-88,-1,1
1537917539481691,-1,-3,-6,-7,-6,-17,-2,1
1537917539501635,1,3,2,12,60,83,10,1
1537917539501635,-1,-3,-1,1,21,45,-11,0
1537917539510611,1,4,6,12,44,-19,21,-4
1537917539510611,-1,0,-1,5,56,102,-11,-1
1537917539525571,-2,-1,-1,-2,5,-5,6,-2
1537917539525571,-3,-4,-8,-15,-55,-36,0,-2
1537917539526569,-2,-3,-4,-8,-34,13,-3,-1
1537917539526569,-2,-1,3,2,-5,-5,-10,-4
1537917539540531,0,-1,-1,4,15,-60,-7,0
1537917539540531,3,2,3,7,29,53,4,4
1537917539541529,-2,-2,-2,-3,-22,-17,-10,-1
1537917539541529,0,2,1,4,9,-99,6,2
1537917539562472,-2,-4,-6,-11,-40,-75,-22,-5
1537917539562472,-3,-3,-4,-5,-43,-56,3,-4
1537917539564467,2,2,0,5,16,-26,2,5
1537917539564467,-2,-4,-4,-12,-27,37,-1,0
1537917539585411,-2,4,8,22,111,65,-1,-6
1537917539585411,-5,-6,-7,-16,-69,-40,-9,-5
1537917539586408,2,-1,-2,-6,-39,11,0,3
1537917539586408,-3,0,0,-1,-7,-52,0,-4
1537917539600371,-3,1,1,5,6,9,-3,-2
1537917539600371,3,1,-1,5,51,-19,-2,2
1537917539601369,-4,-3,-1,3,57,105,-8,-6
1537917539601369,-1,-3,-9,-20,-79,-22,8,-3
1537917539622313,1,1,-2,-4,-27,-29,6,4
1537917539622313,-1,2,4,16,82,12,-4,1
1537917539624307,0,-1,2,10,47,-9,-12,-1
1537917539624307,-1,-4,-6,-14,-74,-105,-1,2
1537917539645251,-1,-2,1,0,12,81,-4,0
1537917539645251,0,0,3,7,56,-5,8,4
1537917539646249,3,-2,-3,-8,-1,-6,0,5
1537917539646249,0,2,5,13,63,83,0,-1
1537917539667193,1,1,-3,-7,-28,-36,3,2
1537917539667193,0,0,0,2,-31,-43,-2,-3
1537917539669187,-1,0,-1,-3,-19,-16,0,-2
1537917539669187,0,0,1,4,20,-79,-8,0
1537917539682153,-2,-2,-2,-4,-19,102,-1,-4
1537917539682153,1,-1,-1,0,21,83,4,4
1537917539684148,-3,-1,-2,-5,-5,12,1,-3
1537917539684148,3,-2,-4,0,36,61,-2,7
1537917539705091,-1,-2,-3,-9,-13,-55,-3,0
1537917539705091,1,2,4,8,21,-5,-2,0
1537917539706089,-3,-2,-5,-9,-47,-33,6,-3
1537917539706089,-1,0,4,9,36,-8,-14,-7
1537917539719054,-4,-4,-5,-8,-28,35,-2,-4
1537917539719054,-2,-3,-6,-18,-71,-62,0,-1
1537917539726036,0,-1,2,12,53,51,-7,2
1537917539726036,-4,-2,-2,-1,-5,65,-2,-6
1537917539742990,-1,-1,-2,-2,7,-1,-4,1
1537917539742990,1,1,1,1,-14,-43,0,-2
1537917539743988,-1,0,-1,-1,-12,52,2,-3
1537917539743988,-1,-1,-3,-5,-22,11,7,3
1537917539764931,1,0,-4,-11,-48,-53,13,2
1537917539764931,1,-2,-1,-3,-4,17,-6,3
1537917539766926,-1,2,4,12,70,77,-3,-3
1537917539766926,-2,-1,-3,-4,-17,7,1,0
1537917539779891,2,1,1,4,38,5,-2,2
1537917539779891,-3,-1,1,1,32,87,-2,-4
1537917539785876,0,-2,0,-5,-59,-44,-2,0
1537917539785876,0,1,1,1,11,-34,-2,-3
1537917539802830,-3,-3,-2,-8,-20,-22,-3,-5
1537917539802830,-4,-1,-1,0,-11,7,0,-6
1537917539803828,0,-2,0,-4,-2,-15,-4,4
1537917539803828,1,-1,-1,-2,4,25,2,8
1537917539825769,2,1,4,10,27,-73,-4,1
1537917539825769,-3,-3,-3,-2,-5,7,-5,-5
1537917539826766,-2,-2,-7,-16,-55,-40,15,1
1537917539826766,0,-1,1,0,-3,-5,2,-2
1537917539839731,-2,-1,0,3,0,-64,-1,-2
1537917539839731,-2,-3,-3,-5,-19,28,0,-1
1537917539846713,1,1,3,3,-2,-86,0,0
1537917539846713,1,-2,-1,-1,-2,16,1,-2
1537917539862670,-1,-2,0,3,27,48,-3,-1
1537917539862670,-1,-2,0,1,14,3,-7,-2
1537917539863667,-1,-2,-1,1,6,-16,-2,0
1537917539863667,-2,2,0,3,15,28,0,1
1537917539885609,-2,-3,1,1,10,-18,-5,-2
1537917539885609,0,0,-1,-1,-19,7,3,0
1537917539886606,-1,-1,-2,-7,-28,52,3,-3
1537917539886606,-1,0,2,3,30,-1,-11,-3
1537917539899572,-3,0,-1,-1,-17,38,0,-2
1537917539899572,-3,-3,-4,-7,-22,-21,-2,-1
1537917539906553,-1,-1,0,-2,-29,-42,0,0
1537917539906553,-3,0,-1,-1,-2,27,-1,-5
1537917539922510,1,-2,-2,-6,-10,38,1,5
1537917539922510,2,3,2,1,-9,-85,-1,4
1537917539924505,-1,0,-2,3,23,-8,-5,-7
1537917539924505,-2,0,0,0,5,-4,3,0
1537917539945449,1,-1,1,3,16,-13,3,1
1537917539945449,-1,-2,-3,-4,-6,-56,-13,-3
1537917539946446,-1,-1,-1,-1,-3,24,1,-2
1537917539946446,0,0,0,0,-11,-30,-3,-2
1537917539958414,-1,1,0,1,17,2,4,-1
1537917539958414,1,0,-1,-2,-6,-6,0,-2
1537917539967390,0,1,0,3,11,15,-5,1
1537917539967390,-3,-2,-1,-1,5,2,0,-3
1537917539983347,2,3,3,9,28,-25,2,1
1537917539983347,-3,-4,-5,-14,-44,64,3,-3
1537917539984345,0,0,-1,-3,16,22,-1,0
1537917539984345,2,0,3,5,21,28,8,1
1537917540005289,-2,-3,-4,-10,-32,-52,-6,-4
1537917540005289,1,-1,0,5,12,34,3,-2
1537917540006287,0,1,3,8,24,30,-5,-1
1537917540006287,0,-1,-4,-5,5,-16,8,2
1537917540019251,-1,-1,-3,-8,-22,26,3,-1
1537917540019251,-1,0,0,4,20,-33,-4,0
1537917540027230,-2,-2,-1,0,9,37,-3,-3
1537917540027230,0,0,1,-2,-16,-36,-6,-1
1537917540042190,-3,-3,-5,-7,-35,-15,-2,-1
1537917540042190,0,-1,0,1,0,-37,1,0
1537917540044185,-1,-2,1,1,10,24,3,2
1537917540044185,0,-1,-1,-1,-24,-30,-3,1
1537917540065129,-3,-1,-2,-2,11,23,-4,-2
1537917540065129,0,0,2,6,36,33,-1,-1
1537917540066126,0,-2,1,5,44,-77,-13,-3
1537917540066126,-2,-3,-6,-13,-49,-71,9,-1
1537917540079092,2,2,0,3,25,42,-3,5
1537917540079092,1,0,-1,4,24,44,-2,0
1537917540088068,-1,1,-2,-2,-1,-28,-6,-3
1537917540088068,-2,-2,-1,-6,-19,31,0,-2
1537917540103027,-1,-2,-1,-4,-23,13,3,-3
1537917540103027,0,1,1,1,9,6,-4,0
1537917540104025,-1,-1,-2,-1,4,35,2,-2
1537917540104025,-1,0,4,11,39,12,-6,-6
1537917540124969,0,-1,-4,-9,-41,-88,-3,-1
1537917540124969,1,0,-2,-2,15,47,0,0
1537917540126964,-3,-2,-3,-9,-54,-31,3,-1
1537917540126964,1,1,1,2,15,-1,2,4
1537917540138932,-1,-1,0,3,15,11,-6,-1
1537917540138932,-2,-2,-2,-2,-12,-7,3,-3
1537917540147908,2,0,2,1,-8,38,6,1
1537917540147908,-2,-1,-2,-5,-14,-8,-7,-2
1537917540162867,1,0,0,1,-1,-12,3,-2
1537917540162867,-1,0,-1,-3,-13,-9,-2,-2
1537917540163865,-1,0,0,5,19,16,4,1
1537917540163865,-1,0,0,3,-7,-31,-4,-1
1537917540184809,0,-2,-2,-6,-32,67,8,-1
1537917540184809,-1,-3,-3,-10,-31,-37,0,-2
1537917540186804,0,1,0,2,23,16,-2,-2
1537917540186804,-3,-2,-1,0,18,-26,1,-1
1537917540198772,2,0,-2,-2,-13,-32,1,-1
1537917540198772,-1,0,4,8,22,50,-1,-1
1537917540207748,-1,-2,-4,-8,-25,-39,-2,-1
1537917540207748,1,0,0,3,20,43,-1,1
1537917540222708,-3,0,2,1,17,17,-3,-2
1537917540222708,-2,-1,0,0,4,-30,-4,-1
1537917540223705,0,0,0,-2,2,72,4,-1
1537917540223705,0,-2,-4,-5,-49,7,2,-2
1537917540244649,-1,-2,-1,1,7,7,-4,-2
1537917540244649,-2,0,-2,-1,12,2,-6,-4
1537917540246644,-1,-2,-4,-4,-25,-37,-4,1
1537917540246644,-1,-2,2,4,48,-6,-8,-4
1537917540258612,-5,-6,-7,-19,-78,-41,2,-5
1537917540258612,-1,-1,-2,-2,-6,-11,0,0
1537917540267588,0,1,3,4,18,16,1,1
1537917540267588,-2,-3,-4,-6,-16,1,-7,-4
1537917540282548,0,1,2,11,54,6,-6,1
1537917540282548,-2,-2,-3,-8,-45,-25,1,0
1537917540283545,-2,-2,-2,-6,-27,-39,-1,-2
1537917540283545,0,1,1,0,-2,25,-2,1
1537917540305486,-2,-2,-1,-1,-2,-18,-1,-2
1537917540305486,1,0,1,3,1,5,6,1
1537917540306484,4,1,1,7,28,-77,-1,6
1537917540306484,-5,-4,-7,-10,-40,-64,0,-4
1537917540318452,-2,0,-2,-4,-2,12,-3,0
1537917540318452,-2,1,1,4,45,60,0,-1
1537917540327428,0,-2,-1,-4,-45,-18,5,1
1537917540327428,2,0,0,1,1,61,4,1
1537917540343385,0,0,0,0,5,-17,-1,0
1537917540343385,-3,-1,-1,-1,-4,-8,-4,-1
1537917540344383,-2,0,0,2,12,31,-5,-1
1537917540344383,1,1,2,5,22,41,3,1
1537917540365327,-3,0,5,14,48,58,-3,-4
1537917540365327,-3,-3,-8,-17,-71,-46,-4,-2
1537917540366324,-3,-3,-4,-8,-38,-13,7,-1
1537917540366324,1,0,-1,-1,6,26,1,1
1537917540378292,-2,0,5,9,51,34,-9,-4
1537917540378292,0,-1,-4,-7,-51,-94,6,2
1537917540387268,0,-1,-2,-1,3,-4,-2,1
1537917540387268,-1,-2,-2,0,-9,-7,-2,-3
1537917540402228,0,1,1,2,11,-12,3,2
1537917540402228,0,-2,1,3,33,49,-4,0
1537917540404222,-3,0,-2,-4,-14,-21,0,-3
1537917540404222,0,0,1,3,5,5,4,0
1537917540425167,0,-2,-1,-5,-23,-64,-6,-1
1537917540425167,2,1,2,4,-2,37,2,1
1537917540426165,-1,-2,-3,-6,12,65,-3,-2
1537917540426165,0,0,-1,4,38,-4,-8,-1
1537917540447108,-2,-4,-7,-15,-76,-36,4,0
1537917540447108,0,2,1,8,29,-24,-3,-2
1537917540449102,0,-2,0,2,20,14,-13,3
1537917540449102,2,2,0,3,0,10,8,0
1537917540463065,1,-1,-1,1,0,-6,4,0
1537917540463065,3,1,1,2,23,34,5,6
1537917540464063,-1,0,1,4,20,28,-6,-4
1537917540464063,-4,-3,-6,-8,-37,-49,-8,-4
1537917540485006,1,0,-4,-3,-17,-32,5,3
1537917540485006,2,0,3,4,21,-19,7,1
1537917540487001,-1,0,1,5,30,8,-7,-3
1537917540487001,-1,-3,-4,-7,-30,-9,5,0
1537917540507945,-2,-2,1,1,13,50,0,-2
1537917540507945,1,2,-1,2,5,-6,-5,0
1537917540508943,0,-1,-5,-7,-22,19,3,-3
1537917540508943,-1,-1,0,0,8,-21,2,2
1537917540522905,1,0,0,2,-5,10,3,2
1537917540522905,-2,-2,-1,0,16,48,-8,-6
1537917540523903,-2,-2,-3,-6,-39,-89,4,0
1537917540523903,-1,0,1,6,43,82,-7,0
1537917540544846,-2,-2,-3,-7,-23,29,6,-6
1537917540544846,-3,0,0,-2,-13,6,-2,-1
1537917540546841,0,0,1,5,12,-62,-4,-3
1537917540546841,-3,-2,-2,-6,1,28,-4,-3
1537917540567785,0,0,-1,1,21,-7,-11,-2
1537917540567785,-5,-4,-7,-15,-43,-23,-3,-4
1537917540568783,-1,-2,0,-1,-19,16,7,-2
1537917540568783,0,-2,-1,0,-23,-33,-1,-2
1537917540581748,-1,-2,-1,3,18,11,-4,0
1537917540581748,-2,-1,1,7,39,57,0,-3
1537917540588729,3,3,3,-1,-9,-5,-3,3
1537917540588729,0,-2,-3,-7,-20,-75,-6,1
1537917540604686,-1,-2,-3,-3,-2,7,-2,-3
1537917540604686,-2,-1,-2,-1,-18,47,6,1
1537917540606681,0,-2,0,-2,-2,8,1,1
1537917540606681,0,0,0,2,-25,-15,4,3
1537917540627625,-3,-1,-1,0,11,71,-3,-4
1537917540627625,3,0,1,7,26,-109,9,7
1537917540628623,-1,-2,-3,-1,2,44,-5,-2
1537917540628623,1,-1,-3,-4,12,53,0,2
1537917540641588,-3,-3,-4,-4,5,3,-8,-3
1537917540641588,-1,-2,0,0,9,-2,-9,-3
1537917540648569,-1,0,-2,-3,-30,38,-5,-2
1537917540648569,-2,-1,0,-1,1,-109,5,-2
1537917540665524,-1,0,1,0,-26,38,1,-2
1537917540665524,-6,-2,-3,-10,-63,-53,-4,-7
1537917540666521,4,1,1,6,35,11,-4,3
1537917540666521,-3,-3,-2,-2,19,43,-9,-6
1537917540687465,0,0,0,0,14,49,5,-1
1537917540687465,-1,-1,-3,-6,-43,-59,-7,-1
1537917540689460,-2,-1,-1,-2,0,41,7,-2
1537917540689460,-2,0,-1,-3,-32,-26,-2,0
1537917540702425,0,-1,1,5,29,-31,4,4
1537917540702425,0,-1,-2,-1,3,-5,-3,-1
1537917540708410,-2,-1,0,4,27,-5,0,-2
1537917540708410,1,0,0,2,2,29,2,2
1537917540725364,-2,0,-1,1,6,-17,-1,-1
1537917540725364,-1,-3,0,1,14,49,0,-1
1537917540726361,-2,0,0,-2,-11,-32,1,-2
1537917540726361,-1,0,0,0,3,41,4,-1
1537917540747305,1,0,0,-2,-11,-24,1,2
1537917540747305,1,-2,-1,1,12,9,-2,3
1537917540749300,-3,-1,-1,-1,-2,1,3,-2
1537917540749300,-1,0,1,3,7,4,-2,-1
1537917540762265,-1,0,0,1,4,-13,-3,0
1537917540762265,0,-1,-1,-3,3,18,1,0
1537917540768249,-4,-3,-1,-1,4,-4,2,-2
1537917540768249,8,19,1,1,0,14,-1,1
1537917540785204,4,-27,0,-1,-7,-17,1,3
1537917540785204,-14,-7,-1,2,7,28,-2,-6
1537917540786201,1,3,-3,-3,-4,-8,-1,0
1537917540786201,1,0,1,2,2,-3,1,2
1537917540807145,-1,4,-3,-4,-9,-7,-2,0
1537917540807145,6,0,-4,0,6,5,1,4
1537917540809140,-3,-11,-3,-4,4,-3,-1,-2
1537917540809140,-7,35,16,1,0,4,-1,-1
1537917540821108,5,-26,-4,2,0,-6,-1,-4
1537917540821108,2,-42,-1,1,2,8,1,-2
1537917540830084,9,32,-2,-1,-7,-10,-2,2
1537917540830084,4,-12,-6,-2,0,7,1,2
1537917540845044,-6,18,3,0,-2,-5,0,0
1537917540845044,-5,-1,2,-2,3,1,1,-3
1537917540846041,-6,-18,-2,0,-2,-1,1,0
1537917540846041,24,5,3,0,0,2,-1,2
1537917540867983,-9,7,-1,-3,1,-3,-1,2
1537917540867983,-9,-9,-5,-1,1,4,-2,-3
1537917540868980,-5,1,2,1,1,0,-1,-2
1537917540868980,-11,-16,-4,-1,-2,2,-1,-2
1537917540882943,-2,0,-3,-1,-2,-5,-1,-2
1537917540882943,9,17,1,2,3,7,1,1
1537917540889924,-7,-8,1,0,-3,-2,0,0
1537917540889924,-6,-12,-5,-1,0,-2,-1,-2
1537917540904884,5,2,2,-1,0,0,-1,1
1537917540904884,-6,11,2,0,0,0,1,0
1537917540906879,4,-1,-1,-1,1,0,-1,-1
1537917540906879,-6,-9,-6,-2,-2,1,2,-2
1537917540927822,-3,9,0,-2,0,-1,0,-2
1537917540927822,2,6,-2,-3,0,2,-2,2
1537917540933807,-2,-3,-3,-1,-2,-2,0,-1
1537917540933807,-4,-4,-2,-1,1,3,-1,0
1537917540940789,-4,-1,0,-1,-2,-2,-1,-1
1537917540940789,2,4,2,1,0,0,-1,-2
1537917540949764,5,-2,1,1,3,0,1,-1
1537917540949764,-5,-3,-3,-4,-2,0,-1,-2
1537917540964724,2,2,-1,1,-1,0,0,0
1537917540964724,1,2,-3,0,-2,0,0,2
1537917540966719,-2,2,1,-1,-2,0,-2,0
1537917540966719,-2,-4,-1,2,2,0,-1,-1
1537917540987663,-1,-2,-3,-2,-1,-1,0,-1
1537917540987663,2,3,-1,-2,-1,0,-1,3
1537917540993648,-1,-3,-2,-1,-1,0,1,0
1537917540993648,-2,-3,-2,-2,-1,-1,0,-1
1537917541001625,2,1,-1,1,0,-1,-1,-2
1537917541001625,-1,2,-1,0,-1,0,1,-5
1537917541010601,0,-1,-1,-1,0,-2,-1,-4
1537917541010601,0,-3,-2,-1,0,0,0,-4
1537917541025562,-1,1,0,2,1,0,-1,-2
1537917541025562,0,0,1,-3,-2,2,-2,-1
1537917541031546,-2,0,-1,0,-1,-2,-1,-1
1537917541031546,0,0,-2,-1,0,-1,-1,-1
1537917541047503,-1,0,-2,-1,-2,-4,-1,-1
1537917541047503,0,-1,0,1,3,0,0,0
1537917541049498,0,0,-2,-3,-1,0,-1,-2
1537917541049498,-1,-3,-1,1,1,-1,-2,-1
1537917541061466,-1,-1,0,0,-1,-1,-2,-1
1537917541061466,1,0,-1,-2,0,-1,-2,0
1537917541070442,0,0,0,-1,-1,-2,-2,1
1537917541070442,-2,0,0,-2,-1,-2,0,-1
1537917541084404,-1,-2,-1,-1,0,-2,-2,-4
1537917541084404,-1,0,0,0,-1,-1,-1,-1
1537917541091386,0,-2,-1,2,1,-1,-2,-1
1537917541091386,-1,0,-1,1,-1,1,-2,-1
1537917541107343,-2,-2,0,-1,-2,0,-1,-1
1537917541107343,-1,1,-2,-2,0,-3,-1,1
1537917541109338,-3,-3,0,-1,1,0,-2,-2
1537917541109338,-1,-2,-3,-1,-1,0,0,1
1537917541121306,1,0,-2,-3,0,0,1,0
1537917541121306,0,1,-1,0,-1,0,-1,-1
1537917541130282,-1,1,-1,-3,-2,-2,-1,-3
1537917541130282,6,-1,2,0,0,-1,-2,-1
1537917541145242,-4,-3,1,-1,0,-2,0,1
1537917541145242,10,9,-1,0,-2,0,-1,-1
1537917541152223,-1,-1,-2,-2,-1,-2,0,1
1537917541152223,20,-3,5,-1,-3,0,-2,1
1537917541167183,-26,-12,-5,2,1,1,-1,-1
1537917541167183,-5,19,26,-4,-3,-4,-4,-7
1537917541169178,-18,-13,-37,-2,1,1,2,-3
1537917541169178,10,-20,17,1,-2,-2,-3,-3
1537917541181146,30,33,-36,-9,1,2,0,7
1537917541181146,16,17,27,5,0,-1,0,5
1537917541190122,-2,-31,-16,2,-1,0,0,-4
1537917541190122,-46,-10,15,-5,-1,-1,-1,-6
1537917541204084,4,10,-20,0,-4,-3,-2,-5
1537917541204084,-16,-3,-12,6,5,3,6,7
1537917541211065,4,2,11,-2,-4,-6,-13,-7
1537917541211065,-5,-32,31,8,6,4,12,10
1537917541228020,-7,10,8,1,4,3,8,9
1537917541228020,-4,4,-5,-2,-3,-2,-1,5
1537917541229018,6,20,20,1,-4,-2,-8,-5
1537917541229018,-20,-27,-64,-20,-6,-4,-6,-12
1537917541240987,27,27,60,-3,-4,-6,-10,-2
1537917541240987,-4,-51,5,-1,-2,5,14,2
1537917541249962,-25,-5,-11,0,-2,-15,-102,-26
1537917541249962,-24,0,5,5,3,17,63,-10
1537917541263924,1,-40,-93,-11,-2,-19,-37,16
1537917541263924,28,15,11,10,6,-8,-10,18
1537917541270906,-3,15,40,6,3,13,58,15
1537917541270906,19,37,24,3,21,-5,-62,-28
1537917541287860,-9,2,39,8,14,38,22,-5
1537917541287860,-29,-5,-14,0,-10,-7,31,-15
1537917541288858,13,9,-1,-4,45,3,-45,-31
1537917541288858,29,-1,-2,34,54,60,63,30
1537917541300826,5,-24,4,1,-10,-51,31,-4
1537917541300826,-11,-13,-13,-10,-50,67,-14,-8
1537917541309802,-9,17,-16,-24,-30,-33,8,10
1537917541309802,18,20,-6,30,25,100,-10,0
1537917541324762,9,-25,7,-49,-88,-92,2,4
1537917541324762,-26,-14,-12,-35,88,89,-22,-12
1537917541330746,33,-36,-22,-27,-95,-74,36,29
1537917541330746,8,47,7,-19,-62,-52,-32,45
1537917541347701,-4,50,28,83,127,127,-51,14
1537917541347701,21,-6,-6,-9,-128,-92,51,18
1537917541348698,-9,-23,2,-2,120,89,-16,4
1537917541348698,-24,3,15,17,81,47,-8,-18
1537917541369642,-4,-23,-11,-55,-128,-50,0,-20
1537917541369642,24,35,19,48,127,124,-8,-15
1537917541371636,-2,-50,-24,14,-60,-83,31,10
1537917541371636,-53,-32,-26,4,34,-7,-16,-35
1537917541384603,-6,1,-25,7,46,62,40,10
1537917541384603,11,35,24,-8,-46,-79,-40,-30
1537917541391584,7,36,20,-36,-102,86,2,-22
1537917541391584,27,16,-7,-27,-25,-9,-9,7
1537917541407541,-10,5,-7,44,102,92,-3,1
1537917541407541,-20,-52,-36,-15,-35,-115,-30,-1
1537917541408538,3,-26,10,27,64,36,17,17
1537917541408538,7,73,27,-11,-28,-25,7,20
1537917541430479,-20,-74,-51,-2,24,12,-15,-18
1537917541430479,5,56,21,10,-1,-29,5,8
1537917541431477,-8,6,25,13,17,-19,3,0
1537917541431477,-31,-43,-42,1,-23,-18,-12,-8
1537917541444442,43,53,53,-9,-38,-22,8,-8
1537917541444442,-11,-70,-35,-8,-32,40,4,11
1537917541451423,-30,56,14,10,72,42,10,-13
1537917541451423,25,-21,-21,-10,54,-8,-12,-4
1537917541467381,39,40,15,-33,-117,-118,2,4
1537917541467381,-16,-36,-21,-3,1,44,-6,13
1537917541469375,23,7,-1,24,33,-78,0,14
1537917541469375,-32,-18,-4,-3,37,80,12,-22
1537917541490319,-17,-10,-14,-40,-38,12,-8,0
1537917541490319,22,18,-8,-8,-18,-8,2,-3
1537917541491317,-14,-10,-4,2,24,46,-3,-13
1537917541491317,6,12,-8,22,-17,-110,-1,8
1537917541504282,33,-3,28,17,1,-2,19,20
1537917541504282,2,-31,-1,1,-1,-4,0,-34
1537917541511263,-4,-6,-28,-1,10,-12,3,23
1537917541511263,16,-1,25,-6,-11,-15,4,7
1537917541527220,-35,-3,16,25,52,31,-8,-16
1537917541527220,-7,60,-8,-7,11,73,6,3
1537917541529215,17,-22,6,-21,-99,-78,3,12
1537917541529215,0,-10,-13,-4,-21,46,-7,-15
1537917541550159,-49,32,7,9,42,-46,-11,-5
1537917541550159,-21,-41,-9,-19,-29,-55,-11,-7
1537917541551157,32,48,-4,0,17,17,-4,12
1537917541551157,16,-15,-3,-18,-60,-33,4,18
1537917541564122,-15,-21,9,0,-5,1,-9,-2
1537917541564122,0,0,-1,15,47,1,6,3
1537917541573098,-6,2,3,6,-10,16,3,-9
1537917541573098,6,-5,21,6,-24,-54,-5,1
1537917541588058,2,-12,-25,-3,42,43,1,-10
1537917541588058,-5,4,2,6,27,-13,-4,6
1537917541589056,-3,-5,-5,-13,-16,3,-3,-9
1537917541589056,0,6,-1,-3,-6,30,-4,-5
1537917541610997,-10,-12,5,0,-6,-9,-3,2
1537917541610997,4,14,7,2,3,-11,1,4
1537917541611995,-10,-5,-6,3,-5,11,-4,-11
1537917541611995,3,-1,0,-3,-2,-2,1,3
1537917541623962,1,-6,-3,-2,-12,-4,0,-1
1537917541623962,2,-1,2,-2,6,-22,-2,2
1537917541632939,-2,-5,0,5,24,31,-2,-5
1537917541632939,-4,-2,-2,-4,-3,-6,1,0
1537917541647898,0,-4,-3,-3,-6,-3,2,-1
1537917541647898,-1,8,6,6,17,16,-5,-1
1537917541648896,-11,-4,4,-1,-4,2,-3,-1
1537917541648896,1,6,-6,-6,-12,-11,-12,1
1537917541669839,-4,-4,-5,-3,-5,0,-3,-5
1537917541669839,1,0,-5,0,4,3,3,1
1537917541671834,0,3,6,-3,-2,7,2,-1
1537917541671834,-10,-13,-4,-1,-4,-6,5,-2
1537917541683802,13,5,0,3,11,10,-2,2
1537917541683802,0,1,-1,-1,2,1,0,2
1537917541692778,1,-1,-2,2,1,3,0,-1
1537917541692778,-4,0,1,-1,2,10,0,-2
1537917541707738,-16,-12,-8,-1,-3,-3,-3,-3
1537917541707738,12,3,3,-8,-6,-3,-3,0
1537917541708736,0,-1,-4,1,0,1,-1,-2
1537917541708736,2,3,-1,-6,-3,0,-2,-1
1537917541729679,-3,-5,-1,0,-1,-2,-2,0
1537917541729679,-4,-1,1,3,-1,-3,-1,-2
1537917541731674,-4,-2,-3,-2,6,7,-8,-3
1537917541731674,1,2,-3,0,-2,2,20,-2
1537917541743642,1,0,3,1,-1,-2,1,-1
1537917541743642,-4,-1,2,2,3,6,1,-1
1537917541752618,-2,-1,-1,-4,-5,4,-4,-4
1537917541752618,-1,1,-2,-1,-1,-9,-45,-1
1537917541767578,1,-1,0,-2,-3,4,32,4
1537917541767578,-2,-2,1,1,0,-9,-46,-5
1537917541768575,-2,-1,0,2,0,7,46,0
1537917541768575,2,1,-9,-3,-2,-4,-4,1
1537917541790517,0,-1,7,0,3,0,-4,-3
1537917541790517,-3,-2,1,1,1,-1,0,0
1537917541791515,-3,-1,0,-2,-2,-4,-27,-7
1537917541791515,2,0,0,0,1,6,29,3
1537917541803482,-1,-1,-8,-4,-4,-6,-30,-4
1537917541803482,0,0,0,-1,-3,-5,-32,-4
1537917541812458,2,1,0,0,2,2,87,10
1537917541812458,-23,-5,2,-3,0,4,24,-8
1537917541827418,20,0,0,1,2,-1,21,7
1537917541827418,-3,-4,0,-2,0,-6,-29,-4
1537917541829413,-3,-2,-2,1,3,7,-14,1
1537917541829413,6,1,-2,-4,0,-2,-12,0
1537917541849359,-2,-1,0,1,0,6,43,1
1537917541849359,-1,-2,-1,1,2,-2,0,3
1537917541850357,33,7,1,-2,-2,3,20,7
1537917541850357,-28,-4,-4,-2,0,-6,-19,-18
1537917541872298,0,11,3,6,15,11,-20,-4
1537917541872298,-51,-22,-10,9,76,7,19,-8
1537917541872298,7,-15,10,-16,-77,-27,-9,4
1537917541872298,27,19,5,-3,21,-9,-10,2
1537917541887258,-17,-9,-8,10,37,11,-25,6
1537917541887258,-6,15,-15,-16,-6,44,19,14
1537917541887258,-31,-23,-29,19,79,-83,-43,-28
1537917541887258,-16,-12,26,-27,-81,-18,29,19
1537917541909200,5,20,25,-7,27,60,-16,-15
1537917541909200,1,-15,14,10,-27,1,14,1
1537917541910197,-16,3,-45,-4,50,14,-22,-10
1537917541910197,52,104,68,34,49,42,16,5
1537917541932138,-5,-38,7,2,-48,-99,-22,17
1537917541932138,-25,-27,-35,-26,-62,-42,5,-14
1537917541932138,18,-23,-35,-7,30,-61,-28,1
1537917541932138,-8,34,29,13,-6,70,31,-5
1537917541947098,-21,-75,-72,-26,8,29,-17,6
1537917541947098,-19,-11,12,15,89,31,15,-17
1537917541947098,33,79,25,-9,-93,-17,1,6
1537917541947098,-3,-106,-70,2,26,-45,-10,48
1537917541969040,12,103,80,14,-47,-52,1,-15
1537917541969040,29,38,22,-11,-34,-36,11,-8
1537917541970037,-82,-33,15,12,41,8,9,-26
1537917541970037,36,-26,-28,-2,-2,67,2,17
1537917541991978,-34,-99,-103,-35,-21,-17,-3,-17
1537917541991978,62,101,94,17,14,18,8,-6
1537917541992976,-56,-44,56,-1,-32,-14,-26,-15
1537917541992976,-1,-88,-24,10,74,-51,-20,-39
1537917542006938,12,-73,-31,-20,-64,-48,11,26
1537917542006938,22,-88,-37,-3,35,16,2,14
1537917542007936,14,104,48,5,18,-35,-17,8
1537917542007936,-50,-50,-53,-12,-56,18,1,-16
1537917542028879,29,25,9,16,41,75,13,-23
1537917542028879,-51,-48,14,-15,-54,-68,-11,-8
1537917542029877,50,64,29,14,18,39,5,34
1537917542029877,34,13,-41,5,54,3,-19,16
1537917542051818,5,-13,-8,-24,-17,-20,2,-3
1537917542051818,-16,47,-26,-11,-71,-35,-3,8
1537917542052816,-34,-55,-34,-8,-4,84,18,-15
1537917542052816,8,42,63,-12,-46,-69,-10,-7
1537917542066779,32,-18,-32,19,46,53,6,16
1537917542066779,5,-123,-76,9,95,16,-9,3
1537917542067776,17,98,50,0,-65,66,37,16
1537917542067776,-2,85,74,16,17,-14,-5,3
1537917542089717,-24,46,52,23,43,-4,-9,4
1537917542089717,35,-11,15,2,-4,-2,11,15
1537917542089717,23,-70,-39,2,39,9,-26,1
1537917542089717,-7,-5,-18,-11,-4,33,9,2
1537917542112656,-15,6,49,8,-2,3,-10,-3
1537917542112656,-2,29,-20,12,-7,-17,-2,14
1537917542113653,4,-27,-21,-17,-37,-17,3,-7
1537917542113653,-7,-17,14,-10,-21,-29,-14,-8
1537917542126618,-5,22,-24,-13,-6,5,-1,-1
1537917542126618,3,19,7,9,17,51,10,1
1537917542127615,-7,-41,-9,-2,19,-7,-10,-17
1537917542127615,-2,3,-17,-12,-16,-19,-1,-25
1537917542149557,20,22,30,22,13,3,6,4
1537917542149557,-10,9,-12,-3,12,37,4,-11
1537917542150554,-1,-13,8,-1,-6,-23,-3,-1
1537917542150554,-8,-6,-9,1,-3,9,-1,-4
1537917542163520,-10,21,-11,5,20,19,2,-7
1537917542163520,3,10,31,-6,-24,-23,-6,1
1537917542171498,3,-12,-14,10,5,7,-7,3
1537917542171498,-2,-2,-25,-17,2,-5,-3,2
1537917542186458,-5,-5,29,1,-8,-14,-3,-3
1537917542186458,-6,0,-18,-7,-21,-13,-1,-3
1537917542187456,3,-2,-8,0,4,3,1,2
1537917542187456,-8,-11,1,6,4,12,0,-5
1537917542209397,-5,3,3,3,-3,-19,3,-3
1537917542209397,0,9,32,-6,-9,4,-1,-6
1537917542210395,3,-5,-4,1,11,16,0,2
1537917542210395,-9,-6,14,5,-4,-11,-3,-5
1537917542232335,18,6,-4,-12,-9,-9,-2,1
1537917542232335,2,7,-5,4,-1,0,0,2
1537917542233333,0,-12,-8,-3,3,1,0,1
1537917542233333,0,-8,-3,-6,-7,-8,-4,0
1537917542247295,-11,2,-13,-2,7,-6,2,-10
1537917542247295,3,2,1,0,-9,4,-3,3
1537917542247295,4,4,1,-6,-6,-7,-3,1
1537917542247295,-4,-3,-13,-2,1,2,-2,-4
1537917542269237,-8,-2,2,0,-5,2,0,-5
1537917542269237,1,2,2,2,2,-3,1,-2
1537917542270234,-5,-8,-3,-2,3,3,-3,-1
1537917542270234,0,-3,-4,1,1,1,-1,2
1537917542292176,-2,-2,1,-1,-4,-8,-7,0
1537917542292176,0,6,2,-3,-1,-4,0,-1
1537917542293173,-2,-9,-9,-2,1,1,-1,1
1537917542293173,-3,2,2,3,3,2,4,-3
1537917542307135,-1,-2,-2,-6,-9,-3,2,-1
1537917542307135,-2,2,-4,0,-2,2,-2,-2
1537917542307135,0,0,0,1,4,2,-3,0
1537917542307135,-2,-1,-1,-1,-4,-3,1,-2
1537917542329077,-5,-1,1,-1,-3,-1,-6,-4
1537917542329077,2,2,0,0,0,-4,-11,0
1537917542330074,2,-2,-1,-1,3,4,11,5
1537917542330074,3,-1,-3,-5,-3,-5,-7,4
1537917542353013,-4,-6,-6,-4,-6,0,9,-1
1537917542353013,1,1,-1,-1,0,3,-1,2
1537917542353013,0,-3,-1,0,0,-5,-17,-4
1537917542353013,-2,0,-3,2,0,-7,-2,-2
1537917542366976,-3,2,3,1,2,-1,-5,-2
1537917542366976,-1,1,0,-1,1,0,4,-2
1537917542367973,0,-4,-3,-4,-2,1,2,-1
1537917542367973,-3,-4,0,-2,1,3,-9,-1
1537917542388917,-9,-1,-4,-2,-1,-8,10,-3
1537917542388917,13,0,0,0,-1,-2,-13,3
1537917542389914,0,-3,-3,-1,-4,-3,-18,-3
1537917542389914,3,2,-3,-1,2,0,27,5
1537917542412853,3,0,-1,-2,-3,1,7,2
1537917542412853,-11,-2,0,-1,-1,0,5,-6
1537917542412853,16,2,0,4,2,0,-16,2
1537917542412853,-4,-2,-2,-1,-4,-4,-20,-5
1537917542425818,0,0,0,0,1,4,16,6
1537917542425818,0,0,-2,-2,-1,3,2,-1
1537917542441776,-6,-3,-1,-2,-3,-3,-6,-5
1537917542441776,-2,0,0,0,-2,0,-4,0
1537917542449754,5,0,2,1,1,-2,-5,0
1537917542449754,-6,0,-1,0,0,0,0,-3
1537917542449754,-5,-2,-4,1,1,1,8,1
1537917542449754,0,0,2,-1,0,-1,2,-2
1537917542472693,-5,-1,0,-1,-3,0,-7,-5
1537917542472693,0,1,0,0,0,-2,-4,1
1537917542473690,-3,0,-1,-3,-1,-1,8,0
1537917542473690,3,-1,-1,-1,0,0,3,-1
1537917542486656,0,-3,-2,1,2,0,-10,0
1537917542486656,-5,-1,-2,1,1,-1,0,-4
1537917542487654,0,0,2,-1,1,0,8,-1
1537917542487654,-1,-1,-5,-6,-6,-1,-2,0
1537917542509595,1,0,0,-3,-2,-3,-6,0
1537917542509595,1,1,-2,-2,0,-3,1,-1
1537917542509595,-5,-3,2,-2,0,-5,-10,-7
1537917542509595,-7,-2,0,1,2,1,-19,3
1537917542532533,-4,-2,-1,2,3,9,52,2
1537917542532533,4,-1,1,-1,4,-3,-7,1
1537917542533531,-6,0,-1,-2,-9,0,7,0
1537917542533531,0,0,1,0,5,-5,-11,-6
1537917542546496,0,-1,-1,-4,-2,-6,-20,-5
1537917542546496,-3,0,-3,1,-9,0,7,-1
1537917542547493,1,-2,3,-1,2,-1,4,-1
1537917542547493,-1,-2,-1,0,-5,0,3,0
1537917542572426,3,0,-1,-1,4,1,-9,2
1537917542572426,0,-1,1,1,4,3,4,0
1537917542572426,-1,-1,-6,-2,-5,-1,-4,1
1537917542572426,4,0,0,1,-1,0,8,1
1537917542586389,-4,-1,-1,0,0,-1,-8,-2
1537917542586389,-1,-1,3,1,1,-4,-4,-3
1537917542587386,-1,0,-1,1,-1,1,6,3
1537917542587386,1,-1,-1,1,0,-1,-2,-1
1537917542598357,0,-1,-2,0,-2,-2,-9,-2
1537917542598357,0,-1,-2,-2,-4,0,1,2
1537917542606336,0,-1,0,-2,1,0,3,-2
1537917542606336,1,0,-1,-2,2,0,-6,-3
1537917542621296,-2,-2,0,-1,-6,-4,-5,-2
1537917542621296,-1,-2,2,0,-3,-1,5,-5
1537917542628277,3,3,-1,-4,-3,-2,4,0
1537917542628277,-12,-2,-6,0,-2,2,-8,-6
1537917542644235,19,1,8,1,-3,-12,-61,0
1537917542644235,-13,-6,-2,0,3,16,83,1
1537917542645232,-12,-4,-3,3,2,-9,-7,3
1537917542645232,7,2,4,1,0,16,59,12
1537917542658198,-5,-3,-12,-5,-4,-14,-60,-10
1537917542658198,-9,-1,-7,-6,-6,1,17,-6
1537917542666176,20,1,0,-4,-5,-2,-30,-7
1537917542666176,-10,-5,-1,-1,0,-18,-8,-3
1537917542681140,7,2,2,4,0,-4,-21,3
1537917542681140,-24,10,6,-6,-2,1,-5,-8
1537917542689115,46,-8,-9,10,28,35,90,11
1537917542689115,14,-2,-5,7,4,9,1,6
1537917542704077,32,-15,7,8,44,-59,5,15
1537917542704077,-36,-1,6,-2,-51,8,-45,-10
1537917542705075,-13,-37,-16,-1,40,43,-12,0
1537917542705075,-47,55,-3,-3,27,0,-14,-20
1537917542719037,-9,-45,8,-5,-70,13,36,10
1537917542719037,1,50,8,-15,14,-41,-56,12
1537917542726017,-45,17,15,42,70,61,-16,-21
1537917542726017,55,-65,-23,-47,-98,-71,18,-1
1537917542740976,3,-25,-53,-16,31,17,-23,53
1537917542740976,-40,39,5,8,53,19,15,-18
1537917542748956,43,-77,-47,-20,-31,-13,-22,12
1537917542748956,-9,46,16,15,41,24,-13,-5
1537917542763915,-38,66,35,14,-11,-3,21,-27
1537917542763915,70,-20,-36,-9,-1,-26,7,36
1537917542764912,-44,34,57,6,4,-34,-17,-19
1537917542764912,5,-51,-19,-1,-22,-5,-5,-22
1537917542778875,39,16,32,9,55,69,26,18
1537917542778875,-9,-62,9,10,9,60,-31,-42
1537917542785856,-60,44,-64,-24,-63,-33,6,-25
1537917542785856,52,-32,-6,17,70,7,-29,27
1537917542800816,-23,108,15,-42,-74,-24,37,6
1537917542800816,-49,-38,27,10,26,7,-32,-21
1537917542808795,28,-18,-4,-4,-24,-16,35,-1
1537917542808795,38,-43,-9,21,49,42,-20,-15
1537917542824752,-10,15,-7,5,21,50,5,2
1537917542824752,3,-5,-5,-7,-19,-11,15,18
1537917542824752,6,39,25,-6,-36,-35,-11,30
1537917542824752,13,40,9,-3,-9,17,-8,-13
1537917542838715,3,-61,-24,8,23,-17,3,-19
1537917542838715,37,9,-1,-2,-37,-27,16,20
1537917542845696,-4,-4,7,5,31,17,-11,-7
1537917542845696,-18,-4,-10,3,5,6,11,6
1537917542860656,-14,-12,-9,-8,4,21,-3,-7
1537917542860656,8,-3,-5,-2,-52,-65,-1,-8
1537917542868635,12,5,-15,-1,2,-23,-26,19
1537917542868635,-40,18,20,-20,-19,3,11,-7
1537917542884592,-5,-19,1,6,-22,-11,10,-14
1537917542884592,14,12,-11,15,38,34,18,-1
1537917542884592,10,-3,2,0,-1,-7,-1,6
1537917542884592,-12,3,0,-25,-38,-29,-7,10
1537917542898555,-10,-3,0,13,16,5,-4,-18
1537917542898555,27,-2,10,-1,21,15,-11,13
1537917542906533,-8,6,2,1,-14,-11,-1,-19
1537917542906533,-17,5,0,7,3,4,-10,17
1537917542921493,-15,-9,-13,-11,-3,-3,6,-5
1537917542921493,20,10,8,17,-2,-4,-14,-2
1537917542928475,-15,-13,-4,-23,-10,-1,-27,-5
1537917542928475,-17,5,-6,1,3,15,74,-5
1537917542944432,7,-9,-15,3,1,-11,-10,0
1537917542944432,19,6,33,2,-2,-6,18,8
1537917542945429,3,3,11,-7,2,5,-10,5
1537917542945429,0,3,-2,-1,-3,-6,-4,-3
1537917542960389,-11,-7,-1,-7,-13,-13,-9,-9
1537917542960389,-8,-2,-12,-3,12,3,-22,-1
1537917542966373,11,-1,-2,-2,-4,6,-23,2
1537917542966373,-15,10,16,3,-8,3,56,4
1537917542981333,6,-9,-12,3,-2,-18,-46,-4
1537917542981333,-4,-2,-21,-5,7,-4,-29,-7
1537917542988315,2,0,7,6,12,1,19,-4
1537917542988315,-3,-3,-15,-1,-12,-3,1,7
1537917543004272,-7,-6,7,4,2,5,6,-2
1537917543004272,12,1,-19,-15,1,-10,-27,1
1537917543005270,-22,3,11,3,-5,-3,-15,-8
1537917543005270,23,9,11,2,1,0,-18,7
1537917543018235,4,1,12,7,5,4,29,-3
1537917543018235,-19,-12,-10,-4,-4,9,35,3
1537917543034193,21,-16,-13,-6,0,-3,-3,3
1537917543034193,-10,5,8,0,-3,-6,-29,-4
1537917543041174,-6,-15,-20,-9,-2,-6,-22,-23
1537917543041174,-17,-2,10,1,-10,5,29,0
1537917543049152,1,3,2,1,1,6,22,-5
1537917543049152,-2,-5,-4,2,2,3,24,-1
1537917543064112,3,10,22,5,2,-3,-11,0
1537917543064112,-12,-7,-25,-6,-2,-6,-28,-8
1537917543065110,8,3,-2,1,-2,11,46,6
1537917543065110,-2,0,4,-2,-3,-3,-12,-3
1537917543079073,3,5,9,2,-3,-6,-14,1
1537917543079073,-4,-2,-10,-5,4,9,0,-3
1537917543086053,-5,-3,0,2,0,-3,25,3
1537917543086053,5,2,6,4,-4,-13,-36,4
1537917543101014,6,-3,-10,-7,3,7,48,6
1537917543101014,-1,-2,-2,-3,-8,-5,-26,-6
1537917543108992,-2,2,9,0,-2,-4,-19,-2
1537917543108992,-12,-3,1,1,1,5,12,-4
1537917543123952,9,-1,-5,-1,0,8,30,3
1537917543123952,9,3,7,-1,0,-12,-9,4
1537917543124950,-20,3,2,2,0,-2,-6,-2
1537917543124950,9,-3,-6,2,1,-1,-26,1
1537917543138912,-8,-2,0,1,-3,-2,-5,-1
1537917543138912,2,1,0,1,2,6,8,2
1537917543145893,1,-1,-3,-5,-5,-9,3,0
1537917543145893,-8,-3,-3,-4,-1,0,-23,-6
1537917543160854,2,1,0,1,1,-6,15,5
1537917543160854,2,-1,3,0,0,3,0,1
1537917543168832,-2,-2,-5,1,1,5,41,2
1537917543168832,-2,0,-3,-3,-3,-8,-18,-4
1537917543184790,14,2,0,0,-3,0,-12,2
1537917543184790,-31,0,0,-4,0,4,4,-6
1537917543184790,27,3,3,0,-2,-2,-10,5
1537917543184790,-1,-3,-1,-1,-1,10,31,1
1537917543198754,-23,-8,-9,-2,-2,-14,-33,-7
1537917543198754,33,11,3,-1,9,15,63,9
1537917543205735,-9,4,-2,6,26,15,-23,-3
1537917543205735,22,-5,3,-5,-23,-39,-5,9
1537917543221692,-9,-23,-10,0,11,-27,-34,-12
1537917543221692,-15,-17,-15,-7,-69,73,54,1
1537917543228673,-15,14,26,7,11,-37,-67,-15
1537917543228673,-23,32,1,5,83,40,59,-2
1537917543243633,28,-3,-4,-3,-27,87,30,15
1537917543243633,-27,-19,12,-4,-51,-15,-10,-11
1537917543251611,9,-12,-15,-8,7,10,-27,-4
1537917543251611,-27,38,20,8,-26,11,-5,13
1537917543258592,18,-24,-17,2,28,-32,15,3
1537917543258592,-16,5,2,6,61,4,-12,0
1537917543266571,19,-10,0,0,-24,-27,13,-14
1537917543266571,-19,-15,16,12,9,-17,-25,-8
1537917543281531,5,-29,-21,-1,11,-9,19,4
1537917543281531,41,27,36,8,-4,-8,-9,-20
1537917543288513,-20,36,-46,-11,18,-65,-15,46
1537917543288513,22,3,21,6,13,-44,-11,-11
1537917543303473,-17,-35,3,-11,-33,34,9,-18
1537917543303473,28,9,-21,-10,-3,-37,-30,22
1537917543311451,-60,49,28,14,41,18,-1,-38
1537917543311451,60,-45,-7,-5,-38,-7,25,28
1537917543318432,74,60,31,5,-19,-7,-7,20
1537917543318432,-19,-85,-45,1,58,-25,-43,-25
1537917543326412,-38,43,37,11,-4,27,72,58
1537917543326412,-29,-40,-44,-36,-77,-15,-83,-62
1537917543341372,25,25,2,-3,8,-42,29,17
1537917543341372,5,18,7,-2,9,-10,-3,-16
1537917543348353,61,34,52,19,23,42,-17,18
1537917543348353,-56,-57,-26,4,11,23,1,-21
1537917543363313,13,69,21,-3,-25,-13,-28,29
1537917543363313,-65,-38,-64,-10,24,18,-3,10
1537917543372288,62,-85,21,3,-19,-4,3,-20
1537917543372288,5,81,12,-1,5,2,5,2
1537917543378273,-13,57,18,7,42,77,28,-3
1537917543378273,-7,-18,6,17,30,-52,-20,-6
1537917543386251,-39,-55,-33,-23,-109,-84,32,-10
1537917543386251,-13,3,-58,-10,35,-27,18,14
1537917543401211,52,-26,22,1,-24,27,-14,-11
1537917543401211,-17,72,35,-3,-47,12,36,30
1537917543409190,-11,-25,-3,2,18,43,24,-3
1537917543409190,5,-14,-35,-10,-5,7,-19,-22
1537917543432128,-29,33,31,15,73,-27,-23,-16
1537917543432128,-8,-18,36,3,-43,1,28,12
1537917543433126,3,-63,-36,-13,-12,4,-6,-4
1537917543433126,40,66,27,17,16,32,21,23
1537917543447088,-31,-10,-43,-10,-3,-28,-28,-18
1537917543447088,6,-1,37,7,4,10,-5,-14
1537917543447088,29,-7,-29,-4,29,38,-15,-3
1537917543447088,28,5,18,-4,2,-20,-16,30
1537917543469029,-46,-62,-37,-13,-36,-41,-1,-10
1537917543469029,34,86,8,-3,-58,-89,28,-9
1537917543478006,9,9,-6,2,16,17,27,-7
1537917543478006,-2,-39,-25,3,36,95,1,5
1537917543492966,-8,-3,58,14,-37,4,-33,-4
1537917543492966,6,-16,-18,-4,21,11,33,6
1537917543493963,1,3,11,-4,-21,-25,-30,0
1537917543493963,20,-26,12,6,-3,10,1,-5
1537917543514907,-26,30,-18,-3,-6,-29,6,-12
1537917543514907,37,-13,-34,-1,66,98,-16,14
1537917543516902,-6,14,22,3,-36,-16,-19,-6
1537917543516902,-14,-71,2,-9,-51,-81,-50,5
1537917543528870,-46,-60,-17,5,17,43,93,0
1537917543528870,18,91,30,5,-2,-10,-7,2
1537917543535851,-22,-5,-36,-11,32,37,1,-23
1537917543535851,-1,-60,-38,-9,-10,-1,-16,-8
1537917543552806,66,55,70,14,-2,-28,-13,18
1537917543552806,-11,-63,-28,-8,15,21,-31,11
1537917543553803,-10,-2,4,10,10,-29,-9,9
1537917543553803,12,74,22,14,42,10,18,1
1537917543574747,-33,-42,-5,-9,-21,84,-11,-15
1537917543574747,-18,-9,-3,-6,-13,-56,-25,4
1537917543576742,36,-9,-38,-7,-3,3,26,-5
1537917543576742,1,5,41,10,24,36,29,21
1537917543589707,-41,-34,-8,-13,-54,-24,4,1
1537917543589707,23,63,27,5,-1,-4,-13,-15
1537917543595691,-40,-66,-58,-12,-28,-45,-24,-6
1537917543595691,8,55,54,18,32,40,31,1
1537917543612646,-29,32,-10,-1,45,13,-4,17
1537917543612646,28,38,27,10,-19,-27,9,-12
1537917543613643,30,25,-20,-6,-3,9,-15,4
1537917543613643,-51,-50,-16,3,-4,-15,13,-16
1537917543634587,6,-25,-33,-7,19,8,-29,-12
1537917543634587,-1,-50,-7,-2,4,0,-6,22
1537917543636582,19,46,27,5,5,-3,11,8
1537917543636582,-56,21,2,-11,-57,-52,-49,3
1537917543649547,26,8,0,6,22,30,-2,-11
1537917543649547,-7,-22,-40,-19,-37,-35,51,6
1537917543657526,-50,25,24,4,37,10,9,-26
1537917543657526,-10,-45,-26,-11,-41,-11,-21,-15
1537917543672486,-5,-51,-20,4,9,-54,-32,7
1537917543672486,-1,-67,7,0,-5,54,-1,-9
1537917543674480,-11,58,62,16,16,-3,-4,-15
1537917543674480,52,85,26,2,-8,-21,-7,0
1537917543695424,-31,-9,-23,-6,13,-9,13,-8
1537917543695424,37,-98,-82,-14,12,16,-8,-12
1537917543696422,57,54,32,-8,-34,6,-13,15
1537917543696422,-47,-31,-10,6,32,23,-1,-28
1537917543708390,24,36,23,5,-1,-7,20,28
1537917543708390,-47,-26,-17,-7,-14,5,-2,4
1537917543717366,13,3,-27,1,50,21,5,6
1537917543717366,19,-68,-34,-24,-84,-76,-18,-19
1537917543732326,-10,-10,-32,-14,-21,11,-3,-12
1537917543732326,-33,38,30,3,-2,-30,0,-8
1537917543734320,41,36,-35,-4,24,44,-3,17
1537917543734320,-19,-12,31,4,11,11,17,-2
1537917543755264,54,-56,-29,-8,-5,-29,-25,14
1537917543755264,12,41,42,19,21,39,-16,1
1537917543756262,-35,-128,-35,2,-19,-14,9,-13
1537917543756262,37,101,14,1,10,0,3,6
1537917543768230,-15,-3,3,1,2,4,6,8
1537917543768230,0,19,-16,-7,3,0,-5,5
1537917543777206,-22,-74,-23,-10,-13,-14,-6,2
1537917543777206,6,-31,-32,-6,8,27,11,5
1537917543792166,-3,56,47,16,20,7,-2,-13
1537917543792166,2,51,21,-2,-19,-30,2,-11
1537917543794161,-30,-21,6,-9,-36,-9,-26,-4
1537917543794161,-22,-53,-49,-9,46,75,2,-2
1537917543815104,25,87,50,0,-36,-24,29,-4
1537917543815104,9,-39,1,0,-22,-28,10,-5
1537917543816102,-22,19,12,-5,-15,-9,-7,6
1537917543816102,9,21,-76,-9,23,5,-1,7
1537917543829067,16,-27,54,22,24,21,-9,18
1537917543829067,-53,27,47,7,-12,-13,-28,-51
1537917543838043,4,31,12,4,-10,1,20,18
1537917543838043,1,-5,19,8,2,0,4,10
1537917543853003,-28,-20,-78,-27,6,-5,0,-13
1537917543853003,-22,23,-4,-1,7,49,0,-7
1537917543854001,1,23,34,3,4,18,-8,-8
1537917543854001,9,-19,3,-1,-23,-44,10,6
1537917543874945,0,-5,-3,-3,-8,-8,0,-7
1537917543874945,3,-25,-8,-4,-1,-1,-11,16
1537917543876939,-3,0,-19,-7,1,4,17,-2
1537917543876939,2,22,30,4,-5,-2,15,-2
1537917543888907,-31,-12,-12,-4,-9,-10,-13,-9
1537917543888907,22,-1,-15,0,12,2,-5,9
1537917543897883,-2,-11,6,3,4,0,-3,-5
1537917543897883,3,17,20,9,-6,-7,22,2
1537917543912843,-3,-3,20,4,-3,-8,-3,-2
1537917543912843,-2,-18,-27,-12,15,10,2,1
1537917543913840,9,9,2,7,-4,-7,-4,-1
1537917543913840,-7,-3,19,13,2,-3,-10,0
1537917543934784,-5,1,-12,-13,-3,0,-2,0
1537917543934784,4,-1,-10,-11,5,0,-7,3
1537917543936779,-1,-2,6,-3,-2,2,38,0
1537917543936779,2,6,-1,-2,-5,-5,-16,1
1537917543948747,-5,-6,15,4,0,2,2,-4
1537917543948747,6,-3,-5,2,-1,-1,1,5
1537917543957723,-3,-2,1,9,0,-1,-13,-2
1537917543957723,-3,2,5,-2,5,1,6,-2
1537917543971686,1,4,-22,-10,-6,-6,2,-3
1537917543971686,-2,-5,5,4,4,-2,-20,3
1537917543978667,0,0,-8,-4,0,-2,-3,-3
1537917543978667,2,2,-16,2,-3,0,-6,1
1537917543996619,-3,-2,18,-2,-3,-1,10,-4
1537917543996619,-2,-1,3,2,0,-7,-27,-5
1537917543997617,-7,-8,-20,6,1,17,52,6
1537917543997617,10,12,27,-12,-5,-12,-22,-1
1537917544008588,0,-7,-16,0,-1,-3,15,0
1537917544008588,0,-4,1,6,4,5,12,1
1537917544017564,3,7,15,0,-5,-7,-34,-2
1537917544017564,-10,-9,-18,-10,-1,8,30,-1
1537917544031526,-1,-5,-24,3,4,2,-7,-1
1537917544031526,4,3,18,1,-2,7,18,3
1537917544038507,-4,3,6,6,1,-7,-23,-2
1537917544038507,0,1,9,-14,-9,-5,-14,0
1537917544055462,-1,0,-9,4,-1,-3,-9,0
1537917544055462,-3,-9,-7,3,-1,-3,-5,2
1537917544056460,4,-4,-9,-11,0,2,13,1
1537917544056460,-1,1,1,3,0,7,0,3
1537917544068428,-1,-1,-1,0,-1,-1,2,1
1537917544068428,2,0,-1,1,2,-6,-8,-3
1537917544077403,4,0,3,-4,2,5,17,-1
1537917544077403,-8,-3,5,3,-2,-1,-3,-7
1537917544091366,-1,-2,-8,-4,-4,-2,-14,-4
1537917544091366,0,1,-2,1,-3,1,13,2
1537917544098347,3,-1,0,-2,0,-5,-9,-1
1537917544098347,-6,-4,-6,1,3,-2,1,-3
1537917544115302,-2,2,-7,-5,-1,4,2,0
1537917544115302,-2,0,-1,1,0,-1,-5,-5
1537917544116300,2,-4,-1,-4,-4,-1,-2,-6
1537917544116300,-6,-2,1,-1,-1,2,-12,0
1537917544136246,-1,4,-1,6,1,-9,4,1
1537917544136246,5,0,-3,-1,2,-1,4,3
1537917544145222,-9,-2,1,-3,-4,-5,-14,-5
1537917544145222,1,-1,-1,0,0,3,3,0
1537917544152203,-1,-1,-3,-4,-3,6,-25,-3
1537917544152203,2,-1,-3,0,2,10,54,5
1537917544154198,-1,0,-2,-1,-1,-8,-15,2
1537917544154198,-3,0,2,2,0,-6,-4,-2
1537917544175143,10,0,-2,-3,-3,-10,-36,-3
1537917544175143,-7,-4,-1,0,-3,7,24,-2
1537917544176139,-3,-1,-1,-1,-1,2,7,3
1537917544176139,-9,0,2,2,8,-10,-35,1
1537917544197083,17,2,-1,-8,-12,8,29,1
1537917544197083,0,1,-2,2,0,-1,10,2
1537917544199078,-4,-2,-4,-5,2,-2,-2,-2
1537917544199078,2,-3,-1,-4,-8,0,9,0
1537917544212043,-11,-2,3,2,2,-4,-26,-4
1537917544212043,-2,-1,-10,-2,1,2,-8,-3
1537917544214038,7,2,16,5,-1,-3,-5,3
1537917544214038,1,-1,-4,-5,-1,-3,7,-1
1537917544234982,-6,-1,0,-1,2,-3,1,-2
1537917544234982,0,-1,0,-3,-3,-4,-13,-3
1537917544235979,-5,-2,-2,0,1,3,5,0
1537917544235979,3,0,-4,-1,-1,2,1,1
1537917544256923,-2,-2,0,0,-1,-5,-3,-2
1537917544256923,4,0,0,2,1,-2,3,4
1537917544264902,1,0,0,1,0,-4,-11,-2
1537917544264902,-2,-1,0,-2,-5,0,4,-2
1537917544271884,-1,1,-1,1,1,6,18,0
1537917544271884,-3,0,0,-1,0,-5,-14,-1
1537917544278865,14,0,0,-1,-2,-3,-16,2
1537917544278865,3,0,1,1,0,1,5,3
1537917544294822,-7,-2,-3,1,1,3,7,0
1537917544294822,4,0,0,-1,-1,-4,-9,2
1537917544296817,-5,0,-4,-1,-1,-3,0,-4
1537917544296817,1,2,1,2,2,2,-19,-4
1537917544317761,-6,-3,-7,-2,-7,-5,-33,-1
1537917544317761,-5,0,1,-3,2,8,72,7
1537917544318758,0,-2,-3,2,-2,2,7,-3
1537917544318758,-1,0,5,3,2,-5,-25,-3
1537917544331723,3,1,0,0,1,2,64,6
1537917544331723,-5,-3,-5,-7,-1,-3,-32,-2
1537917544338705,-6,-1,-1,-2,-3,-9,-22,-3
1537917544338705,4,-2,-4,2,-2,3,29,-3
1537917544354662,-3,0,2,-2,1,1,-16,3
1537917544354662,1,-2,3,4,-2,-4,-18,-1
1537917544356657,0,0,-4,-3,-3,-10,-44,-6
1537917544356657,-12,-4,1,0,-2,7,51,-4
1537917544377601,22,4,1,1,1,7,-33,7
1537917544377601,-14,-4,-1,2,1,-3,26,-3
1537917544378598,20,2,-4,-2,-3,-18,-45,2
1537917544378598,3,0,2,2,12,9,10,0
1537917544391564,3,-2,-5,-6,-4,2,82,2
1537917544391564,-8,0,2,0,21,5,19,10
1537917544398545,-8,-1,-4,-6,-44,-4,-25,-18
1537917544398545,-2,-5,-3,-4,-7,-12,-62,0
1537917544422481,6,4,3,0,-7,28,3,5
1537917544422481,0,6,2,6,5,4,51,1
1537917544424475,1,15,-7,-3,32,12,12,7
1537917544424475,-2,-28,-31,-3,35,-31,-29,-13
1537917544437441,-23,-2,41,9,-16,80,-49,-9
1537917544437441,-20,-2,8,-9,-55,-75,-66,-25
1537917544439436,-82,-25,-3,5,25,19,-43,-6
1537917544439436,38,38,-7,-23,-115,-15,74,13
1537917544451404,-42,-13,-40,-2,60,-59,18,-2
1537917544451404,3,-12,18,21,81,84,-16,13
1537917544460380,39,-4,23,-6,-101,-109,44,-7
1537917544460380,-2,23,9,-10,5,27,-17,4
1537917544475340,-30,15,-10,3,32,-47,-20,-13
1537917544475340,-34,-13,-14,-3,11,69,-29,-22
1537917544476337,73,-3,6,6,37,29,56,27
1537917544476337,-42,10,-2,2,47,46,-25,16
1537917544497281,106,23,8,2,-47,-49,-23,9
1537917544497281,-61,-69,-32,-9,-53,-64,-13,-18
1537917544503265,5,10,-4,3,20,22,17,-1
1537917544503265,5,16,6,3,0,28,-20,-11
1537917544511244,-39,-9,-15,-11,6,2,-24,-7
1537917544511244,96,27,9,-3,-1,-16,28,14
1537917544520220,-36,-31,0,-1,-11,-3,39,27
1537917544520220,42,19,-1,8,60,-45,10,-20
1537917544535180,0,10,23,10,-15,39,-12,8
1537917544535180,16,-35,-8,-2,-1,-9,-95,20
1537917544541163,-53,20,1,-5,-10,18,36,-22
1537917544541163,7,-2,-3,2,14,15,15,6
1537917544557121,-65,-11,5,-4,12,-4,16,-33
1537917544557121,73,6,-9,-7,-2,2,-8,12
1537917544559116,29,69,22,8,12,4,-20,3
1537917544559116,-7,-32,-16,-13,-55,-50,-52,-3
1537917544571084,48,1,-21,-10,-4,31,28,14
1537917544571084,-26,37,24,11,2,-13,20,-1
1537917544580060,-9,-48,-24,-4,18,37,-46,-23
1537917544580060,-22,6,9,12,9,11,24,5
1537917544595020,-32,-14,11,11,39,-5,-2,4
1537917544595020,28,25,-7,-6,0,-12,-76,-11
1537917544596017,6,-8,6,5,46,42,72,25
1537917544596017,33,-10,1,-5,-31,-77,-10,5
1537917544617958,-28,-13,-3,-8,-29,9,-9,-6
1537917544617958,-20,-14,-4,-6,-5,10,-30,-10
1537917544618956,-6,-9,-43,-8,0,-24,-77,-21
1537917544618956,-4,-62,6,4,51,115,88,10
1537917544630924,17,38,38,2,-33,-66,-93,9
1537917544630924,-17,38,-13,-14,-21,10,78,12
1537917544639900,-23,-2,39,11,-25,6,21,-16
1537917544639900,-3,-21,-19,5,9,-47,-65,3
1537917544654860,-75,-57,-42,-9,4,20,25,6
1537917544654860,12,49,25,-3,-23,-29,-28,2
1537917544656854,14,-32,-51,-5,75,87,16,13
1537917544656854,-16,18,47,16,11,-46,20,5
1537917544677798,24,19,29,-19,-75,-75,-30,-28
1537917544677798,-73,-14,-22,-6,-16,6,63,-5
1537917544678796,18,26,17,8,-10,-63,-35,-11
1537917544678796,-17,-29,-15,-7,-14,-65,0,-22
1537917544690764,37,6,-29,-1,26,86,16,36
1537917544690764,-26,-25,1,-10,-53,-32,-3,-22
1537917544699740,-5,-1,-1,-2,2,-4,0,0
1537917544699740,17,3,16,-2,-27,22,6,13
1537917544714700,18,-6,6,13,31,3,-1,-9
1537917544714700,9,2,-12,-5,34,15,-3,7
1537917544716694,-32,-13,-11,0,-17,8,24,-25
1537917544716694,-20,5,-30,5,8,5,-26,-3
1537917544737639,1,15,29,-13,4,16,22,2
1537917544737639,21,-23,-1,17,22,11,-9,0
1537917544738636,5,5,-15,-16,-23,-34,0,9
1537917544738636,-10,8,5,0,0,36,-19,-13
1537917544751601,18,-13,-8,6,-6,-15,9,-2
1537917544751601,7,3,12,3,1,-3,8,0
1537917544759580,-3,-8,1,3,-5,-4,-5,-5
1537917544759580,-4,13,6,2,-4,15,-9,4
1537917544774540,-4,-14,4,13,6,-1,1,0
1537917544774540,-3,-3,-21,-13,13,1,25,-2
1537917544776535,2,12,12,-1,-6,8,6,14
1537917544776535,3,-7,-45,-15,-7,7,-33,-4
1537917544797478,4,3,32,9,1,-7,69,2
1537917544797478,-1,-4,-11,-13,3,10,-32,-3
1537917544798476,10,-1,18,8,-9,-9,-2,4
