timestamp,emg1,emg2,emg3,emg4,emg5,emg6,emg7,emg8
1537918112324973,-2,-2,-1,-2,0,3,8,-9
1537918112324973,-3,-2,-2,-3,-2,-2,-31,6
1537918112334946,-1,-1,0,-1,3,4,-4,-6
1537918112334946,0,0,-2,-5,-11,-9,-7,-13
1537918112335944,2,1,-1,1,3,-3,-23,-9
1537918112335944,0,-1,-2,-1,1,-5,-9,-3
1537918112336941,-1,0,-1,-3,-16,-9,-4,-6
1537918112336941,-1,0,0,3,6,11,-4,1
1537918112337938,-1,-2,-1,-3,-2,-21,-7,-1
1537918112337938,1,0,0,2,5,6,37,-19
1537918112348910,4,1,1,1,7,13,-6,23
1537918112348910,0,-1,-2,-3,-7,-1,11,3
1537918112361874,-1,-1,0,0,0,23,-29,-5
1537918112361874,0,-1,-2,0,1,-2,28,13
1537918112368855,-3,0,1,0,9,7,9,-9
1537918112368855,-1,-3,0,-1,1,-12,-4,1
1537918112376834,-1,0,1,-4,-11,-13,6,18
1537918112376834,-2,-1,-1,-4,-7,-10,-17,-10
1537918112399773,3,-2,-2,1,4,17,-2,6
1537918112399773,0,1,0,2,4,3,0,4
1537918112399773,-1,-1,-2,0,-3,-9,0,-2
1537918112399773,-2,-2,2,4,9,4,-17,5
1537918112452631,1,0,0,1,9,4,-23,1
1537918112452631,1,0,-1,0,-2,5,22,2
1537918112453629,-2,-2,-3,-2,-7,-17,-18,-20
1537918112453629,-1,0,0,0,5,0,-8,-6
1537918112454626,-2,0,0,-3,-8,-28,-1,-2
1537918112454626,-3,-3,0,1,19,38,4,-12
1537918112459613,1,1,1,2,-4,-21,1,16
1537918112459613,-3,-1,-2,-5,-7,-11,2,-1
1537918112459613,1,0,1,0,7,29,10,3
1537918112459613,-2,0,-1,-4,-13,-15,-10,-16
1537918112465597,0,-2,-2,1,8,10,7,0
1537918112465597,-2,-3,-1,3,7,-12,-12,-4
1537918112479559,-1,-1,-1,-3,-17,6,15,5
1537918112479559,0,1,-1,-3,-10,-7,-10,3
1537918112488535,-1,-1,0,-3,0,8,3,1
1537918112488535,2,-1,0,1,8,-9,-21,-5
1537918112494520,-2,-3,-1,2,6,10,23,-7
1537918112494520,2,1,-1,-2,-9,2,0,10
1537918112517458,1,1,0,-1,-5,-7,-1,7
1537918112517458,-2,-1,-2,-2,-3,8,11,-6
1537918112518456,-3,-1,-2,-2,1,-6,-6,-7
1537918112518456,-2,-2,-3,2,6,1,0,-1
1537918112532418,-1,-1,-2,-1,1,4,-1,-1
1537918112532418,-1,1,-1,2,2,8,-3,6
1537918112539400,0,0,-2,1,1,-8,-3,-3
1537918112539400,-2,-1,2,0,5,-15,-3,4
1537918112555357,-2,-2,0,-2,-16,7,0,-4
1537918112555357,1,0,-2,-3,-8,-8,-4,5
1537918112556354,-1,0,-3,-3,-3,3,1,-3
1537918112556354,5,-1,-3,-2,-4,-9,-2,1
1537918112578296,0,-2,0,2,12,4,-1,0
1537918112578296,-3,-2,-2,-1,2,10,3,-3
1537918112578296,0,-1,0,1,-4,-5,-4,1
1537918112578296,-3,-1,-1,1,5,-2,-6,-1
1537918112592258,-1,0,-1,-3,-2,3,-1,-4
1537918112592258,0,0,0,-1,-3,1,6,2
1537918112599240,-2,-2,-1,-2,6,-2,-7,-1
1537918112599240,1,-1,-1,1,-3,3,0,3
1537918112615197,-1,-1,1,1,1,-6,-7,-2
1537918112615197,-1,-1,-3,-2,-8,-6,7,-2
1537918112616194,-1,0,1,3,4,9,-4,2
1537918112616194,-2,0,1,-2,-7,-7,-2,0
1537918112638135,-1,-1,-3,1,10,7,-11,0
1537918112638135,2,0,0,-2,-11,-5,5,1
1537918112638135,1,0,-2,-3,-4,-5,16,2
1537918112638135,0,-1,0,0,0,5,-5,0
1537918112652098,0,1,1,1,5,7,12,-3
1537918112652098,0,-2,-1,0,5,-3,-10,-1
1537918112660077,0,1,-3,-5,-19,-9,-7,-2
1537918112660077,0,0,1,0,1,-1,5,3
1537918112675037,0,-2,-1,-2,-2,-2,-5,0
1537918112675037,0,-2,0,-2,0,5,4,1
1537918112676035,-1,-2,1,3,18,10,-6,0
1537918112676035,-2,0,-1,0,2,-1,3,-2
1537918112697976,0,0,-4,-8,-24,-21,-8,-2
1537918112697976,0,-1,0,0,-6,1,0,0
1537918112698973,0,0,-2,-1,0,-2,-4,0
1537918112698973,-2,0,0,2,18,15,-4,-2
1537918112719917,-2,-1,0,2,2,2,9,-2
1537918112719917,-2,0,0,-6,-14,-10,1,-4
1537918112720914,-1,-2,-1,2,14,4,-21,-3
1537918112720914,-1,-1,-1,-4,-20,-12,21,0
1537918112734877,1,-1,1,0,1,-1,-1,2
1537918112734877,-1,0,1,3,10,-1,-3,0
1537918112735874,-1,2,1,5,10,12,5,-5
1537918112735874,-1,-3,-4,-2,1,-7,-31,-5
1537918112757816,-2,0,0,2,21,-24,24,0
1537918112757816,-1,-3,-2,-6,-40,38,12,1
1537918112758813,-2,-2,-2,-3,7,-39,-15,-9
1537918112758813,0,2,1,5,10,36,11,4
1537918112771778,-4,-2,-3,-1,-24,-35,-47,-14
1537918112771778,-2,-1,-1,6,61,-34,20,-5
1537918112779757,2,-2,-5,-8,-60,6,21,15
1537918112779757,4,1,-2,-14,-29,28,0,-1
1537918112795714,-2,-1,4,20,101,-59,-27,-15
1537918112795714,-15,-2,6,19,14,105,-7,-46
1537918112795714,18,7,1,0,-17,-63,0,12
1537918112795714,-8,-3,4,19,-5,61,-25,-41
1537918112817656,2,-2,-10,-35,-69,31,51,104
1537918112817656,2,-3,-12,-23,48,38,-55,-68
1537918112818653,-8,0,2,1,-67,-74,102,-11
1537918112818653,13,-1,-11,-35,-74,69,18,0
1537918112840594,-13,-2,-3,5,91,-9,-21,-37
1537918112840594,-4,7,23,66,38,-114,-3,46
1537918112840594,4,-3,-3,-9,-31,81,-32,-3
1537918112840594,20,6,4,4,-58,-128,39,28
1537918112855554,-6,-5,0,21,46,127,-38,-43
1537918112855554,14,1,-14,-74,-110,-100,59,37
1537918112855554,-6,-5,-8,-21,53,98,-55,41
1537918112855554,-8,1,12,37,126,97,71,-14
1537918112877496,7,4,11,20,-18,-115,0,-20
1537918112877496,6,-5,1,27,15,127,15,-12
1537918112878494,-20,2,13,36,63,41,-12,3
1537918112878494,-10,-7,-17,-47,-122,-39,10,11
1537918112900434,-32,-18,-11,-12,50,-13,2,7
1537918112900434,-9,8,-4,-25,-82,5,-35,-41
1537918112901432,10,4,-3,-16,-18,-50,42,39
1537918112901432,-10,1,9,43,127,23,-39,-33
1537918112915395,-43,3,14,42,59,102,60,-101
1537918112915395,38,1,-7,-11,6,-128,-8,50
1537918112916392,-13,-14,-23,-57,-16,111,-25,-12
1537918112916392,-4,5,14,35,88,44,-40,-12
1537918112937336,18,2,-3,-20,-128,-64,3,-13
1537918112937336,-20,-9,-4,-5,15,114,7,21
1537918112938333,6,5,2,11,-23,-6,-13,-42
1537918112938333,-1,-5,0,2,47,-45,3,-18
1537918112960275,10,3,2,-18,-65,-23,-23,-7
1537918112960275,0,4,11,35,48,62,-14,36
1537918112961272,-1,-2,-3,-2,29,79,3,-23
1537918112961272,-6,-3,-1,-2,23,-96,-48,0
1537918112976232,11,1,-4,-13,13,110,0,26
1537918112976232,-1,6,4,17,47,61,15,-1
1537918112977230,2,-2,4,15,50,-119,-22,5
1537918112977230,4,-3,-5,-7,-3,38,-19,7
1537918113006152,25,0,-10,-26,-99,-59,16,56
1537918113006152,-23,-6,-9,-8,-47,17,-2,-60
1537918113007149,4,-5,-3,2,60,31,8,65
1537918113007149,7,-4,-8,-14,-65,86,-63,-7
1537918113020114,19,9,7,27,74,39,68,55
1537918113020114,-24,-12,-13,-25,5,21,-17,-45
1537918113021112,-3,-1,-1,-17,8,-8,-2,-49
1537918113021112,-2,4,3,-10,-49,49,14,9
1537918113035074,0,-2,1,5,14,3,-21,17
1537918113035074,1,-2,4,3,29,-128,-8,-8
1537918113036072,2,4,6,28,25,-46,-18,-13
1537918113036072,-17,-5,1,5,29,-25,52,-18
1537918113058013,3,1,-4,-15,-53,44,-19,7
1537918113058013,3,-6,-8,-33,-61,-50,3,21
1537918113059011,-16,1,2,22,14,-59,-9,-40
1537918113059011,-4,-3,-1,-5,-5,7,-10,14
1537918113079955,-5,3,3,7,54,-30,38,-28
1537918113079955,9,-3,-10,-13,-33,-5,2,6
1537918113080952,-4,-5,0,-6,-11,-17,-8,13
1537918113080952,-1,2,-1,-4,-10,2,29,-18
1537918113094915,16,-1,-7,-10,-5,21,-34,-18
1537918113094915,6,4,9,20,69,-35,14,41
1537918113095912,-2,-3,-4,-19,-79,-45,-7,-5
1537918113095912,2,-2,-6,-13,-41,-49,9,0
1537918113118851,-10,-2,3,4,7,62,-68,-45
1537918113118851,28,8,9,22,51,-59,61,61
1537918113118851,10,-6,-16,-38,-114,46,-20,1
1537918113118851,4,1,4,15,39,-78,-27,5
1537918113140792,0,-3,-6,-11,-14,17,-9,12
1537918113140792,-11,-3,-3,-4,-20,5,-36,-11
1537918113140792,-3,5,9,17,61,33,62,-11
1537918113140792,11,0,4,11,20,60,-33,17
1537918113155752,-6,-1,-1,7,8,14,43,14
1537918113155752,0,-4,-7,-19,12,-26,-38,-3
1537918113155752,2,0,3,8,-23,-19,1,37
1537918113155752,-3,-1,-5,-14,-40,59,-6,4
1537918113177693,-1,-1,-2,-7,-21,-62,24,-4
1537918113177693,-7,3,6,16,27,41,4,-3
1537918113178692,-3,-1,-1,-2,0,49,3,-6
1537918113178692,1,-1,-3,-8,-14,4,20,18
1537918113200632,-2,-2,2,0,-26,-94,-36,-17
1537918113200632,6,3,1,4,-9,-13,-26,-1
1537918113200632,10,-2,-1,4,29,13,21,-1
1537918113200632,-2,-3,-9,-14,-39,-45,15,-1
1537918113215592,0,0,3,8,74,47,5,-4
1537918113215592,-2,-2,-3,-7,-48,-21,-25,-5
1537918113215592,-6,3,4,10,7,-17,-15,-16
1537918113215592,6,-1,-2,-4,28,-2,0,16
1537918113237533,-2,-3,-6,-9,-17,-5,-7,22
1537918113237533,-7,-4,-2,-8,-29,18,-10,-29
1537918113238531,1,1,1,9,26,17,-6,31
1537918113238531,-5,-1,-1,2,1,-27,17,-7
1537918113260472,2,0,1,-1,-9,23,7,9
1537918113260472,-2,-3,-2,-1,0,23,-3,-8
1537918113261469,-1,-1,1,-1,-1,-23,-7,-13
1537918113261469,-5,-2,-3,-6,-9,-12,-6,0
1537918113275432,-2,0,-1,-1,-10,-12,1,-6
1537918113275432,-1,1,0,2,14,30,11,-4
1537918113276429,-2,-1,-2,0,6,7,-5,-1
1537918113276429,-5,-2,-1,1,-6,2,1,-4
1537918113297373,-4,0,-2,-2,-7,4,-1,-4
1537918113297373,0,0,-2,-1,2,7,12,2
1537918113298371,-2,1,0,-3,-1,-16,-6,-9
1537918113298371,2,0,1,3,-3,2,-1,2
1537918113320312,1,1,-1,-3,-5,-11,-3,-2
1537918113320312,-1,-1,0,0,1,7,7,1
1537918113321309,-3,-2,-1,0,-2,-3,0,-10
1537918113321309,-2,-1,-2,-3,-3,0,-4,-4
1537918113335272,-3,-1,-1,-2,-5,2,2,3
1537918113335272,-3,0,2,1,4,9,8,-4
1537918113336270,-3,-2,-3,-6,0,5,-2,-9
1537918113336270,-1,0,-2,0,-2,-7,-2,5
1537918113358210,-1,0,-1,-3,-3,-10,-2,-2
1537918113358210,-3,-4,0,0,3,5,-3,-5
1537918113358210,-1,1,1,1,0,-3,4,0
1537918113358210,-3,-1,0,-1,-4,-5,-3,-3
1537918113380152,0,-1,0,-1,-4,-2,-2,3
1537918113380152,-1,-2,-1,-2,3,4,4,-6
1537918113381150,-2,0,0,1,0,0,-5,-5
1537918113381150,0,0,-2,-2,-5,1,-1,6
1537918113405085,0,-3,0,0,-1,1,-1,-3
1537918113405085,-1,-1,0,-3,-4,0,1,2
1537918113405085,-1,0,0,1,3,-3,-4,-2
1537918113405085,-2,-1,-1,-2,0,-1,4,-6
1537918113426029,1,0,0,-1,-5,-7,-2,1
1537918113426029,-1,0,-2,0,-1,0,2,1
1537918113427027,-1,-1,-1,2,-1,-3,-2,-1
1537918113427027,0,1,1,-3,-1,1,-3,-1
1537918113439992,-2,-2,-1,-2,-2,-1,1,0
1537918113439992,0,-1,0,0,1,3,0,-2
1537918113440990,0,-1,-1,0,1,0,-3,-1
1537918113440990,0,-1,-1,-1,-2,-3,-2,-1
1537918113463928,-2,-1,-1,-2,-2,-3,-2,-2
1537918113463928,1,0,-1,-2,0,1,3,1
1537918113463928,2,-1,-2,-3,-3,-3,-3,-1
1537918113463928,-2,-1,0,-1,-1,-1,-2,-1
1537918113485869,-1,-2,-2,0,-2,0,0,-1
1537918113485869,0,-1,0,2,1,1,-1,2
1537918113486867,-2,-2,0,0,2,1,-2,1
1537918113486867,-2,-2,-2,0,-1,0,-1,-2
1537918113500829,0,0,0,-1,1,-1,-2,-1
1537918113500829,-1,0,-1,1,0,1,0,-1
1537918113500829,1,-2,-3,0,-1,-3,1,0
1537918113500829,0,0,-2,-1,-2,-3,-1,0
1537918113523768,-1,-1,-2,-1,-1,0,-2,-1
1537918113523768,1,0,0,-1,0,0,0,-1
1537918113523768,-1,1,1,1,1,-1,0,-2
1537918113523768,-2,-3,-1,0,0,2,0,-1
1537918113545710,-1,0,-3,-2,-2,-2,1,-1
1537918113545710,-3,0,-1,-1,-1,0,0,0
1537918113546707,-1,0,-1,0,-2,1,0,1
1537918113546707,0,0,1,-1,0,-1,-1,-2
1537918113560670,0,-3,-1,-2,-1,0,0,-3
1537918113560670,-1,-1,-3,-3,0,0,-1,-1
1537918113561668,0,-1,0,-2,-3,-2,-1,1
1537918113561668,-1,0,0,0,-1,0,-2,0
1537918113583608,-2,-1,-2,-1,-2,0,0,-1
1537918113583608,0,-1,-1,0,1,0,-1,-2
1537918113584606,0,0,0,1,1,0,-2,-1
1537918113584606,-1,-1,-1,-2,-3,-2,0,-1
1537918113605549,0,-3,-1,1,-1,-2,-1,1
1537918113605549,-1,0,-2,-2,-1,-1,-3,2
1537918113607544,0,-1,-2,-1,-1,-1,0,0
1537918113607544,-2,1,-2,0,1,1,0,-2
1537918113619512,-1,1,-2,-3,-1,-1,0,-2
1537918113619512,-1,-1,1,-2,-2,-3,-1,-1
1537918113628488,0,-1,-1,-1,2,-1,-1,-2
1537918113628488,-1,0,-1,-2,0,-2,0,0
1537918113643448,0,0,0,-1,-1,-1,-1,0
1537918113643448,-1,-1,-1,-1,-1,0,1,-4
1537918113645443,-1,1,-3,-1,-1,0,0,-1
1537918113645443,-1,-2,-1,0,-1,-1,-1,-3
1537918113666387,1,0,1,0,0,0,0,0
1537918113666387,-2,-3,0,-2,-2,-3,-3,-3
1537918113667384,-2,-2,0,0,-1,-2,-1,-2
1537918113667384,1,-1,-1,-2,0,-2,0,-1
1537918113680350,-1,-3,-2,-2,0,-1,-1,5
1537918113680350,0,0,-1,0,-2,1,-1,4
1537918113688328,0,-2,-1,0,-1,-1,0,5
1537918113688328,-3,0,0,1,0,-2,-1,2
1537918113703288,-2,-1,-1,0,-1,-1,-1,-2
1537918113703288,-2,-2,1,0,0,-1,-1,-3
1537918113705283,-1,-1,0,-2,-2,-2,-3,-2
1537918113705283,2,0,-1,-1,-1,0,-3,-3
1537918113726227,1,1,-1,-2,0,-2,-2,-1
1537918113726227,0,-1,-2,-1,-2,0,-1,-3
1537918113727224,-1,-2,-1,-1,-1,0,0,-2
1537918113727224,0,-2,0,-2,-2,-1,-1,-1
1537918113739192,-1,1,-1,0,-2,-1,-2,-3
1537918113739192,-1,-1,1,-3,-1,-1,0,0
1537918113748168,-1,-3,-1,0,0,-1,-2,-2
1537918113748168,-1,0,-1,-1,1,0,-1,0
1537918113763128,-1,0,-1,1,-1,-2,1,-1
1537918113763128,-1,-1,-1,1,-1,-1,0,-1
1537918113765123,0,0,-1,-2,-2,-2,1,-1
1537918113765123,-2,-2,0,-1,1,-1,-1,-1
1537918113786067,-1,-3,0,0,-2,0,-2,-1
1537918113786067,-1,-1,-1,0,-2,-2,-1,0
1537918113787065,0,0,0,-1,-2,2,3,0
1537918113787065,-2,0,0,1,-2,0,-1,0
1537918113800029,-2,1,0,0,0,0,0,-2
1537918113800029,0,-2,-2,-2,-2,-2,1,0
1537918113809005,1,-3,-1,1,-1,0,-2,0
1537918113809005,-1,-1,-1,0,-1,0,-1,-1
1537918113822968,0,-2,-2,0,0,-1,0,1
1537918113822968,-1,0,-1,-2,0,0,-2,0
1537918113824963,0,1,-2,0,0,-1,-1,-1
1537918113824963,-1,0,0,-1,0,-1,1,-1
1537918113845907,-2,-1,1,2,7,0,-1,-1
1537918113845907,2,1,0,3,21,-16,-2,0
1537918113847902,-6,-3,-2,-8,-28,6,-1,-4
1537918113847902,-1,-1,-1,3,36,51,-1,-1
1537918113859870,-3,0,2,5,-8,-37,4,0
1537918113859870,1,-1,0,4,7,9,-2,-2
1537918113868846,2,-2,-4,-11,14,-26,-5,1
1537918113868846,-1,-2,0,1,-29,55,5,-3
1537918113882808,-1,-1,1,4,47,-17,-17,-2
1537918113882808,-5,-6,-4,-6,-37,2,11,-9
1537918113889789,-7,5,10,31,94,53,11,21
1537918113889789,11,-1,-15,-43,-119,-101,-22,-21
1537918113905747,2,-5,-7,-3,60,103,8,42
1537918113905747,2,4,5,3,30,80,7,-10
1537918113907742,-3,-4,-4,-7,-24,-81,-7,6
1537918113907742,-5,-1,4,12,-53,100,-3,-8
1537918113919709,2,3,2,6,49,43,3,-2
1537918113919709,3,-6,-9,-18,-64,-112,-20,11
1537918113928686,4,-2,-6,-12,-78,127,37,61
1537918113928686,2,0,4,7,21,-97,-11,5
1537918113942648,1,-3,-4,-6,-44,-10,-12,-24
1537918113942648,-9,0,-2,-9,-59,-16,14,11
1537918113956611,12,0,8,27,96,-49,-36,-27
1537918113956611,4,5,9,12,-66,20,21,13
1537918113965587,-8,-5,-9,-22,-82,67,9,-17
1537918113965587,-18,-2,7,19,119,-70,-23,-33
1537918113967582,6,0,3,14,-7,60,-1,5
1537918113967582,-9,-18,-26,-47,27,-53,-23,-14
1537918113979550,4,7,7,15,117,33,-6,6
1537918113979550,-2,3,6,18,59,24,-16,-1
1537918113988526,-4,-7,-16,-44,-85,-102,-5,-8
1537918113988526,-17,0,5,14,24,20,11,-30
1537918114003486,17,4,7,19,-17,38,2,33
1537918114003486,-6,-10,-21,-39,-99,-93,-3,-25
1537918114004483,10,3,0,-5,1,7,33,12
1537918114004483,-1,2,2,4,77,70,16,42
1537918114026424,-10,-3,4,11,58,-9,-30,-27
1537918114026424,7,9,2,-1,-43,-17,2,5
1537918114027422,-2,3,2,5,-27,112,19,-9
1537918114027422,5,0,6,26,87,34,-24,9
1537918114039390,1,-1,-1,-10,-117,-55,0,5
1537918114039390,10,-3,-3,1,-5,8,-3,20
1537918114054350,-13,-3,1,-4,29,45,-31,-37
1537918114054350,-12,-2,-3,-9,-42,27,8,-34
1537918114062329,-3,-3,-1,0,-22,-82,11,-1
1537918114062329,-1,4,14,36,84,-28,-13,-5
1537918114077288,-13,-10,-19,-35,-73,-8,-38,-20
1537918114077288,-5,-4,-7,-16,-28,-15,6,-15
1537918114086264,-1,2,2,-2,8,-63,1,-14
1537918114086264,5,-3,-13,-31,-81,-44,33,29
1537918114087262,-7,5,11,30,72,59,-2,-30
1537918114087262,9,4,6,17,67,-8,3,28
1537918114109203,1,-3,-11,-28,-53,72,41,8
1537918114109203,2,1,5,19,95,74,-23,-5
1537918114115187,3,1,6,14,44,56,6,-9
1537918114115187,-7,0,2,14,23,0,-22,-24
1537918114123166,-7,-17,-35,-85,-85,-122,4,9
1537918114123166,1,2,11,24,127,72,-13,0
1537918114130147,-1,-4,-7,-17,-54,-30,-2,-1
1537918114130147,3,2,4,7,-6,32,9,16
1537918114146105,-6,8,17,50,125,127,-9,-23
1537918114146105,-3,-6,-7,-18,-105,-15,8,-4
1537918114147102,-1,0,-1,-3,49,11,9,-2
1537918114147102,3,-3,-2,-10,-71,-27,8,6
1537918114160067,-3,0,0,0,-53,-79,-4,-5
1537918114160067,-2,0,-4,-10,-9,28,11,-9
1537918114169043,7,3,6,12,9,42,4,33
1537918114169043,5,4,5,15,16,-126,4,-10
1537918114183006,8,2,-2,0,6,-35,1,34
1537918114183006,-7,-3,2,5,64,121,-7,-11
1537918114189988,0,2,2,-4,-60,-62,8,-1
1537918114189988,-1,-4,-4,-2,46,-11,-8,6
1537918114206942,-13,0,3,-1,-35,-13,-1,-36
1537918114206942,4,0,1,9,38,52,-4,22
1537918114207940,-5,-5,-5,-9,-2,46,2,-3
1537918114207940,5,0,-5,-12,-59,85,11,3
1537918114219907,0,3,9,20,35,72,0,-7
1537918114219907,2,-3,-12,-32,-110,-109,6,6
1537918114235865,-5,-5,-3,-2,22,-23,-6,-10
1537918114235865,5,2,2,6,58,19,4,32
1537918114243843,-2,-5,-7,-11,-59,-35,-8,0
1537918114243843,-2,3,8,18,63,82,5,-9
1537918114244841,-5,-2,-1,-2,-28,-80,-14,-25
1537918114244841,5,0,-1,-4,-15,24,-8,7
1537918114265784,-3,-1,1,4,3,-1,-2,24
1537918114265784,0,-2,-4,-9,-54,-47,7,4
1537918114267779,2,3,4,10,40,-10,-1,0
1537918114267779,3,0,5,6,24,109,-4,-1
1537918114288723,-14,-4,-3,-2,9,-42,-14,-12
1537918114288723,14,-5,-10,-22,-39,49,-1,-6
1537918114289721,1,4,9,26,99,40,-19,4
1537918114289721,-8,-8,-16,-40,-95,-101,11,-3
1537918114303683,4,0,3,6,50,8,-6,-4
1537918114303683,0,1,1,6,17,-3,-7,7
1537918114304681,-5,0,1,6,23,9,2,6
1537918114304681,-2,2,4,11,20,-77,-1,-11
1537918114325625,-1,5,9,27,95,-41,-2,-19
1537918114325625,-6,-7,-8,-18,-46,-50,-5,17
1537918114327619,10,3,-3,-5,-6,50,7,-4
1537918114327619,-10,-4,-5,-6,-18,-62,3,-8
1537918114348563,-1,1,1,-2,-4,110,15,35
1537918114348563,2,2,3,8,21,48,-2,-22
1537918114349561,0,0,-2,0,-9,-81,1,1
1537918114349561,-1,-1,1,7,44,16,-3,2
1537918114363524,3,0,-1,-1,8,92,-2,-22
1537918114363524,-1,0,6,18,73,-13,5,5
1537918114364521,0,-6,-11,-21,-36,32,5,10
1537918114364521,-1,0,-1,0,17,33,-4,-11
1537918114385464,6,0,2,11,76,-12,-18,0
1537918114385464,-8,-2,-2,-2,7,82,-1,2
1537918114387460,-4,-5,-4,-13,-34,-127,-6,-3
1537918114387460,-1,2,3,1,4,101,3,-11
1537918114408403,3,0,-8,-16,-87,-89,7,0
1537918114408403,-4,0,-1,-3,3,71,0,-1
1537918114409401,-3,-1,-2,-2,16,56,-13,-7
1537918114409401,0,-4,-2,-5,-59,-58,8,18
1537918114422366,-3,-3,-4,-2,11,6,-3,3
1537918114422366,7,-2,-6,-11,-40,-35,-5,15
1537918114437326,-3,0,0,0,14,21,0,-4
1537918114437326,-3,1,8,20,91,-43,3,-4
1537918114446302,4,-4,-7,-19,-83,74,11,1
1537918114446302,-3,1,4,12,17,-5,12,3
1537918114447299,-1,-2,-4,-4,-20,-78,-8,1
1537918114447299,-1,-2,-5,-13,-49,-39,-5,1
1537918114468243,-5,-2,1,1,-29,-128,-17,-16
1537918114468243,-7,-1,0,-2,11,10,2,-12
1537918114474227,1,-1,2,6,39,9,3,8
1537918114474227,-3,1,1,1,-16,82,1,-31
1537918114483203,2,-3,-6,-7,-31,-2,-5,15
1537918114483203,-5,-1,1,0,-22,44,19,-4
1537918114489187,6,0,-2,-8,-58,17,20,7
1537918114489187,0,-4,-8,-14,36,10,-8,5
1537918114513123,12,-1,0,5,73,84,-5,7
1537918114513123,-5,0,8,17,62,58,-14,-12
1537918114515118,-1,-4,-5,-3,-33,-13,-6,7
1537918114515118,2,-4,-4,-5,-9,-17,-3,6
1537918114528084,-3,-3,-4,-8,-1,19,-1,-7
1537918114528084,7,-1,-4,-5,-50,-120,-8,20
1537918114530078,-3,2,5,10,42,58,3,-9
1537918114530078,0,1,0,3,3,-59,-6,-2
1537918114543044,-14,-3,1,-3,-1,-30,-6,-33
1537918114543044,-1,1,0,-2,-21,4,17,-9
1537918114550025,0,1,-4,-10,-31,-53,3,-33
1537918114550025,1,0,-4,-7,-41,-26,5,22
1537918114565982,-2,1,1,6,24,12,4,-8
1537918114565982,-4,-4,-4,-8,-32,-9,1,-1
1537918114566980,-5,0,3,9,16,-31,2,-7
1537918114566980,-1,1,3,10,48,46,-2,-6
1537918114595903,1,0,-2,0,-19,-4,2,7
1537918114595903,-3,2,1,3,5,-19,-5,-14
1537918114597897,5,-2,-2,1,10,-86,-4,23
1537918114597897,-1,-2,-2,-3,2,31,1,-2
1537918114602883,0,-1,0,2,12,37,3,5
1537918114602883,1,-1,-5,-12,-47,-79,-2,1
1537918114609865,-3,-3,1,2,18,-15,-3,3
1537918114609865,0,-1,1,7,37,86,0,6
1537918114625822,-1,0,-1,-6,-26,-83,0,-2
1537918114625822,-5,-2,0,2,32,35,0,-12
1537918114627817,1,-1,-3,-3,-15,14,-1,6
1537918114627817,0,-1,1,3,12,11,-8,-7
1537918114648761,-1,0,0,1,6,-14,8,4
1537918114648761,-1,-1,0,1,8,-17,-5,-2
1537918114649758,-3,0,0,0,-2,18,-1,3
1537918114649758,1,-2,-1,0,2,-9,2,4
1537918114662724,-1,-2,0,1,6,17,-1,-5
1537918114662724,-1,-1,-2,-4,-11,3,-4,3
1537918114676686,0,0,1,0,-2,15,1,-1
1537918114676686,1,-1,-2,-2,2,-11,1,0
1537918114685662,1,-1,-1,-2,-10,9,1,3
1537918114685662,-1,0,0,1,10,-2,-2,-2
1537918114687657,-2,-2,-2,-1,5,16,-1,3
1537918114687657,-2,0,0,1,-6,-22,0,-2
1537918114715582,1,1,-1,0,2,10,0,3
1537918114715582,-2,-1,0,0,8,6,-4,-6
1537918114717577,4,3,5,6,1,3,-3,-1
1537918114717577,-3,-2,-3,-4,-7,-7,0,-1
1537918114721566,-2,-2,0,1,0,10,-2,-2
1537918114721566,2,0,-4,-1,9,4,-2,7
1537918114731539,-3,-1,-1,-2,-6,0,0,-2
1537918114731539,-1,2,3,4,-1,-10,-5,-8
1537918114753481,2,-3,-4,-5,5,14,5,9
1537918114753481,-3,-2,0,0,0,-4,-1,0
1537918114754478,2,0,-1,-1,-2,1,1,8
1537918114754478,1,-1,0,0,3,0,-1,7
1537918114768441,-2,0,1,-2,-1,2,-2,-2
1537918114768441,-1,0,0,-1,0,0,-4,-6
1537918114769438,-3,-4,-5,-4,0,3,1,-1
1537918114769438,-1,0,-1,-2,-1,-5,-2,-5
1537918114791380,-1,-3,-1,-1,-4,1,-1,-1
1537918114791380,-1,0,-1,-1,3,-1,-1,-4
1537918114792377,-1,0,1,-2,-2,3,-1,-6
1537918114792377,0,-2,-3,-4,-4,-6,-1,0
1537918114806339,-1,-2,2,0,1,2,-2,-5
1537918114806339,0,0,0,0,-2,-1,0,2
1537918114807337,-5,-2,-1,0,-2,1,1,-3
1537918114807337,-2,0,-1,-2,-2,-4,-3,-2
1537918114827284,2,0,-2,-2,-4,-3,1,9
1537918114827284,0,-1,0,-1,0,2,-1,0
1537918114836260,2,-1,-2,-2,-2,1,-2,6
1537918114836260,0,-2,1,1,1,-3,2,-1
1537918114842244,0,0,-1,-1,1,1,-1,-6
1537918114842244,1,-1,-1,-2,-1,-2,0,-2
1537918114851220,-2,-1,-4,-2,-2,0,-3,0
1537918114851220,-1,0,-1,0,1,-1,0,2
1537918114866180,-3,-3,-1,0,1,0,-1,1
1537918114866180,-1,-1,-2,-1,-1,-2,1,-2
1537918114873161,-1,1,0,-1,-2,1,-1,-2
1537918114873161,-2,-1,0,-2,0,0,1,3
1537918114888121,-1,1,0,0,0,0,-1,-2
1537918114888121,-1,-3,0,0,-1,-2,0,2
1537918114890116,-1,-1,-1,-1,0,-2,-2,-2
1537918114890116,-2,-1,-1,-1,-3,-2,-2,-3
1537918114902083,-2,-1,-1,-1,0,0,0,-4
1537918114902083,2,0,-2,-1,0,-1,-2,-2
1537918114911060,-1,-1,-4,-1,1,-1,2,-1
1537918114911060,-3,-8,-2,0,-2,-2,0,-4
1537918114926020,0,9,1,0,-2,1,-2,-3
1537918114926020,0,1,-2,-3,-1,-1,-1,0
1537918114927017,-2,-2,0,-2,0,-1,-1,-1
1537918114927017,1,1,0,0,-2,1,-3,-1
1537918114955940,-5,-4,-1,-2,-2,0,-2,-1
1537918114955940,-1,-2,0,1,-1,0,-2,1
1537918114956937,1,2,0,2,-1,-1,-2,0
1537918114956937,-2,-1,-2,-3,0,-1,-2,-1
1537918114961924,1,-2,-2,-1,1,-1,-1,-1
1537918114961924,-1,-1,-1,-1,-2,0,0,1
1537918114970900,-2,-3,-1,-3,-1,-1,0,-1
1537918114970900,-1,0,-2,-1,-1,0,0,-1
1537918114985859,0,-1,-2,1,-1,-1,0,-1
1537918114985859,-1,-1,-1,-2,0,-1,-1,-1
1537918114993838,-2,-2,0,-1,0,1,-1,-1
1537918114993838,2,-1,-1,1,-1,-1,-2,1
1537918115008799,0,-1,-1,-2,0,1,-2,-1
1537918115008799,-3,-1,-1,-1,-2,-1,-1,1
1537918115009796,0,-1,-1,-2,-2,-1,-2,0
1537918115009796,1,0,0,-2,-1,0,-1,1
1537918115030740,-2,-1,0,1,-1,0,1,0
1537918115030740,-1,-2,-1,0,-1,0,0,-1
1537918115032735,0,-1,-2,-1,-2,-1,0,0
1537918115032735,1,2,0,0,1,-1,0,-1
1537918115045700,0,-3,-3,0,0,0,-1,0
1537918115045700,-1,0,0,-2,-2,-1,-2,-1
1537918115051684,-2,2,-1,-1,-2,-1,0,-1
1537918115051684,-2,-2,-2,-1,0,0,-1,-2
1537918115068638,-2,-1,0,-2,0,-2,-1,-1
1537918115068638,0,-1,0,0,0,0,-1,-1
1537918115069636,-1,-1,-1,-1,-1,-2,-1,1
1537918115069636,-1,-1,1,0,1,-2,0,-1
1537918115081604,-2,0,1,-1,-1,-1,0,-1
1537918115081604,-2,-1,-1,-1,2,0,0,-2
1537918115090580,0,-1,1,-1,1,-1,2,-1
1537918115090580,-1,1,-2,-1,-4,0,0,-1
1537918115105539,1,0,-1,0,-2,-2,-1,-2
1537918115105539,-1,-1,-1,1,0,-2,-1,0
1537918115107534,0,-1,0,1,-1,-1,-3,-2
1537918115107534,-1,-1,-1,-2,-3,0,0,0
1537918115128479,-1,-1,-2,-1,-2,1,1,2
1537918115128479,-1,-1,-2,-1,-2,-1,1,1
1537918115129476,0,-1,0,1,-1,2,0,-1
1537918115129476,-3,1,-1,-1,5,2,-1,-5
1537918115151417,2,0,0,6,36,22,-7,7
1537918115151417,0,4,5,17,48,-70,-10,3
1537918115152414,5,-4,-10,-25,-81,-14,16,24
1537918115152414,-3,2,10,25,94,86,7,-16
1537918115164382,6,2,5,11,-16,6,-9,30
1537918115164382,-11,-3,-6,-14,-7,122,23,-31
1537918115173359,-2,2,5,14,88,-110,-34,-36
1537918115173359,5,-11,-32,-82,-128,58,40,17
1537918115188318,-11,-6,-9,-16,27,-50,-37,-25
1537918115188318,5,7,11,17,81,96,1,-7
1537918115190313,-4,9,18,45,49,99,18,4
1537918115190313,-3,-4,-4,-4,-56,-128,-22,17
1537918115211257,8,2,4,11,52,28,-1,-7
1537918115211257,-2,-11,-15,-30,-54,-73,-17,-19
1537918115212255,3,4,5,14,92,104,-3,-6
1537918115212255,-4,-2,2,7,-45,-94,-19,-6
1537918115233198,-10,-2,-2,-8,-24,119,25,-1
1537918115233198,6,2,1,4,-8,-46,25,27
1537918115235193,-2,-5,-6,-9,-14,58,-7,7
1537918115235193,1,6,6,10,82,60,0,11
1537918115248158,-9,-8,-14,-33,-122,-92,11,-17
1537918115248158,-6,3,12,28,56,35,-23,-23
1537918115250153,6,0,-7,-11,-13,40,29,26
1537918115250153,-19,-3,1,4,57,54,-4,-60
1537918115271097,11,7,6,10,-6,-98,-8,1
1537918115271097,-2,-17,-29,-55,-69,3,1,14
1537918115272095,-9,3,10,18,91,52,-20,-24
1537918115272095,-7,6,11,14,-36,-48,17,-4
1537918115285060,6,-4,-10,-25,-53,61,5,-4
1537918115285060,7,7,10,25,98,53,2,42
1537918115292041,-14,-9,-13,-30,-123,-66,2,-22
1537918115292041,0,-3,-2,3,14,102,-3,1
1537918115308996,-1,2,7,19,26,-64,-4,10
1537918115308996,-3,1,4,13,63,-66,-17,-7
1537918115309994,2,0,0,3,37,77,6,9
1537918115309994,0,-5,-10,-19,-65,-121,0,8
1537918115330939,0,0,7,20,102,92,-10,18
1537918115330939,-9,-8,-20,-55,-128,-84,19,-11
1537918115332933,4,6,11,24,103,47,-17,-4
1537918115332933,2,-7,-9,-18,-56,-22,-5,3
1537918115345900,1,2,3,6,68,90,6,-3
1537918115345900,0,1,2,11,28,23,-19,8
1537918115353877,-1,-5,-4,-7,-54,46,4,-4
1537918115353877,2,0,-2,-9,-32,-96,-30,6
1537918115368837,-2,-7,-11,-16,-27,3,11,-14
1537918115368837,1,2,6,15,57,30,17,24
1537918115369835,0,-5,-8,-21,-63,-78,-3,-1
1537918115369835,13,6,8,27,127,127,-10,20
1537918115390779,0,-3,-1,-7,-42,-9,21,8
1537918115390779,-3,3,9,20,51,47,-28,-40
1537918115392773,-2,-8,-17,-38,-128,-128,-11,3
1537918115392773,0,0,2,8,47,-23,2,-6
1537918115404741,-3,1,-2,-3,11,-20,2,-6
1537918115404741,-1,-3,-9,-14,-63,6,17,7
1537918115413717,2,-1,4,15,83,1,2,6
1537918115413717,-4,2,3,5,10,-21,-25,-13
1537918115428677,-2,-3,-8,-18,-102,-128,14,-6
1537918115428677,0,2,6,10,-26,-34,-3,-3
1537918115429674,6,0,-2,-4,-11,-54,-4,5
1537918115429674,1,0,1,2,-6,-8,0,1
1537918115450617,-3,-4,-5,-10,-8,14,23,6
1537918115450617,1,-2,-4,-10,-49,-14,-2,12
1537918115452612,-3,5,9,18,63,5,-7,-10
1537918115452612,7,1,-3,2,14,-30,12,3
1537918115465577,1,4,7,17,66,30,3,41
1537918115465577,-1,-1,2,2,-8,13,-10,-20
1537918115471561,1,2,4,15,75,-63,-1,1
1537918115471561,-10,-3,-2,-3,-3,108,7,-16
1537918115488516,6,-2,-5,-1,26,23,-12,5
1537918115488516,0,-1,1,1,12,29,3,-2
1537918115489513,0,1,1,-5,-40,-67,0,-4
1537918115489513,1,-2,1,12,79,115,3,12
1537918115518436,3,-1,-4,-8,-49,74,6,-4
1537918115518436,-1,-2,-3,-3,-11,-11,-3,-5
1537918115519434,-1,-4,-7,-15,-68,18,10,8
1537918115519434,6,4,2,7,15,-30,18,10
1537918115525418,-9,2,7,17,111,69,-17,-21
1537918115525418,-1,-2,-4,-12,-44,-35,1,7
1537918115532399,-1,-2,-3,-1,27,33,5,-1
1537918115532399,0,0,2,1,-8,-6,-9,-13
1537918115548357,-4,0,3,7,17,13,-1,15
1537918115548357,-1,0,5,13,69,111,0,-15
1537918115550352,-3,-3,-6,-17,-55,-74,-13,-2
1537918115550352,-3,-3,-4,-8,-11,70,-5,-6
1537918115571295,-2,0,1,2,-33,-75,-11,-10
1537918115571295,-3,-4,-6,-9,-26,11,-6,-13
1537918115572294,-1,-2,-5,-10,-32,19,6,7
1537918115572294,1,0,2,5,24,-8,4,-3
1537918115585258,-5,-1,-1,-2,-16,-9,-8,-17
1537918115585258,3,4,2,7,4,-40,4,11
1537918115592239,1,-3,0,4,26,39,-5,-5
1537918115592239,-1,-1,-5,-12,-57,-29,3,3
1537918115608196,0,2,1,5,27,-9,-5,-2
1537918115608196,1,0,-1,-1,-10,-28,-1,7
1537918115610192,-2,0,-4,-3,-9,27,1,-8
1537918115610192,0,0,3,5,19,3,-5,8
1537918115631135,0,-1,-1,-4,-17,-21,3,-3
1537918115631135,1,1,0,2,13,2,0,10
1537918115632132,-2,-3,-1,-4,-7,17,-3,-17
1537918115632132,2,-1,0,-2,-6,-24,2,5
1537918115644100,-1,-2,1,1,8,-2,-8,-4
1537918115644100,-2,-2,-2,-3,-20,-7,2,-2
1537918115653076,0,0,-1,2,18,14,3,6
1537918115653076,-1,-1,1,0,-9,-18,1,2
1537918115668036,-1,-1,-1,-3,-7,-3,-3,-7
1537918115668036,-1,-1,2,1,12,3,1,2
1537918115670031,0,-2,0,-1,-5,1,2,5
1537918115670031,0,-2,-1,0,1,-4,0,-4
1537918115690975,-2,0,0,-1,-3,-4,-1,0
1537918115690975,2,1,0,0,0,-9,3,2
1537918115692969,-1,1,0,2,5,9,2,1
1537918115692969,-10,-8,-5,-5,-13,-7,5,2
1537918115704937,7,4,1,3,6,-4,-3,0
1537918115704937,0,1,-1,-2,-4,-6,-2,2
1537918115713913,1,0,0,-1,-2,5,-2,-2
1537918115713913,-1,1,0,1,5,0,-5,-5
1537918115727876,-5,-2,-1,-1,-4,-5,-7,-9
1537918115727876,0,0,-1,0,3,-1,-1,-5
1537918115734857,1,0,-1,0,-1,4,-3,-4
1537918115734857,-1,1,0,0,-2,-7,-2,-2
1537918115752810,-2,-2,-1,-1,0,-1,-5,-4
1537918115752810,1,1,-2,-2,-3,-3,-1,-4
1537918115753807,-2,-3,-1,-1,3,2,0,-3
1537918115753807,1,2,0,-2,-2,-3,1,-2
1537918115764777,-1,-1,-1,0,-3,-2,0,-2
1537918115764777,-1,-2,-2,0,2,2,0,1
1537918115773754,-2,-2,-1,0,0,1,0,3
1537918115773754,1,0,0,-1,-1,-1,0,1
1537918115787716,0,-1,-1,-1,-1,-1,1,1
1537918115787716,-2,-3,-1,-2,-1,-2,-1,1
1537918115794698,0,1,-1,1,0,1,1,2
1537918115794698,3,-1,-1,-1,-3,-4,-1,1
1537918115810655,-3,-1,0,0,0,0,0,-1
1537918115810655,0,-1,0,-2,0,-4,-2,1
1537918115812650,-1,0,0,0,-2,2,4,2
1537918115812650,1,0,-2,0,1,0,0,2
1537918115824618,-2,0,-2,-2,-4,-2,-2,0
1537918115824618,-1,-1,-2,0,0,1,1,0
1537918115833593,0,-3,-1,0,-2,0,0,1
1537918115833593,-3,-2,0,0,-1,0,-1,0
1537918115848553,-1,-1,0,-1,-1,0,2,-1
1537918115848553,-2,-1,0,1,-1,0,0,0
1537918115849551,-2,0,-2,-1,0,1,1,-1
1537918115849551,-1,-1,-1,0,-2,-2,0,-3
1537918115870495,0,-2,-2,-3,-2,-1,-2,-1
1537918115870495,-3,-2,2,1,-1,0,-1,-2
1537918115872489,0,-1,-2,-1,0,0,-4,-1
1537918115872489,-1,0,0,0,0,-1,-3,-1
1537918115884458,0,0,-2,-1,-2,-1,-3,-1
1537918115884458,-1,-1,-1,-1,0,-1,-1,0
1537918115899417,-1,0,-1,-1,1,0,-4,-1
1537918115899417,-1,0,-1,0,-3,0,-2,-1
1537918115916372,0,-2,1,0,2,-1,-2,0
1537918115916372,0,-1,0,0,-2,-1,-1,-1
1537918115917370,-2,1,-2,-2,-1,-1,-2,-1
1537918115917370,0,0,-4,-1,2,-1,0,-1
1537918115931332,-1,0,-1,-1,-1,1,1,1
1537918115931332,-1,-1,0,-3,0,-2,0,-2
1537918115932330,-1,-2,0,-1,0,-1,1,0
1537918115932330,2,-3,-1,0,0,-1,0,-1
1537918115944297,-2,-2,0,-1,0,-1,-1,0
1537918115944297,0,-1,-1,1,0,-1,-2,1
1537918115953274,-2,0,-1,0,-1,-2,0,0
1537918115953274,-1,1,-1,-2,0,-2,0,1
1537918115968233,-2,-1,-2,-3,-1,-2,-1,-1
1537918115968233,-6,-7,-1,-1,-1,-1,-2,1
1537918115970228,5,7,1,-1,-1,0,-1,1
1537918115970228,-1,0,-2,0,-2,-2,0,-2
1537918115991172,1,3,-1,0,1,0,-1,-1
1537918115991172,0,-2,0,0,-3,-1,-2,-2
1537918115992170,-5,-4,0,0,-1,0,-2,-2
1537918115992170,-1,1,2,-2,0,0,0,-2
1537918116004138,3,22,-2,0,0,0,0,-1
1537918116004138,25,-18,4,0,2,0,1,-1
1537918116013114,-6,1,-1,-3,-3,-1,0,-3
1537918116013114,3,1,-2,-2,-2,0,-1,0
1537918116027076,-5,-8,-1,-1,-2,-1,-1,-1
1537918116027076,2,4,-4,-1,-2,1,0,0
1537918116036052,1,0,-1,0,0,-1,-1,0
1537918116036052,-4,-4,1,-1,-2,1,-1,0
1537918116051012,0,-4,0,-1,-2,0,-2,1
1537918116051012,-8,1,-3,0,0,-1,0,-3
1537918116052010,1,-6,0,-1,0,0,-1,0
1537918116052010,-6,1,-3,-1,0,-1,-1,-1
1537918116064975,-1,-6,0,2,-2,0,-1,-2
1537918116064975,-5,4,-2,0,-1,1,-1,-1
1537918116073951,-2,-1,-1,0,-1,0,-2,0
1537918116073951,5,-2,0,0,-1,1,1,1
1537918116087914,-1,-4,-1,0,0,-2,0,-2
1537918116087914,-7,1,-1,-2,-2,-2,-1,-2
1537918116094895,0,0,0,0,1,0,0,0
1537918116094895,-2,-1,-1,0,0,-1,-3,-2
1537918116110852,-1,-4,-2,-1,-1,-1,-3,0
1537918116110852,-4,2,-1,0,-1,-1,-2,-2
1537918116112847,-2,-2,-2,-2,1,-1,2,-1
1537918116112847,1,-1,0,-1,-2,0,-1,1
1537918116132794,-8,-2,0,1,-1,0,-1,-2
1537918116132794,1,0,0,-2,0,-2,0,0
1537918116140773,0,-1,0,-1,-1,0,-1,-2
1537918116140773,-1,-2,-1,-1,-3,0,-1,-2
1537918116147754,1,-2,-2,-1,-2,-1,1,2
1537918116147754,-2,1,0,-3,-3,0,-1,0
1537918116154736,-1,0,1,2,0,0,-3,-1
1537918116154736,-1,0,-1,-1,0,-1,0,-1
1537918116170693,3,-1,-1,-4,-2,-1,-1,-4
1537918116170693,-2,-1,-1,0,0,-1,-1,-1
1537918116172689,-2,1,-2,-1,0,0,-1,-1
1537918116172689,-1,-2,-1,0,1,-2,0,1
1537918116193632,-1,-2,-3,-2,0,0,1,-2
1537918116193632,1,0,-1,-1,0,1,0,0
1537918116194630,0,-1,-1,-2,-1,-2,0,-1
1537918116194630,-1,-2,1,1,-1,0,0,-3
1537918116208591,-1,-1,2,5,19,8,-1,-1
1537918116208591,-1,1,-1,2,12,30,-2,2
1537918116209589,-3,-1,5,15,55,-66,-8,-3
1537918116209589,4,1,-6,-17,-72,81,17,6
1537918116230533,-8,-2,5,17,76,-42,-28,-17
1537918116230533,6,1,-8,-25,-105,-31,24,5
1537918116232528,-3,-4,-5,-8,4,-4,-16,1
1537918116232528,-1,-1,1,5,-27,-59,-4,-3
1537918116261450,4,-2,-7,-23,-73,-96,6,11
1537918116261450,-8,-6,-12,-29,-51,37,-1,-6
1537918116262448,1,5,13,27,68,55,-6,-21
1537918116262448,-4,-1,-4,-12,-52,-67,0,-31
1537918116267434,6,3,6,24,117,85,-29,5
1537918116267434,-1,0,4,5,-43,-12,15,-21
1537918116276410,4,-4,-5,-7,-3,82,-6,17
1537918116276410,0,3,10,28,93,87,4,1
1537918116291370,-1,-2,-6,-16,-84,-82,-25,10
1537918116291370,0,3,2,8,24,34,16,22
1537918116292368,-2,-7,-13,-26,-81,28,32,15
1537918116292368,1,2,4,9,39,11,-16,8
1537918116313312,5,1,4,7,50,30,15,14
1537918116313312,-5,-4,-2,3,14,-27,-18,-2
1537918116315307,2,5,11,29,96,-102,-8,0
1537918116315307,-9,-10,-14,-28,-63,29,11,-10
1537918116327274,-3,-1,-3,-9,-37,22,18,-15
1537918116327274,-6,-2,2,9,45,28,-28,-22
1537918116343232,-5,3,6,9,-42,-108,-11,-18
1537918116343232,5,-7,-14,-26,-13,112,17,15
1537918116351211,3,2,5,14,51,55,6,-1
1537918116351211,6,1,-2,-12,-65,-60,20,8
1537918116352208,-2,-3,-5,-12,-46,101,4,-2
1537918116352208,3,4,7,14,48,-33,-11,4
1537918116372155,-1,-5,-4,-9,-37,25,5,12
1537918116372155,5,8,16,46,127,-65,-7,-1
1537918116381131,-10,-14,-25,-55,-115,-94,3,3
1537918116381131,1,2,7,16,64,0,-17,2
1537918116387115,5,2,0,-3,37,78,26,6
1537918116387115,-6,-6,-9,-16,-19,-40,-20,-5
1537918116396091,5,2,3,9,52,100,-4,1
1537918116396091,-4,-4,-7,-13,-74,16,13,-1
1537918116412048,-3,5,10,30,126,18,-20,-12
1537918116412048,1,-2,-5,-9,-57,127,16,7
1537918116414043,2,2,2,7,18,61,1,-1
1537918116414043,-2,-1,-1,-5,-50,-128,-13,-7
1537918116434988,0,-2,0,6,30,-41,2,1
1537918116434988,-2,-1,-4,-7,-33,112,12,2
1537918116435985,-2,0,1,0,32,-28,-6,-6
1537918116435985,-3,0,2,9,37,23,-18,-4
1537918116446954,-6,-5,-4,-16,-101,9,8,-5
1537918116446954,-6,-3,-4,-5,38,54,-11,-10
1537918116455930,7,5,7,16,48,53,22,14
1537918116455930,5,5,7,25,127,9,-14,6
1537918116470890,-5,-4,-9,-29,-128,-108,5,-4
1537918116470890,2,1,6,9,9,-117,-7,3
1537918116472885,-5,-1,-2,-1,-15,5,-1,-10
1537918116472885,-1,-1,1,5,44,24,-1,0
1537918116493828,-3,-5,-6,-8,-48,86,0,-2
1537918116493828,-1,3,11,32,123,4,-30,-9
1537918116494826,-10,-14,-23,-59,-98,-75,13,-10
1537918116494826,-2,-4,-4,-10,11,16,5,2
1537918116506794,-6,2,0,5,27,-54,-10,-11
1537918116506794,1,1,-1,6,42,41,-7,2
1537918116515770,3,2,7,19,16,-79,0,4
1537918116515770,-1,-4,-7,-12,-14,-23,2,2
1537918116530730,4,4,6,14,64,103,6,-2
1537918116530730,-6,-7,-9,-20,-54,26,9,-4
1537918116536714,8,0,-1,2,4,78,-7,12
1537918116536714,-4,-2,-1,-8,-68,-86,6,-8
1537918116553669,-1,4,5,12,44,5,-5,-7
1537918116553669,2,-2,-2,-2,-13,-56,-1,6
1537918116554666,-4,1,5,14,43,98,-7,-7
1537918116554666,0,2,6,14,57,36,-1,-2
1537918116566635,-2,-5,-9,-23,-90,-54,-6,-3
1537918116566635,0,-1,-3,-6,1,45,10,7
1537918116575611,-2,0,-3,-11,-34,45,3,-3
1537918116575611,7,3,4,6,-11,-10,0,13
1537918116590572,4,-2,-2,6,34,-64,-6,22
1537918116590572,-1,0,2,4,6,18,6,-1
1537918116592567,-1,-1,-1,-6,-34,-112,-7,-1
1537918116592567,-3,1,5,14,51,-55,-24,-6
1537918116621490,-8,-14,-22,-54,-106,-7,26,-8
1537918116621490,2,2,1,-2,22,27,-5,-2
1537918116622487,-2,2,3,14,67,46,-3,-3
1537918116622487,-1,0,-3,-5,-22,-31,-3,-4
1537918116627474,0,1,1,5,-15,7,1,-1
1537918116627474,-1,-1,2,10,21,-7,-3,-2
1537918116636448,0,3,3,11,41,62,6,-2
1537918116636448,-3,0,-1,-1,4,88,5,0
1537918116651409,3,2,7,21,64,71,-12,2
1537918116651409,-3,-5,-8,-19,-53,-78,-2,-3
1537918116652407,5,5,8,24,79,42,-11,7
1537918116652407,-3,-4,-10,-26,-93,105,29,-1
1537918116673349,0,1,4,8,15,13,-2,0
1537918116673349,-3,-1,1,8,67,46,-13,0
1537918116675344,-4,-4,-6,-13,-62,-62,-10,-4
1537918116675344,-2,-1,-1,0,-6,31,-8,-1
1537918116687312,-3,0,1,-4,-20,-33,-4,-10
1537918116687312,-1,-2,-4,-7,-30,6,6,-3
1537918116696288,2,1,3,12,66,-33,-4,1
1537918116696288,-6,-5,-10,-21,-28,-27,-1,-5
1537918116711247,-2,0,-1,3,19,42,2,-5
1537918116711247,4,0,1,5,26,-20,-6,9
1537918116712245,-1,-3,-4,-5,-30,-10,-3,-2
1537918116712245,-1,-1,2,6,11,-30,-4,-3
1537918116734186,0,-1,0,-3,-13,-24,1,4
1537918116734186,0,2,2,5,39,38,-6,-1
1537918116735183,-1,-2,-6,-13,-64,-38,9,-1
1537918116735183,2,0,-1,1,1,7,5,2
1537918116747151,-3,2,3,9,52,32,-9,-5
1537918116747151,-3,-4,-6,-10,-47,-23,4,0
1537918116756127,-3,-2,-4,-10,-34,-1,-3,-3
1537918116756127,0,1,4,7,51,-65,-6,0
1537918116770090,-2,-1,-3,0,-10,-16,-2,-1
1537918116770090,-1,1,4,3,1,-9,0,-2
1537918116784053,0,-2,-3,-7,-22,-19,4,0
1537918116784053,-2,-1,1,5,25,40,-4,-4
1537918116793029,-1,-1,-2,-4,-4,19,-1,-1
1537918116793029,-1,-1,-2,-4,-12,-46,0,0
1537918116795024,-3,-1,1,2,1,-6,-3,-4
1537918116795024,-1,-2,-3,-2,-16,8,3,1
1537918116815968,0,-1,-3,-3,-5,-12,1,-1
1537918116815968,-2,-2,-1,-3,-17,-34,2,0
1537918116816965,1,0,0,2,17,19,-1,-1
1537918116816965,0,-1,-2,1,-7,-11,1,-1
1537918116830927,-1,-2,-1,-3,-14,-2,5,2
1537918116830927,0,-1,-4,-2,8,21,-3,-2
1537918116831925,1,1,-2,-4,-3,7,-1,0
1537918116831925,-1,-2,-1,0,-11,0,2,0
1537918116853866,-1,0,1,2,2,-11,0,0
1537918116853866,0,0,0,1,0,-4,0,0
1537918116854864,-1,-2,0,-2,-3,1,-1,1
1537918116854864,-1,-2,-3,-6,-11,-20,-2,-2
1537918116866831,1,0,-1,2,5,4,0,0
1537918116866831,0,-2,-1,0,0,-2,-1,-2
1537918116875808,-2,-2,-1,-2,-3,3,-2,0
1537918116875808,-1,-1,0,0,4,9,-1,-1
1537918116889770,-2,-1,0,0,-4,0,-2,-2
1537918116889770,-1,1,1,-3,-5,2,0,-2
1537918116897749,-4,0,0,0,1,-1,-1,-4
1537918116897749,3,3,0,-3,-3,-6,-2,0
1537918116912709,2,-2,-1,0,-1,-3,-2,0
1537918116912709,-16,-10,-6,-3,-6,-8,1,-1
1537918116920687,37,30,7,3,3,5,2,4
1537918116920687,-22,-13,-1,-4,-4,-7,-1,-4
1537918116935648,17,18,18,8,1,1,5,10
1537918116935648,-8,-3,-33,-12,-1,0,-4,-9
1537918116935648,-12,-20,-3,-1,-3,2,-1,-2
1537918116935648,17,37,-1,0,-2,1,0,0
1537918116950607,-3,-28,-5,-5,-3,-4,-3,-5
1537918116950607,9,25,15,6,3,-1,3,9
1537918116957589,-13,16,12,-4,-4,-1,-2,-8
1537918116957589,-41,-51,-23,2,-2,-5,-3,-4
1537918116972549,11,2,-4,-1,0,0,-1,-2
1537918116972549,6,-11,1,0,1,1,3,12
1537918116973546,23,58,-11,-7,-4,1,0,3
1537918116973546,-1,-26,25,6,2,1,-2,-1
1537918116995488,-43,-32,-14,-5,-1,-3,-5,-7
1537918116995488,4,30,14,2,-5,-3,-2,-3
1537918116995488,2,-85,-15,1,2,0,-2,-2
1537918116995488,-10,27,-9,-4,-5,-6,-1,-2
1537918117010447,52,-13,0,-1,2,3,9,11
1537918117010447,8,32,28,5,0,-4,-2,-10
1537918117010447,-55,-27,-21,-6,-5,-4,0,-1
1537918117010447,30,3,1,1,2,4,9,10
1537918117032389,1,-2,-2,-2,-5,-3,-1,4
1537918117032389,8,-7,-4,-2,0,1,-7,1
1537918117033386,11,-4,9,6,3,0,-6,3
1537918117033386,15,8,-1,-2,-1,-2,-6,-5
1537918117055328,-18,27,-3,-4,-3,-4,-7,4
1537918117055328,2,-8,-2,2,5,6,1,-3
1537918117056325,12,-20,1,-1,2,1,-1,-5
1537918117056325,-40,-15,15,2,1,-1,1,-5
1537918117070288,-17,-6,-5,-4,-3,-5,-5,-16
1537918117070288,-1,-4,-18,5,2,3,7,5
1537918117071285,-3,-21,-15,-7,-5,-4,-4,26
1537918117071285,-17,-26,3,-3,0,-1,-1,-1
1537918117092229,-4,10,-3,1,0,0,4,5
1537918117092229,-8,-36,-5,-3,-4,-3,-2,-8
1537918117093226,6,40,21,4,0,0,2,-2
1537918117093226,24,7,-17,-1,0,2,2,17
1537918117115168,-9,11,11,2,2,-1,-2,-1
1537918117115168,-7,-5,-3,-4,-4,-3,-1,-5
1537918117116165,4,9,1,2,2,-1,1,-14
1537918117116165,-14,4,6,-1,-1,-2,1,-22
1537918117130128,13,-2,-5,-3,-2,0,2,-4
1537918117130128,8,-1,-3,0,0,0,2,1
1537918117131125,-7,4,2,-2,-1,0,-2,-7
1537918117131125,11,-15,-3,-2,-1,-3,-5,0
1537918117153066,0,18,-1,0,0,0,-1,-8
1537918117153066,-13,-14,3,2,0,0,-1,1
1537918117153066,-13,-17,3,1,0,1,0,0
1537918117153066,13,24,-2,-1,-2,-2,0,5
1537918117175008,0,-1,1,-1,-1,1,0,3
1537918117175008,34,10,-4,1,-2,-2,-2,1
1537918117176005,-42,-20,-1,0,0,-1,-2,-10
1537918117176005,34,14,0,0,0,-1,-3,3
1537918117189967,12,26,3,1,-1,0,1,9
1537918117189967,-6,3,2,-2,-2,-3,0,0
1537918117190965,6,-1,-4,0,2,4,4,6
1537918117190965,-2,0,-2,-2,-2,-2,-1,5
1537918117212906,-11,-4,0,-1,-2,-2,-3,-1
1537918117212906,-6,-7,-2,-3,0,1,-1,1
1537918117212906,7,22,0,-2,-1,0,1,-1
1537918117212906,-8,-19,-4,-1,0,-2,-3,-5
1537918117234848,-8,14,20,4,2,0,1,-6
1537918117234848,-11,-16,-24,-2,-1,-1,-1,-3
1537918117235845,-8,-9,0,-2,-2,-3,-2,-5
1537918117235845,5,12,-1,-2,0,0,0,-1
1537918117249808,2,-26,-8,-2,0,-1,-1,-3
1537918117249808,-13,-4,7,-1,-1,-1,-4,1
1537918117250805,-8,-25,-3,-2,-2,-2,-4,-5
1537918117250805,29,3,-4,-2,-1,0,0,2
1537918117272746,2,-3,4,1,0,1,4,3
1537918117272746,-7,2,-4,-2,-3,-2,-2,-5
1537918117273744,9,4,-6,-1,0,1,0,2
1537918117273744,-13,6,3,1,0,-1,-1,-4
1537918117295685,15,-11,-6,-2,-2,-2,-1,-1
1537918117295685,-13,-5,-2,-1,0,1,-1,-2
1537918117296682,11,12,1,1,0,-2,0,2
1537918117296682,-7,2,-1,0,-1,-1,-1,-3
1537918117310645,-6,4,-3,-2,0,0,-2,-4
1537918117310645,2,-3,3,-1,0,-2,-5,-5
1537918117310645,2,10,1,-1,-1,0,1,3
1537918117310645,-7,0,1,-2,-1,-4,-2,-1
1537918117332586,-9,-11,-8,-3,-2,-3,-6,-7
1537918117332586,3,3,6,-1,-2,-2,2,3
1537918117333584,5,8,7,0,-1,-1,-1,-1
1537918117333584,-2,-6,-16,-2,-1,0,0,1
1537918117355525,-1,16,17,0,-2,-1,-4,-4
1537918117355525,-1,-11,-7,0,0,0,-1,0
1537918117356523,16,20,33,3,0,2,0,1
1537918117356523,-10,-34,-68,-12,-4,-4,-5,-4
1537918117370485,-10,-8,-5,-2,-1,0,2,-1
1537918117370485,6,0,-2,-1,-1,0,-1,-2
1537918117377466,-4,20,36,3,-2,-2,-1,-4
1537918117377466,-3,-6,-8,-1,2,1,-2,0
1537918117392426,-1,-4,-4,2,0,0,-1,-1
1537918117392426,-6,4,0,1,1,1,2,-1
1537918117393424,-2,-8,-17,4,5,4,-2,-3
1537918117393424,-1,12,29,9,33,12,2,-3
1537918117415365,-1,-5,-12,-4,3,-3,-3,3
1537918117415365,3,4,10,-1,14,-4,-2,0
1537918117416362,-1,-4,-16,1,4,16,-2,0
1537918117416362,-2,3,11,11,12,-17,-3,-4
1537918117430325,0,-1,2,-5,3,-35,1,1
1537918117430325,-4,-3,-3,0,43,54,-8,-9
1537918117431323,9,-5,-18,-17,34,-55,-4,10
1537918117431323,-3,0,-10,-76,-102,-20,-4,5
1537918117461242,-10,-8,-3,0,44,97,-10,-7
1537918117461242,6,9,10,18,36,-76,23,4
1537918117461242,-2,2,6,39,18,21,2,-17
1537918117461242,-1,3,9,5,-33,-66,11,-10
1537918117475206,-7,-4,0,12,65,27,-37,-16
1537918117475206,5,11,9,13,-14,21,-7,10
1537918117476203,-5,-16,-29,-46,-57,111,37,1
1537918117476203,-1,3,18,43,101,6,-18,17
1537918117506122,7,-7,-17,-41,-128,-101,15,29
1537918117506122,-5,-2,2,8,39,-111,-36,-11
1537918117506122,7,5,13,33,44,70,16,9
1537918117506122,-9,-8,-14,-40,-109,-110,-1,-25
1537918117513104,-13,-4,-7,-11,-27,-60,4,-32
1537918117513104,4,2,5,4,47,41,-8,4
1537918117513104,-4,0,-5,-10,-62,-111,-22,-11
1537918117513104,-2,4,13,33,121,127,10,-6
1537918117543024,6,9,12,20,-20,-47,31,2
1537918117543024,2,-7,-13,-27,8,86,27,6
1537918117544021,-12,-3,2,-2,43,-75,-27,-18
1537918117544021,8,5,1,-6,31,-11,7,12
1537918117550005,-2,-5,-3,-7,-41,-52,-5,6
1537918117550005,3,2,2,6,2,75,18,2
1537918117551002,-6,-5,-4,0,25,84,0,-7
1537918117551002,5,6,10,13,-62,-15,-6,9
1537918117580923,2,-2,-2,2,8,-5,-9,1
1537918117580923,-2,-2,-2,-2,1,-118,-8,-4
1537918117581920,3,-5,-10,-19,-54,103,2,15
1537918117581920,-3,1,11,23,94,65,-18,-2
1537918117594885,11,-1,-8,-24,-70,-64,16,8
1537918117594885,-8,-5,-5,-9,-1,2,-16,-4
1537918117595883,4,2,3,12,17,-128,-3,4
1537918117595883,-1,-6,-6,-15,-45,-17,6,1
1537918117609845,3,-2,-2,6,38,36,-1,12
1537918117609845,-1,-1,0,8,10,11,-1,2
1537918117610843,6,4,0,6,61,-128,-4,5
1537918117610843,-1,-2,-5,-3,3,114,4,2
1537918117632784,-4,0,7,16,43,-68,-10,-7
1537918117632784,3,-3,-6,-20,-95,-57,9,6
1537918117633781,-3,-2,-5,-1,3,66,-3,-7
1537918117633781,-4,2,2,-4,-52,-121,4,4
1537918117654725,1,0,2,10,53,117,-9,-1
1537918117654725,1,5,8,23,103,-14,-9,-1
1537918117655723,-5,-8,-14,-31,-108,-30,5,-5
1537918117655723,-2,-1,0,-8,-49,22,12,-2
1537918117678662,6,5,5,15,54,-92,13,11
1537918117678662,-2,-2,1,3,9,6,3,0
1537918117679659,-2,-4,-6,-15,-42,-45,-10,0
1537918117679659,-1,0,0,1,13,13,2,-8
1537918117692624,-3,-2,1,6,40,44,-10,-8
1537918117692624,-5,-6,-8,-23,-127,91,17,-9
1537918117693621,3,-1,-5,-8,-21,-43,3,4
1537918117693621,-1,1,2,12,81,-88,-25,-5
1537918117715563,0,-3,-6,-14,-50,14,3,-3
1537918117715563,-1,-1,-2,-2,9,10,-2,-2
1537918117715563,-3,4,10,23,97,78,-10,-5
1537918117715563,-2,-2,1,8,44,105,-3,-5
1537918117729525,-5,-7,-15,-36,-79,-69,4,-6
1537918117729525,-2,-6,-9,-24,-55,-59,-4,-4
1537918117737504,-1,1,7,17,82,10,-12,-5
1537918117737504,5,6,10,21,32,36,12,2
1537918117752464,0,-3,-8,-9,14,46,-1,0
1537918117752464,-5,2,6,10,22,-31,-10,-15
1537918117753462,-2,-2,-5,-7,-6,97,9,3
1537918117753462,5,4,6,13,62,92,14,6
1537918117775403,-3,-2,-2,-5,-45,-32,3,0
1537918117775403,3,-1,-2,-3,30,11,-10,3
1537918117776400,-1,-2,0,-1,-50,-39,1,0
1537918117776400,1,1,-3,-4,-18,-63,2,-3
1537918117789365,1,0,2,5,56,89,1,6
1537918117789365,-3,-4,-5,-8,-48,-47,-9,-4
1537918117797344,1,2,9,26,67,-36,-4,3
1537918117797344,-7,-9,-14,-28,-45,-3,-13,-7
1537918117812304,-1,-1,-4,-7,-59,48,8,-5
1537918117812304,5,4,6,16,30,-31,1,11
1537918117813302,-4,1,5,15,103,127,-8,-14
1537918117813302,2,-4,-8,-20,-110,-57,4,6
1537918117835242,0,-2,-3,-7,-42,-41,0,3
1537918117835242,-1,2,1,6,41,57,-3,-3
1537918117836240,0,-1,-3,-9,-58,-83,7,4
1537918117836240,-5,-4,-8,-16,-63,-42,3,-4
1537918117849205,-5,0,6,17,82,58,-3,-8
1537918117849205,2,1,2,2,-40,70,9,4
1537918117857184,-1,-2,-8,-23,-71,-66,2,8
1537918117857184,1,2,4,8,15,-44,5,2
1537918117873142,-1,-2,-2,-1,-28,-43,-3,-2
1537918117873142,-1,2,7,17,121,96,-10,-2
1537918117873142,0,-7,-14,-29,-88,-54,3,9
1537918117873142,-1,-2,0,-3,-6,-60,-8,-1
1537918117896080,-2,3,10,24,110,49,-14,-7
1537918117896080,0,-3,-5,-5,-5,-99,7,2
1537918117897077,0,-1,-3,-7,8,7,-1,-3
1537918117897077,-2,3,5,17,86,-21,-6,-5
1537918117909045,2,-2,-4,-9,-47,-19,-6,4
1537918117909045,1,1,4,7,-6,-29,9,1
1537918117918021,2,-1,0,3,23,-32,-8,1
1537918117918021,-1,1,3,6,19,-11,2,-1
1537918117932981,1,2,4,17,86,4,-11,3
1537918117932981,-3,-5,-9,-23,-82,-2,1,-1
1537918117932981,-2,-1,1,5,16,-7,0,-8
1537918117932981,-1,0,3,7,30,67,0,-1
1537918117955920,0,2,2,4,37,41,-8,2
1537918117955920,-3,-3,-5,-13,-55,-11,6,-3
1537918117956918,0,0,-1,2,5,-28,-1,1
1537918117956918,-3,-4,-7,-13,-47,-58,-2,-4
1537918117969883,-4,-2,0,-5,-38,-22,4,0
1537918117969883,-3,1,0,3,23,16,-5,-3
1537918117977861,-3,0,3,8,21,29,1,-6
1537918117977861,2,0,-4,-8,0,12,5,6
1537918117992821,-2,-1,-1,-4,4,-11,4,-6
1537918117992821,-1,-3,-6,-11,-39,-41,-5,-4
1537918117999803,-3,-2,-2,-4,-6,39,-3,-3
1537918117999803,0,-1,0,-1,-28,-92,0,2
1537918118015760,-1,1,7,19,56,60,-10,-2
1537918118015760,-4,-5,-8,-16,-55,-20,-7,-5
1537918118016758,0,2,0,1,5,24,4,0
1537918118016758,-3,-2,-1,-1,13,-1,-11,-6
1537918118045681,-1,1,2,4,-3,24,11,3
1537918118045681,2,0,-1,0,16,-14,-1,7
1537918118046678,-1,-1,-1,-2,-5,-10,1,-2
1537918118046678,-2,-1,-1,-2,-23,-48,-8,-1
1537918118052662,4,-3,-8,-13,-48,-84,2,2
1537918118052662,0,-1,0,0,8,59,5,0
1537918118053659,-2,-1,0,-1,1,66,-2,-2
1537918118053659,-1,0,-2,-4,-31,-7,-6,0
1537918118075600,-3,-3,-4,-11,-28,-2,-3,-4
1537918118075600,-1,-1,0,2,5,-19,-3,5
1537918118076598,0,0,-4,-5,-6,26,-4,-3
1537918118076598,-3,-1,0,1,20,10,0,-4
1537918118098539,-1,0,-1,3,-2,5,1,-3
1537918118098539,0,-1,-2,-4,2,-29,-3,-1
1537918118099536,-1,-1,2,4,15,-10,1,-1
1537918118099536,1,2,3,10,53,37,-6,2
1537918118112502,-1,-3,-4,-7,-25,-28,-1,-3
1537918118112502,-2,-1,2,6,26,31,-1,-1
1537918118120481,0,-1,-1,0,-11,-23,4,1
1537918118120481,-1,0,-1,0,3,36,2,0
1537918118135441,-2,-1,1,2,27,18,6,0
1537918118135441,0,1,3,7,21,40,-5,-1
1537918118136437,-2,-3,-6,-9,-36,-31,-3,-1
1537918118136437,-1,-3,-1,-3,-8,24,3,0
1537918118174336,-1,2,2,3,16,2,-2,0
1537918118174336,0,-1,-1,3,10,-5,3,-2
1537918118175334,-1,0,1,0,-10,-30,3,-2
1537918118175334,1,-1,0,-1,6,28,0,0
1537918118177328,2,0,0,-1,5,28,-1,-2
1537918118177328,-2,-2,0,-2,-5,-17,0,-3
1537918118180320,0,-1,-1,3,10,6,1,0
1537918118180320,-2,-2,-1,-2,-7,5,2,-2
1537918118195281,-1,0,1,2,3,-2,-3,-1
1537918118195281,-1,-1,0,-2,-7,-13,0,-2
1537918118219216,2,0,-1,-1,4,-16,-1,2
1537918118219216,-1,-1,-1,0,9,21,0,1
1537918118221211,0,0,-1,-2,-1,-6,-1,2
1537918118221211,-2,-2,0,-1,-2,1,0,-1
1537918118222209,0,-1,0,2,4,7,0,2
1537918118222209,-1,-1,-3,-2,-3,2,-2,-2
1537918118232182,0,-1,1,-1,1,9,-1,-1
1537918118232182,-2,2,-1,-1,-6,-7,0,-3
1537918118240160,-2,-2,-2,-1,1,-7,0,-3
1537918118240160,-2,0,-1,-1,-2,1,1,0
1537918118256118,1,-2,-1,-3,-2,-5,-1,0
1537918118256118,1,-1,-2,-1,2,3,0,-1
1537918118256118,0,-2,1,3,2,-3,-2,-4
1537918118256118,-1,-1,-1,-2,-1,5,-2,-3
1537918118285040,-1,1,-2,-2,0,5,0,-5
1537918118285040,1,0,-2,0,-4,-5,-1,-4
1537918118294017,-2,-2,-1,-1,1,0,-1,-3
1537918118294017,-1,-3,0,-3,-3,3,0,1
1537918118296012,-4,-5,0,1,0,1,-1,2
1537918118296012,8,26,0,-4,-4,-3,-2,4
1537918118300998,-8,-22,4,4,3,-2,1,5
1537918118300998,-6,1,-3,-1,-1,3,-3,-1
1537918118315958,-1,-4,-1,-1,-1,-2,-2,1
1537918118315958,-3,-1,-1,0,1,1,0,1
1537918118316955,4,7,0,-2,0,0,-1,3
1537918118316955,3,-1,0,0,-1,1,0,-1
1537918118337899,-3,0,-2,1,-2,1,-2,-2
1537918118337899,-3,-8,-1,-2,-2,-2,1,-1
1537918118339894,1,3,0,-1,0,-3,-1,-2
1537918118339894,0,-5,-1,-2,0,1,3,0
1537918118351862,2,6,-2,0,-2,-2,0,-2
1537918118351862,-2,-5,0,0,-1,0,0,-1
1537918118360838,0,-1,-3,-2,0,-2,-1,-1
1537918118360838,1,5,0,-1,0,0,2,-2
1537918118375798,1,1,3,-2,1,1,0,1
1537918118375798,-3,-5,-2,-1,-1,0,2,-3
1537918118377793,-1,3,-2,-2,-1,0,-1,0
1537918118377793,1,-2,0,-1,-1,1,-2,1
1537918118398737,-1,-2,-2,-2,0,-1,0,-1
1537918118398737,-3,-4,-1,0,0,-1,-2,0
1537918118400732,2,4,-2,0,-1,0,-1,-3
1537918118400732,1,-1,1,-1,0,0,0,-1
1537918118412700,-2,-2,-2,0,-1,-2,1,-1
1537918118412700,0,-1,-3,0,-1,-1,-2,0
1537918118420678,-1,1,0,-2,-1,0,1,0
1537918118420678,-1,0,0,0,-1,-3,-2,0
1537918118435639,0,-1,0,0,-1,-1,-1,-3
1537918118435639,-2,-2,-1,-2,-1,0,-2,-1
1537918118437633,1,4,-1,0,0,0,-2,-1
1537918118437633,-4,-4,-2,-1,-1,-1,-2,0
1537918118458577,-8,-6,-3,-2,-1,-2,-1,-1
1537918118458577,11,1,1,-1,-1,-1,1,-1
1537918118459574,0,1,-2,-1,0,-1,-1,-1
1537918118459574,2,-2,-2,-2,-1,0,-1,0
1537918118480518,0,0,0,1,-1,0,-1,-1
1537918118480518,-4,-4,-2,0,-1,-1,-1,1
1537918118482513,-2,-1,1,0,-1,0,-1,-1
1537918118482513,1,-1,-1,-1,-2,-1,-2,-1
1537918118494481,-3,1,1,-2,-2,-1,0,-1
1537918118494481,-1,-3,1,-1,0,-2,0,-1
1537918118503457,-1,1,-2,-2,0,-2,-1,1
1537918118503457,-3,-1,-2,0,-3,0,-2,-3
1537918118518417,1,0,0,0,-2,0,-3,-1
1537918118518417,-1,0,0,-1,0,-2,-1,-2
1537918118519414,-1,-2,0,-2,-3,-4,-1,-2
1537918118519414,-1,-2,1,0,2,-1,1,-2
1537918118532379,0,1,0,-2,1,0,0,1
1537918118532379,-2,-2,-1,-1,-2,0,1,-1
1537918118541355,-2,-3,0,-1,-1,1,-1,0
1537918118541355,0,1,0,-2,-3,0,-1,0
1537918118563297,3,0,-1,0,-1,1,-2,-2
1537918118563297,-2,-1,0,-1,-1,-1,-2,-1
1537918118565291,1,0,-2,-1,1,-1,-1,0
1537918118565291,0,0,-2,-2,1,1,-1,0
1537918118578256,-1,-1,-1,1,-1,-2,0,0
1537918118578256,-2,-1,-2,-1,-2,0,-1,-1
1537918118580251,-1,-1,-2,-1,-1,-2,0,-1
1537918118580251,0,0,0,0,-1,-1,-2,0
1537918118592219,-2,-2,-2,-2,0,-1,0,0
1537918118592219,-2,-2,0,0,-1,0,-1,-3
1537918118601195,0,-1,0,-1,-1,0,-1,2
1537918118601195,-1,0,0,1,0,0,-1,-1
1537918118616155,0,0,0,0,-2,-1,-1,-1
1537918118616155,-1,-1,-1,0,-2,-1,0,0
1537918118617153,-1,-2,-1,-1,0,-1,0,0
1537918118617153,0,0,-2,-1,-1,-3,0,-1
1537918118638097,1,0,0,-1,-1,-1,-1,-2
1537918118638097,0,-2,-1,1,-1,-1,0,1
1537918118640091,-1,-1,0,1,-1,-1,0,-3
1537918118640091,-1,-2,-1,-2,-2,0,2,-2
1537918118652060,0,1,-1,-1,1,0,0,-1
1537918118652060,-1,0,-1,-1,-2,-2,-1,-2
1537918118661035,-2,0,-1,-2,-1,-1,-3,-1
1537918118661035,-1,-1,-1,0,0,-1,0,-1
1537918118675995,0,-1,-1,1,-1,0,0,0
1537918118675995,-2,-1,-1,-2,1,0,-1,-1
1537918118676993,-1,-1,-1,-1,0,-1,0,0
1537918118676993,-1,-1,0,1,0,-1,-1,-2
1537918118697937,-2,-1,0,-2,0,-2,-1,-2
1537918118697937,0,0,-1,0,-1,-1,-1,1
1537918118699931,-2,-3,1,1,-1,3,0,-2
1537918118699931,1,-1,1,4,21,9,-2,0
1537918118711900,-3,1,3,14,35,10,-4,0
1537918118711900,5,2,-1,2,2,-7,4,7
1537918118726859,-8,-2,-1,-2,-16,-36,-2,-10
1537918118726859,12,-2,-6,-4,26,-3,-2,33
1537918118734838,-3,-7,-18,-47,-86,-80,-12,-3
1537918118734838,-6,2,9,26,106,105,8,-3
1537918118741819,14,7,2,9,8,-55,0,15
1537918118741819,-6,-6,-13,-27,-42,41,6,-14
1537918118758774,2,0,-1,1,45,6,-2,-1
1537918118758774,9,0,-2,-7,-17,38,10,14
1537918118759771,-10,-2,4,17,54,84,2,-17
1537918118759771,1,5,9,18,6,20,-11,-6
1537918118772737,-6,0,3,9,-47,-38,2,-11
1537918118772737,-3,-5,-9,-26,-80,-79,5,1
1537918118780715,2,-3,-5,-2,53,-29,-14,13
1537918118780715,-11,1,4,2,15,57,32,-2
1537918118795675,-1,1,15,35,115,-54,-53,3
1537918118795675,-8,-7,-11,-26,-82,26,13,-3
1537918118809638,8,2,-2,-4,-6,-60,15,18
1537918118809638,-11,-7,-8,-14,-38,12,4,-19
1537918118818614,-2,4,10,28,108,69,6,-13
1537918118818614,-4,2,3,9,3,-34,-8,-27
1537918118819611,16,10,7,17,38,49,18,15
1537918118819611,-11,-9,-14,-28,-23,-9,-3,-22
1537918118842550,-1,-3,-8,-14,-16,-38,14,0
1537918118842550,4,-3,-2,-6,-9,78,2,0
1537918118846539,-7,0,5,14,47,61,-12,-24
1537918118846539,1,4,14,29,61,-95,-30,-9
1537918118855515,2,1,6,9,42,124,24,8
1537918118855515,-12,-13,-27,-53,-47,-122,-51,-11
1537918118861500,-11,-8,-11,-24,-14,62,-3,-11
1537918118861500,12,0,0,2,43,48,-14,21
1537918118878454,-2,-2,-4,-14,-37,-34,5,0
1537918118878454,1,4,10,22,55,3,3,-5
1537918118879452,-2,-5,-8,-16,-86,-44,-6,4
1537918118879452,0,-2,-9,-15,-49,-35,-14,4
1537918118900396,-4,0,0,2,4,-39,-7,-4
1537918118900396,7,0,0,2,-8,99,14,19
1537918118902390,-4,-4,-6,-16,-14,21,5,-5
1537918118902390,-2,2,6,10,-19,43,11,-5
1537918118916353,4,1,0,2,29,-1,1,5
1537918118916353,0,4,10,21,82,31,4,1
1537918118923334,-7,-3,-1,3,-5,85,-12,-15
1537918118923334,4,-2,-5,-4,-27,30,-3,13
1537918118938294,-1,-2,-5,-14,-33,112,-2,-2
1537918118938294,-6,-7,-9,-19,-39,-10,-10,-3
1537918118940289,8,2,3,7,34,77,15,17
1537918118940289,-2,4,5,14,61,45,3,-6
1537918118960235,-3,-5,-9,-25,-127,-113,6,-3
1537918118960235,-2,3,7,21,49,23,-4,2
1537918118967217,2,3,9,19,64,34,-6,0
1537918118967217,-6,-5,-8,-19,-84,-109,2,-4
1537918118975195,10,4,8,28,127,80,-5,17
1537918118975195,-2,-1,-6,-18,-72,54,25,-5
1537918118982177,-2,-2,-3,-9,13,-57,-4,-1
1537918118982177,-4,1,1,1,-30,12,7,-3
1537918118998134,2,0,-3,-10,-69,-105,5,2
1537918118998134,2,5,9,24,54,-53,-11,-1
1537918119000129,-6,-6,-8,-17,-60,69,5,-8
1537918119000129,-1,-2,-2,-2,7,22,1,4
1537918119021073,-4,-1,-1,1,-21,59,10,-6
1537918119021073,-2,0,-2,-2,-8,50,-2,-3
1537918119022070,1,1,-1,-1,-1,-47,11,1
1537918119022070,4,3,4,12,67,32,-2,-4
1537918119036033,-2,-3,-3,-8,-26,35,-2,2
1537918119036033,4,6,15,34,119,-31,-15,6
1537918119037030,-10,-12,-18,-39,-98,-76,-14,-6
1537918119037030,10,0,-1,-2,4,-65,-2,14
1537918119057974,0,0,5,9,67,18,-7,-10
1537918119057974,0,2,4,9,9,-103,5,-2
1537918119059969,0,-1,-1,0,-13,-43,-3,-1
1537918119059969,-5,-3,-3,-8,-47,19,-1,-8
1537918119080913,-2,0,-3,0,8,55,18,-6
1537918119080913,3,-1,0,2,21,-16,-7,4
1537918119086897,2,3,4,4,-9,-56,3,2
1537918119086897,-3,0,1,4,13,11,-1,-5
1537918119094876,5,-2,-2,-2,2,-13,-8,20
1537918119094876,-4,-2,-1,3,17,-2,-4,-6
1537918119118811,4,2,2,5,-18,-44,13,6
1537918119118811,-3,1,8,18,88,31,-11,-8
1537918119119809,-7,-5,-10,-22,-94,-78,16,-10
1537918119119809,3,-1,-5,-8,-26,36,8,9
1537918119120806,-1,-1,0,1,28,-44,-16,1
1537918119120806,-1,-2,-4,-13,-69,8,2,0
1537918119140753,1,0,0,5,21,24,-4,1
1537918119140753,-5,-2,-2,-6,-23,-7,-5,-10
1537918119142748,0,3,3,10,33,84,15,-2
1537918119142748,7,10,23,56,127,61,11,7
1537918119154715,-4,-11,-24,-57,-108,-76,14,1
1537918119154715,-7,-2,1,6,84,54,-29,-12
1537918119161697,0,-4,-4,-4,21,41,0,7
1537918119161697,1,-1,-11,-29,-106,-121,-3,4
1537918119178652,0,4,8,22,37,37,-11,-5
1537918119178652,5,-1,-1,1,-6,43,11,6
1537918119179649,-3,-2,2,4,14,-47,-16,-7
1537918119179649,-4,-1,0,2,21,99,16,-6
1537918119200594,-1,0,0,-2,0,75,6,1
1537918119200594,-8,-3,-4,-7,-7,-102,-9,-19
1537918119202589,1,-4,-9,-26,-79,-12,24,7
1537918119202589,2,2,2,5,28,63,11,-1
1537918119215553,-1,1,5,12,89,108,-1,-5
1537918119215553,-3,-5,-13,-31,-102,-50,5,3
1537918119221537,1,-1,-3,-4,-26,25,-7,7
1537918119221537,-8,-4,-4,-3,20,-97,-33,-12
1537918119238491,7,2,-1,-7,-43,35,35,10
1537918119238491,4,-3,-1,-1,-4,-35,2,11
1537918119240486,-3,2,7,23,105,87,-11,-8
1537918119240486,-6,-6,-15,-32,-117,-113,-7,-2
1537918119260433,-2,1,5,17,32,2,-19,-5
1537918119260433,5,2,4,14,33,-49,-2,7
1537918119262428,-6,-3,-4,-9,-13,72,-1,-12
1537918119262428,-2,-2,5,12,38,-26,-15,-4
1537918119275393,-4,-1,1,0,-42,28,3,-5
1537918119275393,-2,-5,-6,-7,33,85,-7,-4
1537918119282374,-2,-2,-3,-9,-65,-30,-12,-4
1537918119282374,1,3,10,29,117,85,-2,-4
1537918119298332,-1,-6,-14,-35,-85,-128,-6,5
1537918119298332,-3,-1,3,0,17,82,1,-4
1537918119299329,4,8,9,27,118,-5,-13,-4
1537918119299329,-1,-9,-14,-25,-53,-39,-1,7
1537918119321271,0,-4,-9,-21,-85,-49,-1,2
1537918119321271,-2,0,4,8,8,26,6,-1
1537918119322268,1,-1,0,-4,-28,-108,4,-2
1537918119322268,10,-3,-5,-8,-16,55,-2,20
1537918119335234,-3,3,7,22,65,-64,-16,-3
1537918119335234,-3,-2,-3,-11,-94,-70,10,-3
1537918119342214,-1,-2,2,8,55,55,-1,1
1537918119342214,-2,0,0,-2,10,9,-4,1
1537918119358171,0,-2,1,7,43,80,2,-3
1537918119358171,-1,0,0,4,19,19,-11,-4
1537918119360167,-1,1,4,12,61,-2,-23,-1
1537918119360167,-5,-4,-10,-30,-88,-119,12,-3
1537918119381110,1,1,3,10,58,36,-12,-1
1537918119381110,0,3,1,0,-17,-71,15,3
1537918119382108,-1,0,3,11,44,4,-3,-1
1537918119382108,-4,-2,0,-3,-15,10,6,-7
1537918119394076,1,0,-2,1,0,19,-3,0
1537918119394076,-2,-1,1,3,25,13,-7,-3
1537918119403052,-4,-1,-2,-9,-87,-94,5,-12
1537918119403052,1,-1,-4,-6,-27,-23,6,-1
1537918119418012,-2,0,0,2,15,46,-13,-3
1537918119418012,-5,-2,-2,-2,-18,38,9,-8
1537918119420006,-2,-1,0,3,36,45,-4,0
1537918119420006,-1,-1,-3,-13,-46,-25,14,1
1537918119440950,-2,0,2,11,77,-29,-15,-6
1537918119440950,0,2,4,3,2,-35,-5,-8
1537918119441948,0,-7,-12,-28,-99,41,5,0
1537918119441948,0,1,4,9,34,48,-4,-4
1537918119454913,-1,1,2,7,41,14,4,-2
1537918119454913,-2,-2,-4,-7,-21,-54,-6,6
1537918119469873,-5,1,1,4,22,-9,3,-2
1537918119469873,-2,1,3,9,13,-27,-4,-3
1537918119478849,3,1,4,10,45,42,-7,0
1537918119478849,0,-1,-2,0,26,74,9,-1
1537918119479847,-1,-2,-3,-8,-44,2,-4,-3
1537918119479847,-2,-1,0,5,22,44,4,-1
1537918119499793,-2,-5,-2,-11,-59,-39,7,-5
1537918119499793,3,0,3,8,59,38,-6,2
1537918119508769,-1,-4,-6,-13,-56,-78,-13,-1
1537918119508769,-1,1,1,-1,-6,-19,1,-4
1537918119514753,0,1,3,9,16,3,3,2
1537918119514753,2,-4,-6,-16,-64,36,8,3
1537918119523729,1,-2,-1,0,40,18,2,5
1537918119523729,-3,-2,0,2,7,-14,-7,-4
1537918119538689,0,-1,-2,-4,-20,3,4,4
1537918119538689,3,2,4,11,25,43,-3,3
1537918119539687,-5,0,-2,-3,-5,13,5,-5
1537918119539687,2,0,-4,-3,-6,-9,-1,0
1537918119560630,-3,-1,2,2,2,-16,0,-2
1537918119560630,-1,-1,1,3,12,-19,-2,-1
1537918119562625,1,0,-1,1,2,-10,5,1
1537918119562625,0,-1,2,4,38,35,-5,5
1537918119574593,-2,-1,-2,0,2,-21,-5,-4
1537918119574593,-1,-2,-3,-3,-8,-19,-2,2
1537918119590550,1,-2,1,5,-4,6,4,-1
1537918119590550,-1,-2,-1,-3,16,18,-1,-4
1537918119598529,-1,-1,-2,-2,-14,-10,1,2
1537918119598529,-2,-3,-2,-6,-19,-26,-2,0
1537918119599526,2,-1,-3,-3,-4,-6,2,2
1537918119599526,-2,1,3,6,20,14,-2,0
1537918119620470,-1,2,2,3,-8,-13,0,1
1537918119620470,-1,-4,-8,-11,-18,-26,-6,0
1537918119622465,-1,-1,1,4,15,-1,2,-1
1537918119622465,-1,0,0,0,7,10,-2,0
1537918119634433,-3,-3,-3,-6,-17,-21,-2,1
1537918119634433,-1,1,11,6,0,6,2,-2
1537918119643409,2,1,-5,-4,7,12,7,3
1537918119643409,-1,-8,-15,-6,1,3,5,1
1537918119666348,1,0,-1,0,-8,-10,-5,0
1537918119666348,3,1,-5,-1,3,-14,0,2
1537918119667345,0,10,16,11,-4,0,-5,0
1537918119667345,4,-30,-25,-1,9,6,-1,-3
1537918119681308,15,49,-17,-37,-1,-4,3,5
1537918119681308,-67,-64,16,38,-5,-18,-6,-11
1537918119682305,49,16,-47,-35,6,4,2,5
1537918119682305,-10,13,7,1,-3,-4,-4,-5
1537918119694273,2,3,15,12,-7,-2,-3,1
1537918119694273,13,-4,-1,-14,-3,-1,1,6
1537918119703249,-23,-38,4,15,-3,-4,-3,-10
1537918119703249,38,-30,-2,5,7,6,2,17
1537918119717212,-3,49,-1,-9,-5,-2,-4,-8
1537918119717212,-20,-34,-12,1,-3,-2,0,-2
1537918119724193,21,6,25,2,5,-5,2,4
1537918119724193,-31,-60,-1,-4,1,-1,-3,-10
1537918119748129,3,58,3,3,0,6,2,2
1537918119748129,-11,9,0,-5,-4,-10,-9,-6
1537918119750124,-2,2,-12,-2,-1,-3,-2,-4
1537918119750124,16,24,12,-1,-3,3,-1,-1
1537918119765084,-9,-46,1,10,-3,0,-2,0
1537918119765084,33,23,-5,-10,3,-2,0,5
1537918119766082,19,-20,-4,-5,-3,-2,-1,-1
1537918119766082,-24,-3,12,5,1,1,-2,-8
1537918119777052,-16,-21,-8,-2,-5,-4,-1,-4
1537918119777052,5,18,-5,-4,4,2,3,7
1537918119786028,-30,-2,1,0,-2,-3,-4,0
1537918119786028,47,66,20,1,1,0,-1,8
1537918119800988,-17,-38,-30,0,-2,0,-2,-9
1537918119800988,9,7,10,-3,-3,1,0,-6
1537918119801985,-5,-2,1,4,-1,-1,-2,7
1537918119801985,-10,5,-3,-1,0,-3,-5,-16
1537918119814951,4,-8,9,1,-1,-1,3,1
1537918119814951,22,2,-2,-2,-1,-1,0,2
1537918119822929,-31,-8,18,5,4,2,1,-8
1537918119822929,-2,65,-14,-3,-1,0,-4,-2
1537918119837889,-17,-40,9,-3,-6,-4,-4,-7
1537918119837889,19,10,-20,-7,0,-2,-5,7
1537918119851852,3,27,1,1,1,-2,3,7
1537918119851852,11,-16,-3,-1,0,2,4,5
1537918119860828,-3,-15,1,4,1,2,1,6
1537918119860828,-12,27,4,1,0,-1,3,-3
1537918119862823,7,-9,-3,0,-3,-5,-3,-7
1537918119862823,-9,-33,-3,-2,0,0,1,2
1537918119874790,17,49,3,-1,0,2,4,-2
1537918119874790,-21,-42,0,-1,-1,-1,0,-10
1537918119883767,-6,-12,-3,1,0,0,-4,-2
1537918119883767,-46,-48,-4,1,1,2,2,-5
1537918119897729,31,5,0,-1,-2,1,-3,-1
1537918119897729,4,29,-2,-3,-2,-1,-2,1
1537918119904711,-1,-23,2,3,4,2,2,9
1537918119904711,-26,11,1,-2,-2,-3,-4,0
1537918119920668,20,-3,-1,-1,-1,-1,-1,10
1537918119920668,1,5,-2,0,1,-1,-1,0
1537918119922663,1,-1,-2,0,-2,-1,2,1
1537918119922663,0,7,0,-2,-2,-1,0,-1
1537918119943607,-21,-32,-2,-2,-3,-1,-2,-1
1537918119943607,7,-2,-1,-1,-2,0,1,-2
1537918119944605,-2,21,0,-2,-1,-1,-1,-5
1537918119944605,1,-3,-1,-2,0,-2,-1,-1
1537918119957569,-2,1,-2,0,0,1,0,-4
1537918119957569,3,5,-1,-3,-1,-1,0,-1
1537918119964551,-11,-2,-2,0,-3,0,-2,-6
1537918119964551,12,10,1,2,0,-1,0,2
1537918119981505,-2,-13,0,1,0,0,0,1
1537918119981505,-4,-4,1,-1,-2,-2,-2,-3
1537918119982503,-2,6,-2,0,-2,-1,-2,-2
1537918119982503,4,4,-2,-1,-1,-1,-3,0
1537918120003447,-4,-1,0,1,0,-2,-1,-2
1537918120003447,-3,-4,0,-1,-1,-1,0,1
1537918120004444,0,8,-2,-3,-2,0,0,-3
1537918120004444,3,2,0,0,0,1,0,0
1537918120017409,-8,-10,-1,0,3,1,0,1
1537918120017409,3,2,2,8,14,13,0,-2
1537918120026385,1,1,2,8,48,-6,-2,0
1537918120026385,2,1,0,-5,-26,-23,0,1
1537918120040348,-8,-6,1,4,11,-5,-5,-7
1537918120040348,1,-2,-4,-6,-32,-43,11,2
1537918120042343,2,3,-1,-8,-24,-14,1,1
1537918120042343,-1,0,5,16,73,97,-4,-3
1537918120063287,0,-3,-16,-49,-111,-56,17,6
1537918120063287,-7,-7,-14,-24,-6,-47,-27,-14
1537918120065281,0,4,9,17,92,15,5,1
1537918120065281,-3,-2,-1,4,28,-26,-11,-5
1537918120077249,9,1,9,27,40,72,20,26
1537918120077249,-1,3,7,18,58,-72,-42,-7
1537918120086225,8,7,2,-7,-118,50,62,48
1537918120086225,-1,-10,-19,-37,-88,-70,-13,-8
1537918120108167,-2,-2,1,6,0,-23,-10,4
1537918120108167,3,4,11,25,78,-86,-9,5
1537918120110162,-6,-4,-8,-16,-50,38,-5,-3
1537918120110162,-3,2,4,17,37,45,9,13
1537918120123127,1,5,11,40,78,83,-20,6
1537918120123127,-7,-12,-23,-54,-97,-22,9,-1
1537918120125122,-2,-1,-4,-7,26,53,-7,-15
1537918120125122,5,0,-7,-20,-34,2,31,0
1537918120137089,-5,-1,4,23,119,-23,-40,-35
1537918120137089,4,5,6,-1,-73,79,36,-2
1537918120146066,3,2,7,25,79,60,-12,-12
1537918120146066,-6,-10,-23,-55,-128,-105,-3,-5
1537918120161026,1,-1,0,-3,32,90,8,-3
1537918120161026,9,6,10,17,37,50,21,9
1537918120162023,-6,-10,-19,-32,-39,-67,-16,-12
1537918120162023,3,7,15,34,127,106,-1,9
1537918120182967,-2,-3,-4,-18,-60,-128,3,1
1537918120182967,-2,1,-2,-7,-70,-61,3,-5
1537918120184962,-2,-1,0,-2,-17,-5,-7,-1
1537918120184962,2,2,5,11,-7,63,-17,-20
1537918120196930,1,-1,0,2,57,59,-18,0
1537918120196930,-6,-5,-6,-7,-51,-28,-7,-8
1537918120205905,1,-4,-9,-27,-98,51,15,19
1537918120205905,0,3,6,14,58,73,-6,-6
1537918120220865,-5,-1,-3,-7,-39,-48,-5,-11
1537918120220865,-6,-4,-5,-3,5,33,-6,-7
1537918120221863,-2,-1,4,15,61,25,-4,-5
1537918120221863,-2,-2,1,2,-18,10,10,4
1537918120243804,-2,-1,-1,0,8,41,12,0
1537918120243804,1,0,0,11,42,-48,-1,12
1537918120244802,1,-1,0,-1,-42,-128,-5,1
1537918120244802,-5,-2,-2,-5,1,-29,-10,-3
1537918120256770,1,3,2,4,11,-62,11,-6
1537918120256770,-1,-4,-8,-18,-87,5,11,2
1537918120265746,0,3,10,33,127,46,-28,-3
1537918120265746,-4,-3,-9,-32,-121,-128,12,-9
1537918120280706,3,-1,-2,-6,2,-54,-8,-4
1537918120280706,-1,0,6,16,121,109,-3,22
1537918120282700,-3,1,1,3,42,11,-24,-37
1537918120282700,-4,-1,1,3,-41,-41,7,6
1537918120304642,-6,-4,-6,-13,-60,6,7,-6
1537918120304642,-3,1,3,8,44,61,-5,-5
1537918120306636,1,4,1,8,9,-66,9,7
1537918120306636,3,0,2,10,49,21,-6,10
1537918120316610,-1,-2,-5,-10,-37,20,6,-1
1537918120316610,0,2,4,14,28,48,4,-4
1537918120325586,0,0,-1,-1,0,66,7,9
1537918120325586,-1,-3,-6,-20,-58,-66,6,-3
1537918120340545,-2,-2,-2,-6,-13,2,0,0
1537918120340545,7,6,7,10,8,-28,7,11
1537918120342541,-3,-3,-4,-11,-34,87,6,6
1537918120342541,1,2,4,9,46,115,-7,-4
1537918120363484,-3,-2,-1,-4,-36,-49,3,-5
1537918120363484,0,-4,-4,-3,11,-31,-17,-6
1537918120364482,-3,1,2,1,-18,-36,4,-1
1537918120364482,-1,0,1,8,21,-46,-8,-7
1537918120377447,-2,-1,0,1,-12,66,9,1
1537918120377447,-2,-2,-2,-4,7,-4,-4,-7
1537918120385425,-1,-3,-3,-11,-51,-55,-2,0
1537918120385425,-1,1,1,7,19,30,-2,1
1537918120400386,1,1,-2,-2,-1,-12,-3,4
1537918120400386,-5,-2,-3,-5,-12,32,7,-8
1537918120402381,0,0,-2,-3,2,-33,-14,1
1537918120402381,2,1,1,5,17,1,7,3
1537918120423325,3,-1,1,0,4,15,17,8
1537918120423325,2,-2,-2,-6,-16,7,-4,5
1537918120424322,-3,-3,-4,0,3,-30,-68,1
1537918120424322,1,1,-3,2,19,2,11,-2
1537918120437287,4,1,0,-5,-13,14,29,1
1537918120437287,1,-3,-3,0,8,5,-53,11
1537918120446263,-20,-10,2,2,1,-12,50,6
1537918120446263,39,11,0,2,2,17,14,4
1537918120461223,-8,3,-3,-6,1,-3,-54,-26
1537918120461223,4,7,8,5,2,8,97,28
1537918120462221,-22,-13,-7,0,0,-29,-61,-19
1537918120462221,-3,3,-4,-2,2,25,28,3
1537918120483164,-30,-16,6,5,6,8,12,-5
1537918120483164,-3,3,0,-4,-4,11,-65,-28
1537918120485159,22,8,10,2,-4,-21,93,31
1537918120485159,-18,3,-12,1,7,8,-16,-7
1537918120497127,-5,2,-4,-2,-4,-10,-39,6
1537918120497127,-5,25,-2,-1,-8,-2,-14,3
1537918120506103,-17,-36,6,0,2,2,-7,-20
1537918120506103,-2,4,3,4,6,-4,13,-1
1537918120521063,11,-7,-1,-7,-1,-12,-54,0
1537918120521063,1,-7,-25,-1,-2,28,20,-3
1537918120522060,33,10,11,-3,-3,6,2,3
1537918120522060,-20,-18,6,6,6,-16,-94,-33
1537918120543004,-7,2,6,-4,-10,-10,1,-9
1537918120543004,50,6,0,-3,1,12,24,-4
1537918120544999,-52,-11,-3,4,0,-11,19,-25
1537918120544999,1,3,-14,-4,-1,4,-13,5
1537918120556967,-2,-10,23,10,4,-3,-78,-17
1537918120556967,-12,-1,-14,-14,-13,-10,40,-77
1537918120565943,12,10,6,1,2,2,-51,60
1537918120565943,-6,-7,-2,-2,-2,0,-27,2
1537918120580903,3,21,-7,1,2,-3,40,24
1537918120580903,-6,-4,2,0,-1,11,61,30
1537918120582898,22,16,16,-6,-9,-5,-32,-37
1537918120582898,-29,-2,6,-1,3,1,-13,-46
1537918120603841,12,-79,-39,-2,5,16,64,13
1537918120603841,-22,-20,7,3,-1,-9,-55,8
1537918120604839,0,4,-20,-4,-5,-16,27,0
1537918120604839,-1,-3,-1,-8,-5,-2,-1,8
1537918120616807,-8,15,12,-3,-4,-1,1,-25
1537918120616807,24,-16,2,1,9,16,19,31
1537918120625783,-13,-5,-11,1,-1,4,9,-15
1537918120625783,19,3,14,5,4,6,33,10
1537918120639746,-11,13,-3,3,5,-4,0,-17
1537918120639746,-33,-11,6,2,0,-2,-47,-19
1537918120654706,9,13,-7,-2,0,21,-33,4
1537918120654706,12,-6,-1,1,-7,8,18,23
1537918120670663,2,14,-4,-3,-3,-25,2,-39
1537918120670663,-2,5,4,5,14,-17,-39,55
1537918120672658,34,-2,-4,4,1,29,56,19
1537918120672658,-6,1,-2,-4,-13,-21,-15,3
1537918120676647,5,3,-4,-4,-3,11,9,1
1537918120676647,-11,-15,3,-13,-15,-21,-26,-22
1537918120685623,-7,6,3,0,8,8,26,-19
1537918120685623,9,1,-8,2,15,-11,-18,24
1537918120700583,27,38,8,-3,-13,9,3,20
1537918120700583,-12,-25,-1,5,7,7,22,-1
1537918120706567,2,2,-6,-1,-2,-3,-16,-3
1537918120706567,-18,4,6,-1,1,5,18,-12
1537918120723522,7,-18,-5,0,6,15,65,42
1537918120723522,11,39,5,-1,-4,-11,10,-58
1537918120724519,-18,-20,0,1,-3,-23,-37,23
1537918120724519,11,23,15,4,-4,-11,-7,16
1537918120737484,-10,-4,-8,-2,0,-8,-20,19
1537918120737484,-8,-6,-9,-3,-5,29,45,-8
1537918120745463,-4,4,-4,-7,-4,4,23,3
1537918120745463,-3,10,13,1,2,4,-3,-13
1537918120760423,10,-18,-8,2,4,5,-16,10
1537918120760423,7,19,6,1,0,-7,-21,-5
1537918120767404,5,-14,-9,0,-3,-16,-17,-7
1537918120767404,-34,-49,-33,-12,-7,4,3,27
1537918120783362,-3,3,8,5,4,7,12,-18
1537918120783362,-3,-2,-1,-2,-5,-35,-3,-15
1537918120784360,0,5,-5,-4,-7,-10,23,-17
1537918120784360,-14,-9,8,8,8,-10,0,-11
1537918120805303,2,5,-4,0,0,-1,-18,9
1537918120805303,8,3,1,9,34,25,2,21
1537918120807298,-1,5,7,0,9,-43,-9,-6
1537918120807298,15,1,-12,-27,-91,-75,6,10
1537918120819266,-1,5,7,21,64,82,10,14
1537918120819266,-2,9,1,-8,-24,-33,19,-23
1537918120828242,-6,2,3,2,-11,65,-36,-30
1537918120828242,3,-6,-7,-7,4,46,48,-4
1537918120843202,-4,4,-7,-16,-24,-93,-74,-30
1537918120843202,2,-4,3,7,5,54,81,22
1537918120845197,6,-7,-3,7,20,-91,-35,11
1537918120845197,8,5,6,11,20,51,-24,-25
1537918120866140,-14,6,1,-4,-15,-8,-25,-20
1537918120866140,-23,-8,-8,-8,-6,-23,8,41
1537918120867138,10,24,10,-5,-12,33,-15,13
1537918120867138,3,-78,-3,8,11,-5,-32,-6
1537918120879106,2,17,4,-1,-3,11,19,20
1537918120879106,-23,-46,-32,-5,-9,-15,-51,-27
1537918120896061,5,22,-1,-16,-12,-13,11,40
1537918120896061,17,26,4,7,20,18,13,42
1537918120904039,-9,-4,2,-1,0,9,36,-39
1537918120904039,18,-9,4,-3,-13,-16,28,24
1537918120905037,-6,-5,-10,-4,-5,13,64,57
1537918120905037,-5,17,5,7,21,5,22,-85
1537918120925981,2,-7,1,0,-13,-32,3,-12
1537918120925981,12,24,9,8,13,9,-55,-34
1537918120926978,-3,-12,-4,-5,-19,24,2,-22
1537918120926978,-1,16,-2,-5,-1,-33,-2,21
1537918120938946,-12,-8,-3,-7,-15,-4,17,-12
1537918120938946,-3,3,2,2,18,35,-35,3
1537918120947922,-8,-5,4,11,23,-4,-16,-41
1537918120947922,-5,-2,-5,-12,-31,-24,-13,-9
1537918120962882,-4,9,-1,-1,-3,-25,0,-21
1537918120962882,3,2,2,2,5,25,-12,14
1537918120964877,-4,-5,1,1,11,-15,-9,-17
1537918120964877,3,10,1,5,9,50,29,19
1537918120985821,8,4,-3,-3,-1,14,-12,12
1537918120985821,-2,0,-1,-4,-7,-14,-9,0
1537918120986818,-2,-15,-3,2,-4,-10,2,-15
1537918120986818,-6,2,-2,0,7,2,36,13
1537918120999784,-2,2,0,0,-2,-8,-26,-1
1537918120999784,-2,1,2,1,-2,8,-39,0
1537918121008760,4,4,0,1,-3,13,-12,-13
1537918121008760,-2,2,-3,-1,2,-10,-23,6
1537918121023721,8,-5,-1,1,3,1,12,13
1537918121023721,-3,4,1,-2,-8,-37,9,-4
1537918121024719,-4,-5,-4,-4,-12,19,2,3
1537918121024719,2,6,1,2,8,-21,0,-20
1537918121045663,-5,-5,-2,-2,-3,12,-1,19
1537918121045663,-5,2,0,-2,2,9,26,-27
1537918121047658,-1,-2,-3,-2,1,-11,4,-9
1537918121047658,2,1,1,4,2,-8,15,2
1537918121059624,5,-3,-1,0,-2,8,5,54
1537918121059624,-4,-1,1,-1,-4,1,10,-8
1537918121068602,0,0,1,-1,-3,-13,4,-4
1537918121068602,-2,1,-2,-3,-1,-11,-9,3
1537918121083562,4,0,0,-2,2,32,19,1
1537918121083562,-1,0,2,0,-3,-5,-20,1
1537918121084558,0,-3,-3,-1,1,3,-2,-15
1537918121084558,0,0,1,3,1,-17,-17,14
1537918121105502,-2,-2,-3,-6,-6,2,-9,6
1537918121105502,6,0,-3,-2,2,8,2,18
1537918121107497,-6,1,-2,1,0,-15,20,-16
1537918121107497,5,-1,-2,-1,-1,2,0,8
1537918121119465,-3,-3,-2,0,-1,-9,-6,-9
1537918121119465,3,3,0,-2,-7,-9,-2,-21
1537918121128443,4,0,1,1,4,14,-6,26
1537918121128443,-3,1,1,2,-2,2,-4,-4
1537918121143400,-6,-2,0,1,-7,-52,15,4
1537918121143400,-2,-2,-4,2,7,84,6,2
1537918121144398,8,0,-1,1,-6,-27,-24,9
1537918121144398,2,0,-2,-1,1,3,-11,6
1537918121166339,-2,-2,0,0,0,-32,7,-8
1537918121166339,0,-1,-2,-1,0,-25,-2,5
1537918121167336,-4,-2,-2,-4,-6,26,0,0
1537918121167336,5,0,0,-6,3,-9,-18,16
1537918121179304,2,-1,-1,-5,-2,3,-5,-6
1537918121179304,7,-1,-3,-8,-43,-37,-5,26
1537918121188280,-1,2,1,3,11,13,8,-1
1537918121188280,-4,-2,-2,0,-6,-44,-16,-25
1537918121203240,-3,2,4,1,15,82,-11,0
1537918121203240,-4,-5,0,1,10,-3,19,-2
1537918121205235,-2,12,-3,-3,-5,-5,4,-14
1537918121205235,-2,-13,1,1,3,13,4,-4
1537918121226178,10,4,-10,-3,-3,-23,1,12
1537918121226178,-7,-19,-4,-1,-1,19,-6,-3
1537918121227176,-1,-7,-5,-3,-6,-14,-3,22
1537918121227176,-4,1,3,-3,0,7,5,6
1537918121239144,0,3,7,1,-3,-2,27,-11
1537918121239144,1,8,-3,-2,-4,-47,5,3
1537918121248120,-3,-5,2,1,7,43,0,-1
1537918121248120,-3,1,-4,-1,0,29,4,2
1537918121263081,-5,-3,2,1,-2,1,-3,7
1537918121263081,6,8,1,-1,-1,-20,-23,0
1537918121265076,-12,-15,-1,1,3,16,4,-17
1537918121265076,13,11,-3,0,-6,-13,-15,6
1537918121286021,0,-1,-4,-3,-6,-11,-19,9
1537918121286021,0,-1,3,3,8,4,21,10
1537918121287017,5,-3,-2,1,-3,-24,-35,-17
1537918121287017,-5,-3,-1,-1,-3,-2,24,-21
1537918121299983,1,-2,0,1,0,18,8,8
1537918121299983,3,1,-2,-2,0,-18,-11,-4
1537918121309015,-1,2,-1,-3,-4,-6,0,8
1537918121309015,-1,2,-2,0,-1,15,-14,-16
1537918121323919,-14,-8,-2,-2,-5,-36,-2,25
1537918121323919,0,4,-1,-1,6,69,2,19
1537918121324917,14,5,0,0,-1,-17,14,0
1537918121324917,-1,-3,-1,-2,-1,11,15,-3
1537918121345859,-1,-3,-3,0,2,-20,-27,-1
1537918121345859,-7,-2,0,0,-6,-48,-16,-18
1537918121347853,-1,2,0,-1,5,57,15,26
1537918121347853,4,-1,-1,-2,-3,-2,-13,4
1537918121359821,4,-2,0,5,2,-4,8,-25
1537918121359821,1,1,1,-1,2,-20,20,9
1537918121368797,4,0,-3,-4,-4,-12,-26,-12
1537918121368797,-6,0,0,0,0,-15,17,11
1537918121384754,-3,0,-1,0,-1,51,-8,-23
1537918121384754,-3,-2,-1,-2,1,-6,-18,-10
1537918121385752,-6,1,1,2,2,-25,1,6
1537918121385752,-2,-1,-1,-1,0,-9,2,-13
1537918121405698,1,-1,-2,-5,-6,18,-1,3
1537918121405698,7,3,-2,0,1,-13,0,-4
1537918121407693,-2,-3,-1,0,0,2,-6,-4
1537918121407693,0,1,0,0,-1,-8,-3,6
1537918121428637,-3,0,-3,-3,-6,-23,2,2
1537918121428637,21,-1,-3,-3,-6,-11,-24,34
1537918121429634,-5,-2,-1,-1,1,23,17,-23
1537918121429634,7,3,0,0,2,-13,-2,42
1537918121442600,4,8,-1,-1,-1,7,20,9
1537918121442600,-13,-5,-4,-2,-1,0,-29,-12
1537918121449581,1,2,13,1,1,-5,9,-15
1537918121449581,-1,-7,-12,-1,-6,2,-5,-11
1537918121465538,2,-1,0,0,2,-1,5,22
1537918121465538,-1,-4,-2,0,-2,-8,16,6
1537918121467533,-1,4,1,1,-3,-15,-7,-1
1537918121467533,-9,0,3,1,6,8,-13,-18
1537918121479501,-5,-6,-3,-4,-7,-16,3,-8
1537918121479501,-1,0,-2,1,1,60,15,-2
1537918121488477,-4,-4,-4,-4,-13,-10,25,0
1537918121488477,-11,-2,-1,-3,3,9,-9,-45
1537918121503437,9,4,2,3,-4,-27,-4,-14
1537918121503437,6,3,3,1,2,-15,1,6
1537918121504434,3,-3,-7,-1,-2,-11,-23,15
1537918121504434,-2,-5,-1,1,7,40,-6,-16
1537918121525378,-3,7,-2,-3,0,-17,8,-6
1537918121525378,-9,-1,2,2,1,14,3,-7
1537918121527373,11,-2,-4,-3,-2,-7,7,21
1537918121527373,-1,0,0,1,-4,-9,19,4
1537918121539341,11,-3,-2,-1,1,16,-13,13
1537918121539341,-5,1,-2,-1,-2,-11,-2,-16
1537918121548317,-3,-3,-5,0,-2,9,-15,-4
1537918121548317,-1,0,1,1,-3,-16,-3,6
1537918121563277,-2,-4,-1,1,4,7,19,17
1537918121563277,-6,0,0,0,-1,5,-15,-32
1537918121564274,-9,-3,-1,0,1,-15,-5,-18
1537918121564274,-2,-4,-1,-1,-1,-7,-1,12
1537918121586216,12,6,0,-2,1,24,-7,-15
1537918121586216,-9,-10,-3,-1,1,-30,-14,13
1537918121587213,-12,-4,-2,0,-1,-18,0,-5
1537918121587213,-1,1,1,2,4,85,2,2
1537918121599181,-7,-9,-3,-4,1,-23,-14,-16
1537918121599181,8,5,1,1,2,-6,-9,-6
1537918121608157,-1,2,-1,-2,1,-8,-5,2
1537918121608157,3,-4,-1,-2,-7,-55,-8,-17
1537918121623117,-10,-2,-1,3,5,60,10,-2
1537918121623117,1,1,0,-2,2,-15,3,14
1537918121625112,-1,-2,-1,-4,-4,27,-1,6
1537918121625112,5,3,-1,-2,-7,-12,1,19
1537918121646056,-1,-2,0,1,-4,-26,-2,-25
1537918121646056,-7,-3,-3,-1,-2,0,4,-27
1537918121648051,-5,3,1,2,3,4,19,31
1537918121648051,6,2,-1,0,1,0,1,3
1537918121659021,-5,-4,-1,-1,-1,-18,-12,-4
1537918121659021,-6,-3,-1,0,-2,-2,4,-8
1537918121667997,4,-1,-3,-3,-3,-13,-14,4
1537918121667997,2,1,0,0,0,35,12,4
1537918121682957,-1,-3,0,-1,-1,-26,-12,-3
1537918121682957,4,2,0,-3,-3,28,0,2
1537918121684952,-1,-2,-2,-3,5,3,12,-18
1537918121684952,6,1,-1,-1,-2,-16,-7,18
1537918121705896,6,1,-2,-2,0,3,-15,-4
1537918121705896,-5,-1,1,-3,-3,-14,11,5
1537918121706893,-1,-3,0,0,-4,-9,-3,-21
1537918121706893,-5,-5,-1,-3,-2,-23,-7,-13
1537918121719858,-1,6,1,2,8,40,7,15
1537918121719858,-2,-2,-1,-1,-3,1,-8,-11
1537918121728835,-6,-2,0,3,5,4,0,2
1537918121728835,2,-1,-2,-1,-5,-25,1,-9
1537918121742797,3,0,-1,0,1,-2,-2,55
1537918121742797,-3,-2,-1,-4,-8,-25,-16,-14
1537918121744792,1,1,0,1,0,7,20,4
1537918121744792,-4,-2,-2,-1,2,20,8,2
1537918121765736,-4,-3,-1,-1,-2,-14,-4,-6
1537918121765736,3,-1,-1,1,3,5,1,6
1537918121766733,6,-4,-1,-1,-2,-5,-10,-6
1537918121766733,4,-1,1,-3,-3,-20,1,11
1537918121787677,-8,2,0,1,0,18,-13,-19
1537918121787677,-2,-2,-2,-1,2,51,22,9
1537918121788675,2,1,-2,-1,-4,-21,-11,-4
1537918121788675,-5,-3,-1,0,1,-11,-27,-3
1537918121802637,0,-8,-3,0,2,-15,23,-3
1537918121802637,0,7,2,2,0,4,11,-4
1537918121803635,-1,0,-1,0,6,-9,3,4
1537918121803635,1,2,-1,-5,-11,25,-2,8
1537918121824578,-2,-2,-1,-5,-5,-13,6,-14
1537918121824578,0,-4,-1,-3,0,5,26,-4
1537918121825576,-12,-2,2,1,3,11,6,-16
1537918121825576,6,1,-4,-3,3,-16,-6,18
1537918121847517,-3,-3,1,-2,0,7,-9,-17
1537918121847517,-7,2,-1,-3,-3,-8,-4,1
1537918121848515,4,-8,-7,-5,-3,-6,-11,0
1537918121848515,-2,0,1,-1,2,16,7,0
1537918121862477,9,1,2,-2,-5,-2,6,-5
1537918121862477,-12,-3,-8,-6,0,-11,-6,-3
1537918121863475,5,5,3,-8,-6,-11,-17,20
1537918121863475,10,3,-1,1,2,10,23,-9
1537918121885416,-10,-4,1,0,-2,-5,-5,-1
1537918121885416,5,-2,-3,0,2,1,3,8
1537918121885416,-1,0,-1,1,-3,-3,-13,-1
1537918121885416,-4,-3,-2,-1,1,2,-1,-5
1537918121907357,3,-3,2,1,0,6,7,2
1537918121907357,4,9,2,-1,0,-4,-6,9
1537918121908355,-2,-3,-2,-3,3,-3,-26,-8
1537918121908355,0,0,0,-9,-4,-12,14,0
1537918121922317,-1,0,-4,-10,-4,-5,5,-2
1537918121922317,-3,-6,3,-3,5,4,-10,1
1537918121923315,4,1,-10,-13,-11,15,10,-3
1537918121923315,-8,0,12,2,5,4,-19,-8
1537918121945257,-2,-3,-3,-2,4,6,-5,0
1537918121945257,7,-1,1,-4,-2,-14,-8,2
1537918121946255,-5,1,2,3,5,7,3,-1
1537918121946255,-6,-5,-3,3,0,-15,-6,3
1537918121967198,6,3,-1,5,-2,-3,9,-3
1537918121967198,5,0,1,10,1,11,8,12
1537918121968196,-19,-3,3,13,2,-16,-17,-8
1537918121968196,1,-4,-6,1,-11,3,-3,-1
1537918121983156,0,-1,1,7,-3,4,17,-17
1537918121983156,0,4,0,7,-3,-10,3,4
1537918121983156,-9,-2,1,6,7,16,13,-8
1537918121983156,2,1,-4,-2,-27,-25,14,1
1537918122005096,1,-1,0,2,7,2,-18,-6
1537918122005096,-2,-6,-3,-1,-1,7,2,-2
1537918122006094,6,1,0,2,1,2,-6,-11
1537918122006094,-6,0,3,9,13,11,-7,-3
1537918122028035,-11,0,-4,-1,-8,4,3,-7
1537918122028035,-5,-1,1,5,8,2,7,-3
1537918122028035,4,1,1,2,2,6,9,11
1537918122028035,1,-4,-2,1,-3,3,2,5
1537918122050973,1,-1,-1,-2,-6,-21,-16,-6
1537918122050973,-5,-2,0,3,1,5,12,-8
1537918122051971,0,-2,-1,-5,-9,-1,-3,4
1537918122051971,-9,-1,-1,1,4,-13,-22,-21
1537918122064936,9,2,0,0,3,3,6,24
1537918122064936,-5,-4,0,-2,-4,-7,-24,-8
1537918122065933,16,2,-2,-4,-5,10,21,13
1537918122065933,4,0,-1,-4,4,-3,-1,-1
1537918122087875,-11,6,9,1,-3,-10,-10,-3
1537918122087875,3,-6,-8,-4,-6,4,6,5
1537918122087875,-9,-14,-7,-3,-2,4,3,-8
1537918122087875,-3,1,-2,1,9,5,0,3
1537918122102834,-2,5,11,-2,-7,5,-3,-6
1537918122102834,3,-8,-14,-5,-7,-20,1,4
1537918122103832,-2,6,13,3,3,8,-3,-10
1537918122103832,3,-2,-5,1,3,-5,-7,9
1537918122124776,-2,-5,-7,-3,-1,5,9,12
1537918122124776,7,7,8,-2,0,4,-13,0
1537918122125774,3,-4,-11,-4,-3,-3,3,1
1537918122125774,-3,2,2,1,3,-2,10,-3
1537918122147716,0,0,-1,2,0,-5,-8,-6
1537918122147716,-5,-1,3,0,0,6,0,-9
1537918122148713,-2,2,1,0,-2,-15,2,-5
1537918122148713,0,1,3,-2,-3,8,-8,-1
1537918122161679,2,-4,-8,-1,0,3,6,5
1537918122161679,0,-1,-1,-4,-8,-6,-10,7
1537918122170654,1,2,3,2,4,1,-1,1
1537918122170654,-2,-2,-2,-2,-7,-3,-1,-3
1537918122185616,-4,-3,-2,-2,1,-3,-7,-5
1537918122185616,0,-1,0,-1,0,0,0,-1
1537918122185616,1,4,-8,2,1,-4,-1,-1
1537918122185616,-2,-3,4,-2,1,-3,3,-5
1537918122207555,-2,-2,-2,-2,-1,10,0,2
1537918122207555,2,3,2,-1,0,-4,-4,6
1537918122208553,-3,-1,-2,0,-5,-2,3,-1
1537918122208553,-10,-3,-1,-1,1,3,5,-17
1537918122221518,1,-1,-2,-2,-2,-3,-9,1
1537918122221518,0,-1,1,-2,0,-1,5,1
1537918122230494,-1,-1,2,-3,-5,-67,-10,-2
1537918122230494,-1,-1,-2,-1,4,68,15,-9
1537918122245454,5,-1,0,1,5,14,-5,22
1537918122245454,-2,-5,-1,-1,-4,-51,-8,-19
1537918122246451,6,5,2,-2,-4,21,0,14
1537918122246451,8,1,0,-4,-6,-53,-8,11
1537918122267395,-2,-3,-4,-3,-6,0,-2,-8
1537918122267395,2,3,-1,7,20,84,8,7
1537918122268392,-1,-4,-1,-4,-8,-98,-7,3
1537918122268392,-1,-4,-3,1,5,37,0,-2
1537918122282355,5,-1,-4,-4,-6,-3,-10,2
1537918122282355,0,2,-1,-2,-8,-22,20,11
1537918122283352,-2,1,2,0,1,39,1,-6
1537918122283352,-2,1,0,-1,-3,-22,-6,-8
1537918122305293,-4,-4,0,1,2,-12,6,-9
1537918122305293,-3,-1,2,-2,-4,2,-7,-11
1537918122306291,1,-2,0,2,7,32,-4,-1
1537918122306291,-1,-3,-3,-4,-4,-15,-29,-3
1537918122327235,-1,0,-1,1,1,-1,36,-1
1537918122327235,-4,0,-1,0,1,3,-1,-4
1537918122328232,0,-1,0,0,-2,-12,5,0
1537918122328232,1,-2,0,-1,-1,17,-11,10
1537918122342195,-1,0,-2,-5,-6,-16,-19,-7
1537918122342195,3,-1,-2,-3,-4,-12,-5,1
1537918122350173,-3,-1,0,-2,-1,19,4,-8
1537918122350173,0,0,-1,6,21,15,4,0
1537918122365134,1,0,0,3,-4,-6,2,11
1537918122365134,-5,-3,-3,-9,-12,-4,6,-9
1537918122366131,-1,0,-1,0,-5,-6,-9,4
1537918122366131,-2,1,-1,-3,-6,6,9,-9
1537918122388072,-2,0,-1,0,11,-6,-8,0
1537918122388072,2,2,1,2,1,-55,-27,4
1537918122388072,-1,-1,-2,-2,1,92,16,-2
1537918122388072,-2,-1,-1,1,0,-18,2,-7
1537918122402035,0,-2,1,-1,-1,0,9,-3
1537918122402035,-1,-1,-1,0,-4,-14,-6,10
1537918122410014,-4,-1,-4,-2,2,-9,-2,-7
1537918122410014,0,-3,-2,-1,-5,-13,7,12
1537918122424973,-3,5,0,0,1,0,-22,-15
1537918122424973,6,-1,0,-1,-2,11,22,7
1537918122425971,-6,-2,0,0,2,13,-6,0
1537918122425971,1,-5,-1,-2,4,-17,15,11
1537918122447912,-8,3,1,0,-9,-28,-5,-3
1537918122447912,6,-1,-2,-2,0,3,-9,-5
1537918122447912,-6,-1,1,0,0,-20,0,-10
1537918122447912,-12,-1,-1,-4,-15,-3,8,3
1537918122461875,12,-16,-2,-3,9,10,-15,6
1537918122461875,-5,21,4,3,8,10,3,3
1537918122469854,-8,-3,-3,-4,-8,-39,6,-5
1537918122469854,-2,-2,3,5,7,23,-18,-30
1537918122484814,-9,1,2,4,21,18,-2,-43
1537918122484814,-1,-9,-3,-3,-21,-29,12,40
1537918122485811,2,-1,-2,-3,1,29,-3,-25
1537918122485811,1,1,-1,-1,8,-35,-8,66
1537918122507752,3,2,2,4,6,60,43,-4
1537918122507752,3,-7,-3,-3,3,-55,-21,-24
1537918122508749,-15,0,3,5,1,77,-6,-9
1537918122508749,11,-1,-8,-17,-34,-6,35,39
1537918122521715,0,0,1,2,14,-20,11,9
1537918122521715,-8,-2,-1,0,3,-3,-8,-2
1537918122529694,-1,0,3,3,16,-38,-26,-2
1537918122529694,-7,0,-2,1,9,24,7,-21
1537918122544654,4,2,-3,-3,-11,8,42,36
1537918122544654,3,-3,0,2,3,24,-18,-19
1537918122545653,0,-1,-2,-3,-6,-14,-35,1
1537918122545653,-5,1,1,1,0,10,38,-22
1537918122568591,4,-1,-3,-8,-17,-49,-45,-2
1537918122568591,-5,-4,-1,1,8,61,1,-16
1537918122568591,5,0,-5,-3,-3,-33,-6,3
1537918122568591,2,1,2,1,-1,-4,-48,-1
1537918122581558,-10,-2,1,2,1,12,67,5
1537918122581558,9,1,0,-3,-11,-5,8,1
1537918122590533,7,0,0,-2,-5,-6,6,9
1537918122590533,-4,0,0,2,6,35,-13,-16
1537918122605494,-5,-3,-3,-2,-8,-29,-50,0
1537918122605494,-2,-2,-2,0,1,17,-22,-4
1537918122605494,0,-1,-2,-1,-1,5,8,-3
1537918122605494,3,0,-2,-1,-3,-14,-1,-3
1537918122627433,-6,-3,-2,-2,-1,16,-13,-7
1537918122627433,-3,2,0,-1,-4,-13,-23,-3
1537918122628430,6,0,-1,-1,-1,-11,25,7
1537918122628430,-3,0,1,4,1,3,5,7
1537918122642392,0,2,0,-1,-5,-10,-13,-12
1537918122642392,0,-3,-2,-3,6,5,24,7
1537918122650371,0,-1,0,-1,-7,-6,-13,-5
1537918122650371,6,1,-1,-1,1,-10,-6,-4
1537918122665331,-9,-6,-1,0,-5,-22,5,-16
1537918122665331,2,3,-1,-6,-17,3,-4,4
1537918122665331,9,3,2,3,12,12,27,3
1537918122665331,1,1,-1,-3,-5,-40,-4,-6
1537918122689269,-3,-2,-4,-5,3,37,-18,7
1537918122689269,-6,-7,-2,-3,-15,-19,6,-2
1537918122689269,-2,-1,-2,-4,-7,-29,-23,-21
1537918122689269,2,2,1,0,-3,-9,13,-4
1537918122710213,5,0,-1,-3,1,-1,-26,-1
1537918122710213,-3,0,1,3,16,23,14,2
1537918122711210,-5,-1,-2,1,7,-1,-7,9
1537918122711210,-3,-2,0,0,-6,-16,6,-4
1537918122725173,4,2,-1,-3,-12,-3,15,1
1537918122725173,-7,-1,1,0,-3,-4,-7,0
1537918122726170,-6,-3,0,-2,0,24,13,-8
1537918122726170,9,2,1,0,7,10,59,10
1537918122748111,0,0,0,2,5,-3,-9,1
1537918122748111,1,1,-2,-1,-2,12,19,-3
1537918122748111,2,-1,-2,1,23,6,-15,1
1537918122748111,0,-2,0,-2,-26,-5,-35,0
1537918122771051,-11,-2,-1,-3,-11,-24,-10,-15
1537918122771051,13,-1,-1,2,8,13,16,21
1537918122772048,0,-1,-1,-1,-7,-14,0,2
1537918122772048,-3,0,-1,1,17,21,-3,15
1537918122785012,-3,0,1,1,1,-5,-29,-41
1537918122785012,-6,-2,0,1,-2,-9,-14,0
1537918122786010,-1,-6,-2,0,-2,29,11,0
1537918122786010,3,7,-1,-1,-1,-31,-37,4
1537918122807951,1,-2,0,-3,-8,5,5,0
1537918122807951,-5,-2,-1,-2,2,8,30,-14
1537918122808948,3,0,-1,-4,-14,-17,5,9
1537918122808948,-6,-3,-3,0,4,-12,-12,-16
1537918122830889,5,3,0,3,7,22,2,21
1537918122830889,0,-1,0,-1,3,1,-3,10
1537918122831886,-2,-1,-3,-1,-7,-30,12,2
1537918122831886,-9,-4,-3,-3,-8,9,-26,-17
1537918122844851,0,0,-1,0,6,13,35,21
1537918122844851,0,-3,-1,-1,2,-9,3,0
1537918122845849,-2,2,0,-1,-15,-13,-4,7
1537918122845849,-1,-2,0,-1,2,34,-2,-20
1537918122868788,9,1,-2,0,-3,-16,-8,13
1537918122868788,-4,-2,1,3,13,11,-13,-14
1537918122868788,2,0,-1,-2,-7,-8,22,7
1537918122868788,3,0,-3,-3,-6,-20,-12,1
1537918122890729,2,-2,-3,-2,-2,-8,-1,8
1537918122890729,-10,0,-1,0,5,-21,-32,-15
1537918122891727,4,1,0,1,0,54,18,6
1537918122891727,-1,0,-1,0,-3,19,7,-3
1537918122904692,-5,-2,-2,-1,-3,-16,5,-4
1537918122904692,1,0,0,0,-3,-22,-13,-4
1537918122905691,-3,-3,1,1,3,-27,-7,2
1537918122905691,-3,-1,0,1,3,20,-4,-10
1537918122928629,-2,-2,-2,-2,-4,0,-6,-3
1537918122928629,-3,-2,-2,-2,-2,5,0,-6
1537918122928629,4,0,-1,-3,-3,-37,-27,4
1537918122928629,2,-1,0,-1,-2,2,18,-3
1537918122950570,6,2,2,2,8,17,-6,-7
1537918122950570,0,-1,0,0,-5,10,13,12
1537918122951568,-11,-1,-1,-2,-2,-5,-7,-12
1537918122951568,6,1,-3,-1,2,-23,-17,-3
1537918122965529,-3,-5,-1,-2,-2,-4,1,-6
1537918122965529,-7,7,2,-1,-5,14,-8,-15
1537918122965529,14,0,-2,-3,-5,-34,-19,18
1537918122965529,-12,-4,-1,0,9,53,6,6
1537918122988467,5,2,1,0,-1,-7,-19,0
1537918122988467,0,-6,-3,-3,-6,1,13,0
1537918122988467,-4,1,0,0,2,7,7,5
1537918122988467,-7,-5,-7,-2,-3,-12,3,-4
1537918123010409,7,2,7,-2,-2,3,19,14
1537918123010409,5,1,2,-2,-2,-13,-11,6
1537918123011406,-10,-5,0,0,1,21,3,-16
1537918123011406,6,0,0,1,0,-14,-5,-3
1537918123025369,-8,1,-1,-2,-3,-2,6,-1
1537918123025369,17,16,-6,-3,1,-2,0,16
1537918123025369,-24,-41,-11,-1,4,14,1,-7
1537918123025369,3,7,4,1,-2,-10,1,-6
