timestamp,emg1,emg2,emg3,emg4,emg5,emg6,emg7,emg8
1537917565581937,-2,1,-1,0,1,8,1,-7
1537917565581937,-1,0,-1,0,0,-4,-3,2
1537917565581937,0,-1,-1,1,1,-2,4,9
1537917565581937,-2,-1,-2,-3,-4,0,-1,1
1537917565582935,0,-2,0,0,0,-1,-2,-1
1537917565582935,0,-3,-1,-2,-2,-3,-2,-3
1537917565587921,-3,0,-1,0,-1,5,9,-4
1537917565587921,1,0,-1,-1,-1,-3,-6,5
1537917565592907,1,-1,-1,-2,-4,-2,2,20
1537917565592907,-6,0,0,2,4,-9,-9,-1
1537917565604876,2,-1,0,0,-4,1,38,1
1537917565604876,2,-1,-2,-2,0,17,0,-2
1537917565607867,-1,-1,0,2,11,-8,-3,-2
1537917565607867,0,-1,0,-4,-12,10,-1,-8
1537917565624822,-1,-2,-3,-5,-21,-25,-4,-3
1537917565624822,-3,-1,-3,-4,-6,-5,-26,-5
1537917565632801,-2,-1,-1,-1,-19,-17,6,-6
1537917565632801,1,0,1,2,8,-6,-6,7
1537917565655740,-1,-1,-1,0,9,9,-2,-5
1537917565655740,-3,-1,-2,-2,-5,-3,7,-7
1537917565655740,2,-1,-1,0,4,2,-19,-3
1537917565655740,0,0,0,0,2,2,19,-2
1537917565667708,0,-2,-4,-1,4,16,-1,0
1537917565667708,-1,-1,2,2,6,-1,17,4
1537917565709596,0,0,-3,-4,-4,7,14,11
1537917565709596,1,-1,-1,-2,0,-10,-10,-1
1537917565710593,0,-1,0,0,-2,-2,-1,3
1537917565710593,-1,1,1,1,0,-3,-1,-2
1537917565713585,0,0,0,1,5,5,2,5
1537917565713585,-5,-2,-3,0,-8,-3,5,-4
1537917565714582,2,-1,-2,-2,-2,-3,-1,-1
1537917565714582,-1,-2,-2,-2,-4,1,2,3
1537917565721564,-1,-1,-2,1,0,-3,-6,-5
1537917565721564,1,-2,-1,-1,2,4,3,1
1537917565728545,0,1,1,1,4,-4,-3,7
1537917565728545,-2,-2,-1,-2,0,3,-1,1
1537917565744502,0,-1,-3,-3,-5,-5,-9,-4
1537917565744502,-3,-1,-1,-2,-5,-13,-17,-2
1537917565750486,-7,-3,-1,-1,1,3,23,-9
1537917565750486,-1,-3,0,1,4,17,31,-6
1537917565759463,-3,-1,0,-1,-3,-4,2,-2
1537917565759463,4,0,-2,-3,0,-1,-7,-2
1537917565789382,-1,0,-1,4,15,5,-17,-11
1537917565789382,-8,-1,2,4,9,4,-12,-4
1537917565791377,-4,0,-1,-6,-33,-11,8,-1
1537917565791377,0,-2,-2,-8,-16,-20,5,7
1537917565795366,4,0,-2,-5,-13,2,2,3
1537917565795366,-8,0,-1,0,15,-8,-13,-3
1537917565804342,4,1,1,5,1,-60,-25,-3
1537917565804342,-3,1,3,11,38,-2,-8,-12
1537917565819302,13,2,1,10,67,96,17,12
1537917565819302,-9,-3,-4,-8,-64,-70,-20,8
1537917565825286,13,0,0,-2,-14,12,34,18
1537917565825286,-29,-1,1,10,39,15,-52,-37
1537917565842241,26,1,-4,-18,-68,-40,-19,11
1537917565842241,12,1,2,8,24,40,52,30
1537917565843239,-11,-2,0,4,53,92,17,-1
1537917565843239,2,4,8,18,10,-103,54,1
1537917565855206,-12,-4,-4,-6,9,93,-62,-27
1537917565855206,-3,-12,-7,-4,63,-89,-72,-14
1537917565864183,-26,-2,4,17,-47,44,39,6
1537917565864183,39,2,-12,-17,15,-51,-26,17
1537917565879142,-42,4,14,47,89,-37,6,-48
1537917565879142,7,6,0,-29,-123,3,7,22
1537917565885126,31,-22,-21,-62,-29,-37,48,11
1537917565885126,6,26,23,25,53,-57,-64,-17
1537917565909062,13,-9,-5,-35,-115,39,69,73
1537917565909062,-34,12,9,70,127,92,-79,-37
1537917565911057,-4,-4,8,11,-66,-63,16,8
1537917565911057,-45,-59,-33,-51,-47,81,-76,-9
1537917565916044,50,37,34,20,33,15,56,-9
1537917565916044,18,-10,-13,-44,-74,52,-18,11
1537917565925020,9,27,-7,-20,45,33,-76,49
1537917565925020,-4,2,20,71,59,-90,4,-12
1537917565938982,-38,-12,-17,-39,-70,45,-6,-18
1537917565938982,7,15,-8,2,60,-7,13,-14
1537917565945964,-13,1,3,38,87,49,-61,-48
1537917565945964,11,0,-21,-68,-104,63,-33,-11
1537917565961921,-10,-14,-4,25,73,-62,72,21
1537917565961921,14,-4,10,15,1,-8,15,40
1537917565962919,13,-4,-11,-16,-60,61,12,-59
1537917565962919,-13,20,15,38,127,127,-46,29
1537917565984860,25,-14,-20,-25,-20,-125,-57,-4
1537917565984860,26,5,7,-8,7,-50,84,35
1537917565985857,-38,-21,1,-18,-2,0,-9,-41
1537917565985857,-14,-25,20,59,49,-60,74,10
1537917565998823,27,48,-2,-53,-128,-111,-24,49
1537917565998823,0,-7,-8,-4,121,106,52,-43
1537917566005804,-13,-10,14,42,116,-45,-16,12
1537917566005804,9,27,-31,-118,-128,44,-23,-49
1537917566021761,-32,-20,-2,33,127,14,22,-23
1537917566021761,31,10,23,52,73,52,1,29
1537917566023756,-1,-7,-25,-61,-86,-82,-29,-7
1537917566023756,-2,-18,-10,17,94,127,17,2
1537917566044700,-26,3,12,45,127,-26,-17,-52
1537917566044700,-1,3,-9,-23,-12,-47,-65,-15
1537917566045697,0,-7,-11,-46,-4,55,27,6
1537917566045697,12,7,14,51,23,-105,83,48
1537917566058663,28,-16,-10,9,41,17,-36,14
1537917566058663,-7,12,17,12,-33,-98,-8,-9
1537917566065644,18,1,-3,-20,-59,-49,63,15
1537917566065644,7,-12,-15,-36,-57,-101,-56,-10
1537917566081602,-22,17,21,25,-35,-88,-12,-11
1537917566081602,-8,-5,-4,8,-14,83,56,-14
1537917566083596,-2,7,2,-3,-16,68,-20,-17
1537917566083596,3,-10,-19,-41,81,76,25,-3
1537917566104540,3,-11,-2,20,-84,-2,-6,-11
1537917566104540,12,-16,-17,-61,-57,98,-48,-11
1537917566105537,7,11,11,13,10,32,5,33
1537917566105537,-29,15,27,90,27,20,37,-45
1537917566118503,67,-12,-24,-49,-40,44,-26,59
1537917566118503,-31,-6,2,-3,-37,48,17,-32
1537917566125484,10,-1,-2,0,9,-2,-16,4
1537917566125484,-25,-12,-7,-33,-12,64,-16,-22
1537917566141441,-11,17,17,68,102,60,-15,1
1537917566141441,-33,-21,-19,-20,-88,-105,-75,-17
1537917566143436,9,-11,-18,-59,-74,-33,30,23
1537917566143436,17,8,15,29,42,8,54,47
1537917566164380,-22,7,3,11,-72,-21,-29,-4
1537917566164380,-22,-10,-2,5,79,-31,26,-13
1537917566166375,-14,5,5,28,30,-29,0,3
1537917566166375,23,19,7,5,-63,-16,0,60
1537917566178343,2,-5,9,-4,110,61,-21,-10
1537917566178343,-12,2,-7,-27,-105,-6,31,0
1537917566187319,-19,1,3,24,21,-18,-52,-29
1537917566187319,2,-10,-5,4,78,122,19,-12
1537917566202279,-15,1,-4,-39,-101,-26,51,-7
1537917566202279,37,-1,2,-4,-44,15,-20,50
1537917566203276,-8,-3,2,33,124,59,-73,-10
1537917566203276,25,-7,-20,-23,-128,-121,-2,16
1537917566224220,-13,-1,0,-23,21,-7,-6,-25
1537917566224220,-2,7,-4,-10,-25,-38,-9,6
1537917566226215,12,-4,6,-7,-81,-50,-15,33
1537917566226215,-3,2,6,22,20,-15,-50,-29
1537917566238182,-17,-7,-4,-9,11,-5,49,-19
1537917566238182,-13,2,6,30,42,-93,-8,2
1537917566247159,-3,-4,-6,-1,-31,-53,-9,-40
1537917566247159,5,2,-2,-37,7,48,-27,-1
1537917566262118,6,-17,-26,-73,-128,114,52,21
1537917566262118,-21,-1,8,22,60,10,-35,-31
1537917566263116,10,4,7,46,114,69,8,40
1537917566263116,-3,14,5,-6,-27,-24,36,-20
1537917566284060,5,2,-6,-2,-15,-19,-39,13
1537917566284060,4,-4,-1,-5,-2,17,14,3
1537917566286055,2,2,3,15,22,18,23,-31
1537917566286055,-1,1,4,2,-1,34,8,48
1537917566299020,-9,-10,0,13,28,4,-25,-2
1537917566299020,20,5,-5,-1,-8,-49,24,-2
1537917566306001,-5,0,3,4,32,-6,-18,-27
1537917566306001,9,1,7,23,10,6,-17,3
1537917566321959,-5,-1,1,13,42,-54,37,-4
1537917566321959,1,-12,-14,-43,-64,-16,2,5
1537917566322956,-6,3,0,-16,-33,-8,-7,-6
1537917566322956,-15,-6,-3,-15,-8,-3,30,1
1537917566345896,6,3,4,21,31,18,-24,-5
1537917566345896,19,4,5,13,30,27,-3,-3
1537917566346894,4,4,4,11,15,0,25,11
1537917566346894,-11,-5,-4,-2,1,-18,2,-17
1537917566358861,-1,-1,2,3,3,8,-21,-2
1537917566358861,-1,1,1,3,6,15,7,-6
1537917566365843,-3,0,1,2,-2,-12,3,8
1537917566365843,2,-3,-4,-9,-23,-15,9,-3
1537917566381800,-10,-7,-4,-7,-4,8,-15,-7
1537917566381800,0,-1,-1,0,9,11,4,-3
1537917566383796,4,1,-2,8,11,0,7,-1
1537917566383796,-6,-3,-3,-10,-13,-9,3,-3
1537917566404737,-4,-3,0,-4,0,1,-3,1
1537917566404737,4,1,1,7,20,7,7,1
1537917566405735,-1,-1,0,3,2,-5,1,5
1537917566405735,0,2,-2,-10,-16,-6,2,-4
1537917566418700,-18,-12,-1,-4,-4,-1,-11,-5
1537917566418700,23,8,3,5,7,-2,-2,4
1537917566425682,-6,-1,0,2,-1,-1,-2,-16
1537917566425682,8,-1,-3,-8,-12,-4,4,14
1537917566443635,-3,2,-1,1,2,0,-4,-18
1537917566443635,-8,0,0,2,6,7,-5,2
1537917566444632,-1,0,5,8,4,-3,7,-3
1537917566444632,4,1,-4,-6,-3,-6,-2,-4
1537917566464578,1,0,-1,-3,-7,-3,-7,-5
1537917566464578,-4,-2,-3,-4,-1,4,3,5
1537917566465575,0,2,1,-2,2,0,3,6
1537917566465575,-9,-5,-1,3,-6,-8,-2,-11
1537917566478540,4,1,0,0,0,3,-2,11
1537917566478540,-8,-2,0,-1,-1,3,2,-5
1537917566487516,1,-2,0,-1,1,0,3,1
1537917566487516,0,-3,1,-2,-5,-3,3,-3
1537917566501479,5,1,-1,-2,1,3,-1,0
1537917566501479,-8,1,0,3,7,1,-2,-1
1537917566503474,2,2,0,-2,-2,-1,2,-2
1537917566503474,-7,-4,1,4,1,0,4,-4
1537917566524417,5,1,-4,-6,-10,-6,-3,1
1537917566524417,-8,-3,1,2,1,-2,-1,-2
1537917566525415,0,-1,-3,-4,-4,-4,-3,-2
1537917566525415,0,-1,0,0,-3,-1,1,-3
1537917566538380,2,1,2,3,3,3,-2,2
1537917566538380,-3,-3,-2,0,-1,1,-2,-2
1537917566547356,0,0,-2,-4,-2,1,1,0
1537917566547356,2,0,0,0,1,2,1,2
1537917566563314,-3,0,-1,1,3,3,0,-2
1537917566563314,-1,-3,-3,-3,-5,-2,-5,-4
1537917566569297,-3,0,-2,-1,0,1,0,2
1537917566569297,1,0,-1,-3,-3,0,2,1
1537917566577276,-1,0,-1,1,2,-1,-1,-1
1537917566577276,-3,-1,0,0,1,1,-1,-2
1537917566584258,-2,0,0,0,-1,1,-1,-2
1537917566584258,3,-1,-4,-2,-4,1,-1,0
1537917566590241,2,-1,-3,-3,0,2,-2,3
1537917566590241,0,2,0,0,1,1,-3,-1
1537917566605202,1,1,0,1,0,-1,0,2
1537917566605202,0,0,1,-2,-1,-1,0,0
1537917566613184,0,-3,0,1,0,1,-2,-2
1537917566613184,-3,-2,-1,1,-1,-1,-1,0
1537917566622157,0,-2,0,0,-1,-1,-1,-1
1537917566622157,1,0,-2,-2,-1,0,0,-2
1537917566636120,2,0,1,0,-1,-1,-2,1
1537917566636120,-2,-1,1,0,1,0,0,-1
1537917566643103,1,0,-1,-1,-1,-1,-1,0
1537917566643103,1,1,-1,0,0,0,0,2
1537917566651080,-2,-1,-1,-1,-2,-1,-2,-2
1537917566651080,0,1,-1,0,0,0,0,1
1537917566666041,-1,-3,-1,-1,-1,0,-1,0
1537917566666041,-2,-3,0,1,-1,-1,0,-2
1537917566673021,-1,1,-1,-1,-1,0,-2,-3
1537917566673021,-2,-1,-2,-2,0,-2,-2,-3
1537917566681997,1,-2,0,0,0,-1,-1,0
1537917566681997,-1,-2,-3,-4,-4,-2,-3,-1
1537917566695959,0,-3,-2,-1,-1,2,0,-2
1537917566695959,1,-1,0,0,-1,-1,0,1
1537917566702940,-2,1,-1,-2,3,0,0,-1
1537917566702940,-1,1,1,0,0,1,0,0
1537917566718898,0,0,-1,0,-2,-2,-1,0
1537917566718898,-1,-1,0,0,1,0,-2,-1
1537917566725879,0,-1,-1,0,-1,-2,0,1
1537917566725879,1,1,0,-1,1,-2,-1,1
1537917566741836,-2,-3,0,-2,-2,1,0,0
1537917566741836,-3,-3,1,4,-1,1,1,-4
1537917566743832,-1,1,5,9,16,6,0,-2
1537917566743832,5,3,-1,-3,33,-9,-3,2
1537917566755800,-5,-4,-8,-18,-46,-14,-5,-4
1537917566755800,0,0,-4,-9,-26,-6,-1,0
1537917566762781,-2,-2,-2,-4,-13,-3,-1,-1
1537917566762781,2,-1,1,6,2,7,4,-1
1537917566778738,1,1,3,12,31,10,3,0
1537917566778738,0,-1,2,10,44,27,2,-5
1537917566785720,1,0,-3,-5,-11,-23,-4,2
1537917566785720,-4,-5,-3,-6,-8,-6,-4,-2
1537917566801677,-3,-1,-2,-5,-21,-9,-3,-4
1537917566801677,4,0,-3,-7,-22,-23,-2,5
1537917566803673,1,2,4,8,-9,-34,5,1
1537917566803673,-5,4,12,27,92,60,-3,-10
1537917566816638,5,4,-1,-10,-71,-70,25,6
1537917566816638,2,-2,-5,-19,-72,-22,1,3
1537917566823619,-8,-5,-13,-32,-30,-17,-1,-17
1537917566823619,10,-6,-2,2,43,-32,-22,29
1537917566838580,7,2,-1,-8,-67,-1,18,5
1537917566838580,-3,1,7,28,127,1,-29,-12
1537917566845560,0,-4,-9,-22,-112,32,33,8
1537917566845560,-7,0,1,4,38,46,-6,-14
1537917566861518,-3,3,17,45,125,127,-1,1
1537917566861518,26,5,-6,-19,-117,-76,11,53
1537917566863513,-17,-10,-12,-13,47,-12,-21,-27
1537917566863513,-1,1,2,12,61,0,-14,-5
1537917566876478,1,-2,1,15,95,-78,-16,-2
1537917566876478,-15,-13,-17,-40,-56,-24,4,-16
1537917566883458,4,13,25,54,114,-20,-38,0
1537917566883458,7,-8,-22,-65,-128,-128,47,11
1537917566899415,-21,0,-9,-11,104,74,-35,-30
1537917566899415,6,7,19,51,119,-18,-22,6
1537917566905399,15,-6,-13,-25,-96,-1,38,40
1537917566905399,-18,-6,-2,-1,-27,-37,-5,-19
1537917566922354,17,7,15,33,64,-21,-2,27
1537917566922354,4,4,4,11,54,-15,7,6
1537917566923351,1,-4,-4,0,60,-28,6,4
1537917566923351,-7,6,15,30,76,-32,-15,-14
1537917566936317,3,-3,-1,3,-15,-73,-11,14
1537917566936317,4,-13,-25,-52,-62,65,-10,-1
1537917566943299,-16,1,4,3,-23,-94,2,-35
1537917566943299,4,3,9,31,40,122,-12,4
1537917566960253,-5,-5,-10,-29,-57,-53,-15,-11
1537917566960253,-13,-2,-2,-9,-37,82,4,-18
1537917566965239,6,1,4,9,70,119,-25,18
1537917566965239,-1,-3,-1,1,15,9,-22,-3
1537917566982194,-7,-2,-3,-4,-58,119,29,-13
1537917566982194,-3,3,9,31,92,83,0,-3
1537917566983192,2,-8,-10,-23,-61,1,7,9
1537917566983192,1,2,-5,-18,-82,97,39,-2
1537917566995160,10,8,4,16,93,49,2,19
1537917566995160,-18,-7,-7,-22,-29,-53,5,-17
1537917567004136,-4,4,12,40,120,51,-26,-10
1537917567004136,-3,-2,-4,-25,-30,85,11,-13
1537917567019095,-7,-13,-18,-41,-87,-77,3,-9
1537917567019095,-1,3,5,17,65,61,11,5
1537917567026077,6,5,11,25,80,98,5,0
1537917567026077,6,7,19,58,107,50,-13,9
1537917567042034,9,-3,-14,-42,-94,-75,42,22
1537917567042034,-10,-3,0,9,121,34,-24,-15
1537917567043032,1,-3,-6,-12,29,-52,2,15
1537917567043032,12,-5,-17,-42,-64,52,-2,18
1537917567055997,-7,-2,9,15,-23,47,-16,-9
1537917567055997,12,8,17,41,-18,-114,41,28
1537917567064973,5,5,-3,-6,73,-49,8,-7
1537917567064973,-10,-13,-24,-54,-69,87,28,-8
1537917567078936,3,1,6,8,50,59,-7,-2
1537917567078936,7,4,8,18,-52,-83,19,7
1537917567085917,-4,1,-1,-8,-62,17,2,-14
1537917567085917,4,2,6,21,6,-27,-11,4
1537917567101874,-3,-4,-8,-16,-28,-12,-21,-8
1537917567101874,6,-9,-13,-27,69,84,-19,3
1537917567103868,-12,-1,-1,-11,-106,-19,17,-16
1537917567103868,-4,-3,-2,-4,32,-43,-14,-1
1537917567115836,10,2,3,13,-11,5,39,12
1537917567115836,-5,1,5,14,67,73,-6,-15
1537917567124813,-5,-1,10,34,68,127,-39,-7
1537917567124813,-5,-9,-23,-54,-127,-64,21,-10
1537917567138775,-3,6,7,25,127,127,-22,-6
1537917567138775,-20,-2,-1,-12,-21,70,-2,-34
1537917567145756,12,3,-2,-14,-70,-85,15,27
1537917567145756,-2,-1,8,11,-15,-76,-3,-18
1537917567161714,3,-3,-4,-12,-29,-58,-1,-6
1537917567161714,-4,-2,2,19,28,43,-61,-11
1537917567163709,-8,-5,-5,-9,-67,-88,4,-7
1537917567163709,3,2,1,13,87,89,-14,23
1537917567176674,-16,-8,-4,-8,18,56,7,-8
1537917567176674,3,0,-11,-28,-84,-96,2,8
1537917567182658,-1,2,8,29,116,127,9,-12
1537917567182658,-3,2,8,35,77,-68,-19,-1
1537917567198616,-15,-10,-20,-51,-48,-20,15,-29
1537917567198616,8,-1,0,-4,-3,86,14,22
1537917567205598,-1,2,9,27,89,94,-38,-12
1537917567205598,7,-5,-15,-43,-128,-121,2,8
1537917567221555,2,7,22,68,127,127,-36,18
1537917567221555,5,-3,-15,-48,-128,-108,22,-2
1537917567223550,-12,-2,0,8,50,113,23,-17
1537917567223550,-4,7,15,25,60,127,-17,7
1537917567235517,-9,-18,-25,-48,-107,38,0,-14
1537917567235517,-9,-10,-10,-38,60,110,-2,-6
1537917567244493,2,2,-1,5,-103,-10,-3,10
1537917567244493,-14,-2,2,5,69,33,3,-34
1537917567258457,9,2,-3,-22,-37,-128,3,25
1537917567258457,-7,-6,-8,-15,-38,-25,1,-17
1537917567273416,-12,-7,-6,-28,2,-66,-8,-5
1537917567273416,13,8,8,24,-5,-102,1,-3
1537917567282391,3,4,15,45,66,57,14,-6
1537917567282391,11,4,4,25,-70,-58,1,7
1537917567283389,-1,-2,-2,-8,29,73,19,7
1537917567283389,0,0,-2,1,-2,-4,-8,5
1537917567295357,-7,-4,0,1,23,23,-6,29
1537917567295357,10,7,13,42,8,-81,4,4
1537917567304333,6,-2,-12,-12,17,-99,31,34
1537917567304333,-20,-11,-7,-31,-62,109,-4,-42
1537917567318295,19,8,-2,7,-67,-62,36,34
1537917567318295,-16,-9,-15,-70,-36,-23,-13,-40
1537917567325277,24,-6,-15,-33,-97,-22,-35,42
1537917567325277,-6,-1,-1,-2,77,-7,-8,3
1537917567342231,-4,8,16,41,85,-70,-1,-7
1537917567342231,17,4,6,29,1,-40,-16,13
1537917567343229,-3,-5,-5,-5,28,38,-16,-38
1537917567343229,-3,-4,-3,-12,-77,-120,16,-9
1537917567355197,1,6,6,21,-11,7,-3,-1
1537917567355197,-1,0,-5,-7,112,89,13,28
1537917567364173,-9,-4,-5,-10,-31,-11,-12,-20
1537917567364173,-2,3,6,22,14,42,10,-4
1537917567379134,-1,2,2,4,52,38,-11,-3
1537917567379134,-11,-8,-12,-27,-95,-38,11,-8
1537917567385118,4,2,7,12,22,-9,15,19
1537917567385118,3,2,3,15,31,10,0,8
1537917567402072,1,-2,-10,-24,-32,-7,-15,-12
1537917567402072,-5,3,10,28,54,80,6,-3
1537917567403070,-2,3,1,3,24,19,5,-7
1537917567403070,4,-1,-2,4,-33,-46,8,15
1537917567416035,-7,-7,-6,-29,-14,84,-9,-19
1537917567416035,-2,-3,-6,-17,-29,-55,4,9
1537917567424015,-8,-2,-2,-13,-69,-7,16,-17
1537917567424015,2,1,-4,-7,-3,-11,-4,4
1537917567438974,4,-3,-2,3,-9,-39,-13,4
1537917567438974,-2,4,11,37,56,47,-4,6
1537917567445955,8,-4,-8,-16,-21,-25,-3,1
1537917567445955,2,-4,-7,-21,4,7,-5,-4
1537917567469890,0,-2,-1,-4,-28,-10,-4,3
1537917567469890,-4,3,5,12,25,29,4,-7
1537917567470888,-4,2,1,7,12,-4,-6,-9
1537917567470888,2,2,0,11,18,18,8,18
1537917567491831,-3,0,2,-1,-1,-6,-1,-10
1537917567491831,-4,0,3,9,1,8,2,-10
1537917567493827,4,-3,-2,-1,6,-14,-7,-2
1537917567493827,-2,-1,-6,-6,-6,6,2,3
1537917567506791,-6,-5,-9,-22,-28,-18,-4,-7
1537917567506791,-4,-3,-5,-11,-17,0,0,-5
1537917567512776,-1,0,1,1,-11,-2,-5,-3
1537917567512776,2,0,1,0,14,8,2,5
1537917567529730,1,-1,-1,2,-3,-7,-1,-3
1537917567529730,-4,0,3,13,7,13,-1,0
1537917567530728,2,1,1,1,7,2,3,1
1537917567530728,-1,-1,-1,-2,10,3,1,4
1537917567551672,-3,0,1,0,-6,-10,0,-4
1537917567551672,3,-1,1,3,3,11,-1,-2
1537917567553667,-2,1,-3,-1,0,-4,1,1
1537917567553667,-1,2,1,1,2,1,0,-1
1537917567566632,0,-3,-2,-1,-1,-2,-3,-4
1537917567566632,-5,-5,0,-2,1,5,0,1
1537917567572615,13,-8,5,0,-5,-3,1,0
1537917567572615,2,-3,1,3,6,5,-2,1
1537917567589570,-14,58,19,-1,-2,-3,-2,-3
1537917567589570,-10,-46,-49,-8,3,3,0,-1
1537917567590568,-15,-10,2,3,-4,-5,-3,-5
1537917567590568,13,-1,-7,-1,3,5,1,7
1537917567611511,4,-10,3,-2,-4,-3,-2,-2
1537917567611511,-3,17,16,3,-4,-1,-1,-3
1537917567613506,4,9,-4,-5,-1,0,-2,2
1537917567613506,-7,-4,3,3,3,-1,-1,-3
1537917567625474,-8,-13,-2,1,-2,-2,-1,-3
1537917567625474,7,14,7,1,-3,1,-2,0
1537917567634450,6,-5,-3,0,1,-1,1,1
1537917567634450,-3,2,4,-2,-2,-2,-1,-2
1537917567649410,4,-15,-8,-1,-1,0,0,3
1537917567649410,-1,1,5,4,0,-1,-4,-10
1537917567650408,-3,3,0,-2,-2,-2,0,6
1537917567650408,-5,-1,-2,0,0,0,0,0
1537917567672349,3,-7,-7,-2,-2,-1,-1,-4
1537917567672349,-1,1,5,0,-1,-1,-2,-3
1537917567673347,-5,3,0,0,-1,0,1,-1
1537917567673347,-1,-1,-1,-1,1,1,-1,-1
1537917567685314,2,-8,-5,-1,-1,-2,-2,-4
1537917567685314,3,4,4,-3,-2,2,0,1
1537917567694292,-3,-1,-2,-3,1,1,1,0
1537917567694292,-1,-2,-4,-1,0,0,-1,0
1537917567709251,0,-3,-2,0,-1,-2,-1,-1
1537917567709251,0,1,1,-2,-2,0,1,0
1537917567711246,0,0,-2,-1,0,3,-1,-1
1537917567711246,-3,-2,-2,-3,1,1,-1,-2
1537917567732189,0,-2,-1,-1,0,0,-3,-2
1537917567732189,3,0,2,-1,0,-1,0,3
1537917567734184,-2,-1,1,2,-1,-2,-1,-1
1537917567734184,-2,-1,0,1,0,-2,-4,-9
1537917567745155,2,-5,-2,-1,-1,-1,1,1
1537917567745155,3,-1,-3,0,-2,-2,1,3
1537917567754131,-3,-1,-1,0,-2,0,-2,-2
1537917567754131,-2,1,-1,3,0,-1,-3,-2
1537917567769091,-1,-2,-2,-3,-2,0,-1,-1
1537917567769091,1,-1,0,0,1,-3,0,2
1537917567771087,-2,1,-2,-2,-3,-5,0,-2
1537917567771087,1,0,0,-2,-1,0,2,3
1537917567792029,-1,-3,-2,0,1,-1,0,-1
1537917567792029,0,1,0,0,0,1,0,0
1537917567793026,-3,-2,-1,1,0,1,0,-3
1537917567793026,1,-3,-2,-2,-1,-3,0,3
1537917567805992,-1,-2,-1,0,-1,-1,0,0
1537917567805992,-2,1,1,-1,0,0,-3,-1
1537917567814968,-4,-1,0,-1,0,-1,-1,-1
1537917567814968,-1,-2,-1,-1,-2,2,0,-1
1537917567829928,-1,0,-2,0,-2,-2,0,-1
1537917567829928,0,-1,0,0,-1,0,0,-2
1537917567830925,-1,-2,-1,-1,0,0,-2,-2
1537917567830925,0,-1,-2,-2,0,-2,-2,-1
1537917567851869,0,-2,0,-2,-2,-1,1,-4
1537917567851869,-2,-1,1,0,-2,0,-2,-3
1537917567853865,-1,0,-1,0,-1,-1,-1,0
1537917567853865,-1,0,-1,-1,0,-2,-1,-1
1537917567865834,-1,-1,-1,0,0,-1,0,0
1537917567865834,-2,-1,-2,-2,0,-2,1,-2
1537917567874809,0,-2,0,-2,0,-1,1,1
1537917567874809,-2,0,0,-1,-3,-2,-2,-1
1537917567889769,1,-1,-3,-1,-2,0,-2,1
1537917567889769,0,-2,-2,-2,-1,0,0,1
1537917567890766,-1,-1,-1,2,0,-2,-2,0
1537917567890766,-1,-1,-1,-2,-2,0,0,0
1537917567911709,-1,0,1,-2,-1,0,0,-1
1537917567911709,2,0,-1,0,0,0,-1,0
1537917567913704,-2,2,1,2,2,2,2,-8
1537917567913704,-1,0,-1,2,2,1,-1,2
1537917567925672,-12,-2,2,9,23,18,0,-3
1537917567925672,7,2,1,7,31,12,1,0
1537917567934648,2,-3,-2,-5,-18,-37,-6,5
1537917567934648,-4,2,4,6,50,-43,-10,-10
1537917567948610,0,-3,5,9,-30,94,16,3
1537917567948610,2,2,-9,-25,-55,-100,3,9
1537917567949608,5,-5,-1,23,96,73,-10,25
1537917567949608,4,7,2,-20,-115,-63,43,0
1537917567971549,-7,-17,-27,-45,-77,54,-21,3
1537917567971549,2,-9,-8,-19,-6,122,-23,1
1537917567971549,-4,3,-2,-33,-70,-99,-8,1
1537917567971549,-8,-4,10,34,106,44,-2,-18
1537917567993491,5,13,27,51,110,34,-7,10
1537917567993491,21,10,0,-6,-75,-90,25,29
1537917567994488,-15,-13,-6,-9,-48,-32,-19,-28
1537917567994488,5,-2,-5,29,77,98,-16,23
1537917568008451,-6,-8,-14,-33,-105,-128,-14,-21
1537917568008451,-12,-14,1,26,59,127,17,-13
1537917568009448,-5,4,-4,-21,13,12,5,0
1537917568009448,-1,-6,-10,-33,-39,41,-6,-5
1537917568031389,-13,0,4,23,-23,-7,20,-28
1537917568031389,-6,-6,-10,-29,-45,-111,-11,-9
1537917568032387,-8,-5,-9,-24,-65,96,11,-1
1537917568032387,10,-1,-5,7,42,-1,-29,15
1537917568053330,13,5,0,8,80,127,31,28
1537917568053330,-8,-1,5,21,-24,-62,-20,-4
1537917568054328,11,9,7,19,30,62,39,-13
1537917568054328,-14,-3,-4,-18,-44,-72,3,-14
1537917568068303,4,7,7,11,49,50,-21,-20
1537917568068303,0,6,14,38,107,73,-21,-10
1537917568069288,2,-6,-4,-5,-44,-66,13,12
1537917568069288,-6,-5,-10,-34,-110,-98,-8,-10
1537917568091229,4,-3,-3,-6,50,4,-9,4
1537917568091229,1,1,-4,-23,-68,74,31,7
1537917568092227,5,3,5,14,82,87,-4,4
1537917568092227,3,11,26,64,90,92,16,3
1537917568114168,-5,-10,-27,-52,-128,-128,-7,-3
1537917568114168,-12,-5,-4,-21,112,101,-10,-24
1537917568114168,13,4,4,17,-34,-107,7,23
1537917568114168,4,6,11,24,99,68,-5,-1
1537917568130125,-7,-7,-8,-7,27,-111,-24,-8
1537917568130125,12,13,24,63,70,46,-8,24
1537917568131122,-20,-26,-46,-91,-90,-17,-3,-37
1537917568131122,-14,1,0,-8,85,22,-13,-15
1537917568152067,12,10,17,48,64,-23,11,16
1537917568152067,-1,-5,-7,-20,35,-36,-8,-2
1537917568153064,-6,1,9,20,-23,-28,-11,-21
1537917568153064,6,-7,-7,-20,-112,33,32,5
1537917568174008,1,7,4,5,103,76,0,5
1537917568174008,-1,0,-3,12,-69,-100,-9,-1
1537917568174008,2,4,11,34,-6,27,27,15
1537917568174008,-4,-16,-33,-99,-128,-102,-5,8
1537917568188968,-14,1,7,7,76,13,-16,-45
1537917568188968,-12,-7,-4,-10,1,97,20,-6
1537917568188968,22,17,14,30,19,-105,29,33
1537917568188968,-3,-4,-1,11,47,-38,-11,-22
1537917568210910,-7,-2,9,25,86,-25,-9,20
1537917568210910,4,4,13,26,9,-128,-10,-20
1537917568211907,-12,-6,-12,-20,34,62,-27,-21
1537917568211907,-2,3,3,16,91,116,1,1
1537917568233848,3,-3,-12,-44,-29,-72,6,-9
1537917568233848,1,-4,-3,-1,2,92,-7,24
1537917568234845,3,1,16,48,126,98,-1,-6
1537917568234845,-9,-2,-6,-25,-86,-113,-15,-35
1537917568248808,5,5,2,12,-32,21,43,12
1537917568248808,-2,0,1,-3,1,-43,-12,8
1537917568249805,-4,-1,0,15,5,-59,-20,-2
1537917568249805,-5,-3,-1,-4,69,87,-9,-4
1537917568270749,6,-6,-13,-20,-66,19,-16,8
1537917568270749,-7,-2,-10,-36,-67,-62,14,-13
1537917568271746,-3,-6,-15,-31,-80,-93,20,0
1537917568271746,6,6,16,46,116,50,2,10
1537917568285709,-5,-12,-15,-51,-102,27,-6,19
1537917568285709,9,10,-6,-9,59,62,-5,1
1537917568293689,-4,4,15,29,76,111,-31,-15
1537917568293689,19,6,0,19,-40,-73,21,21
1537917568308648,3,5,12,27,16,42,14,0
1537917568308648,-6,-8,-7,16,4,88,21,-3
1537917568309645,-7,-6,-2,-18,15,127,2,-11
1537917568309645,4,-4,-15,-35,-81,-65,15,15
1537917568331587,-5,4,3,6,64,75,-7,0
1537917568331587,-7,-10,-22,-55,-128,-66,14,-20
1537917568331587,11,9,11,7,127,67,3,46
1537917568331587,-5,-9,-8,-11,-84,-14,-11,-23
1537917568354525,1,-4,-5,-29,-23,-29,4,15
1537917568354525,8,13,25,79,111,-42,-9,13
1537917568355523,-3,-2,-3,-1,32,15,7,-13
1537917568355523,-2,-2,-3,-16,-40,-41,6,3
1537917568368488,13,3,1,9,-14,-18,1,11
1537917568368488,2,0,2,0,7,-71,-11,10
1537917568369485,-5,-4,-4,-4,-55,41,-14,-12
1537917568369485,4,3,7,25,16,-47,13,26
1537917568391427,-17,-4,-5,-13,-50,-31,-35,-52
1537917568391427,4,-3,-5,-21,12,38,12,9
1537917568392424,5,-4,-13,-20,-23,-101,2,18
1537917568392424,-10,-3,-3,-14,17,127,-12,-22
1537917568414365,-1,-2,3,6,-24,47,10,-2
1537917568414365,-6,-3,0,12,-73,60,10,-16
1537917568415363,4,7,9,11,45,12,-12,-2
1537917568415363,-4,-4,-5,-23,-51,2,-6,6
1537917568428328,1,2,4,24,97,86,1,-5
1537917568428328,-9,-16,-20,-58,-70,-49,-3,-1
1537917568429326,4,1,0,4,-47,22,-6,13
1537917568429326,-1,2,2,5,4,-47,-7,13
1537917568451267,8,3,3,15,30,8,4,-5
1537917568451267,-7,-2,-1,7,26,103,8,3
1537917568452264,-13,-6,-9,-38,-112,-58,8,-34
1537917568452264,-1,-1,5,5,-10,18,-1,-3
1537917568476200,16,15,20,68,65,21,12,25
1537917568476200,-9,-6,-12,-14,-21,-96,-18,-21
1537917568476200,-6,-5,-10,-43,-6,-38,-2,-4
1537917568476200,0,1,0,-15,-36,21,3,1
1537917568480189,-2,0,4,14,84,-31,-5,-3
1537917568480189,-2,1,1,11,11,-79,-12,0
1537917568488168,4,1,3,11,9,-10,-5,5
1537917568488168,-2,0,1,13,19,29,-4,-7
1537917568503129,1,-3,-3,-7,-10,-55,0,14
1537917568503129,0,0,3,2,29,43,-2,-1
1537917568510110,-2,-2,-4,12,-3,-42,1,4
1537917568510110,2,0,0,4,32,-14,-10,3
1537917568519085,-4,-4,-9,-16,-53,-37,-2,-4
1537917568519085,2,0,-2,-19,-1,-19,4,3
1537917568525069,2,1,8,23,12,33,-5,-1
1537917568525069,0,-1,-2,4,52,37,-7,-5
1537917568540029,-2,-7,-9,-37,-57,-32,-1,-1
1537917568540029,1,3,5,6,-4,31,-1,-1
1537917568548008,-1,-1,2,10,48,-16,-4,4
1537917568548008,-1,0,1,4,10,-3,-2,-4
1537917568562968,-3,-3,-3,-7,-30,-3,0,-4
1537917568562968,3,2,3,12,39,31,2,1
1537917568570947,1,0,1,1,0,-5,-3,-5
1537917568570947,2,1,1,5,14,-11,3,8
1537917568579923,-2,-1,-2,-4,-24,-2,-4,-4
1537917568579923,2,2,3,3,22,3,-1,1
1537917568585907,-1,-1,-1,-3,-2,-3,-5,-1
1537917568585907,0,-1,2,8,17,-5,0,0
1537917568600867,-2,-2,-4,-6,-14,-4,0,0
1537917568600867,-3,0,1,-2,6,6,0,-6
1537917568607848,0,0,-1,1,-1,-4,-2,0
1537917568607848,1,0,1,7,11,-4,2,3
1537917568624803,-2,-2,-2,-9,-19,-11,-1,-5
1537917568624803,0,1,0,-1,6,3,-2,1
1537917568630787,1,-1,0,2,4,0,-4,-2
1537917568630787,-1,0,-1,3,6,-9,1,0
1537917568647741,-2,-3,-4,-8,-18,-7,-3,-4
1537917568647741,1,-1,0,5,10,5,-2,-2
1537917568648739,-2,-1,-1,1,4,-2,-1,-1
1537917568648739,-2,-2,-2,-4,-2,-4,-4,-2
1537917568660707,-2,-1,-1,-3,-9,-4,0,-2
1537917568660707,-3,-1,0,0,8,5,-2,0
1537917568667688,-1,-3,-2,-4,-6,-4,-3,-4
1537917568667688,3,1,0,2,4,-4,-1,2
1537917568682648,-8,-1,-2,0,-5,-1,0,0
1537917568682648,4,0,0,0,0,-1,0,0
1537917568690627,-1,0,-2,-1,1,0,2,-1
1537917568690627,-2,0,-1,1,3,-3,-1,0
1537917568706584,-2,-2,-1,-6,-4,-2,-2,0
1537917568706584,-3,-2,-2,0,4,3,0,-3
1537917568706584,-2,-3,1,2,0,0,-1,0
1537917568706584,-1,-1,1,1,1,0,-1,0
1537917568720547,0,0,-2,-3,-4,-5,-1,-3
1537917568720547,-1,-2,-1,-1,2,-1,-2,0
1537917568728525,-2,-1,1,0,-1,-2,-2,-2
1537917568728525,-3,0,0,-1,0,-4,-2,1
1537917568743487,0,-1,-2,-3,-4,-2,-3,-2
1537917568743487,-1,-1,-1,0,2,1,-1,-1
1537917568750467,1,0,-1,-1,-3,0,1,0
1537917568750467,-3,-1,-2,-1,-3,-3,-1,-1
1537917568766424,-2,-2,-1,1,-3,0,0,-2
1537917568766424,-1,-1,1,-1,-2,-1,3,1
1537917568767422,-3,0,-1,1,1,-2,-1,-2
1537917568767422,2,-2,-1,0,1,-1,0,2
1537917568780387,0,-2,-3,-2,-3,0,-3,0
1537917568780387,1,0,-1,0,0,1,-1,-2
1537917568788366,-1,-2,-1,-2,0,0,-1,1
1537917568788366,1,-1,-1,1,-1,-2,2,-1
1537917568803325,0,-1,-1,0,0,-2,0,-2
1537917568803325,-3,-2,-1,-1,0,-1,-1,-1
1537917568810307,0,0,1,-1,-3,1,-1,-1
1537917568810307,-1,-1,-1,0,0,0,-3,-3
1537917568826264,-1,-1,1,-2,-2,-1,1,-1
1537917568826264,-1,-1,-1,-1,0,0,0,0
1537917568827262,0,-3,-1,0,0,-4,-1,-1
1537917568827262,-1,-2,-1,1,-1,-1,0,0
1537917568840227,-1,-1,-1,-1,-3,-3,-2,0
1537917568840227,0,0,-2,0,-1,0,0,-1
1537917568848205,-3,-1,-2,1,-1,-1,-1,-1
1537917568848205,0,-1,-1,-2,2,0,-1,1
1537917568864163,-2,-1,-1,0,-2,-2,-2,-2
1537917568864163,-2,-2,-3,0,0,0,-1,-2
1537917568870147,-1,0,-1,1,-1,0,-3,-1
1537917568870147,-1,-1,-1,-1,-2,0,1,-1
1537917568886104,1,-1,0,-1,0,-1,0,1
1537917568886104,-2,0,-1,-3,0,-2,-2,-1
1537917568887102,-2,0,0,0,1,0,1,0
1537917568887102,1,-2,1,-1,0,-1,0,-1
1537917568900067,-1,-1,-2,1,0,-1,0,-1
1537917568900067,-2,0,-1,-1,1,-1,0,-4
1537917568908045,1,-1,-1,-1,-1,-2,-1,1
1537917568908045,-1,-1,-1,-1,0,-2,0,0
1537917568923006,-1,-2,-1,-3,-3,0,-2,2
1537917568923006,2,0,0,-1,-2,-1,-2,-1
1537917568930984,0,-2,-2,-1,0,1,-1,-3
1537917568930984,-1,-2,0,1,-1,-1,0,-2
1537917568945944,0,-1,0,0,-1,1,3,3
1537917568945944,-4,0,2,4,14,9,1,1
1537917568946942,3,1,3,13,55,7,-4,0
1537917568946942,1,1,1,8,5,-40,3,1
1537917568961902,-1,-2,-5,-11,1,40,2,-5
1537917568961902,1,1,1,2,-1,16,-3,6
1537917568967886,-4,-7,-14,-35,-109,33,11,-3
1537917568967886,-11,2,15,44,117,81,-15,-16
1537917568982846,22,4,-9,-23,-110,-96,10,38
1537917568982846,-7,-8,-19,-47,-87,71,8,-43
1537917568990825,-8,2,7,13,104,-87,-39,-36
1537917568990825,13,-2,-10,-40,-128,-48,19,33
1537917569005785,-14,2,12,28,113,127,-5,-35
1537917569005785,20,10,22,60,119,93,11,38
1537917569006782,-4,-6,-7,-16,-118,-73,0,-4
1537917569006782,1,-1,-9,-25,-89,-108,1,-4
1537917569020745,-11,-12,-7,-4,31,-57,-24,-28
1537917569020745,-6,-7,0,-4,19,-128,-7,-1
1537917569027726,0,18,17,41,127,118,6,0
1537917569027726,-4,-6,0,7,23,-32,8,-3
1537917569042686,3,8,-9,-27,-83,-44,6,18
1537917569042686,-14,-7,-3,-1,75,41,-35,-26
1537917569050665,-6,-8,-10,-26,-92,103,51,5
1537917569050665,-3,-1,-1,0,29,75,-1,-9
1537917569066622,8,4,10,26,108,100,19,17
1537917569066622,2,-4,-10,-8,11,-94,-11,8
1537917569066622,-1,1,4,9,46,-101,-12,12
1537917569066622,13,1,-5,-8,-14,6,-14,18
1537917569080584,-13,-4,11,29,79,121,-9,-24
1537917569080584,-4,6,7,7,-44,-28,-2,-20
1537917569087566,9,1,2,9,40,-111,-18,26
1537917569087566,-13,-6,-6,-14,16,86,-5,-25
1537917569103523,2,1,7,14,75,-96,-26,6
1537917569103523,2,-2,-10,-26,-128,-67,-5,2
1537917569110505,-3,-6,-8,-10,-20,95,-2,-2
1537917569110505,-6,-2,6,18,96,53,-35,-9
1537917569126462,3,4,2,1,-35,46,9,0
1537917569126462,-5,-5,-9,-17,-35,69,6,6
1537917569126462,-8,-5,-6,-8,-39,18,8,-11
1537917569126462,14,10,8,25,110,119,18,13
1537917569140424,4,-9,-13,-23,-30,7,-3,-2
1537917569140424,-5,1,5,10,-7,-51,12,5
1537917569148403,16,11,21,59,74,-76,-47,5
1537917569148403,-17,-15,-27,-61,-55,-60,16,-15
1537917569163363,-5,0,-1,0,65,19,0,-1
1537917569163363,3,5,6,6,20,-58,15,8
1537917569170344,-1,-2,3,11,27,78,-1,-2
1537917569170344,-1,3,7,22,9,73,-10,-2
1537917569186302,-4,-4,-9,-24,-80,-50,16,2
1537917569186302,-2,-3,0,-3,-22,-47,-7,-1
1537917569187299,3,-5,-10,-26,-90,-38,10,9
1537917569187299,-2,1,3,11,29,-128,-18,-6
1537917569200264,-8,-6,-10,-21,-41,68,-6,-7
1537917569200264,2,0,-1,-2,-48,-31,13,1
1537917569208243,-11,-3,0,-9,10,67,13,-17
1537917569208243,9,-3,-7,-8,-80,-128,8,16
1537917569223203,3,3,9,18,37,-128,-11,10
1537917569223203,-5,6,2,10,77,127,-7,-29
1537917569230185,2,-5,-15,-34,-108,-105,-8,0
1537917569230185,-1,3,8,14,26,-25,1,7
1537917569246142,-1,-1,2,4,-26,-65,7,-3
1537917569246142,-2,-8,-7,-11,-24,88,-2,12
1537917569247139,2,1,7,19,127,126,11,10
1537917569247139,-5,-1,-3,-4,-70,-38,-13,-23
1537917569260105,12,1,1,15,47,92,8,23
1537917569260105,1,-4,-7,-17,-45,3,2,7
1537917569268083,-1,3,6,10,78,-65,-10,-6
1537917569268083,-7,-5,-5,-14,5,92,2,-2
1537917569283043,2,3,3,3,-6,-73,14,25
1537917569283043,-1,1,-1,2,22,87,3,8
1537917569290024,0,1,4,13,53,86,1,-9
1537917569290024,-7,-4,-5,-15,-74,-41,2,-18
1537917569305982,2,0,-2,-5,-16,63,22,4
1537917569305982,1,-1,4,17,72,-74,0,1
1537917569306979,7,1,-2,-7,-7,-70,1,17
1537917569306979,-5,-2,0,2,39,83,4,7
1537917569320942,1,2,4,14,92,125,-27,-22
1537917569320942,-4,-5,-11,-24,-117,-115,-5,0
1537917569327923,-3,-3,-4,-9,-18,113,36,4
1537917569327923,4,5,9,12,26,1,-11,-12
1537917569342883,-4,-2,-2,-3,-16,-2,-10,-8
1537917569342883,5,7,13,30,127,16,-6,5
1537917569350862,-4,-6,-12,-19,-109,-104,-3,-3
1537917569350862,-1,0,3,6,38,38,-5,12
1537917569374798,3,-5,-7,-19,-76,-23,-6,11
1537917569374798,1,0,0,-2,-10,55,12,6
1537917569374798,1,-2,-2,-6,-8,28,-18,-7
1537917569374798,2,1,2,5,13,-62,12,-11
1537917569396739,-5,-2,-1,-6,-34,-3,1,-4
1537917569396739,4,2,2,8,22,22,-1,17
1537917569397737,-1,0,0,0,12,-18,-9,-9
1537917569397737,-5,-3,-4,-10,-17,19,-2,-14
1537917569410702,-6,-4,-3,-8,-1,-21,-10,-5
1537917569410702,-1,-1,-2,-5,-5,1,-5,-8
1537917569411699,-3,0,-1,-1,-7,5,13,1
1537917569411699,3,0,0,5,16,-9,-5,10
1537917569434638,-7,0,1,2,-12,11,-55,-12
1537917569434638,2,-1,-4,-7,-12,16,68,3
1537917569434638,4,-2,-2,-1,10,25,33,10
1537917569434638,6,-1,1,1,6,25,-21,13
1537917569456579,4,4,-1,-1,-16,-20,76,12
1537917569456579,-7,-5,-2,-3,-8,-6,-95,-25
1537917569457577,-2,-1,1,-2,-8,-17,-9,3
1537917569457577,2,1,1,-3,3,24,60,28
1537917569471540,-5,-6,-6,-4,-27,-23,13,-12
1537917569471540,0,0,2,3,10,-19,10,-3
1537917569471540,-9,5,7,-3,-1,27,28,-16
1537917569471540,-2,-7,-4,2,-6,-8,-61,4
1537917569494478,3,-11,-12,-5,-11,-13,-16,-23
1537917569494478,-5,-3,2,2,13,28,54,21
1537917569495475,3,0,-5,-5,-7,-27,-128,-8
1537917569495475,-16,9,9,6,-2,23,127,-7
1537917569516419,9,5,-14,-3,-13,-21,-56,18
1537917569516419,-21,-2,27,6,13,9,45,-20
1537917569518414,4,5,-2,-4,-9,-23,-28,-10
1537917569518414,5,-24,-44,-5,-5,21,1,-28
1537917569530382,-22,1,-5,-1,2,19,49,12
1537917569530382,10,9,-5,-1,3,-8,-22,-25
1537917569539358,12,-8,5,3,4,26,126,-3
1537917569539358,11,48,17,2,-3,-20,-128,13
1537917569555315,18,20,25,7,0,-15,4,-4
1537917569555315,-5,-3,6,-10,-6,3,-49,-14
1537917569557310,-46,-24,-41,-7,-1,20,24,-2
1537917569557310,14,-22,2,0,-5,-39,-99,-8
1537917569577257,4,28,2,1,2,20,103,27
1537917569577257,-19,-13,-2,-1,-1,-16,-128,-54
1537917569578254,38,22,12,6,8,6,67,23
1537917569578254,-33,-25,-12,-8,-10,34,17,-3
1537917569590222,8,-16,8,-3,-12,-42,-128,-34
1537917569590222,-4,6,-18,-1,6,8,58,-10
1537917569599198,-3,-1,-8,-2,0,-5,-20,20
1537917569599198,5,19,4,0,-6,-9,-41,-9
1537917569614158,-31,-44,16,4,-3,-40,-58,-31
1537917569614158,16,-16,-6,0,4,59,107,26
1537917569616153,-5,3,17,1,0,-18,-81,-34
1537917569616153,19,10,-53,-9,-2,-6,69,67
1537917569637097,-27,-8,4,-2,-5,20,14,-27
1537917569637097,17,4,-4,-3,-6,-15,-8,67
1537917569638094,-23,-8,10,0,-2,6,-27,-48
1537917569638094,22,25,26,0,-1,-1,-8,36
1537917569650063,12,-15,-15,-1,1,1,72,-4
1537917569650063,-12,-5,-2,6,6,9,31,18
1537917569659038,4,0,7,-2,-10,-58,-41,13
1537917569659038,-18,-20,5,-3,4,45,13,-46
1537917569673998,8,38,-6,-5,-2,25,-13,14
1537917569673998,-11,9,4,-5,-13,-25,3,-19
1537917569675993,2,-1,-4,-1,3,9,-33,25
1537917569675993,-16,-23,1,2,-9,-29,-9,-20
1537917569696937,0,1,4,1,6,-1,15,-2
1537917569696937,-2,-2,-4,-1,-1,2,-25,1
1537917569697934,-15,0,-4,2,4,-5,10,-56
1537917569697934,6,-1,11,5,13,50,117,84
1537917569710900,10,0,-4,-5,-14,-23,-24,21
1537917569710900,5,7,-1,4,5,-9,-41,-11
1537917569719876,-3,-11,-5,-2,-5,9,54,9
1537917569719876,-14,1,9,1,2,1,-7,-36
1537917569733838,-14,-4,-4,3,2,-5,-18,-20
1537917569733838,12,0,-9,-5,-7,0,-3,7
1537917569735833,9,0,-1,-4,-2,14,-14,29
1537917569735833,-1,-3,6,0,-2,-9,-7,-5
1537917569756777,11,0,-5,3,-1,-31,-5,1
1537917569756777,3,-3,-2,1,4,-6,11,-14
1537917569758771,6,2,2,1,10,55,6,27
1537917569758771,-18,-1,-3,-6,-22,-34,-30,-58
1537917569770740,18,-4,-6,-5,0,-8,-46,42
1537917569770740,-12,-2,1,1,-3,-23,0,-46
1537917569779715,12,-1,-4,-1,-2,3,-39,-4
1537917569779715,4,2,1,0,5,2,12,32
1537917569794675,-2,1,2,3,1,-32,43,0
1537917569794675,0,0,0,0,1,10,-6,-3
1537917569795673,-10,-10,-5,-2,-4,-19,42,-1
1537917569795673,12,-1,-2,-4,0,18,-7,-8
1537917569816617,2,10,1,-3,-3,10,-45,-11
1537917569816617,6,-15,-2,-1,1,3,-6,29
1537917569818611,-13,-5,-2,0,-3,-8,12,-4
1537917569818611,4,-2,2,0,3,-8,-23,-4
1537917569830579,-3,-2,-3,0,5,2,0,26
1537917569830579,2,6,-1,-1,-7,3,19,-18
1537917569839556,1,1,-2,-4,-10,8,-34,8
1537917569839556,4,-1,-1,-1,3,-15,18,-27
1537917569854516,10,2,1,8,39,22,15,-16
1537917569854516,-8,-2,-5,-8,-42,-8,-41,-8
1537917569855513,6,1,-2,-4,4,-11,-2,57
1537917569855513,-2,2,0,-3,-9,1,4,-4
1537917569876457,-6,-3,-1,1,1,18,25,-17
1537917569876457,-4,1,-1,1,16,4,-5,4
1537917569878452,6,2,1,3,0,-7,-6,-8
1537917569878452,-4,-1,-2,-1,-3,-13,-14,-4
1537917569890420,4,-3,-2,0,-1,4,22,13
1537917569890420,-7,-7,-2,-3,-1,-2,-8,6
1537917569899396,17,7,2,-1,-2,-4,3,7
1537917569899396,-12,-4,1,2,9,8,23,-7
1537917569914356,10,-1,-1,-1,-9,13,12,-15
1537917569914356,12,3,1,2,3,-39,-12,70
1537917569915353,1,-3,-4,-7,-14,45,-17,-20
1537917569915353,-5,2,1,2,0,-23,53,-5
1537917569937294,-4,-7,-5,-8,-15,12,-8,4
1537917569937294,-3,1,-1,1,8,10,2,-12
1537917569938292,-6,-1,1,2,16,-5,6,-8
1537917569938292,4,0,2,2,2,0,-40,20
1537917569950260,-23,-5,-4,-3,-11,-8,14,-6
1537917569950260,8,-2,1,1,7,7,-7,4
1537917569959236,19,0,1,1,-1,16,2,-28
1537917569959236,-1,-8,-5,-2,-4,-17,-29,-1
1537917569974195,-18,-12,0,1,-3,-2,46,-13
1537917569974195,12,27,1,-4,0,1,0,2
1537917569976190,-19,-1,1,2,1,5,15,-18
1537917569976190,14,4,3,0,-1,0,2,0
1537917569997135,9,10,0,-1,-1,0,-44,3
1537917569997135,-8,-10,-11,-1,-2,1,2,-15
1537917569998132,23,14,-3,-1,0,-21,18,-11
1537917569998132,-16,-10,6,-3,1,23,-20,-25
1537917570010100,7,-2,3,1,-2,-18,9,57
1537917570010100,12,7,-1,-3,-7,19,50,1
1537917570019076,-16,-12,-3,-1,2,-31,-33,2
1537917570019076,-4,-3,-5,-2,-11,-25,-61,3
1537917570034036,8,3,-1,-2,-1,6,-7,-10
1537917570034036,-11,-4,3,0,3,27,49,-14
1537917570036030,11,4,-2,0,-2,2,52,22
1537917570036030,-5,14,8,7,14,-40,-86,-13
1537917570056975,-11,-14,0,-3,0,-7,-17,-3
1537917570056975,-12,-24,-9,-4,-11,-51,9,4
1537917570057972,-15,-3,0,3,8,51,-96,-25
1537917570057972,16,4,-8,-7,-15,-40,51,30
1537917570070937,6,8,13,0,3,47,7,-35
1537917570070937,-5,20,1,2,3,-12,-54,21
1537917570078915,-22,-25,-13,-7,-15,-35,15,-40
1537917570078915,-6,6,-5,2,4,14,50,-12
1537917570093876,8,2,4,1,0,4,-34,-11
1537917570093876,3,-5,3,-1,-2,5,-15,-10
1537917570095870,-15,1,13,1,0,1,10,-25
1537917570095870,0,-5,-7,-1,0,26,21,13
1537917570116814,-5,0,-2,-1,-6,-20,-23,-22
1537917570116814,1,-6,1,1,1,1,-6,21
1537917570117812,10,11,4,2,5,-6,15,35
1537917570117812,-1,-12,-2,-2,2,25,26,17
1537917570130777,-1,0,-5,-2,-7,-33,-21,2
1537917570130777,1,-1,0,2,14,6,-13,-50
1537917570139753,13,1,-1,2,-5,-2,-4,92
1537917570139753,5,-2,-3,-11,-24,-6,13,10
1537917570153716,-14,-3,-4,-2,1,10,2,-17
1537917570153716,-4,-2,-2,-1,2,6,16,8
1537917570160697,1,2,0,-1,-3,-21,-4,-32
1537917570160697,-4,-5,1,3,5,-3,-17,-1
1537917570176655,2,10,-2,-2,-8,-23,15,-5
1537917570176655,0,-5,-2,-1,2,36,-18,-6
1537917570178649,-6,-2,3,4,10,14,-16,-6
1537917570178649,-8,0,-1,2,0,-22,-17,-25
1537917570190617,-10,-9,-9,-2,3,47,0,-9
1537917570190617,-2,-5,7,0,-4,-20,-17,-14
1537917570199593,0,6,-2,-2,-6,-6,9,-17
1537917570199593,3,5,0,1,1,14,-1,-20
1537917570213556,0,-2,-3,0,3,-16,2,17
1537917570213556,4,1,-3,-2,-4,-21,-19,-6
1537917570220537,-1,-3,-4,-4,-3,8,9,17
1537917570220537,3,-1,3,0,6,2,-2,7
1537917570236494,7,1,-1,1,3,-7,-4,-10
1537917570236494,-14,-2,1,3,-7,-20,5,12
1537917570238489,7,0,-4,-2,6,31,-14,4
1537917570238489,1,-1,-1,-1,-11,-17,0,-8
1537917570259433,-8,-3,-1,-4,-4,9,12,8
1537917570259433,8,3,-2,0,-1,-31,-34,-35
1537917570260431,-3,4,4,2,4,2,17,0
1537917570260431,1,-8,2,0,7,16,-28,-11
1537917570273396,-3,-1,-5,-1,-4,3,6,-7
1537917570273396,6,-3,-4,2,1,-13,34,33
1537917570280377,-8,-12,4,-3,-5,-18,-19,-29
1537917570280377,-1,2,2,1,2,17,19,25
1537917570296334,1,-2,-2,0,-3,-10,23,-2
1537917570296334,-5,4,1,0,1,19,5,14
1537917570298329,-8,0,-3,-1,-2,-1,11,2
1537917570298329,1,4,-2,-3,-2,-16,-3,4
1537917570319273,-12,-4,1,2,1,12,14,4
1537917570319273,-4,-1,3,-2,-3,-16,4,11
1537917570321268,0,3,-6,1,2,20,26,-22
1537917570321268,-4,-6,-1,0,2,-17,-31,-22
1537917570334233,8,3,-2,-3,-3,-10,3,-4
1537917570334233,0,-1,1,-1,3,24,18,3
1537917570336228,3,10,2,-4,-7,-19,-15,-7
1537917570336228,-4,-6,-8,-2,-3,1,3,1
1537917570357172,0,6,-3,-3,-5,-9,-15,19
1537917570357172,-5,-15,0,1,-2,9,-10,-3
1537917570358169,-9,-17,-9,-2,-3,-26,-10,-25
1537917570358169,19,17,3,2,4,59,1,40
1537917570379113,0,-1,-1,0,-3,-33,-18,5
1537917570379113,-1,12,-2,-3,-3,-13,-6,-15
1537917570381108,-7,-2,-1,0,-1,2,5,3
1537917570381108,-4,-10,-2,-3,-1,-3,-5,2
1537917570394073,10,3,1,0,4,-6,1,-32
1537917570394073,9,3,1,-2,-5,2,-14,18
1537917570400057,8,18,-4,-4,-4,-4,-7,-4
1537917570400057,-8,-3,-3,-3,-6,-14,19,10
1537917570417012,-6,-4,1,3,2,10,-13,11
1537917570417012,-8,0,1,1,7,29,9,-11
1537917570418009,-1,-5,0,-1,-3,-1,-2,21
1537917570418009,7,0,-1,0,0,-15,-31,-11
1537917570438953,-4,-2,-4,-1,-2,-7,1,-23
1537917570438953,8,-1,8,1,2,18,-11,13
1537917570440948,0,-4,1,1,-1,-10,2,20
1537917570440948,-1,7,-2,0,-5,-40,-27,-28
1537917570453913,2,-3,3,0,3,32,39,42
1537917570453913,2,3,-4,0,-1,-5,4,-1
1537917570460895,-6,-9,-2,-1,2,-2,-17,1
1537917570460895,14,3,0,-1,1,-4,4,-31
1537917570476852,6,0,0,-3,0,24,27,58
1537917570476852,-2,-2,-2,-1,1,-1,-9,-23
1537917570477849,1,-3,-2,2,-1,-3,11,2
1537917570477849,-3,-6,1,1,1,11,40,14
1537917570499791,-5,-2,-2,-4,-7,-22,0,-15
1537917570499791,-9,-1,-3,-2,-5,9,-3,-4
1537917570500788,18,-1,-2,-1,-2,-2,-1,-6
1537917570500788,-8,-2,2,-1,2,6,-11,-7
1537917570513753,1,-2,-1,0,2,-1,-14,-10
1537917570513753,-12,-1,-2,-1,-2,-10,0,8
1537917570520734,-3,1,0,-2,-1,8,20,11
1537917570520734,-8,3,0,-1,0,3,13,-4
1537917570536692,1,-7,-1,1,-2,-8,-8,-5
1537917570536692,-4,-1,-2,-4,-5,-4,-24,-2
1537917570538687,-7,1,3,4,6,11,12,5
1537917570538687,-1,-1,-3,-1,-2,12,34,-3
1537917570559630,-6,-6,-2,-3,-6,-5,-56,-30
1537917570559630,6,1,-3,1,1,-9,15,-3
1537917570560629,4,3,1,1,0,4,-26,-8
1537917570560629,0,-3,-1,0,1,11,19,12
1537917570573593,-17,-5,-1,-1,-2,-7,-28,-27
1537917570573593,13,0,-1,-1,-2,-19,-23,-7
1537917570580575,8,0,-4,-4,-5,1,5,25
1537917570580575,-9,-3,2,0,1,-3,-8,0
1537917570596532,0,3,0,0,2,4,17,10
1537917570596532,-5,0,-2,-3,0,14,7,8
1537917570598527,-4,-3,-2,-1,0,-23,-7,1
1537917570598527,-6,-2,5,-1,0,21,-2,-6
1537917570619471,1,1,-1,0,0,-7,14,8
1537917570619471,4,-2,-2,-1,-3,2,8,16
1537917570620468,-2,3,2,-2,-3,-2,-19,-42
1537917570620468,-3,-8,-4,0,0,0,11,11
1537917570633433,3,3,0,0,3,-5,-19,-16
1537917570633433,5,-2,-2,-1,-3,-3,0,-1
1537917570640415,4,1,-2,0,-2,8,-6,-4
1537917570640415,4,1,-2,0,-3,-24,-21,-3
1537917570656372,0,-1,-1,-2,-1,10,-8,-28
1537917570656372,-3,-3,-3,-2,-1,-8,9,10
1537917570658367,-6,-4,-2,-1,-1,3,-14,-13
1537917570658367,5,1,1,2,6,19,7,34
1537917570679311,4,1,0,-1,-7,-18,-12,4
1537917570679311,-4,-3,-3,-2,2,4,18,-11
1537917570681305,-11,-4,0,-1,-2,-19,-17,-62
1537917570681305,6,0,-1,-7,-8,5,-10,14
1537917570693273,0,3,-1,0,-1,8,27,44
1537917570693273,1,-1,-2,-1,-3,-2,-23,-10
1537917570700254,1,-2,0,0,2,-4,29,37
1537917570700254,-12,-3,-1,2,3,-16,-46,-51
1537917570717210,3,2,0,-2,-1,-3,-6,4
1537917570717210,-8,-8,0,0,1,-1,7,6
1537917570718207,-22,-34,-3,-1,0,-3,-18,10
1537917570718207,6,15,0,4,0,5,11,-18
1537917570739151,-4,0,2,-4,-3,7,16,21
1537917570739151,-1,4,-1,1,1,-2,-4,-14
1537917570741146,1,12,8,-6,-5,1,7,1
1537917570741146,5,-20,-10,0,1,4,15,10
1537917570753113,-18,0,-7,2,2,-5,-3,-5
1537917570753113,-7,3,-2,-1,-1,6,11,-1
1537917570762090,13,9,-3,0,-6,-11,2,12
1537917570762090,-7,2,5,-7,-10,-59,-11,-25
1537917570777050,9,4,4,3,10,63,-11,-7
1537917570777050,-6,-4,-3,-1,-5,-14,11,-12
1537917570778047,8,8,-1,0,2,19,-11,16
1537917570778047,-6,-4,0,-1,-6,-63,16,1
1537917570798991,-5,-8,-1,-4,-8,-55,2,10
1537917570798991,13,7,3,6,14,64,-31,-14
1537917570800985,0,-2,-5,0,-1,-34,21,-15
1537917570800985,6,4,1,2,0,25,-24,26
1537917570812954,-5,-9,-5,-3,-7,-39,26,-14
1537917570812954,23,-2,3,-5,-7,-22,-6,8
1537917570821929,12,10,7,1,2,-4,20,24
1537917570821929,-13,-29,3,0,-1,34,0,-4
1537917570836889,23,6,-8,-6,2,17,7,7
1537917570836889,-19,-39,-3,4,-2,-6,-3,7
1537917570837887,21,21,-1,6,1,9,-18,-7
1537917570837887,-1,25,-4,-4,0,7,6,8
1537917570859829,-10,-31,-11,-5,-4,7,-29,-28
1537917570859829,-3,6,-1,-3,-7,-87,43,10
1537917570860826,-6,3,4,-2,2,85,-13,42
1537917570860826,0,-4,-7,-5,-5,-50,-2,-14
1537917570872794,-4,13,5,0,-2,10,-53,-37
1537917570872794,-1,9,-2,-1,3,28,72,31
1537917570881770,-17,-12,-1,7,21,85,-27,-45
1537917570881770,7,0,0,0,-4,-28,-26,14
1537917570897727,-8,-2,1,0,-1,33,32,-2
1537917570897727,-8,2,2,-7,-19,-128,-86,-28
1537917570898724,2,-8,-3,3,16,52,46,11
1537917570898724,-2,3,1,3,6,39,-5,-19
1537917570919175,7,8,5,1,-5,-48,21,50
1537917570919175,-6,-1,-14,-6,-11,-4,-37,-90
1537917570921170,-3,-3,6,-2,-9,-46,2,61
1537917570921170,5,2,0,2,4,27,-9,14
1537917570933139,-4,15,3,4,4,-1,14,-4
1537917570933139,3,1,0,1,5,28,3,9
1537917570941622,-10,-4,-6,-2,-5,-19,-1,-8
1537917570941622,-11,-2,-1,-1,-2,5,36,10
1537917570957086,5,0,2,1,0,-16,-14,9
1537917570957086,-2,5,3,3,7,53,7,24
1537917570958084,-2,-1,-2,-1,-8,-48,-13,-46
1537917570958084,-13,-13,-3,-5,-5,4,14,-1
1537917570979028,4,-1,-2,0,1,0,-12,0
1537917570979028,-4,2,3,1,4,31,0,-6
1537917570981023,-2,-6,-5,-3,-10,-48,4,40
1537917570981023,-3,-1,1,-1,2,23,4,-34
1537917570992991,-7,-6,1,2,2,0,-13,-13
1537917570992991,2,1,3,-1,1,8,-1,-6
1537917571001967,2,0,-4,-3,-5,-20,12,15
1537917571001967,7,7,1,1,0,3,2,-3
1537917571016927,-4,-1,0,-3,-2,1,3,4
1537917571016927,-1,-4,-1,-1,-2,1,-5,-11
1537917571017924,-3,-1,-2,0,0,8,33,16
1537917571017924,-3,-1,1,1,2,2,-44,-6
1537917571038868,2,-2,-2,-3,-2,-13,4,-3
1537917571038868,2,1,-1,-2,-3,2,18,16
1537917571040863,2,0,-1,-2,-2,-4,-8,-28
1537917571040863,0,3,-1,0,0,-7,-15,-31
1537917571052831,3,-2,-1,-1,-1,-14,2,17
1537917571052831,-1,-3,-2,0,1,38,5,6
1537917571061807,-1,-2,-2,-2,-4,-13,-9,-17
1537917571061807,0,-1,-1,-2,-3,-9,28,-20
1537917571076767,-4,1,0,2,1,8,-13,13
1537917571076767,1,1,-1,0,0,-15,-24,12
1537917571078762,-6,-4,-2,-3,-2,-10,11,2
1537917571078762,-1,4,-1,-1,-1,6,3,-6
1537917571099705,-4,-1,0,-1,1,1,-1,-12
1537917571099705,-1,-2,-1,1,-3,5,23,10
1537917571100703,2,0,-1,0,-2,-16,-32,-20
1537917571100703,-1,-4,-2,-1,0,1,7,41
1537917571112671,-4,-1,0,-1,-1,9,2,-13
1537917571112671,6,3,0,-1,-2,-1,-14,10
1537917571121647,-7,-5,-1,-4,-2,-5,25,-10
1537917571121647,5,-1,-1,2,0,-10,22,48
1537917571136607,-2,-3,-1,-1,0,-5,-9,-14
1537917571136607,-4,-1,0,1,4,33,19,9
1537917571138601,6,0,0,-1,0,-21,-25,-6
1537917571138601,5,-1,-1,-5,-6,-2,-4,-5
1537917571159545,-1,1,0,-2,0,-4,34,18
1537917571159545,-3,-1,0,1,5,0,-20,-13
1537917571160543,-7,-10,-3,1,9,27,4,-19
1537917571160543,-6,-1,-2,1,2,-7,-7,-6
1537917571182484,-10,-14,-2,-3,-8,12,-14,-54
1537917571182484,9,18,7,0,-9,-23,-6,0
1537917571183482,-2,2,-1,-4,-7,-10,-42,-24
1537917571183482,-7,0,3,3,8,7,34,13
1537917571196447,-13,-6,-4,1,3,-7,-9,-16
1537917571196447,-4,-9,-6,-6,0,3,-3,-23
1537917571198441,6,4,1,3,2,8,34,27
1537917571198441,3,-1,0,-2,-5,-12,-20,-15
1537917571219385,10,4,2,0,1,-1,12,13
1537917571219385,-1,-4,-2,0,-1,0,9,1
1537917571220383,-12,-7,-2,-3,-4,-9,4,15
1537917571220383,1,-2,-3,-3,-3,3,-12,-25
1537917571241327,5,1,-1,-1,-2,5,5,14
1537917571241327,12,2,-2,-3,-1,-2,16,23
1537917571243322,-6,-2,-2,-1,-3,-18,-14,-32
1537917571243322,2,1,-1,3,-1,13,-5,16
1537917571256287,5,6,1,1,3,5,-13,1
1537917571256287,-22,-8,-5,-2,-1,-9,0,-15
1537917571263268,4,-2,-1,-3,-4,-16,-19,17
1537917571263268,7,3,1,0,4,24,7,-10
1537917571279226,1,1,2,0,1,2,-26,-8
1537917571279226,15,7,2,0,1,-6,7,2
1537917571281220,-3,0,-1,-2,-3,-1,-16,45
1537917571281220,-3,-5,-1,-4,-4,-10,2,-2
1537917571302165,-5,-4,-3,-5,-6,-11,-6,-17
1537917571302165,-1,-4,3,3,7,38,-6,2
1537917571303162,6,7,-1,-4,-2,-16,6,-23
1537917571303162,5,1,0,-3,-1,18,-14,-1
1537917571316128,6,1,0,-2,-2,-20,13,32
1537917571316128,7,-2,-2,-3,-2,20,10,13
1537917571323109,-2,0,0,1,-1,-21,-15,-17
1537917571323109,3,-3,0,0,0,16,7,6
1537917571339066,3,-3,-1,-1,-1,6,-1,-6
1537917571339066,-5,-3,-2,-1,-6,-46,-4,3
1537917571341061,-7,8,-1,0,2,25,1,-7
1537917571341061,-13,-2,-3,-5,-6,-21,12,4
1537917571362005,-6,-2,0,-2,-3,-21,-11,-8
1537917571362005,-14,-1,-1,0,2,8,-2,2
1537917571363003,-16,0,-4,-2,-1,4,6,-4
1537917571363003,-11,-1,-2,-1,-4,-28,-3,-6
1537917571375967,-4,9,-1,-1,-2,9,-12,-5
1537917571375967,-1,-3,0,5,6,8,-6,4
1537917571383946,0,-6,-2,2,-2,5,10,-10
1537917571383946,2,2,0,1,4,-2,-4,7
1537917571398906,3,-3,-2,0,-2,13,2,11
1537917571398906,3,-1,-2,-2,-14,-65,-1,-8
1537917571400901,10,-3,-1,0,6,69,-3,0
1537917571400901,0,-3,-1,2,5,-2,-21,-5
1537917571421844,-9,-9,-4,-1,4,4,10,-4
1537917571421844,1,-17,-4,-1,2,2,9,5
1537917571422842,-5,5,-1,-7,-20,-29,-14,-19
1537917571422842,-3,9,-1,-1,-1,1,7,-1
1537917571435807,3,17,4,3,5,13,17,21
1537917571435807,-2,14,-1,-3,-1,-12,-8,11
1537917571444783,0,-6,-1,-2,0,-1,6,-1
1537917571444783,2,10,-1,-3,-2,7,-3,-12
1537917571459743,13,0,2,2,5,2,-7,-5
1537917571459743,-18,-22,-9,-7,4,6,-2,-14
1537917571460741,28,4,2,1,-13,22,13,21
1537917571460741,14,13,14,2,-16,-50,-12,-4
1537917571481684,-1,-3,1,-5,-4,54,18,5
1537917571481684,-1,-3,-2,1,4,-39,-21,1
1537917571483679,-23,-26,-7,-2,5,36,13,-4
1537917571483679,4,-17,-5,-2,8,-25,-17,3
1537917571495647,6,13,1,-3,-22,-3,35,-21
1537917571495647,7,0,4,3,-2,-43,-10,-1
1537917571504623,0,1,0,5,10,48,15,26
1537917571504623,-11,-14,-6,-9,-4,67,-8,10
1537917571519583,-9,-7,1,10,32,-17,30,4
1537917571519583,-15,5,-3,-10,-17,18,-10,-1
1537917571520581,14,8,1,-4,-51,-64,40,31
1537917571520581,-13,-9,-7,-10,-4,13,-48,-27
1537917571541525,4,-3,-2,1,0,-18,-40,-6
1537917571541525,5,6,2,8,30,2,5,6
1537917571543520,-7,-1,1,1,17,-15,-4,-14
1537917571543520,12,-1,-3,-2,-30,-46,12,31
1537917571555488,-10,-5,-2,-6,-16,4,13,-3
1537917571555488,5,3,2,1,3,5,4,-8
1537917571564465,-1,2,-1,-1,9,-3,-46,-4
1537917571564465,-13,-5,-2,4,15,3,10,-21
1537917571579425,5,1,-1,3,8,19,46,-7
1537917571579425,11,3,1,1,-8,3,-7,0
1537917571580423,-9,-2,2,-1,17,10,-27,-6
1537917571580423,-3,3,0,3,0,-15,3,-4
1537917571601366,-5,-6,-3,0,-6,-40,-17,11
1537917571601366,-1,-5,-5,-4,-3,22,12,-6
1537917571603361,4,-5,1,-1,3,27,9,-16
1537917571603361,-5,16,4,6,7,-22,26,4
1537917571615327,6,-3,-2,2,7,23,-20,9
1537917571615327,-5,-2,-6,-7,-12,12,-15,-2
1537917571624303,-10,-13,-6,-2,1,-36,-10,-13
1537917571624303,6,4,0,0,4,38,-11,-16
1537917571639263,17,7,1,-3,-15,-45,-6,12
1537917571639263,-2,7,5,7,5,13,1,18
1537917571641258,9,2,2,3,4,-29,40,18
1537917571641258,-9,-12,-3,-1,5,43,22,7
1537917571662202,-20,-9,-5,-3,1,13,-54,-37
1537917571662202,4,-7,-1,-1,0,25,3,10
1537917571663199,-4,12,3,3,18,-17,-7,21
1537917571663199,-2,-3,-1,-10,-19,-42,-12,3
1537917571675167,1,-1,-2,1,-4,74,22,13
1537917571675167,11,-2,1,-1,2,-11,34,7
1537917571684143,1,5,-1,0,7,3,-1,-9
1537917571684143,-4,-3,-1,-1,0,0,12,-34
1537917571699103,0,-3,0,4,6,-28,-16,1
1537917571699103,-4,-2,-3,0,-4,13,-12,-18
1537917571701098,-2,0,-3,-3,-6,-10,-19,-3
1537917571701098,6,0,-1,2,8,7,7,-1
1537917571722042,-1,-7,-2,-1,-1,4,1,3
1537917571722042,-5,0,-1,-4,-23,-27,-22,-10
1537917571723039,-1,-4,-2,-4,-15,-20,-11,-34
1537917571723039,0,4,0,5,6,12,57,-15
1537917571735007,4,15,0,2,15,10,-10,19
1537917571735007,0,20,1,0,-1,-12,-9,10
1537917571743983,-13,6,-2,-1,0,9,-18,-6
1537917571743983,-1,-9,-4,-5,-2,29,-45,26
1537917571758943,-18,-1,-3,-7,-9,-64,-16,-1
1537917571758943,29,-16,0,-1,-3,44,74,-14
1537917571760938,5,6,2,1,0,-34,14,57
1537917571760938,-2,-14,-1,4,6,-8,-11,61
1537917571781882,-9,-5,-1,-2,-7,-2,-45,-12
1537917571781882,-24,-6,-6,-9,-9,-3,-110,-29
1537917571782879,-7,-13,-7,-9,-2,29,-19,-38
1537917571782879,47,27,18,20,16,-42,8,53
1537917571804821,5,-6,-6,-5,-7,48,-77,-1
1537917571804821,-5,-6,0,3,1,-50,-97,30
1537917571805818,6,2,2,3,2,33,45,-6
1537917571805818,-18,-6,-8,-10,-10,-28,-59,-34
1537917571819780,3,-2,1,0,2,22,24,-5
1537917571819780,-5,3,0,-3,-2,1,-4,-22
1537917571820778,1,-1,-4,-7,-11,-3,-1,4
1537917571820778,-7,-1,-1,0,0,-6,28,-12
1537917571841722,3,-1,2,5,9,-18,29,-19
1537917571841722,-4,-2,4,15,30,43,44,11
1537917571843717,6,-6,5,29,52,-26,-2,26
1537917571843717,-4,-25,-12,-30,-64,25,2,-22
1537917571855684,-21,-18,-6,-10,-48,-34,-4,-11
1537917571855684,16,-2,2,6,77,71,15,-9
1537917571864661,11,2,7,1,-62,31,28,-3
1537917571864661,-3,2,8,36,100,35,8,3
1537917571879621,-3,5,-1,17,101,-84,-25,-44
1537917571879621,-11,4,-10,-21,84,46,6,-4
1537917571880619,-6,10,5,-10,-53,48,-13,-7
1537917571880619,-10,29,-15,-30,-32,-38,2,-52
1537917571901562,1,45,-12,-76,-5,-10,-1,-6
1537917571901562,-13,31,17,55,53,25,40,14
1537917571903557,9,6,-17,-56,-47,-82,58,-14
1537917571903557,5,-18,-7,-32,-15,112,-74,-34
1537917571915525,-11,-22,14,23,-76,-124,96,-32
1537917571915525,6,-15,-4,1,12,-49,-15,24
1537917571924501,3,-14,18,37,-8,67,-46,-9
1537917571924501,-17,-8,21,64,122,-10,57,-13
1537917571939462,7,-20,-24,-54,-54,34,-56,20
1537917571939462,-20,-9,2,13,44,-76,8,-74
1537917571940462,-30,-11,-1,-34,40,59,12,1
1537917571940462,4,2,-13,-29,-122,-128,-17,16
1537917571961403,27,9,18,82,127,3,-66,2
1537917571961403,-28,-17,-27,-92,-128,31,30,16
1537917571963399,18,12,11,49,127,-69,41,33
1537917571963399,15,16,29,99,69,-40,25,27
1537917571975366,5,-5,-3,27,120,28,93,77
1537917571975366,-4,-16,-41,-86,-113,-41,-75,-11
1537917571984342,-6,-7,-29,-29,-14,-83,-3,33
1537917571984342,-12,-12,-15,-74,-72,31,11,-21
1537917571998305,1,8,34,76,52,92,82,36
1537917571998305,14,20,36,93,116,57,-72,44
1537917572013265,-3,-9,-18,-46,-51,32,-6,-8
1537917572013265,-3,-6,4,8,32,46,3,-14
1537917572022241,-12,-5,-3,-8,-58,17,-78,10
1537917572022241,0,8,16,44,127,81,18,-41
1537917572023237,2,9,23,83,93,-7,-106,-22
1537917572023237,-2,-6,-33,-77,-70,-76,67,4
1537917572035205,-12,-1,3,-7,83,80,-1,-11
1537917572035205,12,-12,-29,-120,-128,-107,-19,18
1537917572044181,-1,-5,-25,-53,-52,-68,-33,7
1537917572044181,-3,1,0,-6,3,22,-11,5
1537917572058144,-5,0,5,1,-54,20,-24,-31
1537917572058144,9,9,25,79,43,-17,50,0
1537917572065125,3,5,10,32,-12,11,0,-23
1537917572065125,-2,-3,2,16,37,58,-9,19
1537917572083077,1,-2,-8,-18,-44,-77,9,23
1537917572083077,0,2,5,16,3,-3,7,-47
1537917572085071,1,0,-2,-8,-13,46,29,2
1537917572085071,-5,-2,2,1,8,30,-12,15
1537917572104021,7,-6,-3,-4,-9,37,19,-11
1537917572104021,14,14,-4,-11,-49,-59,20,51
1537917572106015,-11,2,-7,-6,10,13,7,-14
1537917572106015,-8,-15,5,19,21,6,32,-50
1537917572118980,21,36,-1,-23,-51,-80,5,-14
1537917572118980,-15,-55,-2,-2,4,104,123,-3
1537917572124965,12,45,9,4,-1,-41,-42,-9
1537917572124965,12,14,-7,7,11,40,-35,32
1537917572141919,-8,-32,-17,-2,-8,6,29,3
1537917572141919,3,4,12,-3,-4,-19,-52,4
1537917572142917,-6,-14,-18,13,14,10,43,4
1537917572142917,-6,1,-5,-4,-10,-6,-27,-9
1537917572163861,13,17,13,-6,-13,15,-65,10
1537917572163861,24,2,-20,-17,-15,-36,-30,39
1537917572165856,-31,-81,-12,-18,-21,1,-40,-12
1537917572165856,-8,29,21,10,13,14,-38,-67
1537917572178821,-1,12,-7,2,3,-44,3,-7
1537917572178821,-5,-1,4,12,11,30,-26,-15
1537917572185803,9,17,9,3,1,4,-28,-15
1537917572185803,-1,-15,-15,-8,-2,-9,0,30
1537917572201760,-4,3,1,-1,-13,23,54,-13
1537917572201760,-7,0,-1,3,-7,-37,-33,-17
1537917572207744,-5,5,5,1,7,24,-24,-11
1537917572207744,17,12,6,9,12,-56,47,84
1537917572224699,-11,-16,-3,3,-4,68,-9,-27
1537917572224699,-2,10,-2,-7,3,-10,-21,25
1537917572225697,-6,0,-3,-13,-8,-5,-36,22
1537917572225697,5,-3,2,2,-23,-24,-62,-4
1537917572237664,17,-8,1,-16,-1,-10,34,16
1537917572237664,-18,-5,-10,10,-2,10,24,-11
1537917572246640,17,27,6,4,7,18,-14,-8
1537917572246640,-8,-38,-5,-1,-1,-27,-40,-42
1537917572261600,-24,11,1,-1,0,21,-15,-9
1537917572261600,16,19,9,10,12,7,12,-38
1537917572263595,11,-10,-1,2,5,-11,18,19
1537917572263595,16,2,-7,-8,0,18,11,18
1537917572291519,-4,-9,-5,-5,-13,-14,15,-17
1537917572291519,3,1,4,3,5,-13,-20,20
1537917572293514,1,14,22,4,-6,6,-2,-22
1537917572293514,-7,14,-27,-3,-1,15,14,12
1537917572298501,25,14,-4,-9,3,-29,-67,5
1537917572298501,-51,-14,25,5,-15,1,24,-6
1537917572306479,2,-14,-70,-3,0,-12,-10,-31
1537917572306479,-17,-30,42,0,4,-27,-62,-72
1537917572321439,-20,-23,-11,-12,-25,-42,85,30
1537917572321439,12,13,-6,-3,-1,33,-46,-6
1537917572323434,-11,-54,32,10,16,35,32,-1
1537917572323434,-9,48,1,-2,-12,-76,4,-4
1537917572344378,-1,-6,-13,18,33,105,-8,6
1537917572344378,15,22,8,-11,4,-128,30,-42
