timestamp,emg1,emg2,emg3,emg4,emg5,emg6,emg7,emg8
1537907580352258,-1,-7,-23,1,-1,0,0,0
1537907580352258,-2,5,5,0,-2,-2,0,-1
1537907580352258,-4,-33,-17,-5,0,1,0,2
1537907580352258,4,39,7,0,-4,-1,-2,-2
1537907580358242,-1,-7,27,2,1,1,0,-2
1537907580358242,1,6,-41,-13,-3,-2,0,0
1537907580359240,-1,9,27,-1,-1,-2,-1,-1
1537907580359240,0,-3,-12,1,0,0,-2,-1
1537907580364226,-5,1,10,7,2,1,-1,0
1537907580364226,-5,-16,14,-2,0,-2,-2,-2
1537907580379187,-1,-17,-13,0,3,0,0,0
1537907580379187,3,5,5,6,-4,-2,-1,0
1537907580387168,0,9,4,-10,-3,-1,-2,-2
1537907580387168,-3,-10,-7,9,2,2,0,-1
1537907580394147,0,8,-3,-4,-3,-2,0,-1
1537907580394147,-4,0,3,-5,1,0,0,0
1537907580409106,-2,-7,-4,-11,0,-1,0,-1
1537907580409106,4,29,4,-3,-7,-1,0,0
1537907580426061,-1,1,-1,1,0,0,-2,-1
1537907580426061,0,-1,24,6,1,-1,-3,-1
1537907580428055,-3,-5,-56,-7,-2,0,-1,-1
1537907580428055,1,-12,12,-1,0,-1,-1,0
1537907580446007,2,20,6,-1,-2,-2,-2,-2
1537907580446007,-2,-14,-5,-1,-1,-2,-1,0
1537907580486900,1,15,2,-3,-3,-2,1,0
1537907580486900,-4,-18,-1,0,-1,1,0,-2
1537907580487897,2,6,-2,-1,-1,-2,-2,-1
1537907580487897,-3,-6,-2,0,1,-2,-1,-1
1537907580492883,-2,-8,-4,-1,-2,-1,-2,0
1537907580492883,-3,1,0,-4,-3,-3,-2,0
1537907580493881,1,6,-7,0,0,0,0,-1
1537907580493881,1,5,7,1,2,2,2,1
1537907580494879,-1,-3,-10,1,1,0,-1,-3
1537907580494879,2,-4,1,2,3,0,0,0
1537907580506847,0,0,-6,-8,-7,-3,-3,-1
1537907580506847,0,-1,-8,-2,-1,0,-2,-1
1537907580512829,-4,-2,24,5,1,0,-2,-1
1537907580512829,2,13,-5,2,3,2,-2,-2
1537907580521805,-4,-18,35,15,21,8,1,0
1537907580521805,0,5,-27,-28,-30,-9,-1,-3
1537907580535767,0,-10,-77,-44,-8,-1,-3,-1
1537907580535767,4,14,53,53,14,4,6,5
1537907580551725,-6,-11,-66,2,-13,-9,-6,-5
1537907580551725,-4,-7,55,27,45,10,-2,-2
1537907580557709,1,11,20,-87,-1,1,-7,-2
1537907580557709,-4,-3,2,39,-25,-13,-8,-5
1537907580573666,6,14,-21,97,-20,-13,-3,2
1537907580573666,0,-5,11,10,27,9,0,1
1537907580574663,5,4,-35,-43,49,20,8,5
1537907580574663,-3,-3,44,-111,-74,-19,-7,-5
1537907580596605,-6,2,-69,-15,-30,-9,-4,-6
1537907580596605,3,8,-68,-23,-3,5,2,6
1537907580596605,5,16,13,10,1,-7,1,2
1537907580596605,-5,-16,-5,-2,36,11,2,1
1537907580610567,3,12,71,3,11,6,5,2
1537907580610567,0,3,-53,15,-12,-5,-1,-1
1537907580618547,-7,-2,127,31,31,14,3,-5
1537907580618547,2,7,-3,89,16,6,2,3
1537907580633506,-10,-30,-78,-19,2,3,-4,-6
1537907580633506,15,50,120,91,25,10,9,9
1537907580634504,-14,-62,-84,-41,-76,-29,-6,-6
1537907580634504,6,37,64,-1,19,1,-6,-1
1537907580656445,4,-8,-34,-8,13,2,5,5
1537907580656445,-11,-56,-6,-26,-41,-16,-6,-6
1537907580656445,1,10,-68,93,36,9,-1,0
1537907580656445,2,4,-97,-63,-26,-5,0,-3
1537907580670407,1,-9,81,-49,10,13,1,-1
1537907580670407,2,3,-74,-10,7,-10,-3,-3
1537907580678386,-4,-3,38,16,-33,-8,-6,-5
1537907580678386,-10,-31,3,39,57,15,1,-2
1537907580693346,3,31,-8,-70,-58,-23,-8,-3
1537907580693346,0,-26,-61,41,-38,-12,-5,-3
1537907580694344,-4,15,34,-47,-34,-1,0,-1
1537907580694344,2,3,-11,-7,16,10,3,3
1537907580716284,1,1,-33,-7,13,4,3,1
1537907580716284,-7,1,7,-2,3,-4,-3,-4
1537907580717282,5,5,5,19,22,4,1,3
1537907580717282,-4,1,51,13,-7,-4,-4,-3
1537907580730247,-5,-26,11,-42,-23,-9,-4,-3
1537907580730247,0,4,-14,-37,4,6,2,0
1537907580738226,3,36,2,64,4,1,0,1
1537907580738226,-5,-19,5,-20,-20,-9,-4,-2
1537907580753186,2,12,35,11,13,4,-1,0
1537907580753186,-3,-6,22,0,6,2,-2,-3
1537907580754183,-1,-12,34,18,17,-3,-1,-2
1537907580754183,-1,3,-79,-19,-37,-14,-2,-2
1537907580776125,0,16,13,33,12,1,-1,2
1537907580776125,2,-8,-4,-25,-6,-2,-1,-1
1537907580777122,2,1,18,-3,-4,-5,-1,0
1537907580777122,0,1,5,5,13,4,1,-1
1537907580800062,-1,-3,52,58,14,3,1,-1
1537907580800062,-3,-11,-13,-32,-12,-6,-2,-3
1537907580801059,1,1,-5,18,2,0,1,1
1537907580801059,1,-3,-10,2,1,-1,1,0
1537907580814024,0,2,9,2,5,3,0,1
1537907580814024,-1,7,25,9,2,-1,-3,-1
1537907580814024,-3,-7,-25,-7,-9,-2,-1,0
1537907580814024,-1,-12,-8,5,5,1,-1,1
1537907580843944,-1,-3,-15,-2,4,-1,-1,-1
1537907580843944,-2,4,14,-7,0,-1,-1,-1
1537907580844942,-1,-10,-6,3,-1,-1,-1,0
1537907580844942,1,4,-15,-13,-7,-3,0,0
1537907580850925,-1,-4,17,13,11,5,0,-1
1537907580850925,2,2,16,1,2,1,-1,1
1537907580857906,-1,-1,-5,-3,-6,-2,0,-1
1537907580857906,0,-4,-3,6,2,0,-1,-5
1537907580873863,4,-22,-3,-3,-2,-2,3,19
1537907580873863,3,0,8,0,2,1,-3,12
1537907580874861,-6,2,-10,1,2,-2,-12,-43
1537907580874861,2,3,-7,-1,-1,0,0,34
1537907580895804,-11,2,4,-3,4,0,-4,-15
1537907580895804,0,-1,2,-9,-5,-2,-2,5
1537907580896803,4,-9,3,5,2,13,5,16
1537907580896803,4,-2,0,6,3,-16,8,-4
1537907580910765,-5,-3,2,0,-1,-1,-9,-10
1537907580910765,2,-4,5,-10,-5,-2,0,4
1537907580917746,-2,2,-1,10,-3,-4,-1,4
1537907580917746,-1,-9,2,2,5,8,1,-8
1537907580933703,0,-8,-4,-1,1,-1,4,5
1537907580933703,-3,2,5,0,2,-3,-2,-10
1537907580934701,-1,-14,-4,-9,4,3,3,3
1537907580934701,0,13,17,12,-8,-1,-5,-8
1537907580956642,0,11,1,-6,-9,-7,-1,-2
1537907580956642,1,14,-58,-1,4,3,1,-1
1537907580956642,0,6,1,-3,-2,-4,-1,2
1537907580956642,0,6,-7,5,5,2,-1,2
1537907580978583,-1,14,20,0,0,-1,-2,-2
1537907580978583,-4,7,18,1,-1,0,1,-6
1537907580979581,1,-2,-14,-1,-4,-4,1,13
1537907580979581,-3,5,-3,-5,2,0,-5,-1
1537907580993543,2,2,-9,-5,1,3,2,-1
1537907580993543,-2,0,13,15,-7,-3,0,2
1537907580994541,2,12,-8,-22,-5,-6,-1,-6
1537907580994541,-4,-12,-4,-9,-7,0,-2,-6
1537907581016482,2,8,3,2,11,4,1,1
1537907581016482,3,0,15,29,12,6,2,-4
1537907581016482,-4,5,35,-27,-29,-12,-7,-3
1537907581016482,1,24,-10,23,-4,0,-2,-3
1537907581038423,0,-27,-46,-23,-4,-3,1,1
1537907581038423,0,23,20,-3,5,2,0,-1
1537907581039421,-1,-9,-2,15,12,3,1,1
1537907581039421,-2,-13,12,-4,-4,-2,-2,-2
1537907581053383,-2,0,-12,-2,0,-1,-3,-5
1537907581053383,-3,-22,1,-11,0,2,0,-3
1537907581054381,3,7,5,3,-10,-7,-2,2
1537907581054381,-2,-13,-15,-5,2,0,-1,-3
1537907581076322,1,4,7,14,4,-1,-2,1
1537907581076322,-3,-4,-10,-9,-2,-3,0,-3
1537907581077319,-1,-3,-9,4,7,1,1,-2
1537907581077319,0,-4,6,-8,-2,-1,0,-1
1537907581098264,3,5,-4,-2,-7,-2,-1,0
1537907581098264,-1,6,8,-6,-3,-2,-1,0
1537907581099262,-2,-13,-19,0,5,1,0,-1
1537907581099262,1,10,24,5,2,1,-2,0
1537907581113223,1,14,-11,-4,-1,-1,-1,0
1537907581113223,-4,-25,-18,3,-2,-3,-3,-2
1537907581114221,0,2,8,5,1,0,0,-1
1537907581114221,0,-10,-34,-5,6,1,1,-2
1537907581136162,-1,5,47,8,-4,-2,0,1
1537907581136162,-1,2,-8,-5,-2,-2,-4,-2
1537907581137160,-3,-20,-6,5,3,2,1,1
1537907581137160,4,16,2,-1,-1,-3,-2,0
1537907581159101,-7,-6,28,-20,-5,0,-1,-3
1537907581159101,6,15,-9,18,2,-1,0,0
1537907581159101,-2,-6,8,-15,-8,-1,-3,1
1537907581159101,-1,7,-8,3,2,0,0,-1
1537907581174061,-3,-8,-12,7,0,-1,-1,-1
1537907581174061,-2,-1,17,-8,-3,-1,-2,-1
1537907581174061,0,3,-9,9,3,0,0,-3
1537907581174061,-1,-4,-6,-9,-2,0,-1,-2
1537907581196002,1,2,2,4,0,0,-1,1
1537907581196002,-3,-4,10,-7,-3,-2,0,-1
1537907581197000,2,4,-10,8,5,1,0,0
1537907581197000,-1,-5,-6,-10,-1,0,-1,1
1537907581218941,0,3,-3,4,4,0,-1,-1
1537907581218941,0,-11,13,-3,-6,-4,-2,0
1537907581218941,0,-6,-35,-1,-1,-2,0,-3
1537907581218941,-1,5,26,-4,-4,-2,-1,-1
1537907581233901,0,-3,-20,10,3,1,-1,0
1537907581233901,-2,9,69,-1,-2,-1,0,0
1537907581234899,0,4,-87,-11,1,0,-1,-1
1537907581234899,0,-19,-3,-6,-1,0,-1,-1
1537907581255843,0,0,-5,8,4,3,1,-1
1537907581255843,-2,2,39,3,7,-3,-1,-1
1537907581256840,-6,0,31,7,-12,-6,-3,-2
1537907581256840,1,4,-62,-18,-9,-1,1,1
1537907581279778,-3,-8,-5,-2,-2,-1,-1,-2
1537907581279778,-1,3,-5,4,5,3,-1,-1
1537907581279778,6,35,43,9,9,2,1,2
1537907581279778,-4,-9,9,3,-3,-1,-1,-3
1537907581293741,0,8,-3,-3,-4,0,0,-1
1537907581293741,0,9,-20,6,3,3,0,-1
1537907581294738,-5,-11,6,-9,0,0,0,0
1537907581294738,2,13,48,8,-1,-6,-3,-2
1537907581315682,-4,-35,-34,12,0,-4,-4,-5
1537907581315682,-1,29,2,-52,-19,-3,0,-2
1537907581316680,0,-21,23,-12,-1,3,1,3
1537907581316680,-2,-20,-85,30,25,5,2,0
1537907581339618,6,16,106,-20,-20,-11,-5,2
1537907581339618,-3,1,-1,-57,-2,-5,-4,-3
1537907581340616,-6,-36,-71,36,-66,-26,-12,-8
1537907581340616,3,18,21,-36,16,14,6,3
1537907581352584,1,-6,-17,-15,-10,-6,-2,1
1537907581352584,-7,-16,-37,54,-7,-13,-12,-10
1537907581361560,2,24,124,-28,-1,0,3,2
1537907581361560,-4,-14,-14,6,8,1,0,-3
1537907581376520,-3,-26,-128,-31,30,7,3,2
1537907581376520,-6,16,74,64,-7,0,-3,-7
1537907581376520,9,28,-107,-51,-25,-7,2,5
1537907581376520,1,-21,103,83,11,3,2,3
1537907581398461,1,12,50,-73,-7,0,-3,-1
1537907581398461,-1,-26,0,12,31,15,8,4
1537907581399458,-3,10,98,32,9,-1,-1,-5
1537907581399458,-4,6,-101,-45,-35,-11,-4,-2
1537907581413421,-3,12,-3,31,1,3,-2,-2
1537907581413421,-3,-10,24,5,53,19,6,-1
1537907581414419,-5,-10,-94,-14,-45,-15,-8,-3
1537907581414419,2,18,40,-45,-9,-3,-3,-1
1537907581436359,1,-6,103,80,6,0,3,2
1537907581436359,-7,-47,4,-13,4,2,0,-3
1537907581437357,6,42,14,53,54,21,8,8
1537907581437357,-4,-33,42,-26,-32,-13,-2,-2
1537907581458301,-4,5,-78,26,8,-1,-1,-2
1537907581458301,5,-10,30,-37,-10,-2,1,5
1537907581467277,4,27,40,-3,16,-1,-2,-3
1537907581467277,-4,-13,-40,-23,-17,-10,-5,-4
1537907581490216,7,9,29,54,36,14,6,6
1537907581490216,2,-1,-29,11,-18,-6,0,2
1537907581492210,-11,-24,37,-65,-14,-5,-5,-9
1537907581492210,6,26,-85,35,18,7,0,4
1537907581492210,1,10,16,-49,-23,-7,-2,-2
1537907581492210,1,14,41,15,-3,1,-3,-1
1537907581505176,-5,-49,-94,-10,3,2,-1,-1
1537907581505176,-7,-15,20,7,8,2,0,-3
1537907581510162,-5,-11,-16,-17,-14,-5,-1,-5
1537907581510162,3,35,-48,30,-15,-10,-4,-2
1537907581518141,10,10,-60,2,43,20,8,10
1537907581518141,-4,-19,49,2,-11,-8,-3,-3
1537907581533101,-5,-6,12,-9,-4,-1,-3,-3
1537907581533101,2,14,1,-11,-6,-2,-1,1
1537907581541080,-7,-12,38,-7,7,0,-3,-4
1537907581541080,1,17,8,1,1,-1,-3,-1
1537907581548061,-3,-17,-14,18,-5,-4,-2,-3
1537907581548061,-6,-25,-45,-42,-10,-3,-2,-4
1537907581555042,1,13,29,30,2,-2,1,0
1537907581555042,1,12,7,12,14,5,0,0
1537907581570002,-2,-8,46,-17,-13,-6,-2,-1
1537907581570002,0,-11,-38,-14,-10,-4,-1,0
1537907581577981,-1,-4,20,18,3,1,0,-1
1537907581577981,-1,7,7,2,1,1,0,-2
1537907581593938,-3,6,-13,4,-1,-1,-1,-1
1537907581593938,1,-1,-22,3,-3,-3,0,1
1537907581600920,-1,-10,-4,6,3,-1,0,-1
1537907581600920,-4,4,24,-2,-1,0,-2,-4
1537907581615880,-1,-3,-12,-2,-5,-2,0,-2
1537907581615880,0,-2,-16,-7,-6,-2,0,1
1537907581616877,-2,-5,32,0,-3,-3,-1,-2
1537907581616877,-1,-5,1,2,-1,-2,0,-4
1537907581630840,0,3,-11,-10,0,2,0,11
1537907581630840,-2,1,4,15,0,-3,-1,6
1537907581637821,1,-5,6,4,-1,-1,1,-3
1537907581637821,2,-2,-5,-1,3,4,8,5
1537907581652781,-10,0,-5,5,6,-1,3,1
1537907581652781,0,-1,3,-10,-4,-5,-12,-8
1537907581660760,0,-7,4,-1,0,1,-3,6
1537907581660760,5,0,9,-5,-1,3,1,0
1537907581667741,4,-1,-14,-5,-2,-2,5,-5
1537907581667741,-2,-11,-8,4,1,2,3,0
1537907581675720,-4,-17,5,2,0,-1,-1,0
1537907581675720,-1,-16,0,-5,-2,-1,-3,-2
1537907581690680,-2,-11,40,3,-1,1,-2,-4
1537907581690680,1,-3,-46,-4,-1,0,1,2
1537907581697661,3,-5,-10,0,0,0,-1,-4
1537907581697661,-3,10,11,-3,0,0,0,0
1537907581712621,2,17,33,24,7,0,-3,-1
1537907581712621,-1,2,-81,-26,-11,-4,-1,1
1537907581721597,0,15,29,-8,-5,-2,1,2
1537907581721597,-4,6,-8,-3,-1,-3,-4,-1
1537907581736558,-1,10,10,-5,7,2,-1,-2
1537907581736558,-1,4,24,2,-4,1,1,-1
1537907581736558,-2,-2,-43,-2,-9,-5,-4,-2
1537907581736558,2,6,37,-1,4,0,-2,0
1537907581750520,0,0,-28,-4,-6,-2,-2,-1
1537907581750520,0,2,27,8,9,2,3,0
1537907581758499,-2,0,-1,-2,1,-1,-2,0
1537907581758499,-1,5,11,-19,-7,-4,-2,-3
1537907581773459,0,-4,-30,0,2,2,-1,0
1537907581773459,1,-1,14,-6,-5,-4,1,-1
1537907581781437,-3,2,13,6,2,2,-1,-1
1537907581781437,-3,-5,-10,8,4,2,1,0
1537907581796397,0,13,17,8,2,1,1,-1
1537907581796397,-3,-14,-61,0,-9,-4,-3,-3
1537907581797395,3,22,13,1,0,0,0,-1
1537907581797395,-1,-9,-4,-2,-7,-2,-2,0
1537907581810360,-1,-9,-1,-5,3,2,-1,0
1537907581810360,0,20,66,36,17,5,2,-1
1537907581818339,-6,-32,-50,-37,-25,-9,-4,-3
1537907581818339,5,30,0,7,2,1,0,3
1537907581833298,0,-4,-1,-28,-7,-4,-3,-1
1537907581833298,1,5,-6,-5,3,2,1,1
1537907581841277,-4,-6,11,8,5,-1,-1,-2
1537907581841277,-4,-20,-5,-8,-2,-1,-2,0
1537907581856237,1,6,-5,16,-6,-5,-4,-3
1537907581856237,-3,-26,44,8,3,0,-2,-1
1537907581857235,4,28,-33,1,3,1,0,0
1537907581857235,-2,-34,-6,0,-1,-3,-2,0
1537907581872195,-1,-2,-4,-5,0,1,0,0
1537907581872195,-1,1,0,-6,0,0,0,-3
1537907581879176,-1,-2,23,5,-3,-2,-1,-1
1537907581879176,0,4,-7,4,1,-1,1,-2
1537907581893138,0,2,-13,-2,-3,-2,0,1
1537907581893138,1,1,2,-8,-9,-3,1,2
1537907581901117,-1,-6,0,2,5,2,1,0
1537907581901117,0,9,11,1,-3,0,-1,-1
1537907581916077,-1,-7,-12,-2,-1,0,-1,0
1537907581916077,-1,3,0,-7,-2,0,-2,-1
1537907581917075,-1,-4,8,5,4,2,2,0
1537907581917075,1,0,-3,10,2,1,0,-2
1537907581930040,1,6,53,-6,-4,-3,-3,-2
1537907581930040,-5,-26,-62,-22,-3,0,-1,-1
1537907581939016,5,23,-16,0,3,0,2,1
1537907581939016,0,14,-24,12,-5,-4,-2,-1
1537907581952979,1,8,9,24,15,3,2,0
1537907581952979,-4,-3,4,-63,-1,0,-1,-4
1537907581960957,6,22,26,67,-11,-8,-1,1
1537907581960957,0,5,-17,8,29,9,4,2
1537907581975917,-1,3,70,-86,-20,-4,-3,-3
1537907581975917,14,22,-8,52,29,11,3,4
1537907581976915,-5,-26,18,-28,-7,5,2,0
1537907581976915,13,30,-57,-9,20,7,6,9
1537907581990877,-2,-15,86,49,-20,-8,-5,-3
1537907581990877,-3,-11,-22,-30,11,11,5,0
1537907581998856,-1,31,-20,31,-7,-1,-2,-2
1537907581998856,-6,-9,101,11,-7,-11,-7,-5
1537907582012819,0,6,-122,-92,-18,-1,0,2
1537907582012819,3,12,94,8,-6,-5,-1,2
1537907582020797,-5,-15,-9,-12,22,5,-2,-3
1537907582020797,-4,-10,-11,20,-1,4,4,0
1537907582035758,-1,-18,-68,56,5,-7,-5,-4
1537907582035758,-3,6,-15,-17,-16,-7,-4,-2
1537907582036755,-1,-7,11,-10,14,5,2,2
1537907582036755,0,-8,-9,-19,-2,-1,-3,-2
1537907582050717,-3,-27,13,52,9,2,1,0
1537907582050717,0,22,38,42,-11,-3,0,0
1537907582058696,-4,-5,15,-16,-10,-6,-3,-5
1537907582058696,-5,-12,-59,-34,-19,-6,-5,-2
1537907582072659,5,19,-23,9,24,8,4,3
1537907582072659,-4,-1,-64,11,3,-2,-4,-3
1537907582080637,1,15,95,-25,-23,-7,-4,-2
1537907582080637,-6,-26,-26,-5,-31,-14,-8,-6
1537907582096595,4,10,53,8,14,8,5,3
1537907582096595,4,-4,40,21,-2,-1,1,0
1537907582096595,-2,-25,-15,-29,12,2,1,2
1537907582096595,-1,-4,-1,-11,-16,-2,0,-2
1537907582110557,-5,0,-12,-7,-11,-5,-4,-5
1537907582110557,-2,-14,22,-21,4,0,-1,-2
1537907582118536,0,8,-48,50,6,-1,-1,-4
1537907582118536,-7,-23,69,-9,-16,-9,-5,-5
1537907582132499,4,12,-39,-12,4,5,2,4
1537907582132499,0,-3,19,1,-3,-3,-2,0
1537907582141476,-5,-11,16,-6,0,-2,-3,-3
1537907582141476,2,8,3,22,8,5,0,-1
1537907582156435,-4,-6,56,21,5,0,-2,-4
1537907582156435,-1,-24,-78,-9,-3,-4,-1,0
1537907582156435,5,15,12,-11,-9,-2,0,1
1537907582156435,0,-9,3,-29,4,1,1,1
1537907582170397,0,-20,41,38,11,2,2,0
1537907582170397,-4,-3,-10,23,-4,-3,-4,-1
1537907582178376,0,-24,64,0,25,6,2,-1
1537907582178376,-1,3,-85,-36,-24,-7,-3,-3
1537907582193336,-9,-12,51,2,3,-1,-3,-3
1537907582193336,3,18,-13,12,-3,-2,-2,-1
1537907582201315,-1,-10,-14,4,-4,-1,-1,0
1537907582201315,2,25,33,-19,1,0,0,0
1537907582216275,-1,-6,-28,-4,-5,-3,-1,-1
1537907582216275,-1,-6,-49,-18,-9,-2,0,1
1537907582217272,0,15,-2,-7,-3,1,-1,0
1537907582217272,-2,-3,-6,16,10,3,0,0
1537907582230237,0,7,-41,-22,-17,-5,-1,0
1537907582230237,-1,5,31,1,3,3,-2,-1
1537907582238216,0,-9,-12,1,0,-1,-1,-1
1537907582238216,0,7,7,19,4,-1,-2,0
1537907582253176,0,1,-14,-7,-1,-1,1,-2
1537907582253176,-1,2,26,-3,3,0,-1,-2
1537907582261155,-3,-2,-35,-10,-11,-6,-2,-1
1537907582261155,0,1,13,15,7,3,1,1
1537907582275117,-1,8,-13,-16,-5,0,-1,0
1537907582275117,-2,-4,-3,-4,-2,-2,0,-1
1537907582284094,0,-1,-21,-3,-1,-1,-1,0
1537907582284094,1,5,37,15,5,0,1,-1
1537907582290077,-1,-3,-22,-6,-5,-2,-2,0
1537907582290077,-2,0,8,-2,-5,-3,-1,-1
1537907582299054,-2,-6,-1,6,2,1,0,1
1537907582299054,-1,-1,4,4,2,2,0,0
1537907582313016,-1,1,-16,-12,-5,-3,-2,0
1537907582313016,-2,-4,15,1,0,-1,-1,-6
1537907582321993,-1,-6,-10,0,-1,0,0,19
1537907582321993,-2,-7,-6,2,1,0,0,-3
1537907582335955,-1,-3,-5,-5,-4,-2,-2,-1
1537907582335955,1,-1,15,-6,-1,-2,-1,5
1537907582343934,-4,8,-32,-2,2,-3,-1,-11
1537907582343934,0,-35,16,9,2,1,0,0
1537907582350915,1,25,9,4,2,1,0,5
1537907582350915,-3,0,11,-1,1,0,-1,-6
1537907582359891,1,1,46,1,4,2,1,-4
1537907582359891,-1,-6,-71,-7,-5,-1,0,2
1537907582380835,-3,8,-24,-7,-8,-5,-3,-5
1537907582380835,-1,2,26,9,-3,0,-1,3
1537907582387817,-1,-1,1,6,1,1,-1,-3
1537907582387817,2,9,18,-1,5,1,1,2
1537907582404771,-2,-9,-14,-14,1,1,-2,-3
1537907582404771,0,22,-8,2,0,-2,-1,2
1537907582405768,5,17,-29,-7,-3,1,-2,-1
1537907582405768,-3,-2,19,3,-3,-2,-1,-4
1537907582426712,-1,-2,-7,-1,0,-1,-3,-3
1537907582426712,-1,-3,24,-7,3,2,1,2
1537907582428707,0,-3,-25,0,-6,-1,-1,-5
1537907582428707,0,13,-3,3,1,0,-1,-1
1537907582441672,2,1,20,4,3,1,2,1
1537907582441672,-3,-1,10,0,-4,-1,1,0
1537907582447656,-3,-13,3,-19,-7,-3,-2,-3
1537907582447656,0,8,-39,-7,-7,-2,-3,0
1537907582464611,1,6,27,8,-1,-2,-1,-1
1537907582464611,2,-3,-10,3,2,1,0,1
1537907582465609,-3,-11,6,0,-1,-2,2,-1
1537907582465609,0,4,21,-3,0,-2,0,-1
1537907582486552,-4,-12,-23,1,2,1,-1,-2
1537907582486552,1,-2,-12,-12,-3,-2,-3,-1
1537907582488547,0,-14,3,3,-1,1,-3,1
1537907582488547,-1,4,9,3,-2,-1,0,2
1537907582501512,-1,-7,-4,-5,-1,-1,1,-1
1537907582501512,-4,-6,-9,8,-1,-2,-1,-4
1537907582507496,0,-3,-7,-1,-1,-3,-2,0
1537907582507496,-1,0,-10,-4,1,1,0,-2
1537907582524451,-4,-22,14,3,-2,1,-1,0
1537907582524451,-1,0,0,-2,2,0,0,-1
1537907582525448,-2,2,-5,-4,-3,-2,-1,-1
1537907582525448,-1,5,10,-3,-2,-1,-1,-2
1537907582546393,-1,6,9,-5,-5,-1,-1,-1
1537907582546393,0,-1,-39,4,4,1,0,-2
1537907582548387,-1,-12,-12,5,-2,-2,-1,1
1537907582548387,1,-4,15,6,3,-1,0,2
1537907582560355,0,26,-1,-4,-3,-1,-1,2
1537907582560355,0,-4,14,-4,-5,-1,0,-2
1537907582569332,-2,-1,-26,7,3,1,-1,-2
1537907582569332,-1,-6,27,-9,2,0,-1,-1
1537907582584291,-1,-3,-7,-5,-2,0,0,-2
1537907582584291,-1,-5,-11,-3,-4,-2,1,-1
1537907582586286,0,9,21,2,3,0,0,-1
1537907582586286,-1,-3,-7,8,1,-1,-2,0
1537907582607230,1,-5,-27,-4,2,-1,1,0
1537907582607230,-1,1,15,2,-4,-3,-3,-2
1537907582608227,-3,-6,57,-1,-4,-2,-2,-2
1537907582608227,-4,4,-40,-10,-1,-2,-2,-3
1537907582620195,0,-16,-58,-4,-1,-1,1,0
1537907582620195,3,-6,21,2,3,2,1,2
1537907582629171,1,-2,-10,1,3,1,0,2
1537907582629171,0,5,35,12,-3,-2,0,1
1537907582644131,-2,-7,23,-7,-4,-2,-1,-3
1537907582644131,-2,-10,-61,-17,-5,-3,-1,-1
1537907582646126,-3,2,-24,10,3,3,0,-2
1537907582646126,-2,13,42,-13,2,-1,-1,-2
1537907582667070,-1,-22,-97,-20,-2,0,1,1
1537907582667070,3,32,40,28,9,2,3,5
1537907582668067,2,-7,36,3,14,-1,1,2
1537907582668067,0,-10,-111,10,-12,-5,-1,-1
1537907582691006,-12,-7,116,2,-34,-13,-10,-12
1537907582691006,6,2,-80,-51,7,8,-1,1
1537907582692003,-2,4,17,-12,-33,-17,-4,-3
1537907582692003,-6,-3,44,-6,-6,-4,-7,-6
1537907582695993,2,1,-51,-30,1,0,0,3
1537907582695993,-14,2,103,18,1,-16,-12,-14
1537907582703971,7,-26,-108,6,21,12,6,7
1537907582703971,2,-28,73,93,15,6,4,7
1537907582718931,-4,-2,-72,-24,26,18,5,2
1537907582718931,9,19,32,-102,-79,-16,-3,2
1537907582720926,-6,9,0,42,7,7,-6,-11
1537907582720926,11,7,-89,-16,29,7,11,11
1537907582732894,3,13,121,25,-3,-3,-1,2
1537907582732894,-5,-24,-47,49,19,3,-1,-4
1537907582741870,0,19,8,78,31,6,-1,-2
1537907582741870,-2,19,79,-101,-49,-15,-7,-8
1537907582755833,-1,9,-74,96,8,0,-2,-3
1537907582755833,3,-10,-53,-23,11,5,-3,4
1537907582764809,-4,20,83,-1,-38,-18,-7,-4
1537907582764809,-4,-29,-58,-67,23,7,-1,0
1537907582779768,-4,7,90,-35,-18,-13,-6,-3
1537907582779768,2,-11,-31,31,17,8,3,2
1537907582780766,5,8,-11,-20,-5,0,0,4
1537907582780766,-1,0,1,24,13,5,0,-1
1537907582792734,-4,7,127,11,-2,-3,-8,-7
1537907582792734,-4,-44,-120,-4,-5,1,2,1
1537907582801710,2,-1,19,-40,-14,-5,1,4
1537907582801710,-4,-9,35,-20,-27,-16,-5,-5
1537907582815672,3,-4,-4,48,8,2,3,3
1537907582815672,-3,18,64,37,21,2,2,-2
1537907582824649,-2,-11,-34,-23,0,-1,2,-1
1537907582824649,-1,-2,-38,11,-10,-2,-2,-3
1537907582839608,0,0,-4,-1,10,1,0,-2
1537907582839608,-6,-2,-73,5,-8,-2,-2,-2
1537907582840606,-1,-10,24,-13,-1,0,-2,0
1537907582840606,2,20,25,19,3,4,1,2
1537907582852574,2,-4,-29,-12,10,4,3,3
1537907582852574,-1,1,66,2,-6,-5,-2,-3
1537907582861550,-2,-7,-22,-10,-4,-3,-2,-2
1537907582861550,-1,6,1,15,3,0,-1,-3
1537907582875512,3,-5,-26,-15,-3,-3,0,0
1537907582875512,-1,2,32,3,0,0,-1,-2
1537907582891470,-6,-12,-2,-3,0,1,0,-3
1537907582891470,-1,1,-1,7,4,1,2,-1
1537907582899449,0,3,-9,-8,-6,-1,0,1
1537907582899449,-1,2,15,4,3,0,-2,-2
1537907582900446,0,6,6,-10,2,1,2,0
1537907582900446,-1,3,12,8,-4,1,-1,-2
1537907582913411,0,-10,-19,1,6,1,0,-1
1537907582913411,2,3,22,-5,-6,-5,0,2
1537907582922387,-1,-3,-2,-5,1,0,0,-2
1537907582922387,-1,-8,-3,7,-3,0,-2,0
1537907582935353,0,-3,-9,-3,-1,0,-1,0
1537907582935353,-1,-5,5,-19,-6,-3,1,0
1537907582944329,-1,0,19,35,11,4,-1,-1
1537907582944329,0,1,-7,4,-2,0,0,-1
1537907582959289,0,-5,-1,1,4,1,1,0
1537907582959289,0,2,18,-6,-8,-5,-1,0
1537907582960286,-2,1,-4,-14,-6,-4,-3,0
1537907582960286,-2,13,4,5,2,1,-1,-3
1537907582982227,-1,-6,-23,-5,-3,-3,-1,2
1537907582982227,-3,3,9,9,6,2,-1,-3
1537907582983225,0,3,-5,-12,-5,-3,-1,-1
1537907582983225,0,-6,-1,5,2,-1,-1,-1
1537907582995192,0,4,0,-9,-5,-3,-1,-1
1537907582995192,0,-7,-1,0,-2,1,0,0
1537907583004169,0,8,2,8,5,0,0,0
1537907583004169,0,15,9,-6,12,4,1,1
1537907583019129,-1,7,-5,-21,-40,-13,-5,-2
1537907583019129,0,4,15,4,6,2,1,0
1537907583021123,-1,-4,13,-3,-1,-1,1,-2
1537907583021123,2,12,-95,-32,7,2,2,2
1537907583033091,1,-28,12,16,-4,-4,-2,0
1537907583033091,-1,-1,27,7,2,0,-1,0
1537907583042067,1,-2,16,-14,-6,-2,-2,-1
1537907583042067,-3,-8,10,10,-1,-2,-2,-1
1537907583055033,-4,-4,-13,-9,4,3,1,-1
1537907583055033,-2,24,-1,-2,1,-2,-3,-1
1537907583064008,-1,-13,-13,3,2,1,1,0
1537907583064008,0,5,11,8,-5,-1,-1,-2
1537907583080963,0,-4,-2,2,5,2,0,-2
1537907583080963,-2,-6,4,7,-1,-2,0,0
1537907583081961,0,9,-7,-8,-1,-1,0,0
1537907583081961,-1,-5,9,3,-9,-5,0,-2
1537907583092931,0,9,9,7,9,4,0,-1
1537907583092931,0,-1,-5,-7,0,3,0,-3
1537907583101908,-1,1,-13,-6,-2,-1,-1,1
1537907583101908,-2,-6,15,0,9,2,1,0
1537907583115870,-1,9,57,4,-15,-6,0,-1
1537907583115870,-4,-18,-107,-52,-29,-13,-8,-5
1537907583124846,2,-4,55,8,11,3,2,3
1537907583124846,3,1,30,6,-10,-2,-1,0
1537907583138809,0,4,7,-1,15,3,1,1
1537907583138809,2,4,48,20,6,3,0,0
1537907583140803,-5,-23,-35,-20,-17,-6,-3,-4
1537907583140803,1,-4,-27,-1,1,0,-1,0
1537907583152772,-5,-17,-10,-5,2,0,0,-4
1537907583152772,3,17,15,10,0,0,0,-2
1537907583161748,-1,8,-18,4,5,0,1,-3
1537907583161748,2,8,22,4,-5,-3,0,0
1537907583175711,-3,-9,-32,-5,-4,-3,-1,0
1537907583175711,-1,-7,3,10,7,3,0,0
1537907583184687,1,5,4,-1,2,1,0,-1
1537907583184687,-2,2,-3,2,-5,-2,-1,-1
1537907583199646,0,5,-6,1,1,1,-3,-1
1537907583199646,2,4,33,9,2,1,0,0
1537907583200644,4,7,27,16,18,8,4,3
1537907583200644,-5,-19,-42,-27,-36,-15,-8,-5
1537907583212612,8,19,11,29,21,6,3,7
1537907583212612,-3,-9,52,21,8,0,2,0
1537907583221588,-2,-10,-67,6,18,7,-1,-2
1537907583221588,0,9,107,38,-21,-10,-3,-3
1537907583235551,-4,-16,-49,-72,21,6,0,-2
1537907583235551,2,28,42,2,-24,-5,-5,-3
1537907583244526,-3,-28,-58,-55,-32,-12,-5,-6
1537907583244526,0,-11,18,79,64,23,11,5
1537907583259486,3,27,-68,-71,-28,-17,-6,1
1537907583259486,-4,11,78,4,11,5,3,-1
1537907583260483,-3,-6,-58,-80,-55,-17,-9,0
1537907583260483,-2,-13,-64,56,36,14,1,-1
1537907583272451,2,7,41,-72,-42,-10,-1,2
1537907583272451,3,-21,8,23,23,6,1,2
1537907583281427,-1,18,-63,14,35,15,6,-1
1537907583281427,-7,8,7,-88,-78,-39,-17,-13
1537907583295390,9,15,78,127,75,26,8,6
1537907583295390,-7,-7,8,12,-24,-18,-6,-5
1537907583304366,-6,-3,107,-66,-25,-5,-2,-4
1537907583304366,10,5,-11,16,31,16,8,10
1537907583319326,-2,2,-91,22,-11,-6,0,-1
1537907583319326,-1,-4,-23,8,11,1,-1,1
1537907583320324,-1,10,6,45,4,-3,-1,-1
1537907583320324,2,11,31,-6,9,3,2,2
1537907583333289,-9,-5,119,43,-4,-7,-9,-11
1537907583333289,-4,-6,-128,-47,-3,-5,-1,-1
1537907583342265,12,21,81,58,16,4,6,11
1537907583342265,0,5,0,-54,-14,-2,-2,-1
1537907583355231,-1,-13,59,13,-6,-1,-1,-1
1537907583355231,-2,-8,32,18,5,1,1,-1
1537907583364206,-5,-23,-30,-42,-8,-3,-4,-6
1537907583364206,0,-10,-38,0,3,0,-1,-2
1537907583378169,-6,-3,6,32,5,2,-2,-3
1537907583378169,2,-15,-32,-43,-13,-1,0,-1
1537907583385151,-3,-4,-8,-3,6,0,-1,-1
1537907583385151,-3,18,0,13,-18,-5,-2,-1
1537907583393129,-5,-21,43,-21,-12,-4,-2,-5
1537907583393129,0,5,-80,-23,-1,-1,-1,1
1537907583402105,4,9,62,29,-2,1,1,3
1537907583402105,-5,-12,39,-11,0,-3,-3,-3
1537907583415070,-1,-7,-2,7,-2,-1,0,-1
1537907583415070,-1,-10,-8,-5,2,1,1,1
1537907583424046,-1,-16,22,26,4,-1,-1,-2
1537907583424046,-1,-33,-41,6,6,1,0,-1
1537907583439006,1,-3,-34,-21,-10,-3,0,0
1537907583439006,3,-4,13,11,6,3,2,0
1537907583444990,-2,3,-32,9,-2,-4,-2,-2
1537907583444990,-2,-2,10,-13,-6,0,0,-1
1537907583452969,0,17,-34,-14,2,-1,0,1
1537907583452969,-1,7,11,12,1,0,0,-1
1537907583461945,-1,7,-14,6,-2,-3,0,0
1537907583461945,-1,11,1,-7,-4,-2,-3,-3
1537907583475907,-2,1,-14,3,3,1,1,0
1537907583475907,2,-2,-4,1,-2,1,-1,6
1537907583482889,-1,8,13,4,-4,-4,-4,-3
1537907583482889,0,-3,-1,0,5,1,-1,-2
1537907583498846,-2,2,-28,-7,-1,1,4,3
1537907583498846,11,4,17,0,-1,5,10,5
1537907583505827,-6,-1,-1,10,5,1,19,23
1537907583505827,-9,-4,-6,-5,-4,-10,-52,-13
1537907583512809,9,-3,-21,-12,-5,-3,-3,4
1537907583512809,-11,2,10,0,-1,-1,-2,-9
1537907583521785,9,1,1,3,-1,0,16,14
1537907583521785,-3,-3,-2,-1,5,3,14,-3
1537907583536745,-5,1,-3,0,1,-1,-7,-9
1537907583536745,7,-2,2,-3,-8,-3,1,18
1537907583544724,-9,-8,-4,0,-1,-2,-10,-27
1537907583544724,-7,0,1,2,0,1,13,1
1537907583558686,-1,-3,-10,-4,0,-1,-4,-1
1537907583558686,-3,-4,2,1,2,0,1,-8
1537907583565668,0,19,0,1,10,1,-7,-5
1537907583565668,0,-24,-4,-24,-29,-9,-1,-3
1537907583589604,0,-28,-4,0,0,-1,6,10
1537907583589604,-4,8,-6,-5,-2,-2,-5,-6
1537907583590601,-2,1,5,3,2,0,-9,-5
1537907583590601,7,10,2,0,10,6,7,11
1537907583602570,-2,2,6,-4,4,2,0,-6
1537907583602570,-5,-16,5,1,-14,-8,-5,-7
1537907583611545,2,3,-21,-4,-11,-3,-8,-3
1537907583611545,1,-2,10,10,4,1,7,-2
1537907583626505,-3,6,-1,-2,-3,0,-1,-3
1537907583626505,-4,-5,7,11,12,3,-3,-6
1537907583628500,0,-5,-1,7,4,1,1,3
1537907583628500,-1,9,-2,-6,2,1,2,2
1537907583649444,-1,5,34,19,-5,-3,-2,-3
1537907583649444,0,6,-36,-9,-8,-3,-2,1
1537907583650441,-2,-5,-17,-10,-7,-3,-2,-3
1537907583650441,2,8,1,0,4,1,1,0
1537907583663406,-2,-1,-2,12,10,3,2,0
1537907583663406,0,4,13,-7,7,5,2,-1
1537907583671385,-3,-11,27,18,-13,-9,-6,-6
1537907583671385,-2,-7,-51,0,0,-1,-1,-2
1537907583686345,0,19,8,-6,-3,0,1,4
1537907583686345,0,-9,23,3,2,2,1,4
1537907583688340,-2,-6,-13,8,12,6,-1,1
1537907583688340,1,10,39,7,1,0,3,1
1537907583709284,0,-4,1,-25,-11,-4,-2,-4
1537907583709284,2,20,-13,-18,5,2,-1,-2
1537907583710281,2,-19,-2,11,5,2,-1,0
1537907583710281,-3,-25,-24,26,4,-1,2,0
1537907583723246,-3,-6,-17,-27,-8,-1,-3,-5
1537907583723246,2,6,43,19,10,4,0,-1
1537907583732223,0,-9,30,3,-10,-6,-1,0
1537907583732223,2,24,-25,-18,-5,-2,-1,-1
1537907583747182,2,-1,20,12,7,-1,1,2
1537907583747182,-1,-11,15,47,2,-1,-2,-1
1537907583748180,-5,-9,-62,-35,23,5,-2,-6
1537907583748180,-7,-16,72,19,-32,-13,-9,-7
1537907583769124,7,18,-80,-101,-53,-28,-11,-4
1537907583769124,-6,-1,-25,-19,0,1,1,-2
1537907583771120,12,11,-85,108,30,16,12,11
1537907583771120,-1,11,-3,16,20,1,-1,2
1537907583783087,1,-20,77,104,69,27,13,7
1537907583783087,-1,-2,-15,-80,-95,-28,-9,-7
1537907583792063,-3,-6,-57,-88,-27,-9,-5,0
1537907583792063,-4,-10,21,3,4,7,2,-1
1537907583806026,13,50,72,-1,21,10,6,6
1537907583806026,-1,-8,34,11,29,3,-2,-1
1537907583813007,-10,-13,44,78,14,-1,-4,-8
1537907583813007,9,18,28,-27,-28,-4,0,5
1537907583828964,-11,-27,-93,-24,-7,0,1,-4
1537907583828964,4,5,-65,22,19,5,0,2
1537907583830959,-3,19,81,-50,-11,-4,-7,-4
1537907583830959,-5,-21,-65,17,15,5,-2,-3
1537907583851904,-1,19,17,33,-10,-10,-4,-3
1537907583851904,-9,-32,-114,-42,-15,-7,-3,-6
1537907583852903,2,26,56,-10,-13,-1,1,2
1537907583852903,1,13,42,32,22,5,1,-1
1537907583865867,-14,-10,-9,0,-21,-12,-11,-13
1537907583865867,8,-9,-86,-26,13,8,6,8
1537907583874843,6,6,102,32,14,2,1,6
1537907583874843,-3,6,22,-36,-7,-6,-1,-3
1537907583889801,-2,-20,36,-12,-16,-7,-3,-3
1537907583889801,-3,10,108,30,9,0,-1,-2
1537907583890799,3,-1,-57,-9,5,3,1,-3
1537907583890799,2,1,-41,10,8,1,2,0
1537907583911743,-9,-32,-29,-27,-17,-4,-3,-4
1537907583911743,7,18,9,7,-4,0,0,3
1537907583913737,-3,-11,-48,-2,-6,-1,0,0
1537907583913737,0,2,-8,-30,-11,-3,0,0
1537907583925705,1,9,56,-37,15,6,0,-2
1537907583925705,-4,-11,-10,85,-2,-5,-3,0
1537907583934681,0,6,-44,-24,-8,-3,-2,-3
1537907583934681,-2,-16,30,-7,-8,-3,-2,-1
1537907583948644,3,2,-22,11,8,5,2,5
1537907583948644,-1,-9,84,-14,5,1,-1,-2
1537907583956622,-7,-25,-71,-27,-15,-6,-4,-5
1537907583956622,1,-3,-10,5,9,3,0,1
1537907583971582,3,12,-6,14,4,2,2,4
1537907583971582,-4,-6,3,-7,0,-1,-1,-1
1537907583973578,-5,-1,25,-3,-6,-4,-3,-1
1537907583973578,0,-1,-18,-17,2,1,0,-1
1537907583986543,0,6,-33,7,-9,-2,-2,0
1537907583986543,0,9,11,-6,-3,-3,-1,-3
1537907583988537,0,8,19,1,5,2,-1,-2
1537907583988537,-1,3,-7,-3,-3,-3,1,-1
1537907584009481,-1,0,-11,8,-2,0,-1,-1
1537907584009481,0,6,-4,6,3,-1,1,0
1537907584010479,1,5,22,-12,4,3,0,0
1537907584010479,0,-1,-6,27,-5,-6,-2,-1
1537907584022447,0,-10,-17,7,-9,-2,-2,0
1537907584022447,-2,0,2,-9,7,1,-2,-3
1537907584038404,-3,2,12,-2,-7,-3,-1,-23
1537907584038404,4,-4,-9,-16,8,3,3,27
1537907584046383,0,-3,7,37,11,4,2,-2
1537907584046383,0,1,3,-9,-11,-6,-2,5
1537907584053364,0,1,7,-1,-1,-2,-1,-5
1537907584053364,-6,-1,-5,1,-1,0,-1,-11
1537907584069322,-2,-3,-9,-9,1,1,0,-3
1537907584069322,1,3,5,-10,2,1,-1,2
1537907584070320,-2,-2,8,8,-2,-2,-2,4
1537907584070320,1,-2,-25,-17,-7,-1,-1,-4
1537907584092261,2,-6,-13,-1,-2,0,2,11
1537907584092261,-3,-1,8,5,6,1,-4,-12
1537907584093259,0,1,-4,-13,4,0,1,4
1537907584093259,-4,-5,37,0,-22,-8,-4,-7
1537907584105226,-1,-2,-26,4,14,4,0,-2
1537907584105226,-1,0,-6,-3,-12,-7,-4,1
1537907584114202,0,-3,10,6,16,4,0,4
1537907584114202,3,11,9,34,-4,0,0,0
1537907584129162,-1,6,18,-35,-19,-5,-1,-4
1537907584129162,-4,-32,-74,2,2,1,1,2
1537907584131157,2,-6,-2,-1,-6,-1,0,5
1537907584131157,-1,4,5,13,17,5,1,-2
1537907584143124,0,2,12,6,6,2,-2,-1
1537907584143124,-1,6,16,-7,-6,-3,0,-2
1537907584152101,-1,-5,-1,9,2,0,-2,1
1537907584152101,-3,-5,-18,-11,5,2,2,-2
1537907584166063,0,-1,-6,-2,-8,-6,-3,-2
1537907584166063,-2,6,16,-7,5,5,-1,-1
1537907584173044,-1,6,-6,-4,-11,-5,-1,2
1537907584173044,-1,4,9,-12,-2,0,-2,-2
1537907584189001,-3,0,-16,-2,-1,-2,0,-2
1537907584189001,1,8,16,10,5,2,1,-1
1537907584190996,-1,9,10,-3,-6,-1,2,1
1537907584190996,-1,-3,-21,-30,-9,-3,-2,-3
1537907584202964,-3,-10,6,31,7,2,-2,-3
1537907584202964,1,6,-5,2,0,-2,0,1
1537907584211940,0,0,6,2,-3,-2,-1,1
1537907584211940,0,-10,-4,-20,-1,-1,-3,1
1537907584225902,0,-6,-7,-6,-5,-2,0,1
1537907584225902,3,0,11,10,2,1,-1,1
1537907584232884,-1,-6,-1,-7,1,-1,-2,-1
1537907584232884,-3,-12,-5,-10,-9,-2,-2,-3
1537907584248841,1,-3,-11,3,-1,0,1,0
1537907584248841,-1,-9,0,4,2,1,0,0
1537907584250836,0,-14,6,3,3,0,-1,-2
1537907584250836,1,0,-25,2,0,-3,0,-1
1537907584271780,0,2,23,-8,-2,-3,-3,-3
1537907584271780,-2,6,4,-3,-1,0,0,-1
1537907584272778,-3,-5,6,0,-2,0,0,-1
1537907584272778,-4,2,9,9,3,2,0,-2
1537907584285744,-2,-11,-62,-24,-4,-2,-1,-2
1537907584285744,1,16,39,-4,-9,-5,-3,0
1537907584292725,2,-1,-49,-4,15,4,0,2
1537907584292725,-3,7,28,30,6,2,0,-1
1537907584310678,-2,14,82,-75,-28,-8,-4,-4
1537907584310678,-7,-35,-49,50,-1,-4,-4,-6
1537907584311676,-3,-10,0,3,3,3,-2,-1
1537907584311676,-10,-24,47,-14,-23,-11,-7,-7
1537907584331622,8,17,-111,60,24,1,2,6
1537907584331622,-4,7,118,40,-2,-3,-6,-2
1537907584333616,3,12,-61,-72,-45,-15,-2,1
1537907584333616,1,-45,-50,-15,40,16,5,4
1537907584346581,-11,-12,42,83,-2,-12,-7,-9
1537907584346581,18,37,-103,36,10,4,6,11
1537907584352565,1,21,56,-7,42,14,1,1
1537907584352565,5,18,68,42,5,-3,-2,0
1537907584369519,5,18,26,-68,-2,3,2,2
1537907584369519,-7,-13,-68,-23,-3,-3,0,-5
1537907584370516,-2,-8,-14,73,23,10,6,0
1537907584370516,-6,1,-128,-52,-34,-14,-7,-7
1537907584391460,10,27,85,69,41,19,7,11
1537907584391460,-3,-3,-58,-44,4,-1,0,1
1537907584393455,-9,-5,-23,12,-20,-8,-4,-5
1537907584393455,-2,19,81,11,1,-1,-4,-5
1537907584405423,2,-12,-51,-15,-11,1,3,5
1537907584405423,0,2,58,-31,-3,-2,-1,-2
1537907584414399,1,-1,25,-12,6,-1,0,-1
1537907584414399,-4,4,28,24,-19,-12,-2,-4
1537907584429359,-3,-13,-34,-30,-15,-8,-6,-5
1537907584429359,8,-5,-72,9,17,8,6,7
1537907584430356,-4,-15,-1,-19,-20,-11,-7,-6
1537907584430356,3,-4,40,7,25,10,5,3
1537907584451300,-5,-13,-64,10,-3,0,-3,-4
1537907584451300,-6,-14,19,-28,-18,-7,-5,-7
1537907584453295,2,5,26,25,1,1,1,0
1537907584453295,2,5,-56,-7,1,2,2,2
1537907584465263,-4,-11,-11,-10,-1,0,0,-3
1537907584465263,-10,2,112,-10,-15,-7,-6,-9
1537907584474239,14,10,-15,17,8,5,6,8
1537907584474239,1,-7,15,-4,6,3,2,2
1537907584489199,-4,-23,36,5,-6,-4,-3,-3
1537907584489199,1,-1,38,-8,5,4,1,0
1537907584491194,-4,-4,0,-3,-13,-6,-3,-4
1537907584491194,1,1,-27,-7,-8,-4,-3,1
1537907584512138,0,10,3,9,8,4,-1,0
1537907584512138,-2,-2,-28,-7,-4,-4,1,-1
1537907584513136,-4,5,7,0,-4,-3,-3,-3
1537907584513136,2,11,-28,2,1,1,1,0
1537907584525104,-3,4,17,-20,-4,-3,0,-3
1537907584525104,0,5,0,3,0,0,-3,0
1537907584534081,-4,-1,1,-6,-6,-4,-3,-1
1537907584534081,1,9,10,0,5,2,0,1
1537907584549041,-1,1,4,-6,-3,-1,0,1
1537907584549041,0,0,17,5,3,2,0,-2
1537907584551036,1,1,-48,-7,-7,-5,-2,-1
1537907584551036,0,-1,-10,-3,-4,-1,-2,1
1537907584571980,-1,3,5,2,0,1,0,-2
1537907584571980,-1,0,-4,0,2,0,-1,1
1537907584572977,-2,0,29,-4,-2,-2,-2,-2
1537907584572977,0,0,-9,0,-2,-1,-1,-1
1537907584584943,0,-3,-9,-9,-5,-3,-2,-2
1537907584584943,0,1,1,1,4,2,1,-2
1537907584593919,-1,0,8,-6,-4,-2,1,-1
1537907584593919,-4,-1,-4,-2,2,0,1,-1
1537907584608879,0,1,4,1,1,1,0,0
1537907584608879,-2,-4,-14,-2,-5,-4,-4,-3
1537907584610874,-1,-1,6,4,1,1,-1,-1
1537907584610874,-1,-2,0,9,4,0,-1,-1
1537907584631818,1,3,32,-26,0,2,1,1
1537907584631818,-5,-12,-56,16,-15,-8,-4,-3
1537907584632815,-1,-7,-9,-6,-3,-3,0,0
1537907584632815,-1,4,34,4,1,1,0,-1
1537907584645781,1,-5,-11,5,9,2,-1,0
1537907584645781,0,2,24,-7,4,2,0,0
1537907584654757,-1,0,9,26,6,1,0,-2
1537907584654757,1,-5,-17,-18,-10,-4,-3,-2
1537907584669717,-2,-12,-29,-7,0,0,-1,-1
1537907584669717,-1,-2,24,1,-4,-3,-1,0
1537907584670714,-2,1,2,0,5,1,-2,-1
1537907584670714,-1,2,11,5,4,2,1,0
1537907584691658,0,5,-15,0,-10,-6,-3,0
1537907584691658,1,1,-12,-7,2,1,1,1
1537907584693653,0,3,4,-4,0,1,-1,-2
1537907584693653,1,3,-5,4,8,2,0,-1
1537907584705621,-2,3,8,19,-2,0,1,-1
1537907584705621,0,0,-11,-12,-4,-1,-1,1
1537907584714597,0,4,15,20,9,3,1,1
1537907584714597,-1,0,3,20,-8,-2,0,-1
1537907584729556,-2,0,-17,-76,-36,-11,-2,-1
1537907584729556,0,3,56,41,28,9,3,1
1537907584730554,-1,-6,-43,-28,-24,-7,-3,-3
1537907584730554,1,-3,-3,19,15,4,-1,2
1537907584751498,1,-5,-2,-3,-1,-2,-1,-1
1537907584751498,-1,-6,-21,-29,-7,-3,0,0
1537907584751498,-2,-5,15,-10,2,1,-2,-2
1537907584751498,-1,-2,7,0,5,1,1,0
1537907584773440,0,2,12,29,6,0,-1,-1
1537907584773440,0,2,3,-8,-2,-2,0,-3
1537907584774437,-2,-1,1,3,4,0,-1,-1
1537907584774437,-2,-2,-11,-5,-8,-4,-2,-2
1537907584788400,-1,1,5,16,4,1,-1,-1
1537907584788400,0,0,-16,-5,-2,1,-1,-1
1537907584789397,-2,1,3,-7,-3,-1,1,1
1537907584789397,-1,0,-11,-14,-9,-3,0,-2
1537907584811338,-3,-2,-12,3,3,-2,-1,-1
1537907584811338,-2,-3,-27,-6,-2,-2,0,0
1537907584811338,1,0,107,47,33,8,1,0
1537907584811338,-6,-8,-75,-68,-74,-25,-8,-6
1537907584833279,5,6,21,15,18,7,5,6
1537907584833279,2,-3,5,11,-7,-1,0,2
1537907584834277,4,-7,-63,-20,9,7,2,3
1537907584834277,-2,10,121,34,43,17,5,-1
1537907584848239,-12,-17,-58,-75,-69,-26,-12,-16
1537907584848239,7,0,-69,95,80,27,14,12
1537907584849237,1,16,-77,-115,-92,-26,-10,-3
1537907584849237,1,-16,21,74,-4,-7,-1,1
1537907584871178,4,19,-15,127,39,14,6,3
1537907584871178,0,-10,-79,-68,21,6,0,0
1537907584872176,-5,-12,20,-47,-40,-13,-2,-4
1537907584872176,-10,3,11,10,-13,-15,-8,-10
1537907584893121,11,40,-38,13,13,13,4,8
1537907584893121,0,-6,-42,40,-18,-8,-3,1
1537907584894118,2,16,4,18,37,9,2,5
1537907584894118,-8,-9,100,-34,7,3,-1,-7
1537907584909077,-5,-33,-44,0,-6,-1,2,-2
1537907584909077,11,45,2,-21,7,4,-2,4
1537907584909077,3,3,35,38,1,0,2,3
1537907584909077,2,5,2,16,25,5,3,3
1537907584931019,-13,-16,127,-60,-12,-6,-7,-10
1537907584931019,1,10,-40,-9,-28,-9,-3,-2
1537907584932017,-1,-14,18,16,9,-2,0,1
1537907584932017,2,-3,35,-34,-16,-4,-4,1
1537907584953959,4,-13,-2,28,25,5,0,3
1537907584953959,-12,-20,57,-9,-16,-9,-6,-10
1537907584953959,-2,-1,43,-8,-17,-3,-1,-6
1537907584953959,5,0,-128,2,14,5,3,5
1537907584969916,-2,-1,122,-1,-6,-5,-1,-1
1537907584969916,-5,-7,47,4,-7,-3,-2,-3
1537907584970914,-2,-9,-18,22,24,7,1,-3
1537907584970914,-1,-9,-40,-80,-29,-2,0,-2
1537907584990859,-1,-6,-9,16,10,-3,-2,-3
1537907584990859,-4,-10,8,-10,-22,-7,-4,-3
1537907584991856,-2,-4,-26,24,19,7,1,0
1537907584991856,-1,4,12,-26,-8,-5,-1,-1
1537907585013797,0,3,-38,-6,4,1,-1,1
1537907585013797,-1,2,57,-18,0,2,1,0
1537907585013797,-3,-1,2,7,-6,-1,-2,-1
1537907585013797,1,0,-24,25,10,4,0,1
1537907585028756,2,5,-21,-6,-1,1,0,2
1537907585028756,-3,1,14,-8,-8,-5,-2,-5
1537907585029754,0,4,15,-2,-2,-3,1,-2
1537907585029754,3,6,-22,13,4,2,0,3
1537907585050698,-1,0,-20,-5,3,1,1,0
1537907585050698,-1,-2,28,-4,-7,-3,-3,-1
1537907585051695,0,2,-1,8,3,1,-1,0
1537907585051695,1,0,6,3,1,1,1,1
1537907585073636,2,2,-1,-20,-4,-3,0,1
1537907585073636,-3,-4,0,15,-10,-5,-3,-3
1537907585074634,1,-2,-12,-1,4,0,-2,-1
1537907585074634,-1,0,-3,15,6,3,1,-1
1537907585088596,-1,-1,-4,2,3,0,-1,1
1537907585088596,-1,1,18,-27,1,0,1,-1
1537907585089594,-4,-5,-27,7,-13,-7,-5,-2
1537907585089594,-1,5,24,7,1,-2,-1,0
1537907585111535,-1,0,-3,3,0,0,-1,-2
1537907585111535,-1,-3,11,-9,4,0,-1,0
1537907585111535,0,0,69,29,10,1,-1,-1
1537907585111535,0,-9,-100,2,-4,-3,0,0
1537907585133477,-3,-3,18,-7,-6,-3,-1,-1
1537907585133477,1,1,-2,2,-1,0,1,0
1537907585134476,-1,-1,1,-1,7,2,1,-2
1537907585134476,-1,1,15,1,-3,0,0,0
1537907585148438,-1,-3,-6,-1,-3,-3,-3,-2
1537907585148438,0,-3,-11,-1,-3,-3,-1,1
1537907585149436,-1,-1,-16,-2,-2,1,-2,-2
1537907585149436,-2,-1,21,10,6,3,0,0
1537907585171375,1,1,-17,-10,-9,-6,-1,-1
1537907585171375,-1,1,13,0,-3,1,-2,-1
1537907585171375,1,0,-17,-12,-3,0,0,0
1537907585171375,0,1,-2,-16,-4,-1,0,-1
1537907585193317,-1,0,43,27,4,3,1,-2
1537907585193317,1,8,-26,13,7,2,2,1
1537907585194314,-1,-2,-14,-20,0,0,-1,1
1537907585194314,-1,2,11,27,1,0,-1,-2
1537907585208276,0,1,-5,-8,1,1,0,0
1537907585208276,-1,-3,15,-4,4,1,-1,-2
1537907585209274,-4,-2,-1,18,-6,-5,-2,-4
1537907585209274,3,0,-12,-28,-1,1,1,2
1537907585231215,-1,1,19,-15,-3,-1,-2,1
1537907585231215,2,5,-2,29,5,0,-1,0
1537907585232213,-1,1,7,0,5,2,1,0
1537907585232213,0,-5,-2,0,-5,-4,-3,-3
1537907585254154,-4,-5,-5,-9,-2,-1,-1,-3
1537907585254154,0,-4,33,0,3,1,0,1
1537907585255151,-1,-2,-25,-10,-8,-4,-1,-2
1537907585255151,0,-4,2,7,3,1,-2,-1
1537907585268116,-1,0,-16,-6,-5,-1,0,-2
1537907585268116,-3,-4,-3,-2,-5,-2,-2,-3
1537907585269114,-1,1,1,0,-4,-2,-1,-1
1537907585269114,0,-3,10,-5,-2,-3,0,0
1537907585291055,-1,-2,-15,5,4,1,-1,-1
1537907585291055,-3,-3,9,2,-1,-1,-2,-2
1537907585292053,-1,-6,48,-7,2,-3,1,2
1537907585292053,-2,3,-36,-10,-4,1,-1,0
1537907585313994,4,3,-20,11,2,1,-1,2
1537907585313994,-3,-12,5,31,10,2,2,-1
1537907585314992,-3,-2,-8,1,-7,-3,-4,-5
1537907585314992,2,-11,26,-22,-1,6,4,1
1537907585329951,-1,-20,-97,-19,-24,-13,-2,0
1537907585329951,3,31,72,32,48,18,5,3
1537907585330949,17,45,109,14,-3,1,1,10
1537907585330949,-4,-2,-16,52,-11,-4,-5,-7
1537907585350895,13,5,-54,35,74,22,11,11
1537907585350895,-11,-42,37,62,9,1,-2,-6
1537907585351893,-13,-49,-37,-93,-73,-22,-10,-10
1537907585351893,20,55,-41,-55,43,26,16,16
1537907585373834,-18,-14,127,-62,-80,-36,-16,-10
1537907585373834,10,51,-128,-36,56,14,9,12
1537907585374831,3,-7,-57,-2,-31,-15,-2,5
1537907585374831,-11,1,59,-29,-14,-8,-9,-9
1537907585388795,-4,31,-27,89,73,27,2,-5
1537907585388795,1,-11,-50,-128,-111,-36,-13,-3
1537907585388795,-3,-2,3,-1,41,11,3,0
1537907585388795,-2,24,106,86,67,3,-5,-9
1537907585410735,-3,-9,-63,13,-2,-8,1,0
1537907585410735,1,-12,-16,-18,20,3,1,-1
1537907585411733,6,10,71,5,36,13,5,4
1537907585411733,-3,-23,87,84,12,5,-3,-1
1537907585434671,-11,-33,-47,-105,-30,-9,-5,-9
1537907585434671,4,-9,-111,65,-18,-9,-1,0
1537907585434671,0,-9,-51,-19,10,3,1,0
1537907585434671,-8,-8,62,26,-23,-13,-6,-6
1537907585448634,3,3,26,-3,-27,-4,1,3
1537907585448634,-2,-2,-80,-81,-28,-4,0,-3
1537907585449631,0,-9,15,77,15,6,1,-1
1537907585449631,-5,-20,-21,-29,-4,-2,-4,-3
1537907585479552,4,22,120,20,16,1,-2,-1
1537907585479552,0,-32,-26,28,2,7,4,3
1537907585479552,1,11,110,53,13,1,-1,2
1537907585479552,2,-9,-40,-33,-10,-3,0,3
1537907585494511,1,-9,-8,1,20,8,-1,2
1537907585494511,-9,2,51,-25,-17,-7,-5,-9
1537907585494511,-8,2,-103,-25,-14,-7,-6,-10
1537907585494511,1,11,17,29,13,2,2,2
1537907585508474,0,0,-114,-23,-14,-2,1,1
1537907585508474,-1,17,65,6,-4,-5,-2,-1
1537907585509471,0,11,-9,-8,-3,1,0,1
1537907585509471,-1,1,-8,-13,-8,-4,0,-1
1537907585531413,-2,-2,35,0,-15,-5,-3,-4
1537907585531413,-3,2,38,20,12,3,0,-2
1537907585531413,-2,-2,-23,-29,-9,-4,0,-1
1537907585531413,-3,-11,-30,-44,-14,-6,-3,-3
1537907585554351,2,2,6,24,3,2,2,2
1537907585554351,1,-2,18,11,7,2,-1,2
1537907585555349,0,-1,-16,-4,3,0,-2,-2
1537907585555349,0,-8,-44,-1,-10,-3,0,3
1537907585568314,1,3,19,9,-1,-4,0,0
1537907585568314,-2,3,45,-1,-3,-1,-1,0
1537907585569312,-3,-4,-7,15,8,3,-1,-1
1537907585569312,1,-3,-31,-16,-14,-7,-2,0
1537907585591253,1,2,41,3,5,4,1,0
1537907585591253,-3,-6,21,-2,-9,-5,-4,-3
1537907585592251,-2,-3,-23,7,7,2,1,0
1537907585592251,0,-3,-26,0,0,1,0,-2
1537907585614192,-2,4,17,-3,0,1,0,-1
1537907585614192,1,0,7,-14,7,1,-1,0
1537907585615189,-2,-1,2,-6,-26,-7,-2,-3
1537907585615189,-1,1,-4,-5,-2,-1,1,-1
1537907585628154,-2,-2,4,6,1,0,-3,-1
1537907585628154,-1,1,13,6,8,3,1,-1
1537907585629152,-2,0,-13,-5,3,-2,-2,-2
1537907585629152,-1,-5,-8,-6,-7,-8,0,1
1537907585651093,-1,1,0,1,-2,1,0,-2
1537907585651093,-1,0,1,11,11,5,0,-1
1537907585652091,0,2,0,-11,10,6,0,1
1537907585652091,0,-3,-6,10,-7,-6,1,0
1537907585674031,-1,-3,-12,1,-5,-1,-3,-2
1537907585674031,1,4,26,17,1,-2,4,2
1537907585675029,-3,-3,-28,-7,-4,-3,-2,-1
1537907585675029,-4,-9,-31,-16,14,4,-1,-5
1537907585688991,0,-3,11,-12,-15,-5,0,2
1537907585688991,0,7,32,31,-4,-3,-3,-2
1537907585688991,1,-5,-19,8,5,3,0,1
1537907585688991,0,-3,10,-3,1,2,-1,1
1537907585710933,-4,-5,-4,-8,-8,-4,-3,-3
1537907585710933,0,2,22,-6,0,-1,-2,0
1537907585711930,-2,2,4,-12,-11,-6,0,-1
1537907585711930,5,7,3,9,1,3,0,3
1537907585733872,-1,0,5,4,7,0,0,0
1537907585733872,-2,-1,-6,-8,-4,-1,-2,-1
1537907585734869,0,1,17,8,8,4,3,-3
1537907585734869,-2,2,2,-10,-6,-2,-2,-4
1537907585747834,0,7,-12,7,6,1,1,0
1537907585747834,-1,-2,-2,-13,-8,0,-1,0
1537907585755813,-1,1,-1,4,0,0,-2,0
1537907585755813,-1,1,-9,1,-3,1,-2,-2
1537907585770773,1,3,5,3,3,1,0,1
1537907585770773,-1,-5,-16,-7,-2,-2,-2,-2
1537907585771771,-1,-6,6,-3,-5,-6,-3,-1
1537907585771771,0,-4,3,1,-2,-1,-2,0
1537907585794709,0,-10,-39,-12,-7,-3,-2,-1
1537907585794709,-5,-7,47,8,-5,-3,-4,-6
1537907585794709,-1,0,1,4,3,0,1,0
1537907585794709,-1,-1,9,-2,-3,-1,-1,-1
1537907585807675,1,4,30,6,1,1,0,2
1537907585807675,-2,-10,-12,-14,-1,-4,-2,-2
1537907585815654,-6,-1,4,-16,4,-1,-4,-8
1537907585815654,6,2,-20,27,1,1,2,4
1537907585830613,0,8,98,39,35,13,1,-1
1537907585830613,2,-4,-108,-16,-21,-7,-3,1
1537907585831611,-5,5,74,19,-11,1,0,-7
1537907585831611,-5,-45,-85,-39,-12,-6,-4,0
1537907585854549,7,19,66,9,26,10,3,3
1537907585854549,-14,-31,-102,-37,-22,-5,-1,-4
1537907585854549,18,43,-31,57,-3,-5,1,8
1537907585854549,-12,-52,-128,-61,-1,-1,-3,-5
1537907585867515,-5,17,83,-1,-34,-12,-5,-4
1537907585867515,5,24,-28,-29,36,14,5,1
1537907585876491,5,-21,-69,79,59,22,8,11
1537907585876491,-2,42,126,-29,-18,-9,-5,-5
1537907585891452,-6,-17,-128,-46,-26,-9,-3,-6
1537907585891452,16,27,103,33,8,6,7,11
1537907585891452,-2,12,89,-39,-20,-7,-2,-1
1537907585891452,4,7,-24,-30,20,6,4,5
1537907585914390,-9,-14,85,44,8,-3,-6,-5
1537907585914390,-5,-8,-93,-24,-5,-4,-6,-4
1537907585915387,-2,1,52,-23,-12,-5,-2,-3
1537907585915387,-7,-28,-7,-50,-20,-2,-1,-4
1537907585928352,-1,14,53,-15,-13,-10,-2,-3
1537907585928352,-4,-26,-71,44,2,0,-1,-1
1537907585935334,5,-2,-37,22,8,5,2,5
1537907585935334,-6,-5,-39,-55,-27,-8,-2,-6
1537907585951291,2,-3,37,38,0,0,2,1
1537907585951291,4,-2,63,-6,3,-1,0,3
1537907585951291,-6,-13,9,-23,0,-1,-2,-4
1537907585951291,3,22,80,54,-1,-4,-1,-1
1537907585974229,1,-9,-109,-34,12,8,1,4
1537907585974229,-7,-2,127,33,2,-1,-4,-9
1537907585975227,-4,-20,-118,-83,-45,-10,-3,-2
1537907585975227,3,3,46,45,9,4,1,1
1537907585988192,-1,-15,-24,-20,3,1,1,1
1537907585988192,-2,-2,39,11,-5,-2,-3,-3
1537907585996171,-6,-7,14,-2,-5,-4,-3,-5
1537907585996171,3,16,24,30,15,0,0,3
1537907586011131,-4,0,-62,-26,4,-1,-2,-3
1537907586011131,2,21,-34,-18,-14,-5,0,2
1537907586012128,0,11,36,8,4,1,1,2
1537907586012128,2,19,40,32,13,4,2,-1
1537907586034069,0,3,-14,3,-4,-6,-2,0
1537907586034069,-1,1,-4,-15,-3,-3,-1,0
1537907586035067,-2,-1,25,10,6,-1,-1,-2
1537907586035067,-1,5,14,17,1,0,1,0
1537907586058006,0,-5,-35,2,0,0,0,0
1537907586058006,1,-1,4,-3,1,0,0,-1
1537907586059004,0,-2,-8,-18,-8,-6,-3,1
1537907586059004,-1,-1,-3,10,7,3,-2,-1
1537907586070972,0,-4,-10,6,-6,-1,-1,0
1537907586070972,-1,0,6,-2,-2,0,0,0
1537907586071970,-3,-3,8,11,14,4,-1,-3
1537907586071970,1,1,-8,1,0,-1,-1,0
1537907586093911,1,-3,-13,-4,-9,-4,0,1
1537907586093911,-2,0,17,7,-1,0,0,-1
1537907586094909,-2,-5,-19,-6,-1,-2,-1,0
1537907586094909,-1,2,0,11,5,2,1,-1
1537907586116849,1,2,0,-5,4,3,2,0
1537907586116849,-2,-5,0,-2,-7,-5,-2,-1
1537907586117847,-1,-1,-6,4,1,-1,-1,-1
1537907586117847,-2,1,11,3,-9,-2,-1,-3
1537907586130812,3,-1,-19,4,7,2,-1,2
1537907586130812,0,-1,5,-9,6,4,0,-1
1537907586131810,-2,-1,3,9,0,0,-1,1
1537907586131810,2,3,2,-11,-2,0,-1,1
1537907586154747,-2,-7,-17,-14,-13,-6,-2,-3
1537907586154747,-2,-1,15,25,8,1,-1,0
1537907586154747,0,-4,-6,-6,-2,-3,1,-1
1537907586154747,1,2,2,2,0,0,0,2
1537907586176690,-2,1,7,1,-7,-3,-3,0
1537907586176690,0,-4,-27,0,4,1,-1,1
1537907586177687,-3,-6,-13,1,3,0,-2,-1
1537907586177687,-3,-4,-13,-8,-8,-3,1,-1
1537907586190651,0,-1,3,21,16,4,2,0
1537907586190651,-2,3,35,-47,-15,-6,-3,-3
1537907586191649,1,1,-4,23,-6,-4,-2,-1
1537907586191649,-2,-6,-24,11,1,0,0,-1
1537907586214587,2,5,18,-1,-1,0,1,1
1537907586214587,0,-1,-22,-2,5,0,-1,1
1537907586214587,-2,-1,8,-11,0,2,-2,-3
1537907586214587,0,3,-2,-1,-3,-3,-2,1
1537907586237525,-1,-2,3,3,2,1,0,-4
1537907586237525,-1,2,2,11,0,0,1,0
1537907586238523,-2,0,-5,-14,-2,-1,-1,-2
1537907586238523,1,1,5,18,5,2,-1,-2
1537907586250490,-1,-1,-3,-1,1,0,0,0
1537907586250490,-1,-1,-4,-2,-8,-3,-1,-2
1537907586259467,1,2,8,9,3,0,-1,-1
1537907586259467,-2,-5,-3,-15,-3,-1,0,-1
1537907586274427,-1,-1,0,2,-2,0,-1,0
1537907586274427,-1,-6,-1,4,0,0,-1,-2
1537907586275424,1,-5,-10,-1,0,-1,1,2
1537907586275424,-1,-4,4,3,3,0,-2,-1
1537907586296368,0,-4,-3,-7,-8,-3,-3,1
1537907586296368,-2,0,21,19,5,4,-1,-2
1537907586298363,-1,1,21,-15,-2,-4,-1,-2
1537907586298363,-5,-22,-45,-3,-5,-6,-4,-5
1537907586311328,7,21,-57,10,3,2,0,3
1537907586311328,0,-16,77,-9,-6,-2,2,3
1537907586319308,-10,4,38,-8,-4,-4,-7,-8
1537907586319308,1,1,-91,-6,1,2,0,1
1537907586335264,-6,-27,82,4,-5,-5,-5,-3
1537907586335264,3,16,60,30,-5,-6,-1,0
1537907586337259,3,6,-108,-6,25,13,5,5
1537907586337259,20,26,104,84,43,13,9,16
1537907586357205,-3,-20,75,-48,-3,-9,0,0
1537907586357205,-1,-6,-101,51,-7,-7,-5,0
1537907586358203,-11,-35,-7,-76,-36,-17,-10,-10
1537907586358203,-8,18,13,18,11,4,0,-8
1537907586370171,9,41,-46,7,22,16,7,7
1537907586370171,0,-3,118,27,18,10,4,3
1537907586379147,-6,-30,-128,-24,-21,-5,-1,-4
1537907586379147,5,20,-56,-26,17,8,1,5
1537907586394107,3,0,100,13,-22,-7,-2,3
1537907586394107,-16,-5,41,-30,-23,-12,-12,-15
1537907586396102,21,43,46,8,11,12,10,15
1537907586396102,-15,-23,87,-12,-35,-18,-12,-11
1537907586417046,-8,-35,-78,-39,-1,2,1,-5
1537907586417046,14,22,-70,-9,12,8,7,9
1537907586418043,-9,-14,68,25,10,0,-6,-7
1537907586418043,6,0,26,-18,-7,3,4,4
1537907586430010,-1,9,71,78,13,1,-1,-1
1537907586430010,-5,-10,-28,-21,-4,-3,-3,-5
1537907586438987,2,2,-57,7,3,2,3,3
1537907586438987,-1,-10,-32,-1,-2,-3,-1,-2
1537907586453947,-2,-3,-15,9,-2,3,-1,-4
1537907586453947,-5,-9,90,-17,-10,-2,-4,-6
1537907586455941,1,-12,-72,5,-2,-5,0,-1
1537907586455941,3,-11,39,-23,-5,2,2,4
1537907586476885,-5,-7,21,19,0,-4,-4,-5
1537907586476885,2,1,-85,-5,7,3,1,1
1537907586477883,4,16,82,24,3,0,1,2
1537907586477883,-3,-2,7,-11,-6,-5,-4,-2
1537907586490848,-1,5,-50,-13,-15,-5,-3,-3
1537907586490848,0,-1,-53,-7,6,3,1,1
1537907586499824,-1,7,49,10,-1,1,-1,-3
1537907586499824,-1,-1,-41,-7,-1,-1,0,0
1537907586513787,0,8,-15,-5,0,-2,-1,1
1537907586513787,0,8,-18,-13,-4,-4,-1,0
1537907586521766,-1,3,10,2,-2,0,0,-1
1537907586521766,-3,3,19,12,-1,-2,-2,-4
1537907586536725,-1,3,-35,-24,-6,-2,-1,-1
1537907586536725,0,1,5,0,0,1,0,0
1537907586537723,-1,0,20,5,6,-1,0,0
1537907586537723,0,-3,-14,-3,-5,-2,-2,-1
1537907586550688,0,-2,-2,-5,1,-1,-1,0
1537907586550688,-1,-1,-7,-5,0,0,1,-1
1537907586559664,0,-1,19,-2,5,1,1,0
1537907586559664,-2,-1,-26,-7,-14,-6,-3,-2
1537907586574624,-1,-3,-3,5,1,-2,-1,0
1537907586574624,-1,0,3,5,1,-2,-1,-2
1537907586575622,1,1,0,-4,0,1,-2,1
1537907586575622,-2,-2,9,6,1,-2,-2,-3
1537907586596566,-1,-1,-8,-17,-5,-2,1,-2
1537907586596566,1,-3,-18,-5,-2,-1,-2,1
1537907586598561,0,-3,15,7,-1,0,-1,-2
1537907586598561,-1,-1,0,-7,-5,-3,-1,0
1537907586610529,-2,0,-3,-5,1,0,-1,-1
1537907586610529,0,-1,-3,-6,-5,1,2,-1
1537907586619505,-2,-4,-3,1,-9,-6,-2,-2
1537907586619505,0,2,9,3,0,0,-1,-1
1537907586634465,-1,-3,-4,0,4,0,0,-2
1537907586634465,1,-2,-18,-9,-4,0,1,1
1537907586635462,-2,0,12,-1,-2,0,-3,-1
1537907586635462,-1,-1,-2,1,-2,0,-1,-1
1537907586656405,-3,-3,3,3,2,1,-1,0
1537907586656405,-2,-4,-7,-4,-1,-2,-2,0
1537907586658400,-1,-1,19,0,0,1,-1,-1
1537907586658400,0,-2,-1,4,2,-2,0,0
1537907586670368,0,1,-10,-3,-5,-2,-1,-1
1537907586670368,0,0,5,4,3,-1,-2,0
1537907586679344,-1,0,-9,-22,-2,-1,2,1
1537907586679344,-2,-1,-1,3,-1,-2,-1,-1
1537907586693307,0,-1,3,11,0,1,1,-1
1537907586693307,-1,-3,-7,-2,5,0,0,-1
1537907586700288,1,0,2,7,-3,0,0,-2
1537907586700288,0,1,0,-13,0,1,0,0
1537907586716247,-2,0,-9,-10,-2,0,-1,0
1537907586716247,1,4,13,-7,0,0,1,0
1537907586718241,-2,0,-24,5,-6,-4,-2,-1
1537907586718241,-2,2,11,10,5,3,0,-2
1537907586730208,-1,1,-23,-10,-6,-2,-2,-1
1537907586730208,-1,4,12,4,2,-2,0,0
1537907586739184,-2,-3,6,-3,-3,-3,-2,0
1537907586739184,-1,-7,-15,-12,-7,-2,-2,-3
1537907586753147,-2,-7,-11,-7,1,1,-2,-2
1537907586753147,-1,5,67,14,5,0,0,-1
1537907586760128,1,-4,-58,0,0,-2,-2,0
1537907586760128,-2,-7,-6,-11,-6,-3,-2,-1
1537907586777083,0,5,46,9,3,-3,1,-2
1537907586777083,-5,-19,-61,-10,-9,-3,-5,-3
1537907586779079,3,9,31,-23,7,5,4,3
1537907586779079,0,-2,-5,18,6,3,1,2
1537907586790050,-4,-11,5,-7,-7,-4,-3,-3
1537907586790050,-5,-6,36,2,-6,-4,-3,-6
1537907586799025,8,19,-19,6,5,4,3,4
1537907586799025,-6,-12,52,-8,-3,-2,-2,-6
1537907586813985,11,24,81,46,17,7,6,10
1537907586813985,-6,-21,71,-8,-3,-3,-3,-5
1537907586815981,4,14,94,16,4,0,-1,2
1537907586815981,-4,-33,-78,-16,-10,-4,-5,-3
1537907586836924,-5,42,70,3,-3,-6,-5,-8
1537907586836924,17,6,-118,-18,17,10,9,16
1537907586837922,-12,-14,121,35,-8,-11,-8,-12
1537907586837922,9,4,-97,-28,2,7,8,8
1537907586866844,4,-19,-109,8,13,7,3,6
1537907586866844,-3,22,67,26,-18,-15,-8,-5
1537907586867842,-4,-7,-55,-56,-14,-7,-3,-6
1537907586867842,2,19,25,32,2,1,2,2
1537907586873825,-18,-67,-127,-71,-15,-5,-6,-12
1537907586873825,16,47,-25,28,27,18,11,10
1537907586880807,-1,2,42,42,-2,-7,-4,1
1537907586880807,-3,3,12,-4,-3,-3,-2,-4
1537907586896764,1,-3,-48,-58,-20,-7,-2,-1
1537907586896764,-13,-15,109,18,-6,-6,-6,-11
1537907586897762,-12,-36,16,-28,-4,-2,-4,-8
1537907586897762,21,61,91,51,27,13,9,13
1537907586910727,-1,-17,41,13,-2,-2,-3,0
1537907586910727,-7,-16,45,6,-4,-6,-6,-3
1537907586919704,-9,-21,6,-33,-15,0,-1,-9
1537907586919704,8,6,76,-24,3,3,4,9
1537907586933665,2,17,100,21,-3,-3,-3,0
1537907586933665,-2,1,25,4,1,-1,-1,-2
1537907586940647,-3,8,-3,13,1,1,-2,-2
1537907586940647,-11,-7,28,12,-6,-8,-7,-12
1537907586956604,5,-10,-53,-46,1,10,8,6
1537907586956604,-2,-2,-16,-7,-4,-1,-2,-1
1537907586958600,1,-3,-3,17,4,2,2,3
1537907586958600,-2,-9,-39,-20,-3,-2,-2,-1
1537907586970567,1,15,41,19,-3,-4,-5,-1
1537907586970567,0,-14,-70,-13,0,0,2,0
1537907586979543,6,3,-72,7,11,5,4,6
1537907586979543,-5,-6,-5,2,-8,-6,-5,-4
1537907586993506,-4,3,10,8,-4,-3,-1,-3
1537907586993506,-1,-5,-38,-22,-1,2,0,1
1537907587000487,4,7,-18,20,8,1,-1,2
1537907587000487,-6,-7,3,7,-8,-5,-4,-4
1537907587016444,-1,0,-6,-23,2,1,0,0
1537907587016444,-4,-4,-32,-2,-13,-5,0,-4
1537907587018439,3,4,-7,-16,5,2,18,8
1537907587018439,-5,-7,-8,-9,-24,-13,-13,-5
1537907587040380,2,3,-2,-10,-3,0,-6,-2
1537907587040380,0,-4,-13,24,1,1,-2,-5
1537907587042375,1,-3,-16,2,-2,-3,-4,-2
1537907587042375,-1,21,47,0,15,1,-1,-1
1537907587053346,2,-19,-21,17,4,8,33,11
1537907587053346,-1,9,1,-6,2,-8,-15,-3
1537907587060327,-3,-15,-8,-4,6,12,-15,-6
1537907587060327,-2,5,-6,-1,2,2,1,-12
1537907587076284,-5,-3,-3,6,2,-4,-1,-12
1537907587076284,3,4,-10,-21,-12,-4,15,3
1537907587078279,2,2,-11,4,2,-3,8,11
1537907587078279,2,-9,-10,-23,6,-1,-9,6
1537907587099222,1,10,23,75,-9,-6,-4,4
1537907587099222,-3,-11,-17,-9,0,-2,0,3
1537907587100220,-1,-5,2,5,-2,-2,-6,-1
1537907587100220,-1,9,3,-12,-13,0,-2,-2
1537907587113185,-3,1,5,23,15,-1,-10,-5
1537907587113185,-1,-7,-16,-11,-17,-1,1,-1
1537907587120167,2,11,30,-1,2,1,-1,-2
1537907587120167,-4,-13,-18,-31,-15,-5,7,0
1537907587144102,-4,-15,-36,11,-4,-4,-3,-2
1537907587144102,4,17,55,14,10,6,-6,-2
1537907587146097,-3,-1,-14,-13,-9,-7,-2,-5
1537907587146097,-2,-11,-5,13,-4,-2,1,2
1537907587159063,2,9,1,-24,3,1,-6,-1
1537907587159063,-5,-4,-18,-18,-5,-1,-2,-6
1537907587161057,0,4,1,13,-2,-2,1,0
1537907587161057,-2,-7,-10,7,5,-1,2,-2
1537907587174023,3,7,11,-14,1,2,-1,3
1537907587174023,0,2,-5,6,4,1,6,2
1537907587180008,1,10,-2,-1,-3,-2,-2,0
1537907587180008,-1,-2,-2,4,2,-3,-8,-2
1537907587196963,1,3,6,-26,-13,-2,-2,0
1537907587196963,-2,-3,-7,-6,1,1,0,-1
1537907587197959,-2,-4,-9,14,-1,-1,1,-1
1537907587197959,-1,-8,5,4,4,3,2,2
1537907587218904,-1,-4,3,-14,-2,-3,-5,-3
1537907587218904,1,-2,-13,11,4,-3,0,-1
1537907587220900,-2,-4,3,-3,-3,-2,0,-1
1537907587220900,-1,-5,1,7,8,3,3,0
1537907587232868,-2,3,9,3,2,-1,0,0
1537907587232868,-2,-6,-12,-10,2,-2,-3,1
1537907587241842,-3,-4,-5,-2,3,1,-1,-2
1537907587241842,0,1,9,0,-7,-2,-1,-2
1537907587256802,-3,-5,-33,6,3,-1,-1,-3
1537907587256802,1,5,32,-3,-2,0,0,0
1537907587257799,-2,-1,32,-10,-8,-4,-2,0
1537907587257799,-2,0,-26,5,2,1,1,0
1537907587278742,-1,-4,-10,3,8,2,0,1
1537907587278742,-1,-5,-14,3,-6,-3,-1,0
1537907587280736,-1,7,16,-9,-7,-4,-3,-4
1537907587280736,0,-5,-23,-7,0,1,1,-2
1537907587292705,-1,4,29,2,3,0,0,-2
1537907587292705,-3,-5,39,32,5,1,-1,-4
1537907587301681,0,-9,-76,-28,-1,1,1,0
1537907587301681,-2,-14,-53,-14,-6,-4,-2,0
1537907587316641,1,17,65,12,-7,-4,-4,-4
1537907587316641,1,-28,-55,-9,16,6,2,4
1537907587318636,-2,14,110,22,-7,-5,-5,-4
1537907587318636,-5,-4,22,-15,3,-2,0,-5
1537907587340578,4,-7,40,22,-4,-1,0,4
1537907587340578,10,7,-29,-10,10,4,3,9
1537907587341575,-2,-13,-35,-12,-2,-2,-3,1
1537907587341575,-5,-1,15,-13,-11,-5,-5,-6
1537907587352546,-6,9,93,40,-1,1,-3,-5
1537907587352546,1,12,-52,-25,-10,0,0,-1
1537907587361521,0,-12,-74,-33,-8,-2,0,1
1537907587361521,-3,10,16,8,1,-2,-3,-2
1537907587376481,-3,-2,7,8,1,-3,-2,-3
1537907587376481,-4,7,14,20,4,-1,-2,-5
1537907587378476,-4,-12,4,0,1,0,0,-3
1537907587378476,4,21,70,18,-3,0,1,3
1537907587399420,-3,-10,9,19,6,-2,-1,-5
1537907587399420,2,-19,-66,-69,-9,1,4,6
1537907587400417,-4,3,78,13,-3,-5,-6,-5
1537907587400417,5,-8,-108,13,8,5,5,3
1537907587413383,-2,8,15,-28,-9,-7,-6,-5
1537907587413383,-1,3,63,28,3,2,1,-3
1537907587421362,4,-19,-87,-15,12,5,4,4
1537907587421362,2,3,52,1,-5,-4,-3,0
1537907587436322,1,-4,-5,-6,-1,1,0,0
1537907587436322,-6,7,31,15,-12,-13,-10,-11
1537907587438317,6,3,10,-8,20,15,11,9
1537907587438317,0,-5,-18,-16,-4,-1,0,1
1537907587459260,-2,-4,-74,-7,-2,-2,-1,0
1537907587459260,0,4,-1,-9,-6,-2,-4,0
1537907587460259,-1,19,20,14,2,-3,-4,-5
1537907587460259,-1,-5,-5,24,-4,-3,0,-4
1537907587473223,3,-6,-60,-24,2,7,6,4
1537907587473223,-2,6,20,7,-6,-5,-2,-2
1537907587482199,-1,5,-12,2,0,-3,-2,0
1537907587482199,-1,-8,5,-6,0,2,0,0
1537907587497158,-1,0,-9,-2,-5,-3,-2,1
1537907587497158,1,-1,5,-8,6,0,3,0
1537907587498156,-1,-5,0,24,-4,-5,-7,0
1537907587498156,1,2,-1,-13,-13,-10,-4,2
1537907587519100,5,5,-4,-11,22,14,-2,3
1537907587519100,-7,-4,-11,-10,-19,-3,2,-5
1537907587521095,-3,-8,-14,42,23,6,1,-5
1537907587521095,-4,-3,9,-20,-45,-24,-6,1
1537907587533062,2,8,-9,10,21,21,-15,-7
1537907587533062,-2,-1,-2,-36,7,-1,0,-8
1537907587542038,-6,7,0,16,7,7,-9,-13
1537907587542038,-1,3,6,8,12,4,8,-6
1537907587556998,-4,-12,-27,-17,-3,-8,2,-2
1537907587556998,1,-5,0,25,-7,-6,-3,5
1537907587557996,7,22,7,3,-17,-9,9,12
1537907587557996,1,-5,5,-4,12,4,2,10
1537907587578939,2,-3,-8,-11,0,0,1,7
1537907587578939,-5,-7,6,-6,0,2,-8,-2
1537907587580934,-5,-11,-38,-14,-29,-12,-4,-6
1537907587580934,0,2,14,13,7,6,0,-4
1537907587592902,-2,-1,17,11,-4,-4,5,-1
1537907587592902,1,-4,-3,12,1,-2,-4,0
1537907587601878,1,-5,4,-3,3,0,2,0
1537907587601878,-3,-2,-12,-22,-7,2,-4,-2
1537907587616838,-4,-4,-7,8,-8,-7,-2,-3
1537907587616838,3,4,-7,2,-4,-6,2,2
1537907587617836,1,8,36,-15,17,7,-3,-2
1537907587617836,1,0,-1,16,-7,-1,-2,-2
1537907587638780,-3,2,-5,4,-6,-6,-1,0
1537907587638780,-2,2,-10,0,-4,1,2,1
1537907587640774,0,1,-5,5,3,2,3,0
1537907587640774,-2,8,16,1,13,1,-6,-3
1537907587652743,1,7,-4,-4,-8,-3,3,1
1537907587652743,0,8,3,-14,4,2,0,1
1537907587661720,-1,-3,-19,1,-5,-4,0,0
1537907587661720,0,-2,9,-4,-9,-4,-5,-2
1537907587676679,1,0,7,-8,3,2,7,3
1537907587676679,-1,-13,-47,9,6,0,0,-1
1537907587678674,0,-1,25,-11,1,1,-6,-3
1537907587678674,-1,-8,-2,16,16,2,2,-2
1537907587699617,0,-5,-4,-38,-31,-11,-2,-2
1537907587699617,-2,-1,15,13,12,4,2,1
1537907587700615,1,-9,-21,-48,-20,-8,2,1
1537907587700615,-2,-3,-8,16,11,6,1,-1
1537907587712583,-3,0,-9,8,-1,-3,-2,-3
1537907587712583,1,8,30,10,5,2,2,2
1537907587721559,-2,-5,-23,-4,-6,-1,-3,1
1537907587721559,-3,0,32,-1,2,1,-2,-2
1537907587736519,2,-3,-31,-9,3,0,0,0
1537907587736519,0,1,10,-6,-7,-3,-4,-1
1537907587738514,0,2,10,13,3,0,0,-1
1537907587738514,0,-3,-24,-7,7,2,2,-1
1537907587759457,-3,-4,-2,3,-6,-4,-4,-2
1537907587759457,-2,-2,5,8,3,2,0,-5
1537907587760455,2,2,10,-5,-8,-3,11,7
1537907587760455,2,6,8,5,19,11,-1,4
1537907587773420,-10,-6,4,-14,-17,-11,-16,-13
1537907587773420,3,2,-6,1,2,2,1,0
1537907587781399,-3,-9,-16,1,-4,-5,1,-3
1537907587781399,2,4,7,-14,-2,2,7,4
1537907587796360,4,7,23,13,12,4,2,4
1537907587796360,-1,-6,-9,10,2,1,-4,-3
1537907587803341,-2,1,4,-6,-3,1,-2,-1
1537907587803341,-1,-6,-13,-11,-9,-4,-1,1
1537907587819298,0,2,-9,18,6,-1,0,-2
1537907587819298,-3,-8,-8,-32,-19,-6,-4,-2
1537907587820297,2,13,24,6,0,1,-3,-1
1537907587820297,0,-5,-42,-3,1,-3,-1,-3
1537907587833261,1,-1,-7,1,4,2,5,2
1537907587833261,-1,6,47,-5,-10,-6,-1,-1
1537907587842237,-2,-6,-40,8,7,3,-3,-3
1537907587842237,-1,-5,-5,-16,-17,-6,-4,0
1537907587856200,-4,-5,7,-19,1,-1,1,-3
1537907587856200,5,-10,-86,12,11,6,3,7
1537907587863181,2,2,18,-1,-1,-1,-4,-1
1537907587863181,0,17,103,7,-6,-3,-3,-6
1537907587879138,-7,-20,-65,-9,-3,0,-1,-5
1537907587879138,-1,2,21,-3,-7,-1,1,-1
1537907587881134,1,-19,-93,-6,7,3,1,2
1537907587881134,-3,2,45,26,6,3,0,-1
1537907587893100,3,14,-1,21,-5,-5,-1,0
1537907587893100,-3,0,-54,-38,-7,0,-1,-5
1537907587902077,-3,-20,49,0,7,2,3,0
1537907587902077,-4,12,16,6,-23,-15,-7,-8
1537907587916038,6,-29,-85,-53,14,13,10,12
1537907587916038,0,24,116,15,-6,-6,-6,-4
1537907587923020,-3,10,97,31,-3,-3,-4,-5
1537907587923020,-3,-18,-50,11,9,3,1,0
1537907587938977,-2,24,127,57,-4,-8,-5,-7
1537907587938977,-1,-28,-128,-63,0,3,6,6
1537907587940972,2,13,61,6,-1,-2,-3,-2
1537907587940972,-1,-4,-39,-15,-6,-2,-3,-2
1537907587952940,0,4,-1,13,-4,-2,-1,1
1537907587952940,1,-3,42,11,3,1,1,1
1537907587961916,-2,0,-40,11,0,-1,-3,-4
1537907587961916,1,-5,-31,-21,6,5,2,2
1537907587975878,0,-4,-14,-13,-4,-2,0,0
1537907587975878,-4,4,23,7,3,-2,-4,-3
1537907587982860,0,-3,-11,14,1,-2,0,0
1537907587982860,0,-15,-33,-16,0,2,2,0
1537907587998817,1,-14,15,-7,4,3,0,3
1537907587998817,-3,-9,28,27,-11,-7,-4,-4
1537907588000812,2,2,-18,-20,5,0,10,7
1537907588000812,-2,0,-3,15,16,-2,-18,-2
1537907588021756,2,13,13,-8,-11,-1,0,0
1537907588021756,-5,14,6,6,-8,-2,-3,-5
1537907588022753,2,6,-20,-8,17,14,20,7
1537907588022753,1,5,14,40,22,0,-14,3
1537907588035718,-4,16,-6,-14,-19,-17,-25,-13
1537907588035718,6,5,20,8,-8,13,4,-7
1537907588044694,-16,1,-2,-15,-21,-12,-3,-15
1537907588044694,-1,-6,5,4,6,3,-2,-6
1537907588059654,0,9,-13,-28,-2,-1,11,11
1537907588059654,5,0,2,-3,9,-6,-1,6
1537907588060652,8,4,13,-1,-8,1,9,0
1537907588060652,-8,-6,-10,-2,-18,-9,-4,-9
1537907588081595,0,-6,-12,12,13,10,8,3
1537907588081595,-2,-2,-3,3,1,-6,1,5
1537907588083591,3,-3,5,9,-5,0,-3,7
1537907588083591,4,7,17,-12,-1,-1,-6,2
1537907588095558,-3,-15,-31,2,5,4,-1,-2
1537907588095558,-3,0,40,11,3,-1,-3,-1
1537907588102540,-3,-11,-31,-2,14,1,-11,-6
1537907588102540,1,2,4,16,-8,3,11,1
1537907588119495,-3,-5,18,-1,-9,-4,-4,-3
1537907588119495,0,-1,-13,-2,14,5,5,1
1537907588120492,-2,2,1,15,8,-1,-9,-1
1537907588120492,2,5,-2,-20,-12,-3,1,1
1537907588141436,-1,-1,-18,-20,6,2,8,0
1537907588141436,-2,8,0,-6,-8,-4,-8,-6
1537907588143430,2,-2,-4,-10,-5,-5,-6,4
1537907588143430,4,1,-11,-5,0,5,12,8
1537907588155398,-5,1,13,7,14,0,-11,-12
1537907588155398,-2,1,-3,9,8,7,1,-1
1537907588164374,-4,0,-34,-12,-23,-8,-9,-7
1537907588164374,4,7,40,11,7,3,-1,5
1537907588179335,1,-5,5,-13,-7,-2,15,4
1537907588179335,1,-6,-6,-4,0,1,4,2
1537907588180332,-1,-3,1,-12,4,-1,0,-1
1537907588180332,-3,-7,-16,-10,-9,-4,-5,-5
1537907588201276,-1,-5,4,11,4,5,6,2
1537907588201276,-2,-7,4,8,3,-6,-11,-3
1537907588203271,3,12,30,-3,-1,0,-5,-1
1537907588203271,-4,-18,-35,-23,-9,-2,6,-2
1537907588215238,1,9,28,8,-7,-2,-3,2
1537907588215238,-2,-12,-17,14,4,-2,5,0
1537907588224214,-1,0,6,3,-3,1,-3,-2
1537907588224214,-2,1,-9,-1,5,2,3,-3
1537907588239174,0,-1,5,-1,3,2,2,2
1537907588239174,-1,-7,-24,-7,-8,-5,-6,-2
1537907588240172,3,9,27,10,-3,-1,-2,-1
1537907588240172,-2,-1,11,-1,5,1,0,-1
1537907588262113,-1,-7,-5,-7,-8,-3,-1,3
1537907588262113,-3,2,-4,13,1,0,-8,-3
1537907588263111,-3,-6,-12,-4,-5,-1,-2,-6
1537907588263111,1,4,3,-3,-2,-3,0,-1
1537907588275078,0,-4,-3,4,1,1,0,-1
1537907588275078,1,3,17,13,0,0,1,2
1537907588284054,-1,-9,-12,-11,-11,-3,1,2
1537907588284054,-1,5,5,-10,-5,-4,-3,-2
1537907588299015,-1,-4,-3,16,-2,-2,-1,-1
1537907588299015,1,2,-6,1,6,0,2,0
1537907588301010,-2,4,17,-1,5,-1,-1,0
1537907588301010,1,-3,-7,-26,3,3,3,0
1537907588321953,2,10,21,53,4,0,0,1
1537907588321953,-1,-2,-16,4,-8,-1,-5,-2
1537907588322951,-3,-2,11,-17,-3,0,-4,-3
1537907588322951,-3,-10,-50,-13,-5,-2,1,1
1537907588335916,2,12,75,25,6,-1,-5,-2
1537907588335916,0,5,-14,-28,-4,-1,2,0
1537907588342897,-4,-19,-29,9,1,0,-1,0
1537907588342897,1,3,11,17,5,4,-1,0
1537907588358855,1,-2,-9,17,8,0,-1,-3
1537907588358855,-3,6,83,-18,-17,-7,-1,-5
1537907588360850,2,-12,-88,-5,7,4,3,3
1537907588360850,0,6,65,6,0,-2,2,-1
1537907588381793,-2,-14,-103,-54,-15,-5,-3,0
1537907588381793,-4,14,109,64,13,2,-1,-5
1537907588382791,-1,-10,-81,-39,-1,1,1,-1
1537907588382791,2,0,-102,39,5,2,-1,4
1537907588395756,3,2,40,-70,-8,0,-1,3
1537907588395756,-2,-4,23,3,-5,-4,0,0
1537907588402737,-4,4,127,54,11,-4,0,-3
1537907588402737,-2,6,-54,20,1,-6,-6,-5
1537907588418695,-3,-4,75,-22,-6,0,0,-2
1537907588418695,1,-13,-128,-66,-16,-2,3,1
1537907588420689,-1,23,127,31,2,-2,-9,-2
1537907588420689,1,-12,-34,-12,2,2,3,1
1537907588441633,-2,16,50,27,3,-2,-4,-5
1537907588441633,-3,-23,-64,-39,0,2,-1,2
1537907588442631,2,13,-8,9,-5,-4,1,1
1537907588442631,-2,6,55,-2,-4,-2,-1,-4
1537907588455596,-1,-3,0,36,6,0,-1,0
1537907588455596,1,-16,-42,-27,4,6,4,4
1537907588464572,0,0,-29,-23,-10,-2,0,1
1537907588464572,-2,2,55,-10,-9,-3,-2,-3
1537907588479532,-3,-6,-59,12,-1,-4,-6,-5
1537907588479532,0,7,-6,23,4,-2,-4,-4
1537907588480529,0,-9,-7,-8,-2,1,3,0
1537907588480529,-1,-8,16,-10,-5,-2,0,0
1537907588501473,-2,-10,-24,-11,0,-1,-2,0
1537907588501473,-1,0,-3,1,17,3,1,1
1537907588503469,-4,-16,-37,-9,-36,-10,-5,-5
1537907588503469,-1,-3,50,-8,0,1,1,-1
1537907588515436,3,-4,-27,8,6,4,5,3
1537907588515436,1,4,16,-6,-16,-7,5,3
1537907588531393,1,5,-5,-23,0,0,-12,0
1537907588531393,4,3,-4,-1,6,5,7,5
1537907588538375,-8,8,-20,17,-10,-9,2,-4
1537907588538375,4,0,32,-11,-6,-5,-8,1
1537907588545356,-1,-9,-5,12,11,5,10,-1
1537907588545356,-1,17,-20,-6,9,14,-23,-13
1537907588561313,-6,-10,-9,-18,-13,3,14,-9
1537907588561313,-13,-2,-8,3,-2,-5,9,-8
1537907588563308,8,10,-16,1,21,2,-14,4
1537907588563308,-2,-6,-11,-10,-5,-17,3,3
1537907588584252,9,-1,-4,16,20,15,3,10
1537907588584252,3,15,45,11,-7,-5,-14,-5
1537907588585250,-7,-8,-34,-2,-1,4,13,-5
1537907588585250,1,-2,40,3,-4,-2,1,6
1537907588599212,0,-4,-29,1,-6,-9,-10,5
1537907588599212,5,-8,2,-2,8,6,6,7
1537907588600210,2,9,37,11,-5,-4,-3,0
1537907588600210,-3,-6,-25,12,-5,-2,0,-5
1537907588622151,0,3,39,-12,8,0,-2,0
1537907588622151,-2,-2,-13,-2,5,3,-6,-3
1537907588623148,-2,2,2,-14,-1,-2,2,-2
1537907588623148,-4,-9,-23,-20,-13,-1,-1,-3
1537907588635116,-1,4,-5,4,-4,-6,-18,-5
1537907588635116,-1,-2,6,15,6,2,14,-1
1537907588644092,0,6,4,-15,-12,-3,-5,-2
1537907588644092,-3,-8,-21,-11,1,1,9,-1
1537907588659052,4,8,9,-27,-5,0,-3,0
1537907588659052,-2,0,6,19,-4,-3,-15,-6
1537907588661047,-1,-6,-24,-1,0,0,5,2
1537907588661047,1,-2,-19,7,1,-2,2,3
1537907588681991,0,5,38,-7,2,-1,0,-2
1537907588681991,0,3,-1,1,-7,-3,-7,-2
1537907588682988,1,-1,0,17,7,3,9,3
1537907588682988,0,-3,-7,-1,5,6,-4,0
1537907588694956,-5,-5,-18,7,0,-6,-12,-7
1537907588694956,2,0,3,-16,-16,-4,2,1
1537907588703932,0,-3,2,9,8,3,0,-1
1537907588703932,0,8,2,15,3,0,7,2
1537907588718892,1,-7,-9,-11,5,2,0,2
1537907588718892,-1,-4,-9,-20,-14,-5,-3,-2
1537907588724876,-2,0,-1,7,-7,-4,-4,-4
1537907588724876,2,5,29,-4,3,-1,3,2
1537907588741831,-1,-3,-14,-2,-3,1,-1,0
1537907588741831,-2,-3,-5,17,7,0,-3,-1
1537907588743826,-3,-3,-16,-4,1,-2,-2,-3
1537907588743826,0,2,26,-11,-11,-5,0,1
1537907588755793,-1,1,-16,4,1,1,-4,-3
1537907588755793,-1,0,10,4,3,-3,-5,-6
1537907588763772,0,-2,-3,-4,0,1,0,1
1537907588763772,-1,0,11,3,1,-2,-3,-5
1537907588778732,4,-2,-22,0,-8,-3,6,2
1537907588778732,2,3,4,7,15,6,7,5
1537907588785713,-1,1,3,-3,-11,-6,-4,-1
1537907588785713,-2,-5,-4,-12,-5,-2,-6,0
1537907588801671,0,-3,3,3,2,0,5,2
1537907588801671,-3,-4,-11,0,8,2,-4,-2
1537907588807655,1,4,19,-11,19,6,4,1
1537907588807655,-3,-6,-19,21,-15,-8,-2,-2
1537907588815633,-1,-1,-10,-11,-5,-1,-3,-4
1537907588815633,-2,-1,16,-1,-1,1,6,1
1537907588824610,4,5,20,8,11,6,2,4
1537907588824610,-4,-4,-8,-1,3,-4,-16,-8
1537907588839569,-2,-3,2,-4,-7,-4,-1,-2
1537907588839569,0,1,-6,-7,3,2,1,1
1537907588840567,-4,-5,5,-1,-13,-4,-3,-2
1537907588840567,3,4,-5,8,4,4,6,2
1537907588861511,-2,-3,-1,5,-1,-1,-1,0
1537907588861511,0,1,-7,4,-4,-3,0,1
1537907588863505,-3,-5,-6,-21,-11,-4,-7,-2
1537907588863505,0,3,5,1,4,1,-2,-3
1537907588875474,0,-3,9,-2,11,5,3,-1
1537907588875474,1,0,-2,-19,-33,-10,-2,-1
1537907588891431,-2,-3,-14,1,-2,-2,-2,-1
1537907588891431,0,-2,1,5,5,0,-3,-2
1537907588899411,-2,-4,6,-14,-3,-4,-1,-4
1537907588899411,2,4,-1,17,6,3,2,1
1537907588900407,1,3,5,-2,1,-1,2,0
1537907588900407,-2,-1,-3,-12,-2,-1,3,2
1537907588921352,-4,-2,1,6,-1,-3,-8,-7
1537907588921352,0,-2,9,-7,4,0,3,3
1537907588923346,0,-2,-12,23,-1,-1,-4,-2
1537907588923346,2,0,7,-12,-2,3,4,1
1537907588944289,-3,-1,-2,1,1,1,3,0
1537907588944289,-1,2,2,20,-3,-4,-3,-2
1537907588945287,1,-5,-6,-15,3,2,5,2
1537907588945287,-1,2,5,4,-1,-1,2,1
1537907588959250,-1,2,-7,9,-3,-2,-4,-2
1537907588959250,-2,-5,-22,-14,5,2,-1,-2
1537907588960247,0,1,28,15,-4,-1,0,-1
1537907588960247,-1,2,-19,-2,-3,-1,-3,-1
