timestamp,emg1,emg2,emg3,emg4,emg5,emg6,emg7,emg8
1537919097171876,-1,-1,-1,-3,-2,3,3,-7
1537919097171876,-6,1,0,2,8,5,0,-8
1537919097171876,2,0,-1,0,-4,2,-1,0
1537919097171876,-2,-1,0,0,4,5,0,1
1537919097172873,-3,0,-1,1,3,-3,-3,-7
1537919097172873,1,-2,-1,-1,-3,-1,3,-2
1537919097176862,0,-2,-1,-2,4,3,0,-2
1537919097176862,2,0,-1,-1,1,-6,-1,1
1537919097182846,-1,-1,-1,0,-5,2,2,1
1537919097182846,2,-1,-4,-7,-2,7,0,6
1537919097192820,-3,-2,2,3,6,-28,-5,-3
1537919097192820,2,0,-1,1,-4,-2,-3,1
1537919097199801,2,-2,-4,-10,-25,11,-4,2
1537919097199801,-2,0,0,1,5,-4,-2,-2
1537919097212766,0,-1,-3,-2,15,11,-9,1
1537919097212766,-2,-2,-1,-3,-20,-18,-2,-2
1537919097224735,0,0,1,4,2,-19,-3,1
1537919097224735,-1,-1,1,7,24,-16,-4,0
1537919097227726,0,-1,2,-1,-33,1,3,2
1537919097227726,-2,-3,-2,-1,21,7,-11,-4
1537919097242687,-3,-1,-2,-7,5,37,26,0
1537919097242687,1,-1,-1,-5,-7,9,-1,2
1537919097251662,-1,-4,-3,-8,-39,-16,3,2
1537919097251662,-1,0,-2,-3,-3,-2,-6,-3
1537919097292554,2,2,0,2,1,-6,-3,-1
1537919097292554,-1,-2,2,0,25,-4,-2,-2
1537919097297540,-4,-2,2,7,4,4,-5,0
1537919097297540,-1,-1,-1,8,36,6,7,-4
1537919097298537,5,-1,1,-5,-22,6,10,8
1537919097298537,0,-2,-2,-7,-26,-16,-3,-2
1537919097298537,-1,1,1,3,12,-31,-8,-4
1537919097298537,-1,1,2,6,3,66,6,0
1537919097302526,-3,-4,-6,2,29,-12,-3,-5
1537919097302526,0,-1,-1,-4,-5,-11,3,-5
1537919097310505,-2,2,2,9,33,37,-4,-1
1537919097310505,1,2,6,5,-11,-92,1,-4
1537919097319481,-4,-3,-5,-13,-11,-15,-8,-4
1537919097319481,5,2,-3,-13,-50,-8,6,8
1537919097333444,-1,-1,0,7,27,56,-4,-4
1537919097333444,0,-2,-5,-18,3,21,-4,-3
1537919097341423,-2,1,3,13,30,-67,-2,-3
1537919097341423,1,3,9,33,78,62,9,3
1537919097348404,2,-2,-1,0,26,-71,-7,-3
1537919097348404,2,1,3,5,-27,-60,12,11
1537919097363364,-7,-13,-24,-64,-92,-83,-18,1
1537919097363364,-14,-1,10,35,123,89,-9,-25
1537919097370345,10,1,0,-32,-120,-88,14,14
1537919097370345,1,-2,1,30,102,53,-15,-10
1537919097379321,-1,3,9,43,69,14,4,4
1537919097379321,3,-3,-14,-34,-22,-9,17,1
1537919097393284,9,0,-2,3,-69,127,8,34
1537919097393284,9,4,5,-6,-25,-55,19,14
1537919097402260,-5,3,-1,-23,-43,-2,-10,-24
1537919097402260,6,2,1,13,77,108,-11,17
1537919097408244,-11,-3,0,-9,-38,-67,-5,-25
1537919097408244,-2,0,-3,0,26,-31,-5,7
1537919097423204,-13,1,12,44,107,-22,14,-8
1537919097423204,8,1,-3,-15,-124,45,-15,4
1537919097430185,-15,-9,-21,-52,-64,-128,-11,-10
1537919097430185,-5,-11,-18,-50,-128,127,-17,-4
1537919097439161,-8,3,13,33,87,-44,9,-16
1537919097439161,-1,1,5,22,51,-109,-12,6
1537919097453124,-15,-8,-14,-35,40,124,15,-33
1537919097453124,6,4,1,6,92,19,-4,12
1537919097462100,-11,-4,-10,-31,-79,21,-17,-35
1537919097462100,9,2,-1,1,-34,71,8,16
1537919097468084,9,7,11,38,64,-27,9,-1
1537919097468084,-9,0,2,7,44,4,-2,-2
1537919097483044,-13,-10,-6,-10,-14,71,-4,-19
1537919097483044,-2,-6,-8,-33,-10,-104,-22,3
1537919097490025,-3,12,33,90,127,66,19,5
1537919097490025,0,-10,-28,-72,-128,73,-16,-6
1537919097499999,11,6,8,18,83,127,15,15
1537919097499999,4,3,0,-6,-57,42,16,13
1537919097512964,5,-1,-10,-11,57,60,-7,18
1537919097512964,-3,7,18,46,81,-23,5,-5
1537919097521940,7,1,-3,-13,-47,108,-1,9
1537919097521940,-16,-4,1,3,15,-66,1,-30
1537919097527924,7,2,14,37,92,-42,-7,1
1537919097527924,3,0,1,24,60,80,17,19
1537919097542885,12,-2,-8,-18,-38,-103,1,24
1537919097542885,7,2,-1,16,102,-62,-14,-7
1537919097550862,-9,-9,-10,-37,-110,75,-4,3
1537919097550862,-5,2,10,12,-11,-78,-16,-25
1537919097558842,12,4,2,20,-3,-18,36,19
1537919097558842,-14,-7,-7,-19,30,-56,-10,-14
1537919097572804,-2,0,-3,-11,-10,63,3,-9
1537919097572804,-3,-5,-9,-29,-69,-27,-12,-2
1537919097581780,4,1,2,14,14,20,4,15
1537919097581780,4,-1,1,2,-61,-4,0,5
1537919097587764,9,2,2,8,47,-56,-8,-2
1537919097587764,-5,-1,6,7,5,9,13,-4
1537919097602724,4,1,-2,3,-11,-27,-11,9
1537919097602724,-4,-3,-3,0,7,12,5,4
1537919097610702,-1,-4,-5,-12,-38,-9,-5,-1
1537919097610702,0,0,4,9,-8,12,-3,-11
1537919097619679,-1,-3,1,3,45,-45,-9,-8
1537919097619679,-2,-3,-2,-18,-78,22,16,7
1537919097632644,-2,0,3,11,1,-29,1,9
1537919097632644,2,-1,-4,-11,-47,-34,-20,-16
1537919097641620,-6,0,1,0,10,15,-2,-3
1537919097641620,0,0,1,1,6,-34,-6,-2
1537919097657577,3,0,-2,-3,-16,-9,-2,6
1537919097657577,-1,-1,0,12,36,-40,5,3
1537919097662564,-2,-2,-1,-12,-2,70,-7,-2
1537919097662564,2,1,-2,0,-32,-25,-3,-2
1537919097670543,-5,-3,-6,-14,-37,-43,-4,-6
1537919097670543,0,0,-2,-2,6,17,5,5
1537919097679519,-2,-2,1,0,-13,-1,-6,-3
1537919097679519,-4,-2,0,1,-14,35,5,-3
1537919097693482,1,-1,-1,1,21,-1,-1,-3
1537919097693482,-2,-2,-3,-8,-20,3,-3,0
1537919097700463,1,0,-2,3,27,30,0,9
1537919097700463,-3,-1,-4,-10,-26,-66,1,-7
1537919097716420,1,0,3,3,-7,32,-3,2
1537919097716420,2,-2,-6,-6,14,-22,2,6
1537919097722404,-2,0,-1,-10,-25,1,-3,-12
1537919097722404,1,-2,0,0,11,58,-1,0
1537919097730383,-1,0,-2,-1,-2,0,-2,-3
1537919097730383,-6,-1,2,3,-7,-12,0,-4
1537919097739359,1,-1,-3,-8,-24,-28,-2,5
1537919097739359,-3,-1,0,6,21,5,-1,-5
1537919097753321,-3,-1,-2,-3,-12,-6,1,1
1537919097753321,-1,-1,0,7,13,-6,0,0
1537919097760303,0,-2,-3,-8,-10,-11,-3,3
1537919097760303,-1,0,2,6,7,11,0,-2
1537919097776260,0,-1,-3,-4,-7,-7,0,0
1537919097776260,2,0,-3,-6,-4,-1,3,2
1537919097783241,-2,0,1,3,-5,4,-2,-2
1537919097783241,-4,-2,-3,-4,-4,0,-2,-2
1537919097790223,-2,-3,-2,0,-8,-17,-2,-4
1537919097790223,-1,-2,-2,1,7,-6,2,-6
1537919097799199,6,2,1,-3,-5,0,-5,8
1537919097799199,0,1,2,0,6,0,-7,-4
1537919097813161,-1,1,-1,-3,-2,-6,7,3
1537919097813161,-7,-3,0,1,1,0,-6,-19
1537919097829119,1,0,-2,-6,-7,-1,2,15
1537919097829119,1,-1,1,2,2,7,-2,9
1537919097836100,-1,0,-4,-7,-5,1,-3,-8
1537919097836100,2,-1,1,1,2,0,0,4
1537919097843081,-1,-1,-1,1,-7,-10,-5,-2
1537919097843081,-1,-2,0,0,3,-1,-3,-4
1537919097850063,2,-2,-2,-1,3,3,4,3
1537919097850063,-2,0,-1,0,4,-1,3,0
1537919097859039,-1,-2,-1,-3,-2,-1,1,-7
1537919097859039,-2,0,0,2,2,3,2,-3
1537919097873002,0,-1,-2,0,-1,-2,0,-4
1537919097873002,-2,0,-2,-2,-4,-3,-1,3
1537919097881978,0,0,3,2,-3,-2,-2,1
1537919097881978,0,0,0,1,0,-3,1,-4
1537919097895941,0,-1,-2,-4,-7,-9,-6,0
1537919097895941,0,-1,1,1,5,1,0,4
1537919097902923,-4,-1,1,4,-1,-1,1,-7
1537919097902923,1,-2,-3,-6,-4,-7,-2,-1
1537919097909904,-1,-2,1,-1,-2,2,-3,2
1537919097909904,0,0,-2,-3,1,2,0,2
1537919097918880,1,1,0,0,1,-1,0,-5
1537919097918880,0,-1,-1,-1,-1,0,-2,1
1537919097932842,-1,-1,1,1,-1,-4,-2,-2
1537919097932842,0,-1,-1,0,-1,0,-2,0
1537919097941818,-2,-2,-1,1,0,5,1,0
1537919097941818,-1,-1,-4,-4,-12,-10,0,0
1537919097955780,-1,0,0,0,-1,-1,-3,-3
1537919097955780,-2,1,1,1,0,0,0,3
1537919097962761,-3,-2,-4,-5,-2,-2,0,-3
1537919097962761,-1,0,0,2,6,4,2,0
1537919097970740,-1,2,-2,-2,-1,-2,-1,0
1537919097970740,-1,-1,-2,-3,-1,-2,0,1
1537919097985700,1,0,-1,-2,-2,-2,-1,4
1537919097985700,0,-2,0,0,3,3,2,2
1537919097993679,1,0,-1,-1,-2,-1,-3,0
1537919097993679,2,0,0,2,1,2,1,0
1537919098000660,-4,-2,-1,0,-4,-3,0,-4
1537919098000660,0,1,-2,-2,-2,0,1,-2
1537919098015621,-2,0,1,3,2,-1,-3,-1
1537919098015621,0,1,0,0,-1,0,-2,0
1537919098022602,-1,-3,-4,-8,-8,-2,-1,-2
1537919098022602,-1,-1,-1,0,3,3,2,0
1537919098030580,-2,-1,-1,-2,0,-1,-2,0
1537919098030580,0,-1,0,1,0,-2,-1,1
1537919098045540,0,0,0,2,1,-1,-1,-3
1537919098045540,0,-2,-2,-1,0,-1,-1,-1
1537919098053519,0,-1,-2,0,-2,-1,-2,-2
1537919098053519,0,-2,-2,1,1,2,0,-2
1537919098060500,-1,-1,0,1,0,-1,0,0
1537919098060500,1,1,0,0,1,0,-2,-1
1537919098076458,-2,-1,0,-1,-1,1,2,-2
1537919098076458,-1,-2,-1,1,-3,-1,-1,1
1537919098082442,-1,-1,1,1,0,-2,0,-1
1537919098082442,-2,0,0,0,0,1,-1,0
1537919098090420,0,-2,1,-1,-2,-2,-1,0
1537919098090420,1,0,-1,-3,-2,0,-1,-2
1537919098106378,0,-1,-2,1,1,0,-1,-2
1537919098106378,-1,-2,-1,-1,-2,0,-2,-1
1537919098113359,-1,-2,-3,-2,0,-1,-1,-2
1537919098113359,0,-1,-1,-2,0,0,2,1
1537919098120340,0,1,1,3,0,0,-2,-2
1537919098120340,-1,-1,0,2,1,0,-1,-2
1537919098136298,0,0,-1,-2,-3,1,-2,-2
1537919098136298,-1,-1,-2,-1,0,-2,-2,0
1537919098143279,-1,0,-1,-2,-1,-1,0,0
1537919098143279,-1,0,2,-1,2,-1,0,-2
1537919098158239,0,-1,-4,-3,-4,-3,1,0
1537919098158239,2,-1,-1,-1,-2,-1,-1,1
1537919098167215,-1,-1,-1,0,-1,-1,0,-1
1537919098167215,-2,-1,-3,-1,-2,1,0,-1
1537919098181178,-2,-1,2,2,2,-1,0,0
1537919098181178,-1,-2,-1,-2,-1,-2,-2,-1
1537919098188159,0,-1,-2,-3,-1,-1,-3,-2
1537919098188159,0,-1,0,-1,1,-1,0,-2
1537919098204116,-1,-2,0,0,1,1,-1,0
1537919098204116,-1,0,0,0,-2,0,-1,0
1537919098206111,-1,-2,0,-2,-2,0,0,-2
1537919098206111,-1,-1,-1,1,-1,0,-2,-1
1537919098218079,-1,-2,0,-1,-2,-1,-1,0
1537919098218079,-2,1,1,-2,-1,-2,-1,-2
1537919098227055,-2,1,-1,-2,0,0,1,-2
1537919098227055,-1,0,-1,1,-2,-1,-1,-1
1537919098241019,0,-1,0,0,-2,-2,-2,-2
1537919098241019,0,-2,0,0,0,-1,0,0
1537919098248000,-1,-1,-1,-4,-4,-1,0,0
1537919098248000,-1,0,-2,0,-2,0,0,-1
1537919098262960,-1,1,0,2,0,1,-2,0
1537919098262960,0,0,-1,-2,0,-1,0,-1
1537919098271938,1,0,0,2,2,-2,0,0
1537919098271938,-1,-2,-1,-4,-1,-1,-1,1
1537919098286896,0,-1,-3,-2,-2,-2,-1,-3
1537919098286896,-2,-1,0,-1,-1,-1,-2,-2
1537919098287894,-1,-1,-1,1,0,-1,-1,-1
1537919098287894,-1,0,0,1,-3,-3,-2,0
1537919098308838,1,-3,-1,-3,-1,-2,0,1
1537919098308838,-1,1,-1,-2,-1,0,-2,1
1537919098310833,-1,-2,-1,-1,-1,-1,-1,0
1537919098310833,-1,-3,1,1,1,0,-2,0
1537919098323798,0,-1,0,-2,0,-2,0,-3
1537919098323798,-1,-2,0,1,1,1,0,-2
1537919098330779,-1,0,-2,-1,-1,-2,-1,2
1537919098330779,0,0,0,2,1,1,2,0
1537919098346736,-1,-2,0,-1,-3,0,-2,-1
1537919098346736,0,-1,-2,-2,-3,-1,-1,-1
1537919098347735,-2,-2,-1,-1,-1,-1,-1,-2
1537919098347735,0,-1,-2,-3,-2,0,0,-2
1537919098369675,-1,0,-1,-1,1,-1,1,1
1537919098369675,0,0,1,1,0,-1,-2,-1
1537919098370673,0,0,-2,0,-1,0,-1,-2
1537919098370673,0,0,-1,0,-1,-2,0,-2
1537919098383637,-2,1,-1,-1,-2,0,-2,-1
1537919098383637,-2,-2,-1,-3,-1,0,-1,0
1537919098390618,0,-1,-2,-1,-1,0,-3,-1
1537919098390618,-1,-1,-1,-1,1,1,0,0
1537919098406575,-1,1,-2,-2,-1,-1,0,-1
1537919098406575,0,0,-1,-1,0,1,0,-1
1537919098408571,0,-1,0,0,0,-1,-1,0
1537919098408571,-1,-1,-2,-2,-2,-1,0,-1
1537919098428516,0,-2,1,-1,0,-1,-3,-1
1537919098428516,-1,-1,-4,-3,-4,-2,0,-1
1537919098444474,3,0,-1,-3,-2,-1,-1,1
1537919098444474,-1,0,0,1,1,-3,-2,-1
1537919098444474,-4,-1,-1,1,1,0,0,-1
1537919098444474,0,-2,0,1,1,0,-1,0
1537919098450458,1,-1,-1,0,0,0,0,0
1537919098450458,1,-2,-2,3,6,5,1,-2
1537919098466415,-1,1,3,12,51,37,0,-2
1537919098466415,-3,-2,-5,-11,-28,-6,2,3
1537919098468411,-9,-5,0,14,53,-21,-9,-8
1537919098468411,4,1,0,-15,-49,-16,4,4
1537919098489354,-12,-9,-8,-3,-3,18,-18,-14
1537919098489354,-9,4,11,17,19,22,6,1
1537919098490352,26,5,-17,-48,-79,42,11,9
1537919098490352,-4,-3,2,10,59,-15,-30,-8
1537919098503317,5,2,-4,-33,-99,-127,13,9
1537919098503317,-8,-15,-25,-48,-94,15,11,-4
1537919098519275,-8,1,13,23,99,109,-9,-9
1537919098519275,5,6,8,13,-28,44,44,11
1537919098526257,-1,7,14,24,46,-45,-7,-12
1537919098526257,6,0,-4,7,23,-55,-29,8
1537919098528252,-5,0,-7,-18,-128,-54,-3,8
1537919098528252,-7,-7,3,23,124,127,-25,-18
1537919098549195,1,2,8,0,-68,1,27,-1
1537919098549195,-4,-4,-4,-29,-37,-57,-17,-9
1537919098551190,-7,-6,4,28,108,79,-17,-6
1537919098551190,5,-9,-11,-12,-89,-128,-6,8
1537919098563159,1,5,-6,3,35,127,23,11
1537919098563159,7,1,6,21,46,13,22,7
1537919098572133,-3,7,-8,-38,-62,-128,-15,-4
1537919098572133,-8,2,8,19,87,104,10,-6
1537919098587093,8,3,9,32,102,25,-20,7
1537919098587093,-3,-9,-15,-19,-58,-71,1,-1
1537919098588090,-7,-8,-7,-8,-74,-24,13,-4
1537919098588090,0,-2,-8,-21,-11,11,1,4
1537919098609034,-2,-5,-7,-10,24,67,-14,3
1537919098609034,0,7,14,30,72,79,-1,-6
1537919098611029,3,1,8,18,18,-25,7,4
1537919098611029,-2,1,-2,-7,-28,-104,-20,-1
1537919098622996,-1,-1,-3,-6,-14,8,1,-2
1537919098622996,-1,3,6,11,19,9,-1,-5
1537919098631973,-3,-3,0,-1,-11,-6,10,0
1537919098631973,-1,1,-1,-1,-5,-31,0,-1
1537919098645935,-1,-2,-4,-3,-10,-45,-5,-2
1537919098645935,0,2,0,-2,-4,-1,1,-2
1537919098653914,-1,0,1,8,27,-3,-3,-2
1537919098653914,-1,0,-4,-5,-7,1,1,0
1537919098668874,-3,-6,-3,-7,-21,-26,-3,-2
1537919098668874,2,-1,0,-1,-3,5,-4,-3
1537919098668874,-1,-2,1,5,23,20,1,0
1537919098668874,-3,-2,-1,-6,-13,0,3,-2
1537919098690816,-1,-3,-4,-9,-26,-19,0,2
1537919098690816,0,2,2,7,21,15,-1,-2
1537919098691814,-1,0,1,3,13,4,0,0
1537919098691814,-2,-1,-2,-6,-19,-4,2,1
1537919098705776,-1,-2,-3,-1,0,-13,-6,-3
1537919098705776,0,1,1,4,11,10,-1,-2
1537919098713755,-1,-2,-2,1,1,0,2,-2
1537919098713755,1,-1,-1,-4,-14,-5,-1,-2
1537919098728716,-1,-3,0,1,1,-1,0,-1
1537919098728716,1,-2,1,-1,4,7,-1,-1
1537919098729712,0,-2,-4,-6,-10,-2,-2,1
1537919098729712,-2,0,-2,-2,-1,2,-1,-1
1537919098750656,-1,-1,-3,-3,-3,-4,-1,-3
1537919098750656,-1,-1,-1,2,0,2,0,1
1537919098751653,-1,1,2,4,10,2,0,-1
1537919098751653,-1,0,0,-5,-5,-3,-1,0
1537919098765615,-3,-3,-5,-4,-9,-7,-2,-1
1537919098765615,-1,-1,-1,-2,-2,-1,-3,-1
1537919098773594,1,-1,1,0,4,5,0,-1
1537919098773594,-2,-2,-1,1,-4,0,1,0
1537919098796533,-1,-1,1,-1,-3,-4,1,-2
1537919098796533,0,0,-1,-2,4,4,-1,-2
1537919098797530,-1,-2,-1,-5,-3,-3,-1,-1
1537919098797530,-1,-1,1,-3,-4,-1,0,2
1537919098810495,1,0,-2,-2,-2,-3,-2,0
1537919098810495,-3,-1,-1,2,4,2,0,1
1537919098811493,-2,1,2,3,4,1,3,-4
1537919098811493,1,-1,-2,-2,-5,-1,0,-1
1537919098826453,1,-2,0,-2,0,-3,-2,0
1537919098826453,0,-2,0,-1,1,1,-1,0
1537919098826453,-1,-1,-1,0,1,-1,-1,-5
1537919098826453,1,1,-1,2,1,0,0,-3
1537919098848395,0,1,0,1,6,-1,-2,-1
1537919098848395,-1,-1,-3,-5,-6,-3,-1,-1
1537919098849392,-8,-2,-2,-5,-6,1,3,-3
1537919098849392,5,0,0,-2,-4,0,2,5
1537919098871334,0,0,0,0,-2,-2,-3,0
1537919098871334,-1,0,2,5,6,3,3,1
1537919098871334,-1,-4,-3,2,0,1,-1,0
1537919098871334,-5,-3,-3,-7,-3,-4,-1,-9
1537919098886293,2,1,-3,-5,-11,-2,0,-3
1537919098886293,-1,0,1,-2,0,-1,-4,-2
1537919098886293,3,2,0,2,5,3,-2,5
1537919098886293,-2,0,0,1,2,0,-1,-1
1537919098908235,-1,-2,-2,-2,-2,-2,0,0
1537919098908235,-1,0,1,2,0,2,-1,-2
1537919098909233,2,0,-3,-2,-1,-2,0,-2
1537919098909233,-1,-3,0,-1,-1,-1,-3,0
1537919098931174,-2,0,2,-2,2,1,0,-3
1537919098931174,-1,0,0,-2,-2,-1,1,-4
1537919098938155,1,-1,-1,2,0,-2,-2,3
1537919098938155,-1,1,-1,-1,-2,-1,-2,-1
1537919098946134,-2,0,0,1,-2,0,0,-3
1537919098946134,-1,-2,-2,1,0,-2,-2,2
1537919098947132,-1,-1,-2,-1,-2,-1,-1,-5
1537919098947132,-3,-2,-1,1,1,-1,-1,-5
1537919098968075,-2,0,0,0,-1,2,-1,-7
1537919098968075,4,-1,0,-1,1,-3,-3,6
1537919098969072,-1,0,-2,-2,0,-2,-2,2
1537919098969072,-1,0,-1,2,0,0,-2,-1
1537919098991014,-3,-3,-2,-3,0,0,1,1
1537919098991014,-3,-2,-2,-1,0,0,0,-2
1537919098992012,1,1,0,-1,0,-3,-3,-1
1537919098992012,0,1,0,0,-1,1,0,-1
1537919099005974,1,2,-1,0,0,-3,-2,2
1537919099005974,-1,0,-1,-1,-4,0,-2,-3
1537919099006971,-3,0,1,1,0,-2,0,-1
1537919099006971,2,0,-1,0,1,0,-1,3
1537919099028912,2,-2,-1,-2,-1,1,0,4
1537919099028912,-4,-3,-2,-1,-1,-1,3,-9
1537919099028912,6,0,-1,-2,-2,0,-1,15
1537919099028912,-3,-2,-2,-2,-1,-3,-1,0
1537919099050853,-2,-1,-1,-3,-2,0,-3,2
1537919099050853,0,1,-1,0,-1,0,-2,0
1537919099051851,-5,-2,-1,-1,-1,-1,-1,-7
1537919099051851,1,-1,0,-1,0,-1,1,0
1537919099065813,-2,-1,0,-2,-1,-3,0,-1
1537919099065813,-1,1,-2,-2,-1,-2,-1,-3
1537919099066811,-2,-1,0,-1,0,-1,0,-4
1537919099066811,0,-1,-1,-1,-1,0,-1,1
1537919099088752,0,0,-1,1,1,-1,-1,-3
1537919099088752,-1,0,0,-1,-1,-1,-1,-2
1537919099088752,0,-1,1,-1,0,0,-1,0
1537919099088752,-2,0,1,-1,-1,-1,0,-1
1537919099110694,-2,-2,-1,1,-2,2,0,-1
1537919099110694,0,-2,-2,-1,0,-2,1,2
1537919099111692,-1,0,-1,-1,-2,-2,1,-2
1537919099111692,0,-1,-1,-2,-2,1,0,-1
1537919099125655,-1,0,0,-1,-1,-2,1,0
1537919099125655,-1,-1,0,-2,-3,-2,0,-2
1537919099126652,-1,0,-1,-2,-2,-1,-3,-3
1537919099126652,2,1,-1,-1,1,-2,-2,1
1537919099148594,-1,0,-2,0,0,0,1,0
1537919099148594,-2,-2,-1,-1,1,0,0,-3
1537919099149592,0,1,0,0,-1,-1,0,0
1537919099149592,-3,-2,-1,-2,0,-2,-3,-6
1537919099170533,2,-1,0,-2,-2,-2,-2,1
1537919099170533,-1,-1,-2,-1,-3,0,-2,-1
1537919099171531,-3,-2,-2,0,0,0,1,-3
1537919099171531,-2,-1,-1,0,-1,-1,-2,-2
1537919099194469,1,0,-1,1,0,-2,-2,-1
1537919099194469,0,-2,-1,-1,1,1,-1,1
1537919099194469,0,-2,1,0,0,-2,0,2
1537919099194469,-1,0,-2,-2,-2,0,0,1
1537919099208433,-1,-1,0,-3,-1,-2,-2,-2
1537919099208433,1,0,-2,-1,-1,2,0,1
1537919099209429,0,-1,-2,1,-1,1,-1,-1
1537919099209429,0,-2,-3,-3,-3,-1,0,-2
1537919099231370,0,0,-1,-1,-2,-2,0,3
1537919099231370,0,-1,-2,-1,-1,-2,-1,-1
1537919099231370,-2,-1,0,0,0,-2,-1,-4
1537919099231370,1,0,0,0,1,1,1,5
1537919099245333,-2,-1,0,-1,0,-1,-2,-3
1537919099245333,-3,-1,-1,-2,-4,-4,0,-6
1537919099253312,2,-1,-1,-1,1,1,-3,4
1537919099253312,-2,0,-2,-1,-2,0,0,-1
1537919099268271,-1,-1,-2,-1,-1,-4,-1,-2
1537919099268271,-1,-1,-2,-1,-2,-2,0,0
1537919099269269,-2,0,-1,-1,-3,0,0,-2
1537919099269269,-1,0,-1,0,0,-1,-1,-1
1537919099291210,-1,-2,-1,0,-1,1,-1,0
1537919099291210,1,0,-1,0,-1,1,-1,1
1537919099291210,-1,-1,-1,0,0,-1,0,-3
1537919099291210,0,-1,0,0,-1,0,-1,1
1537919099306170,-4,0,0,2,-1,0,0,-1
1537919099306170,0,0,0,1,0,-2,-3,3
1537919099307168,-1,-1,-2,-1,-2,0,0,-2
1537919099307168,-1,-1,-1,-2,0,-2,-2,0
1537919099329110,-2,-3,-2,-3,0,-1,-2,-2
1537919099329110,1,1,0,-2,1,1,-1,2
1537919099329110,0,-2,0,-2,0,-2,-1,-2
1537919099329110,-1,-2,-1,-2,-1,-3,-1,-3
1537919099352048,1,-3,-2,0,0,-1,-1,2
1537919099352048,0,-2,-1,0,3,2,1,1
1537919099352048,-2,0,0,1,2,2,1,0
1537919099352048,0,2,1,1,1,1,0,1
1537919099366011,3,3,3,1,2,-2,0,-1
1537919099366011,1,1,1,1,-1,-2,0,-1
1537919099367009,1,-3,1,0,0,0,-2,1
1537919099367009,1,-2,1,0,1,-1,-1,-2
1537919099388950,-2,0,1,-1,-1,0,0,0
1537919099388950,2,1,-1,-1,1,1,-3,0
1537919099388950,0,1,-1,-1,0,0,1,1
1537919099388950,-1,-2,0,0,-2,-2,-2,0
1537919099411890,0,-1,0,0,0,2,0,0
1537919099411890,-1,-2,0,-1,0,1,0,-3
1537919099412886,0,-1,-1,0,-1,-1,-2,0
1537919099412886,-1,0,-1,-2,-3,-3,0,-2
1537919099425851,1,-2,-2,-3,-3,-2,0,1
1537919099425851,-3,-4,-2,-2,-4,-3,-3,-1
1537919099426848,-1,0,-2,-1,-2,-2,-1,2
1537919099426848,-2,-3,0,1,0,0,-3,-1
1537919099448789,-1,-1,-1,-1,0,-1,-1,-1
1537919099448789,-3,-1,-2,1,-1,-2,1,0
1537919099448789,-2,-3,-2,0,0,-2,-2,-4
1537919099448789,-2,-1,-3,-1,-2,-1,0,-1
1537919099471728,-1,0,-2,0,-2,0,-3,0
1537919099471728,-2,0,-1,-1,0,-2,-1,-2
1537919099472725,-1,-1,0,0,-2,-1,0,-1
1537919099472725,-3,-1,-2,-1,-2,-1,0,-1
1537919099485690,-1,-2,-2,-5,-4,-1,-1,-1
1537919099485690,1,-1,1,2,2,0,-1,1
1537919099493669,-2,-1,1,-3,-3,1,2,0
1537919099493669,1,0,-1,1,-1,-2,-2,1
1537919099508629,0,0,0,-1,-1,0,-1,-2
1537919099508629,-1,-2,-2,-3,0,1,0,0
1537919099509627,-3,-1,1,5,3,0,-2,-2
1537919099509627,-2,-1,-1,-4,-2,-1,-2,-2
1537919099530571,-1,-1,-3,-3,-6,-5,-5,-1
1537919099530571,-1,-1,1,2,7,9,1,-1
1537919099531569,-1,1,1,3,2,-1,0,-2
1537919099531569,-5,0,1,8,46,42,-1,-1
1537919099545531,3,1,6,11,-4,-64,-8,-9
1537919099545531,-3,-1,-4,4,23,45,21,19
1537919099553509,-8,-8,-9,-19,-25,-68,-32,-40
1537919099553509,-3,5,7,4,22,36,38,19
1537919099568469,2,-6,-8,-20,-45,116,-3,19
1537919099568469,-7,1,5,24,90,-62,5,84
1537919099569466,38,6,4,11,-30,-38,-3,-18
1537919099569466,-18,-16,-23,-40,-22,57,-33,-16
1537919099591408,-11,7,15,30,101,60,-22,-25
1537919099591408,14,1,-7,-39,-115,-114,28,11
1537919099591408,-34,-19,-24,-31,55,-74,5,-34
1537919099591408,18,6,0,-10,-13,73,-25,39
1537919099605371,-3,-8,-12,-37,-77,-128,-22,-58
1537919099605371,-25,-13,3,19,76,34,-33,-39
1537919099613349,10,25,23,30,-87,117,50,3
1537919099613349,18,3,7,35,35,-105,-17,4
1537919099628309,3,9,21,85,78,3,25,23
1537919099628309,5,-14,-33,-89,-125,-46,-15,3
1537919099629307,-6,-16,13,63,127,73,-26,6
1537919099629307,23,12,8,-32,-106,-128,19,25
1537919099651248,2,4,-3,3,56,59,25,11
1537919099651248,0,5,13,36,110,41,-24,-37
1537919099651248,3,-6,-22,-53,-75,-23,34,63
1537919099651248,-15,-9,-14,-24,41,55,-42,-51
1537919099665210,2,-4,-5,-18,-26,57,3,22
1537919099665210,7,4,-3,-8,-106,-113,-1,0
1537919099673189,-17,7,18,44,109,83,6,-16
1537919099673189,3,-2,0,13,-62,68,18,-13
1537919099688149,10,3,-11,-25,-17,-62,14,79
1537919099688149,-5,4,9,27,109,89,6,-2
1537919099689147,15,3,1,6,42,78,-4,7
1537919099689147,5,6,12,42,81,-35,21,-8
1537919099712085,-15,-10,-13,-28,-33,-52,-35,-41
1537919099712085,1,-2,-4,-20,-67,-15,-3,-12
1537919099712085,0,-7,-17,-35,-82,-13,-2,19
1537919099712085,-17,-6,-1,-4,91,87,-16,-11
1537919099725051,9,-1,3,-14,-20,-54,40,7
1537919099725051,-13,4,12,37,2,-38,6,-41
1537919099733029,-1,2,3,6,69,-94,-6,-12
1537919099733029,-4,-3,-9,-6,-64,54,14,-17
1537919099749984,-10,0,4,17,102,-85,-6,-20
1537919099749984,0,-13,-28,-87,-124,35,19,23
1537919099750981,2,-2,-4,-10,21,44,-40,20
1537919099750981,2,3,4,4,-100,6,52,42
1537919099771925,-2,6,12,44,74,56,-9,-75
1537919099771925,1,4,8,44,86,86,-3,1
1537919099771925,-8,-8,-23,-70,-128,-119,-19,1
1537919099771925,8,3,8,28,127,9,69,57
1537919099784891,-4,-3,-1,0,-24,-4,-2,-6
1537919099784891,4,-1,-2,1,7,-6,-4,7
1537919099793867,0,6,16,60,103,60,-17,-33
1537919099793867,-14,-5,-8,-28,-15,-77,-20,-27
1537919099808827,-6,-8,-13,-39,-27,83,0,-6
1537919099808827,-1,-1,2,-4,-7,89,1,-4
1537919099808827,-4,0,3,0,-85,40,24,3
1537919099808827,6,3,2,15,-2,-16,-19,0
1537919099831765,3,1,6,22,31,103,-5,17
1537919099831765,7,4,2,8,36,5,-19,-5
1537919099832763,-1,-3,-1,4,20,5,5,-12
1537919099832763,-1,-5,-7,-20,-43,61,-27,30
1537919099853707,2,-3,-6,-24,-43,-10,0,34
1537919099853707,4,8,19,60,117,63,1,-4
1537919099854704,1,-4,-11,-32,-105,25,4,23
1537919099854704,-13,-2,0,2,57,30,1,-41
1537919099868666,-4,-3,-1,0,-43,-57,-3,14
1537919099868666,8,0,2,4,10,97,-8,-22
1537919099869664,0,0,0,-8,16,55,-13,7
1537919099869664,-1,-1,4,25,76,32,-27,-5
1537919099891605,-6,-6,-8,-14,-53,-7,-15,-59
1537919099891605,-11,-4,-9,-21,-90,-65,4,-6
1537919099892603,-3,3,5,22,80,-76,-23,-10
1537919099892603,-4,-6,-8,-30,-116,10,8,7
1537919099914545,-5,-1,-2,-16,16,-35,8,-7
1537919099914545,3,0,-1,-5,-39,-37,-21,11
1537919099914545,-4,1,5,21,22,-11,-3,-7
1537919099914545,15,1,-2,2,53,-30,-16,8
1537919099928509,9,-3,-10,-13,-13,-23,-5,19
1537919099928509,-6,-2,-2,-4,-17,3,-4,-9
1537919099929506,5,0,-2,-16,-34,-23,-7,2
1537919099929506,-12,-2,4,13,8,-53,4,-29
1537919099951447,5,2,0,-3,-27,-17,-12,9
1537919099951447,-7,-4,-1,2,31,96,-12,-34
1537919099952445,3,1,-2,-10,-31,-39,31,60
1537919099952445,3,-3,-2,-11,-26,36,-18,-12
1537919099974385,-5,-3,-4,-7,-56,17,-3,1
1537919099974385,-2,-1,-4,-12,-5,-53,0,2
1537919099975383,5,2,0,3,34,19,37,-5
1537919099975383,-14,0,4,17,-7,-51,-13,-36
1537919099988348,12,1,2,9,9,51,9,44
1537919099988348,-1,0,-3,-7,6,-47,9,-34
1537919099989345,-1,0,-3,-8,-8,19,-5,39
1537919099989345,-2,0,0,3,6,-51,5,7
1537919100011286,-6,3,8,22,25,1,-1,-21
1537919100011286,1,2,1,14,-46,-78,8,26
1537919100012283,-8,-6,-8,-28,1,-61,-13,-34
1537919100012283,-9,-5,-6,-20,-58,-35,2,-16
1537919100034224,-1,0,-1,-1,18,48,-1,5
1537919100034224,1,0,5,13,46,25,1,10
1537919100035222,1,-2,0,4,-17,5,-14,-11
1537919100035222,4,1,-2,4,6,-9,10,18
1537919100048187,-3,-2,2,1,6,33,0,-6
1537919100048187,0,1,2,8,38,-4,-3,9
1537919100049184,1,0,-2,-2,6,-9,-13,-12
1537919100049184,1,-1,-2,-6,-8,45,17,-11
1537919100072122,-4,0,-1,0,-1,-38,-4,2
1537919100072122,4,-2,-1,-5,-1,-1,2,7
1537919100072122,-7,0,0,4,12,1,-3,-14
1537919100072122,1,-1,-1,-3,-20,2,-10,1
1537919100094064,-1,-3,1,4,9,8,2,0
1537919100094064,-2,0,1,3,20,24,11,2
1537919100095062,-1,-3,-2,-6,-20,3,12,10
1537919100095062,0,0,2,4,4,-10,-15,-21
1537919100108027,-2,-1,-4,-4,-2,45,9,-18
1537919100108027,1,-2,-3,-9,-10,4,3,36
1537919100109024,-3,0,2,8,12,13,0,-7
1537919100109024,1,-1,-2,-1,-2,-9,-3,1
1537919100131963,1,1,1,5,10,-20,-6,6
1537919100131963,-1,-1,-2,-3,-8,12,12,-14
1537919100131963,2,-1,0,0,1,20,-1,4
1537919100131963,-3,-2,-2,-1,-7,-11,0,6
1537919100153905,-2,0,1,0,5,-1,-2,-4
1537919100153905,-1,-3,-3,-5,-9,-17,-2,-2
1537919100154902,-2,-2,1,0,-5,-3,0,-9
1537919100154902,-1,2,-1,-2,2,-18,-4,-1
1537919100168864,2,-2,-2,0,0,-16,0,3
1537919100168864,-3,0,-2,-5,-9,-6,-12,2
1537919100168864,-11,-4,0,-1,3,5,10,-10
1537919100168864,21,18,-1,-1,-2,6,1,9
1537919100191804,-19,-20,-3,-1,0,-8,-14,-1
1537919100191804,1,-9,-1,-6,-7,-2,-12,-11
1537919100192801,5,22,6,3,2,12,19,0
