timestamp,emg1,emg2,emg3,emg4,emg5,emg6,emg7,emg8
1537912737028116,-1,-3,-8,-2,-1,-2,0,0
1537912737028116,1,1,4,0,0,-1,-2,0
1537912737029114,-1,0,-1,2,0,1,2,1
1537912737029114,-3,-2,7,0,2,0,-2,-2
1537912737030111,-1,-5,-9,4,0,-2,1,0
1537912737030111,2,-3,-14,-12,-7,0,0,3
1537912737033104,-2,-2,5,-4,1,1,1,-1
1537912737033104,0,11,26,6,0,-1,-1,-3
1537912737041082,-2,5,-14,-1,1,-2,-3,-3
1537912737041082,-3,-24,-24,-5,0,-2,0,-1
1537912737050058,-4,-8,-13,-5,-3,-1,-1,0
1537912737050058,0,-5,2,-1,0,0,1,0
1537912737056042,-2,9,22,4,2,-1,-2,-3
1537912737056042,-5,11,21,9,1,-1,-2,-3
1537912737070004,5,1,-16,-7,-3,-1,-4,0
1537912737070004,4,-2,-5,-6,-1,0,4,3
1537912737080975,-1,0,-4,-3,-4,-2,0,-1
1537912737080975,2,8,0,2,3,1,2,0
1537912737084964,-2,-2,8,4,2,-1,-2,0
1537912737084964,-2,0,-5,1,-1,-1,-2,-2
1537912737100921,0,-6,-3,-3,-3,0,-2,1
1537912737100921,-3,-5,-3,-1,-1,-1,-2,-3
1537912737108900,-2,6,7,0,0,-1,-1,-1
1537912737108900,-2,-3,-10,2,-1,-1,-2,-1
1537912737148794,-1,-3,-5,0,0,-5,-2,-1
1537912737148794,-1,-1,-6,-3,-1,1,0,-1
1537912737149791,0,-1,1,-2,-5,-2,-1,0
1537912737149791,-1,-1,-2,-1,5,-4,-3,-3
1537912737152783,0,3,4,2,1,-2,-2,0
1537912737152783,-1,-3,1,-1,-3,4,3,-1
1537912737153780,0,0,-1,3,-3,-8,-3,-3
1537912737153780,-3,-3,-3,-4,-2,9,5,0
1537912737160762,1,0,0,-3,-5,-3,-2,1
1537912737160762,0,0,-1,-2,1,-6,-4,-1
1537912737166806,-1,1,1,2,0,2,-2,0
1537912737166806,0,0,0,0,-5,-7,-1,0
1537912737175722,0,-1,-3,-1,3,7,1,-1
1537912737175722,1,-1,0,-1,-6,-3,2,2
1537912737189686,-1,-2,0,-2,-1,-4,-1,-2
1537912737189686,0,-1,-1,2,5,4,1,0
1537912737198663,0,2,3,3,4,-7,-6,-1
1537912737198663,-1,-2,-3,-4,-2,9,5,0
1537912737212624,0,-1,-5,-1,-6,-5,-2,0
1537912737212624,0,-2,-1,-2,-3,-6,-2,-2
1537912737221601,-1,-2,1,-1,0,2,1,1
1537912737221601,0,-1,2,1,1,-5,-4,-2
1537912737227584,-1,-1,0,-1,2,2,0,-2
1537912737227584,0,-2,-2,-2,-2,1,-1,0
1537912737236561,0,-1,0,-1,-4,-3,1,0
1537912737236561,0,2,-2,2,4,-2,-2,-2
1537912737249525,0,-1,-3,-3,0,0,1,0
1537912737249525,-1,0,2,0,-2,-3,-3,-2
1537912737258501,-2,0,3,0,-1,3,2,-3
1537912737258501,-3,-3,-1,1,1,1,-2,-1
1537912737272463,3,2,2,-2,3,-1,-1,2
1537912737272463,-2,-2,-5,-1,-2,0,1,2
1537912737281439,-6,-5,-7,-2,0,1,-1,-4
1537912737281439,1,-1,-1,-1,0,2,0,-2
1537912737287423,3,7,7,-2,1,8,3,3
1537912737287423,-6,3,26,3,6,-2,-3,-4
1537912737296399,1,-1,-32,-1,-4,-7,-3,-2
1537912737296399,6,-1,-14,-6,1,0,5,5
1537912737309364,-4,-1,-2,-2,-5,-2,0,1
1537912737309364,2,-10,17,5,-2,-5,-1,1
1537912737318340,-2,1,2,4,8,13,7,0
1537912737318340,-6,-2,0,0,-7,-6,-7,-3
1537912737332303,-5,-9,-9,-2,9,-1,-1,-7
1537912737332303,0,0,-14,-4,1,-5,-2,2
1537912737341279,-1,6,17,7,0,-10,-9,-7
1537912737341279,4,8,10,-1,-12,5,17,15
1537912737347263,5,3,15,12,2,6,9,4
1537912737347263,-4,7,-5,1,0,0,-5,-5
1537912737362223,-2,-13,-18,-19,2,-6,-10,1
1537912737362223,0,11,3,1,11,0,5,3
1537912737370201,9,-1,-20,-3,-14,-13,-15,-1
1537912737370201,12,-3,6,-5,4,13,15,15
1537912737378180,1,-7,-4,-13,-1,24,6,3
1537912737378180,11,-5,-48,17,-5,-19,-3,-2
1537912737392143,-12,-6,34,-1,9,12,14,-4
1537912737392143,-5,4,16,13,-8,-7,-3,-9
1537912737401119,-5,4,-16,4,-5,-12,-4,-7
1537912737401119,-16,-10,10,-5,33,18,-5,-12
1537912737407103,-2,-4,-23,-2,-38,-13,-1,1
1537912737407103,1,7,17,0,9,-29,-20,-1
1537912737422063,-5,0,24,10,32,42,20,-5
1537912737422063,-5,-5,-4,-13,-53,-27,-9,2
1537912737430041,12,8,6,1,21,13,-7,4
1537912737430041,6,3,-6,12,-1,2,13,-3
1537912737439017,-21,-24,-12,-26,-39,-50,-42,-17
1537912737439017,23,19,11,6,34,21,-2,12
1537912737451983,-2,8,-20,-23,11,8,6,3
1537912737451983,1,-29,3,0,-34,-7,-7,-8
1537912737460959,7,23,-17,-10,7,-2,16,0
1537912737460959,-16,-8,22,27,31,21,3,-9
1537912737466943,-4,-6,6,0,-22,-17,1,-2
1537912737466943,-8,3,3,18,26,24,25,-6
1537912737481903,-28,-12,58,-33,-83,-62,-40,-4
1537912737481903,24,-9,-57,27,14,22,5,20
1537912737489881,25,1,-49,-18,-40,-7,3,18
1537912737489881,-3,1,-10,-18,-8,-1,0,-14
1537912737498857,-8,-2,19,7,35,17,-1,-13
1537912737498857,-1,23,49,-15,-33,-34,-8,6
1537912737511823,-11,-8,5,10,10,13,5,-6
1537912737511823,6,4,-21,2,-26,28,9,-1
1537912737520799,0,0,-5,11,79,-4,-2,0
1537912737520799,-12,-13,8,-17,4,-28,-4,-11
1537912737526783,6,1,-18,5,4,3,11,6
1537912737526783,-4,15,14,5,-1,18,20,5
1537912737541743,4,-11,-6,-6,-24,-69,-59,-6
1537912737541743,11,19,3,-3,32,51,14,2
1537912737549721,-7,-8,14,1,-11,-23,-14,-8
1537912737549721,-4,-10,-5,-8,0,10,-2,0
1537912737558698,9,2,-33,32,32,46,39,6
1537912737558698,-19,-16,10,-28,5,4,4,-5
1537912737572660,-9,-28,-42,-21,-12,27,-11,-11
1537912737572660,5,13,-15,8,29,16,-3,1
1537912737581636,9,11,16,5,-37,-49,-4,13
1537912737581636,2,1,28,5,-7,20,9,-3
1537912737587620,-9,14,25,5,17,-23,-4,-1
1537912737587620,-3,-14,-17,-11,14,-18,-14,3
1537912737602580,4,-2,-6,2,3,22,2,-3
1537912737602580,-1,7,1,4,-9,-14,-7,-5
1537912737609561,-5,-4,2,-13,-64,-34,-2,-4
1537912737609561,1,0,6,-6,-11,-10,-9,11
1537912737618538,7,3,-14,-5,-2,28,19,7
1537912737618538,1,-5,-11,-5,-11,1,-1,-5
1537912737632500,-5,7,9,-2,29,4,-2,-6
1537912737632500,-4,-11,11,7,-1,-19,-10,-1
1537912737649455,5,13,-3,13,-7,17,19,7
1537912737649455,-12,-25,-24,-7,4,-7,-8,-11
1537912737650453,1,-4,9,4,19,11,8,7
1537912737650453,-5,2,-2,-15,-11,-9,-11,-3
1537912737662420,-2,-3,6,0,-3,5,-5,-16
1537912737662420,-2,0,-2,1,-14,-13,-12,-4
1537912737669402,5,9,14,7,19,13,5,3
1537912737669402,-1,5,-6,-4,1,-3,2,1
1537912737678377,13,-1,-4,6,0,19,21,23
1537912737678377,-2,1,-3,-7,3,-8,-14,-10
1537912737692340,-5,2,7,10,7,9,1,-7
1537912737692340,-2,-6,-10,-8,-9,-8,-7,-2
1537912737701316,1,-2,1,-1,6,10,2,-1
1537912737701316,-8,-8,-4,-5,-14,-5,0,-4
1537912737707300,-4,-3,1,3,3,-12,-13,-3
1537912737707300,5,2,-6,0,13,5,5,4
1537912737722260,-1,-1,4,-6,-33,-4,0,1
1537912737722260,0,1,0,0,-7,-2,4,2
1537912737729241,0,-2,2,5,8,-1,-3,-4
1537912737729241,-2,-1,-6,-8,-8,-3,-5,-3
1537912737738218,1,-1,2,-3,-1,2,4,-2
1537912737738218,0,1,1,4,-3,-8,-1,-1
1537912737752180,-2,0,1,1,2,7,-1,-3
1537912737752180,4,1,-2,-1,1,-9,-5,1
1537912737761156,-2,-2,0,0,3,4,2,-1
1537912737761156,0,-1,-2,0,-1,-1,-2,1
1537912737767140,-3,-2,0,0,10,2,-3,-1
1537912737767140,-2,0,-2,0,-4,-4,-2,-1
1537912737782100,0,-3,-2,-1,-1,2,1,0
1537912737782100,0,1,0,0,-5,-3,-1,-1
1537912737790079,0,0,2,0,0,-1,-4,-2
1537912737790079,-2,-3,-2,-2,-1,0,0,0
1537912737799055,1,0,-1,-2,3,7,0,-1
1537912737799055,-1,-2,2,0,1,-5,0,0
1537912737812020,2,1,0,1,1,0,1,2
1537912737812020,-4,-1,-3,-2,-3,-2,-3,-5
1537912737820996,0,-1,1,0,6,4,2,-2
1537912737820996,1,0,0,0,1,1,1,1
1537912737826980,-1,-1,-1,0,-8,-3,-3,-2
1537912737826980,-1,1,0,-1,-1,1,1,2
1537912737841941,-1,-1,0,-1,-2,-4,-3,0
1537912737841941,0,0,-1,0,0,-5,-4,-2
1537912737858895,0,-3,0,0,1,1,1,0
1537912737858895,0,0,0,-2,1,1,6,4
1537912737859892,1,-2,-2,0,3,-2,-3,1
1537912737859892,-3,-1,-1,-1,-7,-10,-8,-5
1537912737871860,1,-1,-1,1,4,4,7,2
1537912737871860,-2,1,0,0,1,-1,-8,-7
1537912737880836,-5,-2,-1,-3,-3,-2,1,-5
1537912737880836,1,2,1,2,0,-1,2,3
1537912737886821,0,0,-2,-1,1,1,-2,0
1537912737886821,1,-1,-1,-1,-2,-2,3,2
1537912737910756,1,0,0,1,1,-4,0,1
1537912737910756,0,-1,0,1,4,5,-1,3
1537912737910756,-2,-2,-3,-4,-9,-7,-1,0
1537912737910756,-1,-1,-3,0,-1,-2,1,-2
1537912737918735,-1,0,-1,-1,-4,-5,-7,-3
1537912737918735,0,-1,-1,0,-2,-2,2,0
1537912737932697,-1,2,1,1,5,2,-3,-1
1537912737932697,-1,-3,-3,-1,-1,-3,-5,-3
1537912737940676,-2,-1,-1,-1,-9,-1,4,1
1537912737940676,-2,-2,-2,-1,-1,0,-2,-1
1537912737955637,1,-1,1,-1,3,4,0,0
1537912737955637,-2,-1,1,1,1,-3,-3,0
1537912737962618,2,0,1,-1,0,5,3,5
1537912737962618,-2,0,1,-1,1,-1,-3,-4
1537912737969599,-3,-1,-3,-2,1,-1,-2,-5
1537912737969599,1,0,-1,0,1,1,2,2
1537912737978576,1,-1,-1,1,1,-2,-1,0
1537912737978576,-1,-1,-3,-2,1,5,2,2
1537912737992539,-5,-4,-3,-5,0,9,1,-3
1537912737992539,-2,-1,-3,-3,-4,-3,-3,-2
1537912738001516,-1,1,-1,0,2,0,-3,-2
1537912738001516,-2,-3,-2,0,-3,-4,-1,-1
1537912738015477,0,1,0,1,0,-1,-3,-2
1537912738015477,0,-1,-1,-1,-7,-9,-1,0
1537912738022459,-1,-1,-1,-3,-2,7,2,0
1537912738022459,1,1,2,2,17,7,0,0
1537912738029439,0,0,0,2,-2,-4,-1,-1
1537912738029439,2,2,0,0,1,4,4,3
1537912738038416,2,-2,-1,0,-4,-10,-1,0
1537912738038416,-6,-5,-5,-9,-3,13,1,-6
1537912738053376,1,-1,1,0,-1,-8,-5,-2
1537912738053376,-2,-1,-1,-1,-3,1,-2,-6
1537912738059360,-3,0,-1,-2,2,1,0,0
1537912738059360,0,-1,-2,0,-3,-6,1,1
1537912738075316,-1,-1,1,2,2,0,-1,1
1537912738075316,-2,-4,-4,-4,-7,-9,-2,-3
1537912738082298,0,-1,-1,1,2,4,-1,0
1537912738082298,3,1,1,1,-8,-14,-4,0
1537912738089279,2,1,1,3,12,2,0,-1
1537912738089279,-1,0,0,1,4,2,0,-2
1537912738098255,-1,0,-1,0,-7,-5,-3,-2
1537912738098255,0,0,-3,-3,1,10,6,0
1537912738112218,-3,0,0,1,-1,-5,-5,-1
1537912738112218,1,0,-1,-1,0,-3,0,3
1537912738121194,-4,-3,-3,-6,-2,4,4,-1
1537912738121194,-1,-1,1,0,-5,-7,-9,-5
1537912738136154,-1,-2,-4,-3,-2,0,3,-2
1537912738136154,-2,-1,0,-1,1,3,-4,-5
1537912738142138,2,-2,-2,-1,-3,-10,-1,1
1537912738142138,1,1,0,2,-1,2,5,2
1537912738158095,-3,-1,-2,-1,-2,-2,-3,-1
1537912738158095,-1,-1,-1,-2,-2,-2,-1,1
1537912738160090,1,-1,0,1,11,-3,0,-3
1537912738160090,0,-1,0,-3,-5,1,2,2
1537912738172058,3,-2,1,2,-1,-6,-5,-2
1537912738172058,1,1,2,0,-10,-6,-1,2
1537912738181034,-1,-1,0,0,3,6,2,1
1537912738181034,0,0,0,0,-4,-8,-1,-1
1537912738194996,-5,-3,-2,-6,-1,12,2,-3
1537912738194996,-1,-2,-2,-1,-1,-3,-2,-2
1537912738201978,-2,-1,-1,2,0,1,-1,-2
1537912738201978,-1,0,-1,0,-1,-4,-3,1
1537912738218933,-1,1,-1,-1,-5,-2,4,4
1537912738218933,-1,-2,0,-1,5,8,-1,-3
1537912738219930,-1,0,-3,-2,-3,-5,-1,-5
1537912738219930,-2,-2,-2,-2,-2,0,0,-1
1537912738231898,1,0,-1,0,-5,-7,-6,-4
1537912738231898,0,-2,-2,-1,3,6,1,2
1537912738240874,0,0,1,1,2,4,-1,0
1537912738240874,-1,0,-1,1,3,-3,-2,-2
1537912738255834,-2,-3,-4,-4,5,6,2,0
1537912738255834,0,-1,-1,-1,1,3,0,0
1537912738261819,0,1,1,1,-8,-4,-5,-2
1537912738261819,1,0,1,1,-1,-6,-2,1
1537912738277776,0,2,2,2,2,5,3,2
1537912738277776,-2,-4,-1,-3,-2,0,4,0
1537912738284757,-2,-1,-1,-2,1,7,-3,-1
1537912738284757,0,-1,-1,-1,-6,-2,-1,-3
1537912738291738,0,-1,0,-3,-7,-8,-3,-2
1537912738291738,-2,1,0,3,1,-2,0,0
1537912738300714,0,-1,-1,-3,-3,-4,2,1
1537912738300714,-2,-1,-1,0,1,0,0,-1
1537912738315674,1,-1,-1,2,-1,-1,1,-1
1537912738315674,-1,-1,-1,0,2,0,-3,-3
1537912738322655,0,-3,-2,-2,-5,-3,-1,-2
1537912738322655,-1,2,0,-2,-2,3,-1,0
1537912738337615,1,1,2,-2,-2,-5,-2,1
1537912738337615,-1,0,0,-1,3,3,2,-1
1537912738344597,0,-1,-2,-1,-6,-1,0,1
1537912738344597,-2,-4,-3,-3,0,0,-3,-1
1537912738352575,-2,0,5,1,-3,0,-1,2
1537912738352575,-3,-2,-6,1,2,-1,-1,-3
1537912738361552,2,-1,1,0,-1,0,0,1
1537912738361552,2,2,3,-3,0,0,2,2
1537912738375514,-10,-8,-16,-13,8,2,-3,-6
1537912738375514,0,-4,-5,2,-6,0,-4,-4
1537912738382495,10,13,19,6,-15,-10,3,6
1537912738382495,-1,-3,-7,0,4,3,-2,0
1537912738397455,1,0,5,6,-7,-12,-3,-1
1537912738397455,-7,-3,-3,-8,7,12,0,-1
1537912738404436,-3,-6,-8,-7,3,-5,-8,-4
1537912738404436,3,4,0,10,-6,-7,-2,1
1537912738412415,7,6,1,5,12,10,9,5
1537912738412415,0,-37,4,2,3,-8,-3,1
1537912738427375,-4,31,-2,-1,-9,3,3,-4
1537912738427375,4,6,13,11,9,9,4,2
1537912738435354,-9,-22,-28,-22,-24,-27,-16,-10
1537912738435354,6,3,-6,-10,1,3,4,4
1537912738442335,-3,-10,4,0,14,24,3,0
1537912738442335,-9,-2,9,2,-61,-64,-20,-15
1537912738458293,1,11,8,9,8,17,7,2
1537912738458293,-3,5,-1,-2,-2,-8,-6,-5
1537912738464277,-1,-6,0,7,11,-9,-5,-1
1537912738464277,-3,-1,-11,-8,20,38,12,-1
1537912738481231,6,1,13,-3,3,25,8,5
1537912738481231,-3,1,-17,-13,6,16,15,4
1537912738482229,-3,-5,-13,-6,-53,-48,-26,-8
1537912738482229,0,-4,3,8,20,45,16,-2
1537912738495194,2,2,6,0,0,-25,-17,-3
1537912738495194,0,9,-14,-3,17,16,2,0
1537912738502175,-9,-8,15,-2,-2,-1,-2,-4
1537912738502175,9,1,-19,6,-8,-3,2,7
1537912738518133,2,-3,-7,1,-3,-5,7,5
1537912738518133,-5,-6,1,-3,-19,-4,-1,0
1537912738525114,-4,14,-2,-15,23,18,6,0
1537912738525114,-7,0,2,-16,-9,-16,-17,-10
1537912738541072,3,12,12,16,-1,7,0,-1
1537912738541072,6,4,14,13,-12,-35,-7,3
1537912738542069,-3,-18,-5,-1,15,33,11,0
1537912738542069,-6,-7,4,-8,2,4,1,2
1537912738555034,4,8,-10,9,20,6,2,2
1537912738555034,-7,-7,-2,8,-15,10,-2,-3
1537912738562015,-5,-11,-10,-13,15,-19,-5,-6
1537912738562015,0,1,-2,-15,-15,-3,-7,-4
1537912738577973,-1,-5,-6,-8,-7,-2,0,-3
1537912738577973,5,8,7,3,-35,-29,3,8
1537912738584954,1,-7,-10,7,62,24,9,7
1537912738584954,-7,4,9,-8,-34,-12,-18,-15
1537912738600911,-10,-11,-3,8,14,8,-6,-15
1537912738600911,3,8,11,9,7,-22,-4,-6
1537912738602906,1,-3,-13,-8,-5,51,37,19
1537912738602906,4,-11,-21,-19,19,-50,-28,8
1537912738614874,8,8,13,-3,-18,-5,-18,-8
1537912738614874,2,7,27,12,-36,-3,3,0
1537912738621855,-13,-11,25,17,0,-18,-2,-7
1537912738621855,-2,1,-45,6,29,37,20,2
1537912738637813,-7,-9,-34,-26,18,-6,-10,0
1537912738637813,-4,-17,-20,-4,-23,10,5,5
1537912738644794,15,16,21,20,47,-2,7,10
1537912738644794,-9,-10,25,11,4,13,4,-9
1537912738660751,4,12,4,-25,-53,-73,-23,6
1537912738660751,5,12,8,7,79,31,3,-10
1537912738662747,-5,-16,-11,2,-85,-50,-10,-4
1537912738662747,2,3,-1,-6,-8,-24,-17,1
1537912738675712,4,-6,-2,1,13,32,12,-3
1537912738675712,-9,8,11,-14,-9,-9,-6,-4
1537912738689675,2,5,-3,15,-34,-14,-4,-10
1537912738689675,0,-11,-12,9,39,5,8,6
1537912738697653,3,-3,12,-11,-51,3,12,8
1537912738697653,1,-2,0,-5,-22,-28,-11,2
1537912738704634,6,12,-9,7,33,42,0,3
1537912738704634,1,-13,21,7,-26,-45,-8,3
1537912738720592,-11,12,5,20,21,-4,-4,-10
1537912738720592,0,8,-2,-1,41,29,0,-8
1537912738722587,-2,-18,-33,-16,-11,21,10,5
1537912738722587,-7,-17,-39,-18,-63,-67,-19,-5
1537912738735552,-6,-19,2,-6,36,37,7,2
1537912738735552,21,14,12,-8,-1,23,7,19
1537912738742533,1,12,19,1,30,7,-3,-3
1537912738742533,5,18,22,17,27,40,12,8
1537912738757493,-8,-2,2,9,21,3,-7,-16
1537912738757493,-9,-4,-3,7,-21,-5,1,-5
1537912738764475,-2,-15,-4,-14,2,15,-6,-1
1537912738764475,-8,9,-12,-10,49,76,35,-4
1537912738781430,2,-7,-8,2,-43,-67,-8,3
1537912738781430,10,14,13,5,33,33,17,8
1537912738782427,-5,-13,-4,-15,-28,-84,-34,-10
1537912738782427,-14,-18,-15,8,-11,16,-5,-5
1537912738795391,8,6,2,-9,-4,9,-2,2
1537912738795391,1,4,9,-9,-5,2,0,0
1537912738802373,0,5,-6,13,-9,-7,-7,-9
1537912738802373,7,26,18,20,54,28,28,16
1537912738818330,-8,-14,-14,-2,-42,-24,-37,-14
1537912738818330,-6,-4,-4,24,3,-20,-3,-9
1537912738824314,-9,-3,11,-14,-8,-7,-15,-8
1537912738824314,-2,-9,6,-27,-19,-1,1,-9
1537912738841269,17,2,-35,7,24,33,30,25
1537912738841269,-3,-18,-22,-15,-15,-41,-2,1
1537912738842266,-6,2,-3,-3,34,-21,-11,-5
1537912738842266,4,2,15,5,-44,-4,-9,-1
1537912738855232,-7,9,18,-2,4,38,16,-9
1537912738855232,-16,-10,11,11,22,24,-22,-13
1537912738862213,27,13,-25,-1,-2,-29,12,21
1537912738862213,1,5,38,-20,-23,-10,-1,4
1537912738878170,-8,-3,-1,28,-6,-18,-9,-12
1537912738878170,11,0,-51,6,39,42,17,6
1537912738885151,-15,-16,14,3,27,7,21,14
1537912738885151,-6,-5,-7,-8,18,-39,-72,-42
1537912738901109,-10,-5,13,-13,23,27,7,-6
1537912738901109,-5,9,0,-1,-62,-39,-9,-7
1537912738902106,19,14,17,31,20,20,3,22
1537912738902106,1,-3,1,12,-19,30,36,10
1537912738915071,-15,2,16,-27,-59,-58,-37,-8
1537912738915071,-2,7,-18,-12,1,-4,-12,-9
1537912738922053,8,9,-8,-32,-14,32,6,4
1537912738922053,10,-7,-1,24,52,70,35,21
1537912738938010,-8,-22,-48,-24,-50,-52,2,-8
1537912738938010,-6,-8,8,-1,55,37,-22,-2
1537912738944992,-3,16,20,11,-41,-12,-6,-12
1537912738944992,5,-3,2,10,8,-10,1,-2
1537912738968928,15,16,28,13,11,1,19,16
1537912738968928,-5,-8,3,14,10,-21,1,6
1537912738969925,-10,-11,-18,-28,-37,-3,-4,-17
1537912738969925,-4,1,-2,20,-1,19,4,-4
1537912738974911,-12,-7,3,-10,-1,-15,-7,-10
1537912738974911,4,-5,-21,-24,-54,-43,-11,7
1537912738983888,-5,-7,1,-3,11,14,-12,-12
1537912738983888,8,1,-18,-10,-13,-22,16,14
1537912738997850,-9,0,5,2,-27,-20,-9,-11
1537912738997850,-5,-5,10,-16,-10,15,-1,-2
1537912739004832,6,0,-6,1,-23,16,17,10
1537912739004832,-8,1,-3,-12,-15,-44,-25,-10
1537912739020789,5,4,0,8,32,34,15,10
1537912739020789,6,3,8,15,1,9,27,16
1537912739022784,-7,-7,-4,1,27,-11,-20,-15
1537912739022784,-4,1,-6,-7,-12,-17,-16,-15
1537912739042730,2,-4,0,9,27,23,4,3
1537912739042730,0,-2,0,-6,-13,-8,4,0
1537912739043728,-7,-2,-2,-1,3,13,10,4
1537912739043728,4,-1,0,-10,9,-6,-2,5
1537912739058688,12,4,1,9,25,31,12,12
1537912739058688,-5,-3,0,-2,10,-19,-5,-8
1537912739064672,-6,-1,4,6,-1,5,2,-4
1537912739064672,-4,-1,-4,-1,-3,-2,-2,-2
1537912739080629,3,0,-4,1,12,15,9,6
1537912739080629,-1,2,3,-4,-8,3,-2,-2
1537912739080629,-5,-4,-1,0,-2,-7,-6,-8
1537912739080629,-2,-1,-6,-2,-3,-4,0,-3
1537912739102570,6,1,1,2,9,11,9,8
1537912739102570,-2,-3,3,-1,0,-5,-4,-3
1537912739103568,1,-1,-3,-3,-3,-3,0,-1
1537912739103568,2,1,-4,0,-1,7,1,2
1537912739118528,-2,-2,4,4,13,4,1,-2
1537912739118528,-3,-1,-1,-2,2,2,-1,-6
1537912739124512,1,1,-3,2,-2,3,1,1
1537912739124512,0,1,0,-4,-4,-7,1,3
1537912739140469,-1,-1,3,3,4,-1,-4,-4
1537912739140469,-1,-6,0,-1,-2,-2,-1,-3
1537912739141467,-1,1,2,0,2,1,2,3
1537912739141467,-1,1,0,-1,4,-1,-2,0
1537912739162410,0,-2,-1,0,-1,-3,-1,0
1537912739162410,0,2,2,0,2,8,-1,-2
1537912739163408,0,-2,1,1,-3,-5,-3,-3
1537912739163408,-2,-3,-14,-1,3,-3,-1,0
1537912739178367,2,-1,-2,-1,0,2,4,3
1537912739178367,-1,-3,-5,-4,-5,-3,-7,-2
1537912739184352,-2,2,3,1,-1,-2,-1,-3
1537912739184352,1,2,7,2,3,-3,0,0
1537912739199312,0,-2,-3,-3,-3,2,0,-1
1537912739199312,1,0,2,1,-2,-1,3,0
1537912739207291,-1,0,-2,1,0,1,-1,-3
1537912739207291,2,1,6,-1,2,3,0,0
1537912739223248,-1,-1,-6,2,1,2,-1,0
1537912739223248,-1,-3,-1,-2,-2,-7,-4,-4
1537912739223248,1,-3,-4,-1,-2,1,1,0
1537912739223248,-2,-1,0,-1,-1,-1,0,1
1537912739238208,-2,0,3,-1,0,1,-3,-2
1537912739238208,-2,-1,1,1,-2,-1,-1,-1
1537912739244192,0,0,-4,0,1,0,-2,1
1537912739244192,-1,-5,-7,-4,-2,1,0,-1
1537912739260149,0,-1,0,-1,-1,-3,-2,-1
1537912739260149,0,0,-1,-1,-1,2,1,-1
1537912739267131,0,-2,-1,0,-1,-3,-1,0
1537912739267131,0,0,3,1,0,-1,0,-1
1537912739283088,-1,-2,0,1,-1,-2,-2,-1
1537912739283088,-1,0,-2,-3,-5,-2,1,0
1537912739283088,-2,2,1,-2,0,2,-1,-2
1537912739283088,-1,-1,0,-2,-2,-3,-2,-2
1537912739299045,0,-1,-3,2,0,-3,-1,0
1537912739299045,-2,-2,-2,-2,0,5,3,-1
1537912739305029,-1,1,-1,0,-3,-9,-3,0
1537912739305029,-3,-2,-2,-1,1,3,-1,-2
1537912739319989,0,1,0,-2,0,-3,-1,-2
1537912739319989,3,1,0,1,2,3,-1,2
1537912739326970,1,-1,-2,0,-2,-5,-5,-3
1537912739326970,-3,0,-1,-2,0,0,3,3
1537912739342928,-2,-1,1,1,0,-2,0,1
1537912739342928,-3,-4,-1,-2,1,-1,-9,-6
1537912739343925,1,1,-2,0,2,-1,-3,-4
1537912739343925,0,-1,1,-1,-5,-5,1,0
1537912739358885,1,1,-1,2,9,-5,-2,3
1537912739358885,2,3,2,3,5,6,8,7
1537912739364869,-5,-4,-1,-1,0,4,-5,-9
1537912739364869,2,-1,0,-1,-7,-16,-3,1
1537912739379830,-2,-2,-1,-2,3,9,2,-4
1537912739379830,1,-2,-1,-2,-5,-11,-3,0
1537912739386811,1,0,0,-1,-2,1,2,1
1537912739386811,1,1,0,1,-1,-4,-3,-3
1537912739402768,0,-1,0,-1,-3,3,3,1
1537912739402768,-3,-2,-1,0,2,-3,-5,-5
1537912739403765,-1,-4,0,-2,-13,-8,0,2
1537912739403765,-3,-1,-2,0,7,11,-1,-4
1537912739418725,-5,-5,-4,-8,-14,-4,2,-3
1537912739418725,-3,-1,-1,-1,2,-2,-3,-1
1537912739424709,-1,-1,1,1,0,-4,3,4
1537912739424709,2,2,3,2,-4,-11,-7,0
1537912739439669,-4,-4,-3,-3,1,12,3,-4
1537912739439669,2,2,0,1,-13,-10,0,-1
1537912739447648,1,-2,-1,-2,1,3,1,2
1537912739447648,-1,-2,-1,-2,-1,-1,-2,-1
1537912739462608,0,0,0,3,2,-1,-3,-2
1537912739462608,0,-3,-3,-1,-5,-5,1,0
1537912739463605,-3,-2,-3,-3,3,7,2,-1
1537912739463605,-3,-2,-2,-1,4,6,0,-4
1537912739477568,8,5,0,-4,-4,-6,-2,4
1537912739477568,-1,-1,0,3,-1,7,1,0
1537912739484549,1,1,1,-1,-1,2,-1,0
1537912739484549,-2,-1,-1,-1,-4,-2,1,-2
1537912739499510,-5,-4,-4,-1,2,-9,-6,-6
1537912739499510,-4,-4,-4,-3,5,4,0,-3
1537912739507488,-2,-3,-8,-5,2,-1,0,-1
1537912739507488,4,0,-2,2,-3,1,2,5
1537912739524443,9,9,18,11,-6,-6,0,6
1537912739524443,-1,-1,0,-3,2,9,4,-1
1537912739525440,-5,-7,-6,0,1,-3,-1,-5
1537912739525440,-5,-5,-10,-7,5,6,0,-6
1537912739538405,0,-3,-5,-2,-7,-8,-5,-1
1537912739538405,3,2,1,-1,3,-3,0,3
1537912739544389,7,14,-1,-8,9,15,7,-1
1537912739544389,-8,-7,7,8,-16,-15,-14,-4
1537912739559349,-10,-10,-3,3,8,4,-1,-4
1537912739559349,1,-5,-20,-20,3,3,7,-1
1537912739567328,2,-2,-4,1,-3,-1,-7,-1
1537912739567328,-8,-4,11,9,4,-4,5,1
1537912739583286,-11,-7,7,5,0,-7,-4,-4
1537912739583286,-3,-3,4,9,3,0,2,1
1537912739583286,11,13,11,17,3,-13,1,6
1537912739583286,5,5,-17,-18,-11,10,6,1
1537912739598245,2,2,-3,-1,0,2,-2,1
1537912739598245,3,6,5,-1,7,5,-4,-5
1537912739604229,-10,-19,-11,-16,-5,-9,-7,-6
1537912739604229,3,5,3,6,-7,-5,-8,-2
1537912739619189,7,6,7,1,-5,-7,10,9
1537912739619189,-9,-12,-15,-10,-10,-48,-21,-11
1537912739627168,5,0,4,0,6,22,14,11
1537912739627168,-1,2,2,5,18,1,-3,1
1537912739643125,-4,-5,-11,-9,-21,18,8,-8
1537912739643125,-1,0,6,5,-5,6,-3,0
1537912739643125,-9,-3,1,0,-21,-30,-9,-3
1537912739643125,0,-4,-4,-16,13,19,8,0
1537912739658085,11,11,1,2,-4,-11,-7,3
1537912739658085,-3,3,17,6,8,27,15,3
1537912739665067,-11,-11,-2,-11,1,2,-8,-12
1537912739665067,6,-12,-19,4,-27,-13,-6,1
1537912739680027,-2,-13,-3,5,16,7,7,6
1537912739680027,-9,-13,-20,1,-9,-4,-3,0
1537912739687008,1,0,8,-10,18,13,3,-2
1537912739687008,1,23,-7,-19,0,13,3,2
1537912739702965,7,20,31,26,-22,-16,-8,0
1537912739702965,-4,-12,0,13,10,-1,6,-7
1537912739703963,1,-2,5,7,-15,-12,3,5
1537912739703963,-5,-3,13,10,12,-10,-12,-10
1537912739718923,-4,-4,-13,-16,43,66,4,-8
1537912739718923,5,8,-2,-22,-59,-36,-11,6
1537912739724907,4,6,0,3,-5,2,2,-2
1537912739724907,3,-5,3,10,55,36,9,3
1537912739739867,-11,-4,-9,-12,-64,-40,-2,-3
1537912739739867,1,-4,-7,-22,24,3,2,7
1537912739746848,6,-1,-20,-8,-15,-2,-7,-1
1537912739746848,18,21,33,28,-10,-22,2,11
1537912739762805,-2,-3,9,32,97,67,32,13
1537912739762805,-19,-2,4,-18,-76,-88,-70,-32
1537912739763803,-12,-4,18,13,-29,24,11,-5
1537912739763803,0,-7,-47,-32,-26,-4,10,3
1537912739778763,0,15,2,16,10,28,10,-9
1537912739778763,-7,-38,-32,-18,42,54,28,2
1537912739784747,18,20,-15,-27,-2,-52,-37,10
1537912739784747,1,-21,9,-5,-24,9,-4,-5
1537912739799707,-3,0,23,10,-9,5,18,9
1537912739799707,-11,8,12,22,34,-21,-16,-9
1537912739806688,-20,-11,-13,11,12,46,5,-12
1537912739806688,7,10,36,-20,42,-11,2,7
1537912739822645,25,14,-39,-14,6,-12,-7,7
1537912739822645,26,28,24,54,36,56,37,26
1537912739823643,-19,-26,-8,22,-57,24,37,11
1537912739823643,-29,-11,-12,-38,50,-41,-92,-51
1537912739838603,2,-5,14,-5,-18,39,12,-3
1537912739838603,-3,8,4,-13,20,4,-2,-9
1537912739844587,12,9,-7,-11,-3,-14,-36,2
1537912739844587,-2,-1,17,10,-2,70,58,24
1537912739859547,-21,-17,-37,-49,-38,-47,-40,-33
1537912739859547,20,18,-1,38,24,8,18,10
1537912739867526,2,-10,18,53,64,8,26,7
1537912739867526,-11,7,9,12,-56,-6,0,-3
1537912739882486,-6,-11,-15,-4,42,-29,-20,7
1537912739882486,21,-5,-23,-29,-43,25,16,15
1537912739883483,-12,-2,21,-19,-7,-103,-33,-15
1537912739883483,6,-5,0,40,-47,24,25,5
1537912739897446,-13,-9,-7,-33,3,-64,-15,-9
1537912739897446,5,3,4,-14,-27,-10,-18,11
1537912739904427,17,20,13,-4,21,38,21,7
1537912739904427,-9,-3,-20,-6,3,-1,22,8
1537912739919387,-9,3,-7,-5,-35,-18,-36,-18
1537912739919387,-5,-24,-9,-18,-34,-24,-13,-23
1537912739927365,8,17,15,2,49,21,12,9
1537912739927365,-2,-7,4,32,22,35,27,19
1537912739942325,-11,0,10,-7,-15,-14,-5,-3
1537912739942325,-10,-8,-24,11,10,-5,-25,-22
1537912739943323,27,16,-9,-10,-23,10,18,22
1537912739943323,-9,-19,-25,-30,58,50,1,-15
1537912739957286,7,1,18,24,11,30,22,14
1537912739957286,-20,6,33,-14,-28,-56,-15,-5
1537912739964267,-8,-21,31,29,-55,19,3,-10
1537912739964267,5,20,-46,13,24,-40,-10,-6
1537912739979227,-2,-21,-42,-50,-19,-30,-9,9
1537912739979227,16,-1,-1,-10,15,79,25,24
1537912739987205,-7,-2,1,-3,-10,-19,-29,-17
1537912739987205,4,8,35,12,25,-2,6,-4
1537912740003163,-12,0,18,32,3,38,2,-12
1537912740003163,14,15,8,16,29,-13,3,18
1537912740003163,-6,-3,-15,-25,13,0,-11,-8
1537912740003163,-2,-5,0,-6,-23,35,6,-2
1537912740017126,-2,-7,-11,-3,9,-67,-8,-6
1537912740017126,-2,-5,-6,19,32,40,14,-6
1537912740025104,0,6,-2,-41,5,-16,-7,0
1537912740025104,1,23,28,24,9,11,5,0
1537912740040064,6,-33,-32,2,-13,3,11,15
1537912740040064,9,8,4,-11,15,11,6,10
1537912740047045,-18,-11,-2,37,33,28,5,-21
1537912740047045,-10,-8,-23,-50,-86,-62,-27,-9
1537912740063003,2,10,23,9,-11,22,-11,0
1537912740063003,8,10,17,30,23,33,6,12
1537912740064000,-3,-8,-10,3,-4,-46,2,-1
1537912740064000,-6,2,-2,-28,12,-16,-19,0
1537912740076966,1,-2,1,5,-42,16,0,-11
1537912740076966,-14,-6,-22,-14,15,2,-2,-24
1537912740084944,7,4,2,-9,36,29,12,21
1537912740084944,-1,-29,-23,-20,-22,-15,-3,3
1537912740099905,15,14,-11,3,15,19,17,13
1537912740099905,-11,8,27,23,-10,3,-5,-10
1537912740106886,-12,-6,-8,-4,-55,-45,-1,-12
1537912740106886,5,-4,10,19,5,6,-6,-2
1537912740121845,-7,-4,1,-3,26,46,12,-11
1537912740121845,-9,-1,-8,-45,-51,-67,-13,-3
1537912740129824,4,-5,-15,7,6,19,-10,1
1537912740129824,6,-4,-14,-2,-33,-15,4,3
1537912740136806,0,11,24,16,3,-25,-9,2
1537912740136806,3,-1,1,16,5,29,8,3
1537912740144785,3,20,33,-32,-74,-33,-10,-5
1537912740144785,2,4,17,32,54,6,1,3
1537912740159744,5,-12,-47,15,27,27,12,5
1537912740159744,-20,-14,3,-6,-13,-8,4,-2
1537912740166726,7,-13,-42,-17,-37,-27,-16,-4
1537912740166726,6,-2,8,-4,0,2,16,18
1537912740181686,-8,3,25,-3,22,6,-4,4
1537912740181686,-1,-10,-15,-19,-30,-68,-54,-42
1537912740190662,8,22,13,4,50,48,4,14
1537912740190662,-4,10,0,2,9,-22,-23,-12
1537912740197643,13,14,9,9,-39,-17,27,19
1537912740197643,-17,-16,-9,13,57,41,19,4
1537912740204624,-9,-13,11,-11,-39,-8,-24,-15
1537912740204624,30,11,-19,0,-1,-16,-6,11
1537912740219584,-8,0,8,12,20,-2,0,2
1537912740219584,-3,-4,3,17,-16,5,5,-7
1537912740227563,-2,0,-2,10,21,-2,8,0
1537912740227563,1,9,5,-12,-15,5,8,7
1537912740242523,6,-7,-2,-17,0,12,-4,-5
1537912740242523,-5,6,6,-1,1,-29,-3,-4
1537912740250502,-21,-22,-16,-16,-15,-39,-28,-12
1537912740250502,-1,-2,-1,-4,-13,-14,-15,-10
1537912740257483,2,17,14,-3,26,-8,-11,-8
1537912740257483,3,-6,-4,1,17,39,21,12
1537912740264464,6,-3,-20,6,-15,4,10,8
1537912740264464,-6,-5,-1,-2,-30,-27,-11,-2
1537912740279424,6,1,6,-4,1,16,11,11
1537912740279424,6,1,-2,-9,-19,-12,7,10
1537912740287403,-6,4,1,10,37,21,8,-11
1537912740287403,-10,-5,0,2,13,4,-3,-13
1537912740302363,-3,-7,3,-4,-21,-20,-6,-5
1537912740302363,4,3,-4,-11,-16,-8,-16,-7
1537912740310342,2,4,-1,14,26,15,8,5
1537912740310342,-4,-10,1,2,24,14,8,-1
1537912740325302,1,-2,-4,-11,-24,-14,1,3
1537912740325302,5,4,2,2,-1,16,10,11
1537912740326299,0,-3,-3,1,3,3,6,5
1537912740326299,-2,-5,0,-5,-13,1,-4,-3
1537912740339264,-3,1,1,-1,-1,-2,-8,-13
1537912740339264,3,3,-1,1,6,-11,-2,2
1537912740347243,-1,-3,-4,-1,18,19,12,3
1537912740347243,-6,-4,-2,-2,-14,-9,-5,-4
1537912740362204,-2,0,4,-1,8,-3,-5,0
1537912740362204,2,-1,2,-3,-8,-3,1,3
1537912740370182,2,-2,-5,2,6,16,10,4
1537912740370182,-1,-3,-1,0,-1,9,0,-2
1537912740385142,-5,-1,-1,0,-3,-18,-8,-7
1537912740385142,-2,-3,-1,-5,-7,-6,-1,-3
1537912740386139,4,0,-4,-1,8,9,9,9
1537912740386139,-2,2,1,2,-8,-8,-7,-4
1537912740399104,-3,-4,-3,-3,-2,-11,-5,-9
1537912740399104,-4,0,1,3,0,3,1,-4
1537912740407083,-1,1,-2,-1,3,-5,-3,0
1537912740407083,2,-2,2,-1,1,6,11,8
1537912740422043,-3,-3,-3,-4,2,0,0,-1
1537912740422043,2,2,1,1,-7,2,1,0
1537912740430022,2,0,-1,-1,3,-16,-7,-1
1537912740430022,-1,-4,-1,0,-2,-2,1,1
1537912740444982,-2,1,2,0,1,0,-7,-4
1537912740444982,0,1,-1,1,1,1,3,2
1537912740445979,-4,-3,-1,1,0,0,0,-4
1537912740445979,-1,0,0,-3,3,3,-1,1
1537912740459942,2,-2,-2,-2,-17,-12,-3,4
1537912740459942,-1,0,-1,-4,-1,-1,-2,-2
1537912740466924,1,1,-1,1,2,2,0,-2
1537912740466924,-1,-2,-3,-1,0,-5,-2,-2
1537912740481883,0,1,9,-1,5,2,-1,-3
1537912740481883,-1,-4,-11,-1,-2,-4,-2,1
1537912740489862,1,-1,-1,1,-4,-4,-2,-2
1537912740489862,-1,0,0,0,2,9,2,0
1537912740504822,0,2,3,-2,-2,-1,2,2
1537912740504822,2,2,3,2,0,-3,0,1
1537912740505820,1,1,-6,-2,1,4,-3,-2
1537912740505820,-4,-10,-17,-3,-3,-4,0,-2
1537912740519783,0,0,0,-3,1,3,1,2
1537912740519783,-3,-12,6,-2,-1,-1,-2,-2
1537912740526763,-2,12,2,2,1,1,0,0
1537912740526763,1,2,6,1,-4,-5,-1,-1
1537912740541723,-1,18,-7,-1,1,-1,0,0
1537912740541723,-1,-5,1,-1,1,-2,-1,-1
1537912740550699,-2,-7,3,0,-1,1,-2,-1
1537912740550699,1,-1,2,0,0,-3,0,0
1537912740565659,0,-7,-3,0,5,2,0,0
1537912740565659,-1,3,-2,-1,-10,-10,-2,0
1537912740565659,-3,2,-1,-3,4,12,-1,-3
1537912740565659,-2,0,0,3,-2,-5,-4,1
1537912740579622,-2,-7,-4,-1,3,3,-1,-2
1537912740579622,1,2,-2,-2,6,3,3,1
1537912740587601,0,-5,1,1,1,-3,1,-1
1537912740587601,-4,2,6,2,-2,-1,-1,-2
1537912740602561,1,-6,-15,-1,-3,-7,-4,0
1537912740602561,-3,-2,-5,-3,-2,-4,-4,-5
1537912740610539,-2,-3,-5,-5,-3,0,1,-1
1537912740610539,0,6,8,2,8,2,0,0
1537912740625499,3,9,29,5,-6,1,1,1
1537912740625499,0,6,6,3,0,-2,-2,1
1537912740632481,-1,-13,-30,-5,0,-4,-2,-1
1537912740632481,-4,-21,-27,-12,-2,0,3,-1
1537912740639462,-5,-34,4,-1,-1,-1,-1,-1
1537912740639462,1,47,24,5,1,3,0,-1
1537912740647441,1,6,-6,0,-3,-4,-3,-3
1537912740647441,1,-11,-17,-8,-1,1,2,1
1537912740662401,1,1,31,3,2,0,-1,-1
1537912740662401,0,-15,-20,0,0,3,0,0
1537912740670379,-2,2,-4,-5,-1,-3,-1,0
1537912740670379,1,13,33,5,-1,-1,-3,-2
1537912740685339,-1,6,8,7,1,0,1,-1
1537912740685339,0,2,25,9,0,-2,-2,-2
1537912740686337,0,-17,-31,-4,0,0,1,1
1537912740686337,0,-15,-70,-20,-6,-2,2,0
1537912740699302,-6,-1,-19,-15,-5,-2,-1,1
1537912740699302,-2,-6,18,0,4,4,2,-1
1537912740715259,-1,10,58,14,4,2,-3,-1
1537912740715259,1,8,79,20,2,-1,-3,-2
1537912740722241,-1,9,-48,-2,-2,-3,-4,-3
1537912740722241,3,-38,-122,-28,-9,-1,1,0
1537912740730220,1,-8,-6,-18,-4,0,3,4
1537912740730220,-3,9,61,11,3,1,-1,-1
1537912740745180,0,24,69,21,4,-3,-6,-5
1537912740745180,-4,-13,-8,3,0,-1,-2,-4
1537912740746177,-4,-4,-47,-9,-2,-1,1,-3
1537912740746177,2,7,-21,-10,-7,-3,-1,-1
1537912740759142,0,-17,-15,-8,-3,2,3,1
1537912740759142,-4,9,34,9,2,-1,-1,-3
1537912740767121,2,-7,16,5,0,-2,-2,1
1537912740767121,-1,3,-13,-2,-1,-3,-1,0
1537912740782081,-1,0,2,-1,1,0,-2,-1
1537912740782081,-1,-2,-8,-7,-1,-2,-1,0
1537912740790060,0,18,37,11,-1,-1,-3,0
1537912740790060,-1,14,-15,0,-1,-1,0,-1
1537912740805020,-3,-12,-45,-8,-3,-3,-1,-3
1537912740805020,2,-10,9,-3,-2,3,3,3
1537912740806017,-1,4,0,0,1,2,2,-1
1537912740806017,-1,-9,-2,-3,0,-2,0,1
1537912740819980,1,8,34,5,3,0,0,-1
1537912740819980,-2,4,4,3,2,-1,-3,-3
1537912740826961,-1,9,24,14,1,-2,-3,-2
1537912740826961,-4,-13,-26,-1,-4,-2,-1,-3
1537912740841921,-1,-22,-64,-20,-5,-1,0,1
1537912740841921,-3,-20,-31,-16,-4,0,3,1
1537912740849900,2,0,9,-6,0,3,3,2
1537912740849900,0,9,16,3,1,-1,-5,-3
1537912740864859,0,15,49,10,0,-1,-2,-2
1537912740864859,2,18,37,10,2,0,-1,1
1537912740865857,-2,-1,-40,-3,-1,-2,-1,-1
1537912740865857,-1,-16,-12,-5,1,0,0,-1
1537912740879820,0,-14,-25,-10,-2,1,3,3
1537912740879820,1,5,42,9,2,0,-2,0
1537912740886801,-2,5,12,3,-1,-2,-3,-3
1537912740886801,0,3,-20,-7,-1,0,0,-1
1537912740901761,4,12,11,2,2,1,1,2
1537912740901761,-3,5,10,-11,-6,0,0,1
1537912740910738,-5,-44,-67,-7,-2,-3,-1,-4
1537912740910738,-5,-6,19,7,1,2,0,0
1537912740925697,4,2,-73,-11,-2,-2,1,0
1537912740925697,-4,-7,-15,-14,-7,-2,-1,-1
1537912740925697,2,9,37,6,9,-3,-1,1
1537912740925697,-5,6,47,3,0,12,1,-4
1537912740939660,-3,6,18,13,3,3,0,-1
1537912740939660,1,0,-27,-3,-8,-13,-5,-2
1537912740947638,-4,-6,1,-5,-4,3,-1,-4
1537912740947638,3,-4,-3,2,-4,-13,-6,0
1537912740962598,-3,16,24,3,7,1,-2,-2
1537912740962598,5,12,55,22,7,4,1,2
1537912740970577,-5,-7,-25,-4,-5,0,-3,-3
1537912740970577,-3,-33,-91,-29,-6,-1,3,1
1537912740985537,-5,-8,-9,-15,-5,-4,-1,1
1537912740985537,2,0,-14,-2,2,-5,2,3
1537912740986534,1,-2,59,11,-4,-6,-2,-5
1537912740986534,-1,21,-51,4,8,8,0,2
1537912740999500,6,-10,-16,0,-6,-3,4,6
1537912740999500,-5,-14,11,1,1,11,-4,-14
1537912741007478,-1,-10,76,13,-19,-31,-13,0
1537912741007478,-4,62,108,22,7,2,-4,-8
1537912741022438,1,-28,-93,-25,-5,-1,-1,-1
1537912741022438,12,8,-23,-15,7,8,14,16
1537912741030417,-3,-15,-17,-6,14,18,17,3
1537912741030417,-10,-33,4,-10,-36,-36,-16,-6
1537912741045377,7,24,90,30,11,12,4,8
1537912741045377,-4,22,42,14,-2,-2,-2,-8
1537912741046376,6,39,-56,-11,5,5,-4,-1
1537912741046376,11,-41,-68,3,6,20,37,48
1537912741059341,-7,-16,-58,-16,-1,38,28,-11
1537912741059341,-34,-40,5,-22,-32,-86,-75,-64
1537912741067320,16,19,95,36,16,39,-1,9
1537912741067320,16,61,93,13,3,-17,-12,-12
1537912741082280,-9,-15,-78,-22,-16,1,0,1
1537912741082280,28,-18,-63,-39,29,50,40,36
1537912741090259,-33,-10,-41,-4,-16,-5,3,-13
1537912741090259,3,-1,52,23,35,5,-14,1
1537912741104221,13,53,127,60,27,-8,-4,12
1537912741104221,-18,-16,-106,5,-31,-15,-5,-7
1537912741113197,9,-45,-70,-42,-37,-23,-1,7
1537912741113197,4,-73,5,17,90,79,37,21
1537912741120178,-22,49,52,-23,-46,-86,-46,-30
1537912741120178,27,63,123,39,52,42,25,31
1537912741127161,9,19,77,-2,-22,-35,-20,-4
1537912741127161,-20,-3,-128,-22,-32,9,27,-11
1537912741142119,-12,-60,-35,-27,32,-74,-40,-7
1537912741142119,2,-4,86,30,-28,-41,-25,-4
1537912741150098,15,103,101,16,19,13,-14,-24
1537912741150098,-16,-49,-58,-44,-25,-10,-16,-32
1537912741165057,26,-38,62,-10,11,35,46,47
1537912741165057,-11,-21,-48,-8,8,13,18,16
1537912741173036,-13,-55,35,-37,3,-7,1,-8
1537912741173036,-16,-3,24,21,-39,-34,-20,-13
1537912741180017,4,36,-28,31,6,14,3,3
1537912741180017,3,-10,-7,31,36,19,11,16
1537912741186998,1,23,11,18,-4,33,18,12
1537912741186998,-2,27,5,-1,3,7,-23,-30
1537912741201958,-14,-28,-38,-22,-18,-9,-27,-26
1537912741201958,11,2,6,-36,-71,-48,-11,4
1537912741209937,-3,-23,-111,-4,0,23,25,-4
1537912741209937,10,58,-37,-43,-26,-31,-4,21
1537912741224897,13,-18,54,23,25,37,14,4
1537912741224897,-13,26,35,29,-16,14,3,-18
1537912741232875,-1,-24,-112,-28,9,5,4,31
1537912741232875,37,29,127,-1,-5,-1,3,-2
1537912741239857,-40,-32,-58,-11,-12,15,-12,-70
1537912741239857,-38,-105,-48,-2,17,0,-12,0
1537912741246839,-13,37,-21,9,11,-6,-14,-7
1537912741246839,6,4,-6,5,22,5,17,24
1537912741261799,35,53,20,-1,-6,0,23,39
1537912741261799,5,30,51,-5,-23,18,-7,-33
1537912741270776,-10,-31,35,18,4,-8,-18,-9
1537912741270776,-11,-8,-27,0,-17,-68,-17,-2
1537912741284740,-1,11,-8,-21,-55,-58,-44,-14
1537912741284740,36,49,67,31,30,3,14,27
1537912741292719,2,-8,41,18,4,-8,6,1
1537912741292719,-12,-4,-64,-51,-6,17,-10,-14
1537912741308675,-12,-63,-4,-10,0,22,28,25
1537912741308675,-12,-44,-97,-66,2,7,0,-3
1537912741308675,-3,70,113,0,7,8,12,-14
1537912741308675,31,5,-11,69,14,-11,-29,-23
1537912741322638,-44,-89,-91,12,2,-2,-3,-7
1537912741322638,-4,-7,28,18,19,15,14,20
1537912741330616,5,-3,84,17,-2,-13,10,28
1537912741330616,-4,-4,-37,17,-16,4,5,2
1537912741344580,6,87,27,10,47,41,-34,-50
1537912741344580,-14,1,-105,-86,-89,-108,-54,-31
1537912741352557,25,-12,7,-18,-2,38,39,36
1537912741352557,2,0,46,15,-2,21,2,-10
1537912741368513,16,45,-9,5,35,55,20,18
1537912741368513,-1,17,-47,9,29,24,-17,-16
1537912741369511,-12,-2,-94,-41,5,-8,4,-5
1537912741369511,-22,-120,0,-36,-17,-9,15,15
1537912741382476,-9,-19,76,31,-2,17,14,15
1537912741382476,12,68,21,47,15,5,7,-5
1537912741390455,22,54,75,88,26,-7,-11,9
1537912741390455,0,13,-68,-7,14,23,56,59
1537912741413393,-9,-57,-13,-69,-14,-31,-49,-51
1537912741413393,-17,-20,-32,-31,-13,30,-16,-62
1537912741414391,-14,-29,58,-14,-29,-49,-30,-2
1537912741414391,13,7,35,24,37,-12,-7,-2
1537912741451292,24,121,-22,-7,-28,4,71,80
1537912741451292,12,-34,29,5,14,2,-18,-7
1537912741452290,-16,22,42,9,-6,-13,-53,-83
1537912741452290,-1,-7,-51,1,-14,-2,-3,20
1537912741465256,-5,-89,-22,-21,-15,10,12,10
1537912741465256,-17,-26,-35,5,14,31,58,48
1537912741466253,-1,-56,-52,-10,8,8,12,21
1537912741466253,3,115,65,21,-5,-16,-47,-50
1537912741480215,14,6,-6,13,8,-10,-15,-15
1537912741480215,-4,-18,3,-7,-8,3,35,41
1537912741488194,-13,-79,-76,0,17,38,19,25
1537912741488194,-16,58,98,-1,-10,-8,-58,-63
1537912741503154,28,73,55,25,-2,-31,-19,-23
1537912741503154,7,18,-23,-19,6,-11,-9,12
1537912741505149,3,-71,-128,-31,-12,17,28,44
1537912741505149,-14,17,-33,-37,-38,13,26,12
1537912741518115,-10,-19,75,31,-1,-10,-9,-1
1537912741518115,8,-1,-31,24,27,21,14,9
1537912741520109,25,17,-18,-11,9,-3,50,38
1537912741520109,-28,-90,65,-1,13,-3,-85,-59
1537912741533074,-8,70,-30,-3,-22,-25,-23,-44
1537912741533074,-4,-11,95,29,-8,-6,10,2
1537912741535069,14,21,10,32,24,17,20,27
1537912741535069,-4,-35,57,17,-3,9,19,-16
1537912741556013,-10,26,-86,-41,-11,6,-10,-3
1537912741556013,-6,-45,-3,-60,-24,-7,-17,-10
1537912741557011,-11,3,-62,-20,4,19,11,7
1537912741557011,18,3,52,20,24,0,34,52
1537912741561997,2,-9,3,9,9,-6,-9,-1
1537912741561997,16,36,-68,10,10,-2,-10,-23
1537912741570974,2,-36,13,-13,-10,-7,2,23
1537912741570974,6,16,66,33,21,35,29,12
1537912741584936,-22,-7,-6,7,-7,-26,-49,-67
1537912741584936,-4,17,56,-2,-4,6,18,10
1537912741593912,5,93,-11,3,-17,-22,-41,-36
1537912741593912,24,-70,-83,-21,1,35,65,60
1537912741608871,-16,-24,33,-9,15,5,-20,-16
1537912741608871,-20,-31,60,16,3,-15,-43,-42
1537912741609869,2,30,-98,-18,-19,-10,-12,-23
1537912741609869,-1,-5,10,-14,-6,2,26,27
1537912741621836,26,59,121,59,20,-1,38,54
1537912741621836,-3,-33,-81,-27,-21,3,1,4
1537912741630813,-2,-5,-32,-32,-3,-10,6,-8
1537912741630813,-7,-20,37,4,20,3,-13,9
1537912741644775,0,-30,-33,-10,0,5,25,33
1537912741644775,8,41,51,25,-1,-20,-19,-32
1537912741653752,-19,-33,24,20,13,6,-17,-61
1537912741653752,13,127,46,4,-8,-12,-30,-18
1537912741668711,-6,-93,-21,29,2,5,15,23
1537912741668711,4,32,-104,-45,0,24,25,35
1537912741669709,18,-54,-10,-14,-4,10,32,37
1537912741669709,14,62,51,49,22,-9,-17,-11
1537912741681677,-29,-8,-77,-28,-16,-11,-22,-36
1537912741681677,-4,-65,-49,-50,-12,8,27,48
1537912741691650,-17,-67,30,-17,-1,4,-17,-51
1537912741691650,-15,17,27,-1,-6,12,20,-23
1537912741704615,15,47,79,13,-8,-36,-49,-28
1537912741704615,1,33,91,53,7,-5,-1,-3
1537912741713591,13,26,-25,12,4,-7,17,45
1537912741713591,-11,-72,-98,-21,-15,22,7,-7
1537912741728550,-4,58,-38,-23,-11,-13,-12,-8
1537912741728550,2,-3,35,12,-7,4,8,10
1537912741729548,-11,7,20,7,-3,-12,-7,33
1537912741729548,12,-47,-119,-33,-7,-8,3,14
1537912741742513,6,-9,40,1,-4,-9,-5,-40
1537912741742513,-39,-27,-67,-39,-19,-12,-19,-29
1537912741751489,13,-6,44,8,15,4,17,15
1537912741751489,-13,-19,-6,30,1,-7,18,55
1537912741764455,16,14,-29,-9,-2,14,13,30
1537912741764455,12,59,127,40,30,8,-24,-56
1537912741773431,-4,12,-99,-14,-19,-5,18,7
1537912741773431,-7,-30,-28,-34,0,-5,-24,-1
1537912741788391,-7,-30,71,10,-19,-7,-17,-19
1537912741788391,7,27,-65,22,32,24,40,19
1537912741790386,-12,4,65,-15,-20,-41,-58,-47
1537912741790386,4,-8,-11,-5,4,-2,19,13
1537912741802353,4,-9,-27,-10,5,30,41,30
1537912741802353,10,-19,-42,-17,-6,-3,-32,-13
1537912741811329,-5,29,91,39,1,8,-5,-25
1537912741811329,-12,-12,-74,-9,-17,-14,8,14
1537912741824295,-1,-43,-99,-44,6,24,31,21
1537912741824295,-12,-23,-5,-18,-10,-19,-30,-24
1537912741833271,2,-13,14,8,15,17,5,-3
1537912741833271,19,69,110,9,-20,-17,-41,-41
1537912741848231,12,6,-27,27,25,38,74,94
1537912741848231,0,1,46,25,-8,-60,-55,-63
1537912741854215,-24,-11,61,24,-2,6,-32,-63
1537912741854215,-18,-11,-123,-61,-17,-9,-7,-37
1537912741862193,4,-19,24,-2,21,31,29,35
1537912741862193,22,44,28,62,10,7,36,71
1537912741871169,-11,12,-114,-66,-8,-9,-17,0
1537912741871169,11,-28,31,-33,-10,-11,5,-6
1537912741884135,-1,-58,-13,-8,0,2,6,16
1537912741884135,1,-17,72,15,12,18,25,22
1537912741893111,-7,12,49,32,2,-11,-36,-27
1537912741893111,5,17,7,15,7,-2,-7,-6
1537912741908071,-3,71,33,12,-8,-21,-38,-46
1537912741908071,5,1,93,20,0,-2,0,-2
1537912741910065,11,21,-49,10,3,11,21,18
1537912741910065,-13,-19,-86,-45,6,9,-4,-16
1537912741922033,-2,-52,-4,-9,-14,-11,24,25
1537912741922033,8,-5,-69,-15,0,22,17,37
1537912741931009,5,60,33,-5,-15,-24,-65,-80
1537912741931009,-13,-19,83,45,11,-8,-17,-22
1537912741944972,-5,13,-89,-13,7,9,-8,-16
1537912741944972,2,-44,-44,-27,-11,4,50,62
1537912741953948,10,-23,61,22,2,14,29,55
1537912741953948,-2,-32,6,28,1,-4,-19,-23
1537912741968908,-5,51,-12,-37,-13,-5,0,10
1537912741968908,10,-7,-21,-1,5,7,4,-9
1537912741969905,-5,-10,5,2,1,-3,-5,-17
1537912741969905,-6,26,27,21,2,-5,0,-5
1537912741981874,7,12,108,29,6,5,-2,1
1537912741981874,-5,1,-124,-24,2,1,-6,1
1537912741990849,-3,-9,12,-12,-34,-12,0,-1
1537912741990849,9,22,-15,-7,3,7,29,48
1537912742004812,-8,-33,-20,-14,-10,-11,-40,-50
1537912742004812,-16,5,52,6,-9,-13,-27,-50
1537912742020770,-4,0,-17,1,12,2,12,12
1537912742020770,5,12,4,-2,4,5,20,23
1537912742027751,9,-11,-4,10,-1,4,15,17
1537912742027751,-7,-6,21,4,5,3,-7,-8
1537912742034732,-1,-20,-31,-6,2,2,6,15
1537912742034732,6,29,21,0,-4,-2,4,4
1537912742041714,-7,-5,9,12,3,-5,-12,-14
1537912742041714,-8,-14,-19,-10,-3,0,-4,-8
1537912742050690,4,16,-28,-19,0,3,11,16
1537912742050690,-1,-19,-6,-7,-4,-5,-13,-9
1537912742064652,0,-3,53,27,6,-1,-2,-7
1537912742064652,0,21,-10,1,-2,1,0,5
1537912742073628,2,-5,-19,-9,-2,3,6,9
1537912742073628,-4,-10,-1,1,3,-1,-6,-9
1537912742087591,-3,-3,6,1,-2,-2,-2,-1
1537912742087591,2,11,8,-1,0,1,2,4
1537912742094572,-2,-5,-29,-5,0,-1,-3,-2
1537912742094572,-1,5,46,7,-3,-3,-3,-7
1537912742102551,2,-16,-43,0,0,-3,1,6
1537912742102551,-3,8,-3,-2,-2,-1,-4,-3
1537912742111527,2,23,-13,-11,-3,-2,2,1
1537912742111527,-4,-22,-40,-18,-2,1,1,2
1537912742124492,-2,-8,22,1,1,-1,4,3
1537912742124492,1,2,44,13,7,6,1,-3
1537912742133468,-2,5,16,17,4,1,-3,-1
1537912742133468,2,-2,-4,0,0,-1,0,1
1537912742147431,-2,-8,-13,-3,-1,-2,-4,-4
1537912742147431,-1,16,-24,-12,-6,-3,-1,0
1537912742154412,0,-14,-14,-13,1,7,4,4
1537912742154412,-2,-3,5,2,-3,-10,-5,-3
1537912742162391,-2,-1,12,6,1,3,0,-4
1537912742162391,0,-1,1,0,1,0,-2,1
1537912742171367,-2,-4,14,3,-14,-10,1,-1
1537912742171367,1,6,-5,5,0,-4,-2,1
1537912742184332,0,1,-8,-6,-5,-4,0,1
1537912742184332,-2,2,-12,-6,1,-1,0,-3
1537912742193308,2,-4,15,4,4,10,0,3
1537912742193308,0,2,5,4,6,-3,-2,-5
1537912742208268,2,5,-23,-4,-6,-4,1,0
1537912742208268,2,-10,-16,-3,-4,-8,-4,0
1537912742214252,-7,-21,16,-1,4,6,3,-1
1537912742214252,-4,12,-45,-9,-5,-3,-1,-3
1537912742231209,2,-4,-16,-15,0,6,3,4
1537912742231209,-1,1,21,1,0,1,0,-1
1537912742232204,0,-6,17,5,3,-5,-3,0
1537912742232204,-2,10,21,4,0,5,1,0
1537912742244172,-2,4,34,9,1,-3,-4,-5
1537912742244172,-1,9,-43,-7,-3,-2,-2,-1
1537912742253149,0,-9,-4,-7,-3,-4,1,1
1537912742253149,-2,-8,0,2,-2,3,1,-2
1537912742268110,-1,-3,6,0,0,-5,-3,-2
1537912742268110,-1,-3,8,1,-2,-1,-1,-1
1537912742275091,2,2,-14,0,1,-1,1,0
1537912742275091,-4,-5,-11,-7,-1,0,-3,-5
1537912742291049,-1,-1,-1,0,1,-1,-1,0
1537912742291049,-1,1,16,0,-4,-4,-4,-3
1537912742292047,0,2,-12,-3,3,-4,-1,0
1537912742292047,1,-3,-7,-4,-11,-4,0,0
1537912742305012,-2,3,15,4,-1,-5,0,-1
1537912742305012,0,-1,12,9,4,4,0,-3
1537912742313987,-2,-9,-35,-10,-1,0,-4,-1
1537912742313987,-3,-17,-22,-10,-2,-2,-2,1
1537912742327949,-1,-4,-1,0,3,4,0,1
1537912742327949,1,32,91,13,0,-1,1,1
1537912742334930,0,-3,-44,6,0,-5,-4,-3
1537912742334930,1,2,-35,-12,-1,4,2,1
1537912742350887,-5,-15,-13,-8,-4,-2,1,-3
1537912742350887,-2,-22,6,-2,2,2,3,1
1537912742352882,0,30,36,5,0,-2,-2,-1
1537912742352882,0,4,45,11,4,0,-1,-3
1537912742364850,-2,-5,-50,-5,-2,2,1,-1
1537912742364850,-2,-11,-16,-7,-2,0,1,0
1537912742373826,-1,-1,8,-3,-2,1,1,0
1537912742373826,1,3,0,4,1,0,-3,1
1537912742387788,2,4,27,4,2,0,0,0
1537912742387788,-3,-2,-18,-2,-1,1,-1,-1
1537912742394770,-1,-2,1,-1,-2,-1,0,1
1537912742394770,-2,-1,-9,-3,-3,-1,-2,-3
1537912742418706,0,-3,26,2,1,0,-2,-1
1537912742418706,1,2,-29,-2,-1,-1,0,1
1537912742419703,1,3,-7,-4,1,-1,0,0
1537912742419703,-1,1,39,6,0,0,0,0
1537912742424690,0,10,26,7,1,-2,-3,-3
1537912742424690,-1,-15,-62,-13,-3,1,0,-1
1537912742433666,1,-11,16,-8,-4,-3,0,-1
1537912742433666,-2,-2,-6,0,0,1,0,0
1537912742447628,-1,8,-34,-6,-2,1,-1,2
1537912742447628,1,13,36,4,-2,-2,-2,-3
1537912742454610,-2,-2,21,6,0,-2,0,0
1537912742454610,-2,-5,-5,3,-1,-2,-2,-4
1537912742470567,-2,-2,27,4,2,1,1,-1
1537912742470567,-1,9,-5,4,0,-1,1,-2
1537912742472563,1,-10,-26,-3,0,-1,0,-2
1537912742472563,-1,0,0,-4,-1,-2,0,-1
1537912742484531,-3,-6,-20,0,-2,-2,0,0
1537912742484531,-1,-2,11,2,0,1,-1,-1
1537912742493508,0,4,-26,-4,0,0,-2,-2
1537912742493508,-2,-18,-55,-16,-4,0,0,1
1537912742507470,-1,-15,-11,-10,0,4,4,2
1537912742507470,2,4,25,2,0,-2,-2,0
1537912742514451,0,14,127,23,3,1,0,-1
1537912742514451,-2,19,-55,10,2,-4,-6,-6
1537912742531405,-4,-14,-57,-24,-6,-2,-5,-3
1537912742531405,2,-5,80,13,-4,-4,0,2
1537912742532404,-7,-26,-63,-17,3,10,0,-4
1537912742532404,7,34,16,2,6,5,3,4
1537912742544371,-2,-20,10,-6,-2,0,3,1
1537912742544371,-7,13,-16,8,0,-2,-4,-5
1537912742553348,3,8,-13,4,-7,-10,-3,2
1537912742553348,1,-23,23,6,-5,-4,-8,-6
1537912742576287,8,9,-11,10,8,22,17,12
1537912742576287,-6,-5,-44,-18,26,13,3,-6
1537912742577284,-5,12,-51,-11,-1,19,11,1
1537912742577284,22,17,82,27,-8,-59,-19,7
1537912742591246,30,44,25,30,0,52,42,69
1537912742591246,14,-47,-98,-21,26,-12,9,9
1537912742592245,-44,-53,-112,-31,-37,-58,-18,3
1537912742592245,-27,-52,105,-63,-30,-25,-79,-87
1537912742604211,-46,-108,-89,-4,2,-7,-13,-20
1537912742604211,9,81,-9,8,-13,-16,12,1
1537912742613187,-6,34,77,0,31,30,-12,-36
1537912742613187,30,45,-79,36,18,24,46,56
1537912742628147,38,45,127,28,-1,-25,-10,-3
1537912742628147,3,-16,-89,-2,2,28,-7,54
1537912742634131,26,47,105,-6,-32,-20,22,10
1537912742634131,-27,-34,-3,33,11,17,-12,-73
1537912742651086,-28,-38,-128,-32,-8,-12,-15,-19
1537912742651086,-17,47,-12,-28,-14,18,13,1
1537912742652083,0,-39,54,-7,1,-4,-36,-11
1537912742652083,4,-22,-128,-3,10,27,48,65
1537912742665047,1,45,82,15,16,-38,-34,-42
1537912742665047,-12,-85,2,-2,-19,-14,-20,-36
1537912742674024,11,37,-60,-13,-7,0,8,8
1537912742674024,-11,-3,-13,-2,36,52,25,17
1537912742687986,-8,-2,6,-9,24,-48,3,10
1537912742687986,9,66,127,48,-7,-6,-25,-28
1537912742694968,8,-72,-90,15,15,8,-3,-2
1537912742694968,14,84,-51,-24,-7,-3,22,10
1537912742710925,-16,-37,-12,-24,-2,21,-14,-5
1537912742710925,10,-12,127,48,17,4,15,11
1537912742711924,-2,0,-55,29,6,-1,2,13
1537912742711924,-17,-45,-92,-53,-32,-6,15,24
1537912742724888,7,57,34,-18,-44,-3,-11,-26
1537912742724888,-12,-70,-51,-14,6,-10,-18,-26
1537912742733866,-6,29,58,29,35,18,10,12
1537912742733866,-7,-50,58,15,-48,-58,-27,11
1537912742747827,-5,48,36,-6,5,21,-12,-36
1537912742747827,2,3,-88,-21,-5,13,8,-2
1537912742754809,9,-26,-69,-9,20,4,15,13
1537912742754809,20,54,46,2,23,5,28,52
1537912742770767,-2,-32,93,42,21,-1,-7,-17
1537912742770767,-1,78,-41,-26,-21,-21,-19,-32
1537912742772762,-12,-66,-25,-3,-11,5,6,6
1537912742772762,-3,-17,-29,15,3,16,10,-3
1537912742784729,14,-4,-10,4,-4,27,21,28
1537912742784729,-1,0,3,-18,9,13,-2,10
1537912742793704,-4,47,29,-10,-19,-19,-15,-40
1537912742793704,3,-37,-15,-5,-2,-8,-6,-13
1537912742807666,2,-10,-72,-21,9,25,29,31
1537912742807666,2,-19,-50,-2,-36,-47,11,25
1537912742814647,-10,-15,72,8,-4,-10,-66,-43
1537912742814647,-7,-1,52,22,4,-8,-19,-37
1537912742830605,3,68,-55,-11,-9,4,2,-9
1537912742830605,20,20,32,-18,-17,-28,-2,20
1537912742832600,-10,-5,53,16,-11,7,21,17
1537912742832600,-16,-62,-34,-6,18,28,1,-3
1537912742853543,3,-25,-67,-14,-9,2,10,31
1537912742853543,-11,-34,81,40,0,-10,-7,-22
1537912742854541,22,124,-29,-12,-7,-14,-10,-17
1537912742854541,2,-19,-28,-20,38,22,-17,-7
1537912742867507,-4,-34,2,-3,4,-31,-12,1
1537912742867507,-5,-37,-51,-4,10,29,44,41
1537912742874488,-3,-37,37,4,10,19,5,-3
1537912742874488,-15,12,53,16,0,-16,-36,-34
1537912742891443,0,63,10,12,-7,-19,4,14
1537912742891443,14,56,31,1,16,21,-3,-20
1537912742892442,1,-20,-19,7,-19,-26,11,21
1537912742892442,-4,-56,-1,-18,-7,5,19,36
1537912742904409,14,25,2,21,17,11,-8,-18
1537912742904409,-29,-28,-42,-26,-46,-9,-8,-24
1537912742913386,-7,-27,-128,-50,-3,14,9,2
1537912742913386,19,37,115,16,-9,25,15,12
1537912742927347,17,18,-18,2,-10,-42,8,33
1537912742927347,5,20,5,17,12,1,-33,-35
1537912742934328,-25,-81,33,31,-5,-24,-53,-84
1537912742934328,-8,37,-34,-15,1,27,58,74
1537912742950285,-21,-12,41,-13,-5,11,-18,-56
1537912742950285,0,-16,-38,-28,2,-3,-22,2
1537912742957267,15,11,16,6,12,6,19,30
1537912742957267,9,31,35,15,-9,-17,-16,-23
1537912742964248,-2,-25,-69,6,1,15,39,59
1537912742964248,-1,-30,-69,-25,-1,3,-3,-10
1537912742973224,10,43,39,-5,1,5,8,-2
1537912742973224,22,62,4,35,2,-8,4,0
1537912742988184,0,23,127,23,-3,-17,-24,-19
1537912742988184,-26,-128,-70,-31,-6,1,-4,2
1537912742994168,19,60,-55,1,14,24,84,124
1537912742994168,-5,-8,-28,-17,-2,8,-15,-44
1537912743010125,-39,-34,53,6,-26,-46,-97,-95
1537912743010125,8,3,-4,9,15,0,3,15
1537912743017107,14,23,6,-12,20,43,29,61
1537912743017107,1,8,10,-8,-48,-80,-1,-2
1537912743025085,17,24,56,34,8,11,-17,-15
1537912743025085,-7,50,-49,-22,4,14,3,-8
1537912743033064,-5,-83,-75,-41,-22,3,18,19
1537912743033064,-2,6,54,12,26,30,15,2
1537912743048024,-28,-59,-37,-14,0,1,-16,-32
1537912743048024,15,91,92,47,2,-1,2,3
1537912743055005,-16,36,1,-6,-1,-3,-10,-28
1537912743055005,36,17,-56,-15,10,11,43,89
1537912743069965,7,-48,49,5,-2,22,-5,-30
1537912743069965,-17,-3,-9,20,-4,-34,-59,-60
1537912743076946,-14,-54,-56,-6,-11,-9,-4,9
1537912743076946,-19,-34,-49,-27,1,-10,-13,-2
1537912743084925,31,83,45,-6,-8,-5,36,32
1537912743084925,-6,-18,20,4,-4,-10,-13,-10
1537912743093902,4,25,46,18,-22,-24,-29,-35
1537912743093902,-32,-82,-55,-35,-5,0,-28,-27
1537912743107865,7,-3,-96,3,10,18,50,60
1537912743107865,17,67,127,39,14,7,8,8
1537912743114847,6,-45,-80,-11,2,-6,-4,-11
1537912743114847,11,2,7,-15,-9,21,7,11
1537912743130804,-1,-41,-62,-9,-20,-14,22,25
1537912743130804,16,48,63,-4,10,24,21,13
1537912743136788,-32,32,96,36,2,-33,-86,-76
1537912743136788,-20,-35,-20,11,-6,-5,-24,-35
1537912743153742,-1,-9,-28,-23,-53,-56,-13,2
1537912743153742,9,11,-38,-8,-10,-6,39,48
1537912743154739,22,43,27,-1,-2,0,-12,8
1537912743154739,-10,-44,20,-18,-17,-21,-25,-43
1537912743167704,-14,74,-128,-22,5,9,14,30
1537912743167704,8,-59,33,9,16,30,40,64
1537912743174685,-9,-38,-23,-4,5,8,17,-19
1537912743174685,6,34,33,34,15,1,-28,-17
1537912743190642,15,6,96,25,18,5,21,13
1537912743190642,-10,-6,-28,0,11,5,2,20
1537912743196627,-1,0,8,-14,9,11,-9,-22
1537912743196627,1,25,-1,-3,-5,-5,-2,7
1537912743213581,-9,-23,48,10,-6,-12,-13,-17
1537912743213581,-10,-15,-95,-26,-3,4,-21,-23
1537912743214578,17,1,-16,-11,-12,0,38,52
1537912743214578,-1,21,-2,1,4,14,-4,-15
1537912743227543,-3,3,-17,-9,-2,8,-12,-11
1537912743227543,-8,-53,27,8,-3,-3,10,18
1537912743234525,-1,27,31,16,1,0,3,-2
1537912743234525,-1,2,-12,-3,4,0,-1,-11
1537912743250482,-8,-35,21,-14,9,12,-10,-21
1537912743250482,-7,-15,-32,9,-2,-5,5,-3
1537912743257464,21,52,0,-9,-2,6,8,12
1537912743257464,7,5,14,23,6,-5,19,28
1537912743273421,-1,-26,-2,-1,9,2,-21,-27
1537912743273421,-20,-31,-6,-11,-6,-9,-18,-44
1537912743274418,-7,-6,-2,-19,-8,-4,-5,-1
1537912743274418,15,37,13,7,-5,-9,-1,-5
1537912743302344,2,-18,-25,6,14,17,20,29
1537912743302344,-1,-19,-3,-4,-7,0,0,0
1537912743312317,-3,-2,14,15,13,5,-1,-9
1537912743312317,4,26,17,-2,-1,-7,-5,2
1537912743317304,-5,-11,-38,-21,0,7,4,3
1537912743317304,1,5,7,1,-4,-2,-2,-4
1537912743318301,-3,-11,23,4,2,-2,1,2
1537912743318301,-2,-6,-11,-2,-5,-2,1,-2
1537912743333262,-9,-16,-38,3,11,10,3,4
1537912743333262,2,-2,9,-1,5,2,3,2
1537912743335256,5,14,18,4,1,-2,2,2
1537912743335256,-3,4,6,-6,-9,-7,-9,-12
1537912743348221,1,12,-1,5,1,0,-1,-1
1537912743348221,2,6,8,-5,-3,0,5,7
1537912743354205,-5,-18,-3,2,0,-2,-3,-2
1537912743354205,-11,-5,0,1,-1,-3,-6,-10
1537912743370162,3,-7,4,2,-2,2,0,4
1537912743370162,7,9,-10,-12,-3,3,5,5
1537912743377143,-2,2,-16,1,3,-3,-4,-2
1537912743377143,-1,-3,-5,0,2,1,2,-1
1537912743393101,-3,-8,-10,-7,1,0,0,3
1537912743393101,1,-1,15,2,-1,0,0,-1
1537912743395096,-2,0,34,7,-1,-2,-5,-6
1537912743395096,-5,-10,-6,-2,-1,-1,-2,-2
1537912743407064,0,4,-22,-14,0,1,1,-2
1537912743407064,5,-6,-23,7,4,4,3,2
1537912743416040,13,12,-1,0,0,0,4,8
1537912743416040,-5,-1,23,3,1,0,1,-1
1537912743430002,-4,-4,-4,-5,-2,-1,-4,-3
1537912743430002,-1,13,24,2,-5,-8,-8,-1
1537912743436984,-13,-29,-22,0,1,10,3,-4
1537912743436984,6,33,5,1,8,1,-3,0
1537912743452941,0,-9,-35,-13,0,9,4,-1
1537912743452941,1,1,7,-5,0,-2,2,2
1537912743454936,2,-8,16,7,-7,-6,0,3
1537912743454936,-4,1,1,-2,-10,-6,-3,-1
1537912743466904,0,16,33,12,6,3,1,-4
1537912743466904,-2,10,1,-4,-3,-7,-8,-5
1537912743475880,-2,-16,-49,-12,-2,-2,3,1
1537912743475880,-7,-15,-13,-8,0,1,-2,-4
1537912743489842,11,0,5,6,-2,-4,-3,4
1537912743489842,-1,-6,12,2,-4,0,-1,-1
1537912743496824,-3,12,68,14,13,1,-3,-4
1537912743496824,-3,2,-25,6,0,4,6,2
1537912743513778,-5,-26,-44,-12,-3,0,1,-2
1537912743513778,8,4,-15,-8,-7,-1,-1,0
1537912743514776,7,9,7,-4,0,3,4,3
1537912743514776,-3,-9,16,7,6,2,-1,1
1537912743526744,-5,4,40,9,-14,0,-5,-9
1537912743526744,-10,13,-14,-1,0,-9,-2,-7
1537912743535719,0,-12,0,5,1,3,-2,-1
1537912743535719,8,7,-76,-20,-8,-6,1,0
1537912743550680,-2,-24,-27,-17,-4,5,8,9
1537912743550680,2,-5,4,-1,5,-1,-1,2
1537912743556664,-9,-11,31,5,-7,-4,-3,-5
1537912743556664,-3,21,42,13,1,-5,-5,-4
1537912743573618,1,8,-16,-5,8,2,-3,0
1537912743573618,3,4,28,6,-2,-2,1,2
1537912743574616,3,0,-20,1,3,2,1,2
1537912743574616,2,-13,-9,-6,-4,-1,-3,-3
1537912743587581,2,9,2,0,1,-12,-1,1
1537912743587581,-5,0,12,3,5,6,2,-1
1537912743596557,-7,-1,-2,0,-1,1,-2,-3
1537912743596557,0,-12,-49,-9,-1,3,3,0
1537912743610520,5,-5,-2,-10,-5,-7,-1,4
1537912743610520,1,-2,-7,3,2,7,0,-2
1537912743617502,-1,1,-5,-6,-5,-7,1,0
1537912743617502,-2,-1,34,5,2,-2,5,3
1537912743633460,2,7,12,8,10,2,2,16
1537912743633460,4,1,-8,2,-7,2,12,4
1537912743634456,-12,2,-5,-1,-16,-17,-25,-34
1537912743634456,-4,-7,8,1,4,0,-9,-13
1537912743647421,1,5,0,-1,0,6,-3,-8
1537912743647421,4,-2,-11,-5,3,5,9,14
1537912743656397,2,-1,-5,-1,7,7,8,13
1537912743656397,0,-6,5,0,-2,-4,3,6
1537912743670360,-1,2,0,4,1,1,0,-1
1537912743670360,-7,-4,-3,-3,2,-1,-9,-10
1537912743684322,-1,-2,-3,-2,0,2,1,-5
1537912743684322,1,-10,9,1,-2,-5,-7,-2
1537912743693299,-4,21,-2,-10,-5,-1,1,-4
1537912743693299,-2,-10,-18,-2,-2,0,1,9
1537912743695293,0,-7,-11,-3,-2,-4,0,2
1537912743695293,4,3,11,2,-2,3,5,-2
1537912743707261,-4,-4,13,5,-3,-22,-9,-5
1537912743707261,-5,3,14,-2,0,-1,-3,-6
1537912743716237,-1,2,-11,0,2,1,0,6
1537912743716237,-3,-5,5,0,-1,7,-2,-3
1537912743730200,-2,-5,-11,0,1,6,2,-2
1537912743730200,-1,0,-14,-6,-1,-15,-5,-3
1537912743737181,4,-3,-2,0,7,11,3,4
1537912743737181,-4,-3,0,-7,-9,-15,-1,-2
1537912743753138,7,3,12,7,0,6,13,24
1537912743753138,-3,-2,1,-1,-1,5,-8,-16
1537912743755133,-8,-1,-3,-5,-4,-13,-30,-32
1537912743755133,2,1,-2,1,2,-4,6,13
1537912743767101,-3,-1,3,2,5,6,4,-8
1537912743767101,-3,-3,-4,-5,-8,-8,-15,-4
1537912743776077,4,1,6,4,4,3,12,14
1537912743776077,-2,0,-6,1,1,2,-6,-7
1537912743790040,0,-9,-12,-5,-8,-11,4,5
1537912743790040,2,12,0,0,7,10,7,2
1537912743797021,2,1,8,-2,-5,-3,1,6
1537912743797021,-1,-3,13,5,1,2,0,0
1537912743812979,0,0,-13,1,-2,-2,-2,-4
1537912743812979,-1,-10,-4,-5,-5,-7,-7,-8
1537912743814973,-1,-1,-5,-2,0,0,1,2
1537912743814973,4,5,6,-1,-5,4,6,6
1537912743826941,-4,-3,5,3,9,3,-4,-9
1537912743826941,-1,1,12,3,0,-2,-7,-7
1537912743835918,0,-6,-18,0,-2,-1,6,5
1537912743835918,-2,0,-19,-4,0,-1,-4,-3
1537912743850878,0,-1,-5,-5,-2,3,-6,2
1537912743850878,1,-6,-2,-1,-2,3,7,2
1537912743856861,1,3,13,3,1,-1,6,-1
1537912743856861,-4,-3,1,-1,0,7,-6,-8
1537912743871821,-2,4,3,1,-8,-29,-12,-4
1537912743871821,2,-4,1,-1,3,13,8,13
1537912743879800,-3,6,-5,-3,-3,-1,3,6
1537912743879800,0,-1,-1,0,4,2,-4,0
1537912743894760,-2,-2,6,-1,1,5,4,-1
1537912743894760,-6,-7,-3,3,0,-11,-20,-23
1537912743895758,-6,-8,-11,-7,-18,-4,-22,-13
1537912743895758,0,1,-1,-1,2,-14,1,-1
1537912743910718,1,3,7,0,0,6,6,5
1537912743910718,3,0,-6,-3,-1,5,11,12
1537912743916702,0,-1,0,1,14,10,5,4
1537912743916702,1,1,6,1,-5,-7,-3,2
1537912743931662,1,-2,-6,1,-6,-4,-6,-5
1537912743931662,-2,-2,-8,-4,1,4,6,2
1537912743939640,0,1,-1,-3,-1,1,1,-2
1537912743939640,-1,-4,2,-2,-2,1,0,-2
1537912743954600,-3,-11,9,2,-1,-1,-3,-8
1537912743954600,0,20,10,3,1,2,1,0
1537912743962579,1,1,-13,-1,-2,-7,1,1
1537912743962579,-1,-4,-16,-7,-17,-3,0,-3
1537912743971555,-3,-10,-10,-4,-7,5,0,-2
1537912743971555,0,-3,29,3,-3,-9,-6,-1
1537912743977539,0,-3,-12,3,2,-1,0,1
1537912743977539,0,4,5,1,2,-3,-3,-3
1537912743992499,0,7,3,4,3,0,-3,-4
1537912743992499,-4,-7,4,1,-1,-4,-1,0
1537912743999480,2,7,5,-2,-3,-4,2,-1
1537912743999480,2,-5,-11,-4,5,8,-2,0
1537912744015438,-2,1,0,1,1,1,1,4
1537912744015438,-1,-3,-9,-1,-1,-2,0,-1
1537912744016436,0,-2,4,1,5,1,1,1
1537912744016436,-3,2,-2,1,2,2,-1,-2
1537912744031395,-2,2,10,-1,-1,1,-3,-9
1537912744031395,1,-1,-12,4,-4,-7,-3,-1
1537912744037379,0,-5,-15,-2,1,4,1,2
1537912744037379,-7,-8,-6,-12,-7,11,5,3
1537912744052339,10,7,2,4,11,-5,7,28
1537912744052339,0,-2,-8,-7,0,15,8,-6
1537912744059320,-9,-2,9,-1,-3,-13,-24,-31
1537912744059320,-6,-1,2,5,3,-5,-11,-21
1537912744075278,0,0,-2,-2,-5,1,5,4
1537912744075278,5,2,-6,-1,2,-2,7,13
1537912744076275,5,-2,6,0,-7,7,12,16
1537912744076275,-1,2,2,2,5,-4,-2,-1
1537912744091236,-4,-2,-6,-6,-6,-2,-4,-7
1537912744091236,1,-14,-5,1,0,-1,0,4
1537912744097220,1,22,3,-1,-6,-6,3,2
1537912744097220,-1,-4,3,1,-1,-2,-3,-1
1537912744112180,0,-1,-1,-1,-1,3,-3,-3
1537912744112180,-1,-1,-2,-2,-3,-3,-2,-4
1537912744119161,-2,-7,10,3,14,4,-1,-1
1537912744119161,0,-7,3,1,-2,-3,0,4
1537912744135118,-1,17,-11,-2,0,1,-5,-6
1537912744135118,-3,-2,-5,-5,-3,-3,-4,-4
1537912744136116,-1,-6,-1,0,1,0,2,3
1537912744136116,2,-1,8,1,-1,-2,5,6
1537912744151075,-6,-12,-6,-4,-2,4,-2,-7
1537912744151075,-3,6,-2,0,-5,-18,-8,-4
1537912744157059,2,-3,-2,-3,2,13,10,10
1537912744157059,2,4,0,-1,-6,-9,1,-1
1537912744172019,-5,-2,13,2,-2,-4,-12,-17
1537912744172019,-5,2,-12,-2,-1,-1,1,-11
1537912744179998,3,-5,0,-3,-2,1,2,5
1537912744179998,0,-2,-5,2,3,3,5,8
1537912744194957,1,0,2,-2,-1,-2,-2,-1
1537912744194957,0,-2,6,0,-4,0,0,1
1537912744195955,0,-1,-3,1,0,-3,-1,-2
1537912744195955,-4,9,-10,-3,-1,-1,-8,-7
1537912744210915,0,-6,0,-3,-3,-3,2,1
1537912744210915,4,2,0,0,1,3,3,8
1537912744216899,-5,-10,-1,0,-1,-8,-5,-11
1537912744216899,1,2,10,1,1,8,5,5
1537912744231859,2,3,-9,0,-2,1,6,1
1537912744231859,-3,-4,2,-2,2,-6,-12,-13
1537912744239837,0,-5,-14,-3,-3,-3,1,3
1537912744239837,1,7,-4,-2,-2,-2,-8,-6
1537912744254798,-3,-10,-3,-4,4,7,6,2
1537912744254798,0,12,10,3,2,-10,-4,6
1537912744255795,0,-2,3,0,-9,-3,4,5
1537912744255795,-6,-5,4,2,4,6,-2,-12
1537912744270755,-1,-5,-7,-3,-2,-8,-6,0
1537912744270755,0,-4,-8,-2,-6,-4,1,-1
1537912744276739,-3,2,5,-2,-2,-16,-13,-7
1537912744276739,3,0,-2,2,2,8,11,13
1537912744291699,-1,2,4,0,-4,1,-1,7
1537912744291699,-2,-3,-5,1,6,11,6,-3
1537912744299679,-6,-1,-1,-1,-1,-2,-8,-16
1537912744299679,-4,-6,-3,-3,-4,-9,-6,-7
1537912744315635,0,2,3,3,4,0,-1,-1
1537912744315635,-1,-17,-2,0,-1,3,3,10
1537912744315635,-1,25,23,3,3,4,5,6
1537912744315635,3,-9,-22,-4,-7,-2,1,6
1537912744330595,-4,-6,-3,-2,0,1,-4,-7
1537912744330595,-1,-4,-2,-4,-1,-2,-1,-4
1537912744337577,4,-2,4,0,-6,-3,4,10
1537912744337577,-2,3,5,1,6,1,-4,-9
1537912744352537,-5,2,7,-2,-3,-3,1,-4
1537912744352537,1,-5,-8,1,-3,-1,-4,-2
1537912744359518,-5,0,-16,-4,-4,-10,-15,-13
1537912744359518,2,2,-19,-9,-2,3,7,7
1537912744375476,-1,-9,-7,-4,-5,2,4,3
1537912744375476,0,5,11,1,-5,2,2,5
1537912744375476,5,-2,8,5,19,12,9,12
1537912744375476,-1,-1,6,4,-6,-16,-10,-7
1537912744391433,-3,3,0,1,-2,0,0,-10
1537912744391433,-2,1,0,-1,8,5,-6,-6
1537912744397416,-2,-1,-3,0,-6,3,4,-5
1537912744397416,0,-1,7,0,0,-7,-3,1
1537912744412377,-1,-11,-5,-3,4,8,1,3
1537912744412377,1,15,-6,1,3,2,-1,3
1537912744419358,3,-7,-6,-4,-5,-1,1,3
1537912744419358,-1,-2,3,0,2,3,-1,1
1537912744435315,0,0,4,2,-1,-7,-3,0
1537912744435315,-2,-2,-5,-2,-2,0,2,0
1537912744436313,-2,-15,-5,-2,-3,0,-3,-2
1537912744436313,-2,18,3,3,-3,0,-1,0
1537912744451273,-2,3,3,0,0,-1,-4,-3
1537912744451273,2,-5,-4,-2,-2,-2,0,1
1537912744457256,0,-1,-7,-3,-2,-4,0,0
1537912744457256,1,-8,4,1,2,6,9,7
1537912744472217,3,3,-4,2,1,-1,-2,5
1537912744472217,-5,3,-3,-4,-2,-8,-9,-11
1537912744479198,-8,-8,-3,-4,-5,0,0,-8
1537912744479198,0,-5,20,2,5,4,0,-2
1537912744495156,-1,12,-10,-2,-6,0,2,-4
1537912744495156,3,-1,-5,-3,-4,-15,0,7
1537912744496154,2,-3,-7,-3,-1,-1,2,5
1537912744496154,-2,-6,8,1,2,6,0,-1
1537912744519092,1,-3,-3,0,-2,-10,-2,1
1537912744519092,-1,0,4,1,4,8,2,-1
1537912744520090,-2,2,-4,-1,-1,-1,-2,-1
1537912744520090,0,0,-4,-3,-3,-6,-3,0
1537912744532057,0,-2,14,2,1,2,-1,0
1537912744532057,-4,0,-11,1,-1,0,-1,-2
1537912744539038,-4,-2,0,0,2,2,0,-2
1537912744539038,1,-3,-8,0,-1,0,1,0
1537912744554995,0,3,2,-1,5,5,1,-2
1537912744554995,-1,-4,2,-1,-1,-2,0,6
1537912744555992,0,1,2,1,-5,-5,0,3
1537912744555992,-7,-2,-7,1,-1,-1,-2,-16
1537912744569955,-4,-12,-7,-2,-2,-4,-9,-13
1537912744569955,-3,11,3,0,0,-3,-7,-6
1537912744576936,-3,-4,1,-4,-1,3,0,-2
1537912744576936,4,4,12,1,0,-1,1,12
1537912744591896,1,-16,3,1,-1,-4,2,2
1537912744591896,1,15,-19,-3,-3,4,3,2
1537912744599875,3,-1,-13,-4,0,-1,-1,4
1537912744599875,-2,-4,-1,-3,-1,-3,2,-1
1537912744614835,-1,1,6,1,2,0,0,1
1537912744614835,-2,-15,18,3,0,0,1,-2
1537912744615833,2,15,-1,2,1,2,-1,1
1537912744615833,0,1,-15,-4,-4,3,-4,-3
1537912744629795,2,-2,-4,-3,-1,-6,0,2
1537912744629795,-1,-7,-1,-1,-1,5,2,-3
1537912744636776,-1,-1,3,1,0,-9,-8,-1
1537912744636776,1,-2,1,3,-2,-1,1,1
1537912744651737,-1,5,-8,-3,-3,0,-2,3
1537912744651737,-5,-3,4,-1,0,7,1,-14
1537912744659715,-4,-3,2,-2,-4,-3,-1,-7
1537912744659715,1,1,-2,-1,3,-1,-4,0
1537912744675672,0,2,-4,-1,-1,1,2,5
1537912744675672,4,-3,-1,0,-1,0,3,9
1537912744675672,0,-2,2,1,3,5,-1,0
1537912744675672,-4,-2,-6,-3,0,0,0,-1
1537912744689636,0,4,0,-1,-1,-2,-3,-3
1537912744689636,-1,-2,2,0,-2,-8,-5,-3
1537912744696617,1,-3,-2,0,-2,2,1,-1
1537912744696617,-1,-3,-2,-3,-2,-3,-1,-2
1537912744712574,-2,1,0,1,1,3,-1,1
1537912744712574,-1,-1,-1,-2,-1,-3,-3,-6
1537912744719555,1,0,0,1,-1,0,1,-1
1537912744719555,-2,-12,-9,-1,-1,0,1,0
1537912744735512,-6,0,-10,-2,-3,-3,-3,-4
1537912744735512,2,13,0,-4,-2,-1,1,5
1537912744735512,0,-3,6,1,-1,1,2,1
1537912744735512,-2,-2,3,0,0,2,0,-3
1537912744749475,0,-5,-1,0,-2,-3,-2,-1
1537912744749475,-2,-6,-4,0,3,2,0,0
1537912744757454,-2,0,1,-1,-5,-6,-1,-2
1537912744757454,1,0,-1,1,-1,-3,-2,0
1537912744772414,0,3,1,0,-1,1,1,1
1537912744772414,0,-4,0,-1,1,3,1,2
1537912744779395,1,2,0,1,-1,-2,3,5
1537912744779395,-1,0,-1,3,10,11,2,-4
1537912744795353,-14,-6,-6,-6,-10,-18,-28,-35
1537912744795353,0,-2,1,-1,-2,1,2,2
1537912744796350,1,-3,-3,-1,3,1,-1,0
1537912744796350,2,3,0,0,-2,-2,2,9
1537912744809316,4,3,3,-1,1,3,7,12
1537912744809316,-2,-11,-1,0,-2,-2,-3,-2
1537912744817294,-1,7,-1,-1,-2,0,-3,-1
1537912744817294,0,5,-5,-3,-2,-1,1,0
1537912744832254,4,-3,1,-1,0,-1,2,7
1537912744832254,0,-6,-2,-1,-2,-1,-2,-2
1537912744839236,-3,-3,0,-1,0,2,3,-7
1537912744839236,-4,3,4,-1,-4,-4,-5,-5
1537912744854195,0,-1,-6,2,-2,2,1,-1
1537912744854195,0,0,0,-2,1,-1,3,6
1537912744863171,-1,0,-4,0,-1,1,-2,-1
1537912744863171,-1,-1,-2,-3,-4,-4,-5,-6
1537912744869156,0,-1,2,0,1,3,3,4
1537912744869156,1,0,2,0,1,0,0,-1
1537912744877134,-1,-1,-1,-1,-1,-2,-2,-1
1537912744877134,-1,-1,2,2,1,-1,-2,-4
1537912744892094,4,1,0,-1,-4,-1,8,15
1537912744892094,-3,0,-2,0,-2,-6,-5,-11
1537912744899075,-8,-5,-2,-1,-2,-4,-7,-14
1537912744899075,3,-3,-3,-3,-1,1,2,5
1537912744915032,0,1,1,1,3,2,-1,-3
1537912744915032,2,1,-1,0,-4,-6,-5,1
1537912744923011,0,-2,-2,-1,4,9,4,4
1537912744923011,-2,-1,-2,-1,-3,-6,-2,0
1537912744928995,-3,1,-1,1,0,2,1,-3
1537912744928995,0,-2,-1,-1,-2,-1,1,0
1537912744936974,0,-2,0,-1,-2,-2,-1,2
1537912744936974,-1,0,-2,-2,-2,-1,-4,-3
1537912744951934,-1,0,0,0,1,0,0,-2
1537912744951934,-2,0,1,0,-1,-2,-1,0
1537912744959912,-1,-1,0,1,0,-2,0,1
1537912744959912,-1,-1,-2,-3,-4,-1,1,-1
1537912744974873,0,-1,1,0,1,-4,-2,-6
1537912744974873,0,-1,-1,0,-2,1,7,4
1537912744982851,6,0,-1,0,6,11,1,16
1537912744982851,-10,-5,-2,0,-4,-11,-12,-30
1537912744989833,-4,-3,0,-2,-6,-9,-3,-11
1537912744989833,-1,-1,0,0,5,14,4,2
1537912744996814,1,1,0,-2,-2,-18,-3,5
1537912744996814,6,1,1,1,1,10,7,18
1537912745011774,1,1,0,0,1,0,-1,1
1537912745011774,-4,-1,-1,-2,-3,-4,-7,-7
1537912745019753,1,-2,-1,-2,1,14,9,0
1537912745019753,-2,0,-1,-2,-6,-8,0,0
1537912745034713,-2,0,0,-1,1,-1,-1,-3
1537912745034713,1,-1,-1,0,0,2,2,4
1537912745042691,-1,-2,-1,1,-2,-4,-4,-7
1537912745042691,-4,-2,-2,-1,2,-1,-2,-3
1537912745057652,-2,-2,-1,0,-2,6,1,2
1537912745057652,-1,1,-1,1,-1,-5,-1,-1
1537912745058649,-2,-1,1,-2,-2,-3,-4,-8
1537912745058649,-2,-1,-1,-1,1,-1,2,2
1537912745073609,1,1,0,0,0,1,1,3
1537912745073609,-1,-2,-2,-1,-1,-2,-2,-3
1537912745079593,-2,-2,0,-1,-5,-5,-2,-5
1537912745079593,1,1,-1,2,0,-1,-1,4
1537912745094553,0,-1,-2,-2,0,1,-2,1
1537912745094553,-2,2,0,4,3,0,7,-2
1537912745102532,-1,-3,-2,-3,-1,7,-6,-8
1537912745102532,-1,-2,-1,-1,-1,-8,-9,-7
1537912745117492,-3,0,-1,-1,-2,-2,-4,-8
1537912745117492,2,-1,-2,-2,0,1,5,8
1537912745118489,2,1,-1,1,-2,-7,5,12
1537912745118489,2,0,0,0,0,5,-1,3
1537912745132452,-2,-2,-2,-2,0,4,3,-8
1537912745132452,-4,-1,0,-3,-4,-4,-6,-9
1537912745139433,0,0,0,1,0,-1,-1,0
1537912745139433,2,-1,-3,0,-1,1,4,7
