timestamp,emg1,emg2,emg3,emg4,emg5,emg6,emg7,emg8
1537912593931629,0,1,15,4,0,1,-1,0
1537912593931629,-3,3,-6,2,4,2,1,0
1537912593932626,2,-5,-28,-7,-3,-1,-1,-2
1537912593932626,2,1,3,-4,-2,1,1,1
1537912593933624,0,-1,-1,-1,-1,0,-2,2
1537912593933624,0,2,7,0,0,-3,-3,0
1537912593936615,-4,-11,10,3,2,2,-1,-1
1537912593936615,-2,-1,-6,0,-1,-2,-3,-5
1537912593943597,1,-1,1,-2,-3,-5,1,-2
1537912593943597,0,6,10,3,-3,2,1,0
1537912593953570,-2,0,-4,-3,-1,-5,-2,0
1537912593953570,-4,-3,-12,-3,4,4,1,-2
1537912593959554,-2,-4,-6,-2,0,1,1,-1
1537912593959554,2,-3,-6,-5,-4,-1,-3,-1
1537912593974514,-1,-9,1,-1,-1,-1,-2,-1
1537912593974514,0,24,8,1,-2,-4,-2,-1
1537912593983490,2,-4,-11,2,2,-2,0,-1
1537912593983490,-1,-21,-7,-2,-3,-2,1,0
1537912593988477,-1,12,8,-1,-1,1,-2,1
1537912593988477,2,3,8,2,-1,1,4,8
1537912594003437,2,-1,-1,1,1,3,4,5
1537912594003437,-1,-4,-1,0,-1,-4,-8,-7
1537912594012413,0,-5,-5,0,0,-3,0,-3
1537912594012413,2,-10,-4,-3,-2,2,10,19
1537912594051309,-7,-2,3,2,6,5,5,-9
1537912594051309,-17,-6,-1,-5,-10,-14,-43,-53
1537912594052307,-4,-1,1,-3,-7,-7,1,-1
1537912594052307,3,2,1,3,9,4,1,5
1537912594053304,8,4,-2,0,3,6,7,17
1537912594053304,6,3,0,0,-3,7,15,22
1537912594056296,1,2,-1,2,9,0,-6,-6
1537912594056296,1,-1,-1,-1,-4,-5,0,2
1537912594063277,-1,-3,0,-2,-2,2,3,0
1537912594063277,0,2,4,1,2,-1,4,4
1537912594071256,-2,-1,-5,-1,-1,2,-2,-2
1537912594071256,-2,-2,-8,-2,-1,1,5,1
1537912594078237,-1,-2,-1,0,-3,-6,-9,-10
1537912594078237,-1,-1,-2,-1,-1,-1,-1,2
1537912594094195,1,2,3,0,-2,-2,0,4
1537912594094195,-3,0,0,-2,0,-1,-3,-3
1537912594101176,-2,0,-4,-2,-6,-8,-5,-6
1537912594101176,0,-1,1,-1,1,3,5,3
1537912594108157,0,-4,1,0,2,4,1,0
1537912594108157,-1,-3,1,-1,-6,-7,-5,-5
1537912594123117,-1,2,-1,-4,0,0,-4,0
1537912594123117,1,2,1,1,4,-3,-1,0
1537912594131096,0,1,6,-2,-1,3,2,-1
1537912594131096,-2,-2,-7,-2,-2,-1,-4,-3
1537912594138077,0,0,-4,0,-2,-2,1,3
1537912594138077,0,-2,-4,-1,3,2,6,2
1537912594154034,-3,-3,-3,-1,-3,-6,-12,-10
1537912594154034,0,-1,4,-2,-1,3,2,0
1537912594161016,-1,-1,2,1,-1,-2,-1,0
1537912594161016,1,-2,0,-1,1,1,2,2
1537912594176973,1,-2,-1,0,-2,-2,1,-1
1537912594176973,0,-1,1,-1,-1,-2,-2,-2
1537912594182957,-2,-1,-1,-1,1,2,0,1
1537912594182957,1,-3,-1,-1,-5,-5,-5,-2
1537912594191933,-3,-2,-2,-2,-2,-1,2,-1
1537912594191933,0,1,-1,0,2,0,-3,-3
1537912594197918,0,0,-1,1,-1,-2,3,0
1537912594197918,2,0,0,1,-2,0,-1,1
1537912594214873,-2,-2,-2,-2,-1,0,-2,-3
1537912594214873,-2,-1,1,0,0,0,-1,-2
1537912594220857,1,-1,-1,-3,-3,-2,-2,-1
1537912594220857,0,0,-2,0,-3,-2,3,3
1537912594236814,0,1,-2,-3,3,10,7,4
1537912594236814,-3,-1,-2,-1,-2,-3,-4,-3
1537912594243796,-2,-2,0,-2,-2,-2,-3,-3
1537912594243796,1,1,-1,1,1,-3,-1,0
1537912594251775,1,-1,-2,-2,-1,0,0,2
1537912594251775,-1,0,4,0,0,0,-1,0
1537912594258756,-3,-3,-6,-2,0,5,0,-5
1537912594258756,0,0,-2,0,1,-3,0,1
1537912594274715,0,-1,-3,-2,-2,1,1,1
1537912594274715,-3,-4,-3,-3,-3,2,1,-2
1537912594280698,1,1,1,1,-1,-2,-4,-1
1537912594280698,-1,-1,1,1,-2,-4,-1,-4
1537912594295657,-3,0,-2,0,-6,-5,-4,-2
1537912594295657,3,1,1,2,4,2,2,2
1537912594303636,-2,-1,2,1,3,-2,0,-1
1537912594303636,-1,-1,-3,-4,0,3,1,0
1537912594312611,1,0,1,0,-9,-11,-5,0
1537912594312611,-2,-2,0,0,0,2,-5,-4
1537912594318596,0,-2,-2,-4,5,10,5,1
1537912594318596,-2,-2,0,-3,-1,-5,-4,-3
1537912594334552,2,1,2,3,-4,-5,2,1
1537912594334552,1,2,5,-2,-2,2,0,0
1537912594340537,1,2,0,1,0,-1,-4,0
1537912594340537,-2,-5,-11,0,1,3,2,-2
1537912594355496,-1,-2,-2,-1,7,-1,1,0
1537912594355496,-4,-3,-3,-2,2,-2,0,-3
1537912594363475,0,-1,5,0,-3,-6,-4,-4
1537912594363475,-1,-1,3,-1,1,5,0,2
1537912594372451,-1,0,0,1,-7,-10,-5,-3
1537912594372451,-1,1,-2,1,-4,2,0,-1
1537912594378435,0,-2,0,-2,-9,-6,-3,-1
1537912594378435,-2,0,1,1,8,8,3,2
1537912594394392,2,0,-2,0,1,-6,-2,2
1537912594394392,-3,-4,-2,-6,2,9,3,0
1537912594400376,-2,-2,-4,-1,-10,-8,-2,-4
1537912594400376,1,-2,2,0,-2,2,3,-1
1537912594415336,-2,2,11,2,5,2,-4,-2
1537912594415336,1,-1,-14,0,-2,-6,0,0
1537912594423315,-1,1,-10,-2,11,11,1,-1
1537912594423315,-1,9,13,-3,-5,-3,-2,-2
1537912594432291,-1,-10,-17,-4,1,5,0,-2
1537912594432291,-2,-1,-2,0,-6,-13,-3,1
1537912594438275,-2,-7,-1,-3,-7,1,0,-2
1537912594438275,-3,6,6,1,8,-2,-4,-3
1537912594454232,1,-2,4,-3,-1,3,-1,-1
1537912594454232,1,2,2,7,3,1,0,2
1537912594461213,1,-2,-2,-1,2,-3,3,0
1537912594461213,0,2,12,4,2,3,0,-2
1537912594476173,0,10,15,2,-1,0,-1,0
1537912594476173,-3,-9,-26,-16,1,-1,-5,-1
1537912594483155,-6,-12,-22,-3,-2,2,1,-3
1537912594483155,4,-10,-34,-7,-13,-12,-5,2
1537912594492131,3,-2,2,-4,2,10,9,4
1537912594492131,-1,-2,26,6,-4,-10,-5,-4
1537912594498114,0,17,20,0,8,5,-1,1
1537912594498114,-3,0,-8,-3,-1,-3,-3,-4
1537912594515069,-1,13,-18,-4,0,1,-1,-1
1537912594515069,5,8,8,6,-3,-2,1,2
1537912594521053,-3,-5,35,1,-11,-10,-6,-3
1537912594521053,0,8,11,8,12,1,0,0
1537912594536013,-1,-22,-32,0,-10,-13,-6,-3
1537912594536013,-4,-6,-17,-10,-8,8,3,0
1537912594542995,-1,9,6,-1,-3,-19,-8,-5
1537912594542995,2,-2,44,10,6,15,6,5
1537912594551971,-3,2,-23,-9,-2,-10,-5,-3
1537912594551971,4,-5,-21,3,26,14,0,-2
1537912594557955,-7,-16,-29,-13,-31,-18,-6,-6
1537912594557955,3,8,60,8,-10,-12,-1,2
1537912594574909,-2,-2,-11,-3,-2,-3,1,-1
1537912594574909,3,7,-15,-6,-1,-9,-7,1
1537912594580893,2,-14,-8,-4,1,7,5,3
1537912594580893,-9,4,-12,-4,1,-7,-10,-9
1537912594595853,-3,0,30,16,34,25,5,0
1537912594595853,-2,1,43,1,-44,-32,-9,-6
1537912594602835,5,7,-25,-4,18,5,3,3
1537912594602835,9,8,-43,-18,19,19,8,6
1537912594611811,6,18,55,26,7,-18,-3,1
1537912594611811,-17,3,31,5,-42,-6,-8,-19
1537912594617795,1,20,17,6,22,-49,-9,1
1537912594617795,-4,-42,-84,-4,4,-20,-6,-4
1537912594634750,-2,-26,-77,-37,-44,-14,-3,3
1537912594634750,10,-2,35,5,36,22,16,9
1537912594640734,5,13,3,8,-8,13,1,2
1537912594640734,-16,-15,-18,-18,-6,11,2,-5
1537912594655694,-5,-5,23,13,73,41,7,-3
1537912594655694,-6,6,-4,-14,-40,-25,-6,-9
1537912594663673,-2,11,42,13,-40,38,3,4
1537912594663673,3,20,0,-11,-7,-48,-23,-1
1537912594672649,21,10,18,14,31,32,6,11
1537912594672649,-17,-57,-5,-15,-22,-18,3,-11
1537912594678632,-13,57,-33,19,30,3,-5,-16
1537912594678632,22,40,2,12,-34,-11,4,8
1537912594694590,-3,4,62,-21,-11,13,11,4
1537912594694590,1,12,-45,16,36,5,-8,4
1537912594700574,-4,-63,-52,0,-37,-12,5,6
1537912594700574,-22,-68,-45,-4,64,62,14,-10
1537912594715533,8,25,-11,-21,-50,-58,-20,8
1537912594715533,-4,10,41,-29,6,52,20,1
1537912594723512,11,-6,3,7,29,12,15,31
1537912594723512,1,11,11,3,-25,-15,10,-2
1537912594732488,-15,-5,10,12,2,-47,-45,-49
1537912594732488,-4,7,11,26,41,5,-12,-11
1537912594745453,-6,-10,-2,-28,-2,-21,-16,-13
1537912594745453,6,6,1,-9,-42,5,13,25
1537912594754429,4,-6,28,13,-24,13,11,6
1537912594754429,3,27,-28,2,3,-21,-10,-16
1537912594760413,-3,2,-61,-18,-2,6,5,0
1537912594760413,7,-11,47,9,-25,-6,-1,2
1537912594775374,-7,-3,-21,18,17,23,7,5
1537912594775374,11,12,0,-8,4,2,7,18
1537912594783352,-5,-25,43,6,10,-10,-10,-7
1537912594783352,17,41,-57,-11,-32,-9,5,28
1537912594792328,-20,-39,-7,-21,19,25,1,-18
1537912594792328,-8,-10,11,11,-10,-2,-19,-30
1537912594805293,14,36,-8,-13,29,11,29,36
1537912594805293,-6,-8,36,21,2,-9,-21,-22
1537912594814269,-2,26,39,22,-7,-28,1,-4
1537912594814269,-5,-16,-36,-2,24,17,-14,-26
1537912594821251,-11,-26,9,-24,-22,-12,-23,-30
1537912594821251,-21,-11,3,1,11,18,5,6
1537912594835213,28,12,-57,-1,37,23,15,25
1537912594835213,10,2,22,8,-19,-15,18,41
1537912594843192,-2,-10,28,11,17,7,8,-2
1537912594843192,-1,9,32,6,18,2,-1,-10
1537912594852168,-8,-3,-23,-20,-18,1,12,4
1537912594852168,-6,-8,-7,-27,-15,-13,-18,1
1537912594866131,8,-10,-57,3,-31,-24,-18,-20
1537912594866131,-14,-35,-14,-10,16,10,11,-11
1537912594875107,-9,1,58,9,-8,-14,-8,12
1537912594875107,12,11,-22,4,18,19,1,19
1537912594881091,-5,19,37,6,-11,2,-4,-29
1537912594881091,-2,-16,-11,1,-14,1,-8,-15
1537912594896051,0,-17,-47,-5,-18,-13,9,11
1537912594896051,10,33,6,9,9,9,16,25
1537912594903032,5,5,40,-1,24,14,-7,7
1537912594903032,2,11,19,8,-4,-13,-21,-17
1537912594912008,-6,12,-29,-20,-17,-10,-8,-37
1537912594912008,-11,-36,-21,-9,-21,-4,13,11
1537912594925971,-8,-12,2,9,2,-3,8,7
1537912594925971,0,3,-2,-11,9,4,5,12
1537912594934947,5,3,11,-3,-2,8,4,7
1537912594934947,1,3,16,6,1,-16,-10,-13
1537912594940931,2,-2,1,4,-7,1,0,0
1537912594940931,7,0,-17,-4,18,8,1,8
1537912594955891,-10,-18,4,-7,-20,-7,-6,-7
1537912594955891,1,-6,-24,-2,3,7,7,-2
1537912594962872,0,2,-8,-5,-18,-14,-6,4
1537912594962872,-2,2,25,3,0,-10,-4,-6
1537912594971848,-6,5,4,7,17,10,-1,-3
1537912594971848,2,11,21,6,1,-2,0,-2
1537912594985811,6,-10,-28,-6,2,10,5,8
1537912594985811,-3,-9,-14,-10,-6,-1,1,-2
1537912594994787,-1,2,-7,-1,0,2,-2,0
1537912594994787,-2,-2,11,2,-1,-9,-1,-1
1537912595000771,-6,0,19,1,1,8,2,-1
1537912595000771,0,-1,-7,0,-3,-4,-4,-8
1537912595015731,2,4,-1,1,-6,-3,-3,0
1537912595015731,-3,-9,2,-2,-1,-1,-2,-4
1537912595023710,-1,-3,-7,0,3,2,1,-1
1537912595023710,2,10,2,1,0,1,0,2
1537912595038670,0,-7,-2,-2,2,3,1,2
1537912595038670,-1,-3,-5,1,4,-2,-1,-4
1537912595045651,-4,-6,1,0,2,1,-2,-3
1537912595045651,3,13,8,0,0,-1,0,2
1537912595061608,2,-6,-1,0,-7,-11,-6,0
1537912595061608,1,-6,-11,-5,0,9,5,-1
1537912595068590,2,5,14,3,-1,1,-1,4
1537912595068590,-2,-2,0,0,0,-3,-1,-4
1537912595075571,0,-9,-12,-1,1,1,1,-1
1537912595075571,-2,-2,-5,-4,2,-2,1,-1
1537912595083550,0,-3,3,1,5,6,0,-1
1537912595083550,-2,4,10,3,0,-4,-3,-2
1537912595098510,0,1,-3,-3,-5,2,-2,-3
1537912595098510,0,-1,-4,-1,0,-3,0,2
1537912595105491,-1,1,4,0,-1,0,3,1
1537912595105491,-2,-2,-1,0,-1,-6,-4,-2
1537912595121448,1,-1,8,3,0,3,-1,0
1537912595121448,0,12,-7,-1,-4,-2,1,-2
1537912595122446,-1,-5,-10,-3,-1,-3,-4,-1
1537912595122446,-2,-11,-15,-5,-3,0,0,0
1537912595135411,0,-2,2,-2,2,-2,-1,4
1537912595135411,-1,-2,7,1,-2,-2,0,-2
1537912595143390,1,3,4,0,0,-2,0,1
1537912595143390,-1,2,5,0,0,0,-2,0
1537912595158350,-1,-1,0,1,4,0,0,0
1537912595158350,-2,-2,-1,-3,-4,-1,-1,-1
1537912595165331,-1,-1,-2,0,-2,-1,-1,-1
1537912595165331,0,-3,2,0,-1,1,1,-1
1537912595181288,-1,2,-3,1,1,-1,1,0
1537912595181288,0,-3,-4,-4,0,-3,-4,-3
1537912595182286,-1,0,-2,-2,0,-3,-2,0
1537912595182286,-2,-2,1,0,2,5,2,0
1537912595195251,0,0,-3,-1,-1,2,5,1
1537912595195251,-1,-3,0,1,0,-2,-6,-3
1537912595203230,0,0,0,0,-3,-6,3,-2
1537912595203230,-1,0,0,0,1,4,1,-1
1537912595218190,-2,-2,-5,-2,-3,-1,-3,-3
1537912595218190,1,-2,1,0,-2,-1,4,6
1537912595226168,1,0,0,0,3,8,2,-1
1537912595226168,-2,1,-2,-2,-6,-13,-17,-10
1537912595241128,-2,-3,-3,-1,2,0,2,0
1537912595241128,0,-2,-1,-2,-2,-3,0,0
1537912595242126,-1,-1,0,1,-1,-3,-1,0
1537912595242126,1,1,1,-1,3,4,8,4
1537912595256088,-3,-1,-3,-2,-3,1,-1,-4
1537912595256088,0,-1,0,1,-1,-2,-2,-2
1537912595263070,-1,-1,2,-2,-1,-1,0,1
1537912595263070,0,-3,-8,-1,1,0,1,0
1537912595278030,-2,-1,1,-1,-3,-3,-2,1
1537912595278030,-1,-1,-1,0,1,-1,0,1
1537912595286009,-3,-3,-1,-3,-1,-1,-4,-6
1537912595286009,-1,4,13,2,-1,0,0,1
1537912595300968,0,-1,-10,2,-3,-8,-5,-6
1537912595300968,2,-2,-4,-2,2,7,5,5
1537912595301966,-1,-2,-3,0,-4,-8,-5,-2
1537912595301966,-1,2,0,-2,1,-2,2,1
1537912595315929,2,6,4,-1,-4,0,-1,0
1537912595315929,-1,-8,-2,1,0,-5,-4,-3
1537912595322910,0,0,-5,-3,1,7,2,1
1537912595322910,0,-2,-1,0,-10,-8,-1,1
1537912595337870,-2,0,1,-2,0,4,1,0
1537912595337870,-1,0,-1,-3,-3,-1,-4,-4
1537912595345848,-1,0,-1,0,0,2,3,1
1537912595345848,2,-1,-1,0,-3,-1,1,1
1537912595361806,0,-2,0,-1,1,1,-2,-1
1537912595361806,-3,-1,-1,-1,-4,-1,1,-5
1537912595361806,0,0,2,2,-2,-5,-3,0
1537912595361806,-1,-2,-1,-1,1,2,-1,-3
1537912595375768,1,-1,2,6,0,-6,-1,1
1537912595375768,-4,-4,-6,-10,-2,14,8,-2
1537912595382750,1,0,0,1,0,-1,1,2
1537912595382750,-1,-2,-2,-2,0,-1,4,5
1537912595398707,-2,-2,-1,-3,-2,-2,-8,-4
1537912595398707,-1,0,0,2,-2,-10,-5,-4
1537912595405688,0,1,-2,-1,-2,-1,1,0
1537912595405688,1,-1,-2,1,1,-2,-1,0
1537912595421646,-2,-1,-2,-2,0,8,5,2
1537912595421646,0,4,7,2,0,-4,-1,-1
1537912595421646,-1,-4,-7,-2,1,2,-1,-3
1537912595421646,-1,-3,-3,0,9,-4,0,-1
1537912595435609,-1,-3,-2,-3,-1,1,0,-1
1537912595435609,-1,1,1,0,1,-4,-5,-2
1537912595443587,0,0,3,0,7,6,3,2
1537912595443587,-1,-1,-3,0,-1,0,-1,-4
1537912595458547,-3,0,-3,-4,-5,1,1,-3
1537912595458547,0,1,-1,0,1,0,-1,0
1537912595465528,0,1,0,1,-3,-11,-4,-3
1537912595465528,-2,-2,-4,-4,-3,9,0,-2
1537912595481486,0,-1,-2,-3,-1,-7,-4,-1
1537912595481486,1,1,0,2,-1,-5,-2,2
1537912595482483,-1,0,-2,-3,-4,1,-1,-2
1537912595482483,0,-2,0,-2,-2,-2,-3,-3
1537912595495448,0,-1,-1,1,-3,-3,-1,0
1537912595495448,-3,-3,-1,-1,1,-2,-2,-4
1537912595503427,-1,-2,-1,0,0,-3,0,-1
1537912595503427,-1,0,1,1,-1,-5,-2,1
1537912595518388,-1,-1,-2,-4,2,12,5,0
1537912595518388,1,1,0,3,4,-1,0,3
1537912595525369,-2,-2,0,-3,1,8,1,-2
1537912595525369,0,1,0,0,-1,-2,2,-1
1537912595541327,0,-1,0,4,-1,-11,-7,-5
1537912595541327,-2,-3,-4,-5,-7,-7,-4,-2
1537912595542324,-2,-1,-1,-1,-5,6,5,-1
1537912595542324,2,1,3,2,2,-7,5,12
1537912595555289,-6,-4,-3,-6,-2,10,1,-7
1537912595555289,0,0,-1,-1,-2,1,-7,-3
1537912595563267,-2,-1,0,0,-3,-10,-5,-6
1537912595563267,-1,-2,-2,-3,3,1,-5,-4
1537912595578227,4,0,2,4,0,-13,0,8
1537912595578227,-1,-1,-1,-2,1,7,6,0
1537912595586206,0,0,-3,-4,-7,-5,-1,1
1537912595586206,-2,-2,-1,1,1,7,2,2
1537912595601166,0,0,0,-3,-1,-2,-5,-5
1537912595601166,0,-3,-2,-1,2,1,0,-2
1537912595602163,0,1,2,1,3,2,-1,1
1537912595602163,-1,0,-2,-1,-6,-5,-3,-5
1537912595616126,-1,0,-1,2,2,2,3,4
1537912595616126,-1,-1,-2,-3,-4,3,1,-1
1537912595623107,-1,-4,-1,0,-3,-6,-1,-1
1537912595623107,1,-2,0,-1,-2,0,-1,0
1537912595638067,0,-2,0,-1,-1,-2,-3,-1
1537912595638067,-2,-1,0,-1,-2,-2,1,-2
1537912595646046,2,-1,-1,1,4,3,-1,4
1537912595646046,-4,-3,-5,-6,-1,4,-4,-7
1537912595661006,-1,-1,0,0,-2,-1,0,-2
1537912595661006,0,1,-1,1,-9,-8,-1,-1
1537912595668985,-1,-1,0,1,2,-4,-4,-3
1537912595668985,-2,-1,-2,-1,0,6,-1,-1
1537912595675966,2,-1,-2,-1,-1,-2,-1,2
1537912595675966,1,-4,0,0,2,1,1,1
1537912595682947,-2,-3,-1,-2,-4,2,-1,-1
1537912595682947,1,1,1,1,1,-1,1,-4
1537912595697907,-2,-1,-4,-3,-5,-1,-5,-6
1537912595697907,-1,0,-1,1,2,0,1,1
1537912595706883,-2,0,-1,1,-4,-3,-7,-7
1537912595706883,0,0,1,2,-1,-4,4,4
1537912595720846,0,-1,1,-1,9,7,5,6
1537912595720846,0,0,-1,-3,-3,-2,-1,1
1537912595728825,-2,-1,-1,-1,0,-2,-2,-3
1537912595728825,-2,0,1,2,-3,-4,-2,0
1537912595735806,-1,2,-2,0,-2,-3,0,-1
1537912595735806,-1,0,-1,-2,-5,-3,-1,0
1537912595742787,1,1,1,1,8,11,5,4
1537912595742787,0,0,0,-1,-2,-3,-3,-3
1537912595758745,-3,-3,0,-2,0,1,-1,-2
1537912595758745,0,1,2,2,2,-6,-1,1
1537912595766723,-1,0,1,0,0,-2,-1,-1
1537912595766723,-1,-3,-3,-1,0,1,-2,-1
1537912595780686,-2,0,0,0,-2,-1,0,1
1537912595780686,-3,-1,-1,-2,0,3,-1,-1
1537912595788665,1,0,-1,-2,-11,-11,-1,1
1537912595788665,-1,-1,0,1,11,9,1,0
1537912595795646,2,-1,-1,-3,-5,-9,-6,0
1537912595795646,-1,1,0,0,1,1,0,-1
1537912595803625,-1,-1,-1,0,0,0,2,0
1537912595803625,2,-1,0,-2,-3,-2,1,4
1537912595818585,-3,-2,-2,-2,-6,-4,-3,-8
1537912595818585,-3,-2,-2,-1,2,2,2,1
1537912595826563,-2,-1,-1,-3,0,-1,-8,-6
1537912595826563,-2,-3,-1,-2,-5,-7,-1,-4
1537912595840526,-1,-2,-1,0,0,1,2,0
1537912595840526,2,-1,1,2,-2,-5,-1,4
1537912595848505,-4,-4,-5,-4,3,12,3,-3
1537912595848505,-3,-1,-2,-4,1,2,-4,-6
1537912595863465,0,2,-1,-3,-3,-2,-1,0
1537912595863465,0,-3,0,-1,-1,-1,-1,-3
1537912595864462,-1,-1,-2,0,1,-1,-2,1
1537912595864462,-1,-1,0,-1,-5,-4,2,2
1537912595878425,0,0,1,1,2,2,-5,-3
1537912595878425,-2,0,-1,0,1,1,-2,1
1537912595886403,1,0,1,1,-2,-2,3,1
1537912595886403,-1,0,0,-2,-9,-1,-5,-4
1537912595900366,0,1,0,1,4,-1,3,4
1537912595900366,-1,-1,-3,-2,-6,-2,-1,-1
1537912595909342,0,-1,-1,-2,-2,-1,-2,-2
1537912595909342,-1,0,0,0,-4,-4,0,-1
1537912595924303,0,0,1,1,1,2,4,2
1537912595924303,-2,-4,0,-2,-2,-10,-4,-5
1537912595924303,0,1,0,0,-1,-2,2,2
1537912595924303,0,-1,-2,-2,-1,-1,-3,-1
1537912595938265,-2,-1,1,0,-10,-5,-2,-1
1537912595938265,-1,-1,1,1,1,1,-1,-1
1537912595946244,1,-1,-2,-1,4,5,3,0
1537912595946244,0,0,2,3,2,-6,-4,-3
1537912595961203,1,-1,-2,-1,1,5,4,2
1537912595961203,3,0,-1,-2,-2,0,1,0
1537912595969182,-2,-2,-1,0,-4,-4,2,2
1537912595969182,-3,0,1,2,-1,0,-6,-7
1537912595984142,-1,0,-1,1,2,-2,-2,-3
1537912595984142,1,0,-2,-3,3,6,2,1
1537912595984142,-1,1,1,2,3,-4,-4,-3
1537912595984142,1,-2,-2,-5,-9,-1,7,6
1537912595998105,-4,-4,-3,-4,1,1,-7,-6
1537912595998105,-2,0,0,0,0,-2,-3,-6
1537912596006083,1,0,0,-2,-4,-5,-2,-1
1537912596006083,0,0,-1,0,1,2,1,0
1537912596021043,-2,-2,-1,-2,-10,-6,1,0
1537912596021043,0,-1,-3,0,1,1,-2,-1
1537912596029022,-1,-2,0,0,-3,-3,-7,-4
1537912596029022,-1,-1,-2,0,4,-1,0,-4
1537912596043982,2,0,-1,-2,3,3,1,3
1537912596043982,-1,0,2,1,2,-3,0,1
1537912596044980,-2,-2,-3,-3,-7,0,3,2
1537912596044980,-1,-1,-3,-2,-1,5,2,1
1537912596057945,0,2,0,1,2,4,6,4
1537912596057945,0,1,0,0,-5,-7,-12,-6
1537912596065924,-2,-2,-2,-2,3,9,6,2
1537912596065924,1,-1,-1,0,2,-1,-1,2
1537912596080884,-3,-2,-1,0,0,-2,0,-2
1537912596080884,-2,-4,-3,-5,-2,8,5,1
1537912596088862,-1,1,-3,-1,0,-3,-5,-2
1537912596088862,-1,-3,-2,-1,0,2,1,1
1537912596103823,-1,-1,1,0,-1,-5,-3,-2
1537912596103823,-3,-1,-1,0,0,0,0,-3
1537912596104820,0,-1,-2,1,1,-3,-4,-1
1537912596104820,-2,0,0,0,-3,-1,-1,1
1537912596117785,0,-1,-2,-4,-2,-1,-3,0
1537912596117785,-1,1,0,0,1,0,0,-2
1537912596126761,1,0,0,-1,2,-2,0,1
1537912596126761,-1,0,-1,0,0,-3,-4,-1
1537912596140724,-2,-1,-1,0,2,4,0,-4
1537912596140724,-2,0,0,1,1,-1,0,1
1537912596148702,-1,-1,-1,-2,-5,-3,3,-2
1537912596148702,-1,-1,0,-3,-1,-2,-2,-3
1537912596163663,1,-1,-1,0,3,1,1,0
1537912596163663,1,0,1,2,-2,-4,-3,-1
1537912596164660,-2,-1,-3,-4,4,14,6,0
1537912596164660,-3,0,-2,-1,8,0,-2,-2
1537912596178622,-1,-2,-3,-1,-2,-1,0,3
1537912596178622,-1,-1,0,1,-4,-9,-5,-1
1537912596186601,-1,-3,0,-1,-3,-2,-5,-3
1537912596186601,1,0,0,0,2,2,-2,-1
1537912596200564,-1,-2,0,-3,-10,-7,-3,-4
1537912596200564,-2,-2,-1,-2,-1,0,2,2
1537912596208542,1,2,3,2,-5,-13,-3,-2
1537912596208542,-3,-2,-1,-1,5,7,3,-1
1537912596223502,-5,-5,-4,-5,0,14,2,-3
1537912596223502,-1,-1,-2,-3,-4,-3,-3,-1
1537912596224500,-1,0,0,2,0,-2,-1,2
1537912596224500,0,-1,1,1,-2,-6,-2,1
1537912596238463,1,1,2,4,5,-5,-2,2
1537912596238463,1,0,-2,0,6,6,4,0
1537912596246441,0,0,0,2,4,1,0,0
1537912596246441,0,1,1,3,-8,-5,-2,-3
1537912596260404,1,-2,0,2,-1,-13,-3,2
1537912596260404,-3,-2,-2,-3,0,10,2,1
1537912596268382,2,3,2,4,0,-12,-5,0
1537912596268382,1,0,0,-1,3,11,6,4
1537912596284340,-5,-2,-5,-6,-5,-1,-1,-7
1537912596284340,-2,-4,-2,-4,0,6,2,0
1537912596284340,-3,-3,-3,-2,-5,-1,-4,-5
1537912596284340,1,1,-1,0,-5,-7,-1,3
1537912596298302,0,-2,-3,-1,7,21,6,2
1537912596298302,1,1,2,4,-4,-14,-3,1
1537912596306281,-9,-9,-9,-12,-11,1,-5,-8
1537912596306281,-2,-1,-1,-2,-6,-6,-5,-2
1537912596320244,-2,2,3,2,3,-6,-5,-3
1537912596320244,-3,-3,-2,-5,-8,3,3,2
1537912596336201,2,0,1,3,0,-9,-4,1
1537912596336201,1,0,0,0,-2,-2,1,1
1537912596344180,2,2,2,1,3,2,1,0
1537912596344180,-4,-2,-3,-5,-5,3,-1,-3
1537912596344180,2,1,0,2,-1,-4,-3,-1
1537912596344180,-3,-2,-1,-1,1,-1,-2,-3
1537912596358143,-3,1,1,2,0,4,0,-5
1537912596358143,6,2,3,5,5,-5,1,6
1537912596366121,-2,-3,-4,-7,-16,-2,2,-1
1537912596366121,0,3,2,4,3,-5,-3,-1
1537912596381081,0,1,2,4,7,-4,-5,-1
1537912596381081,-1,-4,-3,-5,2,8,2,-3
1537912596389060,-4,-4,-3,-3,10,10,-1,-3
1537912596389060,1,2,0,0,-1,-7,-1,1
1537912596404020,0,-2,-2,-1,-4,-2,-1,0
1537912596404020,-5,1,0,-1,3,4,-2,-5
1537912596405017,2,2,1,2,2,0,2,1
1537912596405017,-4,0,-1,-3,-6,-4,-1,-4
1537912596417983,-4,-1,-4,-3,-10,2,2,1
1537912596417983,3,4,1,3,-1,-7,-4,-1
1537912596425961,-1,0,0,-1,1,2,0,3
1537912596425961,0,0,-1,-2,4,8,3,2
1537912596440922,-2,-1,0,-2,-5,-8,-4,-3
1537912596440922,-2,0,-1,1,-3,-10,-4,1
1537912596448900,2,2,3,1,3,11,8,6
1537912596448900,1,1,3,3,6,3,-1,1
1537912596463860,-4,-4,-5,-7,-8,-6,-3,-6
1537912596463860,1,-2,-4,-3,-2,-4,4,2
1537912596464857,1,1,0,2,-2,-9,-5,-3
1537912596464857,-2,-4,-4,-6,-2,5,-1,-1
1537912596477822,3,4,0,3,-1,-7,-1,5
1537912596477822,-5,2,-2,-3,-8,-1,-4,-7
1537912596486798,1,1,0,1,3,3,2,4
1537912596486798,-3,-9,-3,-4,-4,-3,-2,-4
1537912596500761,-1,-8,1,-1,-6,-7,-3,-3
1537912596500761,0,-10,-1,0,6,5,0,-1
1537912596508740,-2,-5,-2,-2,1,0,-3,-3
1537912596508740,-2,-4,-1,-2,-2,-3,-4,-2
1537912596523700,1,-1,0,2,3,2,1,4
1537912596523700,0,-1,-1,-1,-3,-5,-2,2
1537912596524697,-3,-2,-2,-3,-3,-6,-5,-5
1537912596524697,-1,-1,-2,-5,-17,-8,2,-1
1537912596538660,5,3,3,4,9,3,1,1
1537912596538660,-5,-3,-5,-4,13,14,0,-4
1537912596546638,3,2,1,-1,-8,-17,-2,7
1537912596546638,1,2,-1,1,5,-2,-5,0
1537912596560601,-4,1,-2,-3,0,0,-1,-2
1537912596560601,1,2,2,3,-7,-8,-4,-4
1537912596569577,0,-1,0,1,6,1,0,-1
1537912596569577,-1,-3,-5,-6,-13,5,0,-2
1537912596583540,0,-1,-1,-3,-4,1,1,3
1537912596583540,1,1,0,1,-6,-13,-5,-2
1537912596592516,-1,1,-1,0,5,8,1,0
1537912596592516,0,1,0,1,0,-2,4,3
1537912596598500,-1,-3,-3,-5,-2,4,-1,1
1537912596598500,0,0,1,2,-5,-6,-1,1
1537912596607476,-3,-2,-2,0,6,7,-3,-6
1537912596607476,1,-3,-2,-2,-9,-10,-5,-3
1537912596620441,0,1,2,2,-6,-7,-2,1
1537912596620441,-2,-2,-2,-2,3,6,1,-3
1537912596629417,1,2,2,0,-4,-4,3,5
1537912596629417,1,1,0,2,8,7,2,1
1537912596643380,0,0,0,0,-2,-11,-2,-1
1537912596643380,-1,-1,-2,-2,0,5,1,-2
1537912596652356,-3,-2,-1,0,-4,-5,-3,-4
1537912596652356,-1,1,2,3,-4,-2,0,2
1537912596658340,5,1,0,1,20,19,9,9
1537912596658340,-1,-3,-2,-1,0,0,-3,-4
1537912596667316,-2,-2,-2,-3,-4,-9,-7,-5
1537912596667316,-3,-1,0,3,12,5,0,-3
1537912596680281,-1,1,0,-2,-31,-17,-6,-4
1537912596680281,3,0,1,1,-3,-2,1,5
1537912596689257,-1,-2,-4,-2,11,14,1,-2
1537912596689257,2,2,-2,-3,-13,-12,-1,2
1537912596703220,-4,-2,-1,2,3,4,0,-2
1537912596703220,-2,0,1,-2,-11,-27,-12,-5
1537912596712196,-4,-4,-2,-5,-3,-6,-3,-4
1537912596712196,-2,0,1,2,10,4,-2,-4
1537912596718180,-1,-1,-1,-2,3,9,4,0
1537912596718180,0,1,0,0,1,4,2,1
1537912596734137,-2,-2,-1,1,-4,-4,0,1
1537912596734137,2,1,1,3,5,-4,-1,-1
1537912596741119,-6,-7,-9,-11,-4,9,-4,-4
1537912596741119,1,1,0,1,2,4,2,2
1537912596749097,-2,-1,-1,-1,-8,0,-2,-4
1537912596749097,-3,-3,-3,-6,-6,9,1,0
1537912596763060,2,0,2,1,0,-8,-3,0
1537912596763060,0,-1,0,0,1,-1,0,-2
1537912596772036,1,-3,-1,-1,-1,-1,-1,-1
1537912596772036,-3,-1,-2,0,9,1,-4,-1
1537912596778020,-1,0,-1,-3,-4,-9,-2,-2
1537912596778020,-3,-2,-2,-2,5,5,-2,-1
1537912596786996,0,1,1,1,-2,-6,1,3
1537912596786996,-5,-4,-2,-3,0,3,1,-3
1537912596800959,1,3,3,4,-12,-14,-4,1
1537912596800959,0,-3,-2,-3,0,1,2,1
1537912596809935,2,1,-1,0,1,1,1,1
1537912596809935,1,1,2,0,-6,-8,0,0
1537912596822900,0,-1,-1,1,5,5,-1,-1
1537912596822900,0,-1,2,-1,-3,1,-3,-2
1537912596831876,-1,2,1,0,-2,1,0,-1
1537912596831876,-1,-1,0,0,2,-5,-4,0
1537912596846836,3,1,2,2,9,-2,4,2
1537912596846836,-9,-7,-7,-6,6,11,-7,-12
1537912596848831,1,0,-3,-2,3,-2,0,4
1537912596848831,1,-1,-1,-1,-3,-4,-1,0
1537912596860799,-2,-1,-2,-3,-6,2,-2,-4
1537912596860799,0,1,0,1,-17,-12,-1,2
1537912596869775,2,0,2,2,-10,-3,0,3
1537912596869775,-4,-1,-2,-1,6,5,0,-4
1537912596882740,-1,1,-2,0,4,5,0,1
1537912596882740,-1,-1,-2,-2,-1,0,-3,-2
1537912596891716,-3,-2,-1,0,-5,3,2,-3
1537912596891716,0,-1,0,-1,-2,-1,2,1
1537912596906677,-3,-3,-1,-1,2,4,-4,-6
1537912596906677,0,0,1,3,-4,-18,-1,2
1537912596908671,0,-2,-1,-2,0,-2,-3,0
1537912596908671,-3,-1,-4,-2,6,12,1,-5
1537912596920639,1,0,1,1,-1,-11,-3,-1
1537912596920639,1,1,1,1,14,12,5,4
1537912596929615,2,-1,-2,0,2,2,0,0
1537912596929615,2,-1,-1,2,-6,-7,-1,1
1537912596943577,-2,-1,-2,-5,-13,3,-2,-3
1537912596943577,1,1,2,3,-2,-6,1,2
1537912596952554,-3,-1,-1,-1,9,10,4,-3
1537912596952554,-1,-1,-2,-4,-4,-2,-1,0
1537912596967513,-1,-1,-2,1,8,2,1,0
1537912596967513,1,0,-2,-2,-3,-1,0,0
1537912596968511,1,0,-1,1,-3,-2,0,0
1537912596968511,-2,-5,0,-1,-9,-9,-6,-3
1537912596980479,-1,-1,-1,0,-1,-1,0,-1
1537912596980479,-1,0,-2,0,-8,-6,-2,-1
1537912596989455,-5,-3,-4,-5,1,8,-2,-4
1537912596989455,-1,1,-1,-1,4,5,-1,-2
1537912597003418,-1,-1,-3,-1,7,2,3,2
1537912597003418,-3,-1,-1,-3,-2,6,2,-4
1537912597012393,-1,2,0,0,8,4,0,-2
1537912597012393,3,1,-3,-4,-9,-18,-2,3
1537912597027353,1,0,-1,-1,-1,-4,-1,0
1537912597027353,-2,2,1,2,4,-2,-2,-2
1537912597028351,-1,0,-2,-3,-4,-3,0,0
1537912597028351,-3,-1,0,1,-4,-7,-4,-5
1537912597040319,-3,-3,-3,-4,1,6,2,-1
1537912597040319,2,-1,0,4,6,-5,-1,1
1537912597049295,-2,-3,-1,-2,8,13,-1,-4
1537912597049295,0,0,-1,-1,4,2,1,2
1537912597063258,2,2,3,3,-5,-17,-6,0
1537912597063258,0,-4,-4,-6,-2,14,7,1
1537912597072234,0,0,0,1,4,-5,-2,-2
1537912597072234,-3,1,0,0,-1,0,-1,-3
1537912597087193,-1,-1,-2,0,-2,-9,-4,-1
1537912597087193,2,1,1,-2,-4,8,5,2
1537912597088191,0,-1,-1,0,-4,-7,-4,0
1537912597088191,3,0,-1,0,1,1,2,0
1537912597101156,-2,0,1,1,0,1,-1,-2
1537912597101156,-1,0,-1,0,4,-2,-3,0
1537912597109135,1,0,-1,-2,2,-1,3,4
1537912597109135,1,-2,-1,-1,3,9,2,2
1537912597123098,-4,-3,-2,-4,-6,-3,-2,-4
1537912597123098,-2,-4,-1,-2,2,4,-6,-5
1537912597132074,0,-1,3,2,2,-4,2,4
1537912597132074,-6,-3,-2,-7,-4,3,-2,-7
1537912597147034,0,-1,-3,-3,12,12,1,1
1537912597147034,0,1,-2,-3,-9,-3,-1,1
1537912597148031,-2,0,0,2,-6,-8,-3,-4
1537912597148031,-1,-1,2,4,1,1,0,4
1537912597160997,-3,-7,-7,-9,-1,13,6,-2
1537912597160997,-1,-2,-3,-3,-8,-6,1,1
1537912597169973,-5,-5,-11,-5,0,5,-3,-7
1537912597169973,-2,-1,-3,-4,2,-1,-3,-2
1537912597182938,4,3,13,7,-25,-13,-3,-1
1537912597182938,8,9,15,6,5,8,5,7
1537912597192911,-7,-5,-8,-17,-21,-14,-6,-9
1537912597192911,-5,-3,-15,-1,16,11,3,0
1537912597206874,4,5,18,13,-5,-9,-6,1
1537912597206874,8,9,16,27,-1,-4,3,4
1537912597208868,-2,-14,12,10,-1,-4,0,0
1537912597208868,-7,-20,-18,-5,-1,0,-3,-7
1537912597220836,-2,52,-23,-18,0,-7,-4,-4
1537912597220836,-8,-25,-22,-23,14,22,3,-6
1537912597229812,0,0,-6,-3,12,-12,2,7
1537912597229812,1,-12,10,-7,-11,-10,1,3
1537912597242778,-5,-21,-18,-26,8,-2,-6,-4
1537912597242778,-9,7,-1,4,5,-1,2,0
1537912597251754,4,9,21,17,-36,-12,-5,-4
1537912597251754,5,13,13,10,16,-12,-14,-4
1537912597266714,2,-11,-9,-3,9,-1,-1,0
1537912597266714,-5,-2,-6,1,-20,-16,-10,-7
1537912597268709,11,2,11,7,4,12,11,15
1537912597268709,9,25,36,38,-5,30,23,7
1537912597280676,-13,-8,-6,-7,-12,-31,-19,-17
1537912597280676,10,-9,-10,-12,16,19,13,16
1537912597289652,-19,-10,-18,4,25,16,-6,-18
1537912597289652,1,6,-11,-37,-48,-80,-21,4
1537912597303615,7,-15,-3,14,28,19,19,9
1537912597303615,-2,17,-8,-1,-10,-12,-2,4
1537912597311594,19,13,10,10,7,23,13,9
1537912597311594,-10,-3,-4,-5,10,-9,-16,-18
1537912597326554,-3,-6,21,-29,-5,36,9,7
1537912597326554,-4,-7,-10,11,-18,-1,-9,-6
1537912597328549,-3,2,-21,7,13,1,10,3
1537912597328549,-7,-17,-26,-33,-6,4,12,-9
1537912597340516,-4,-7,29,15,-7,-17,-11,1
1537912597340516,12,23,7,11,-17,-16,-10,-3
1537912597349493,23,27,26,-1,11,14,19,19
1537912597349493,5,-3,22,80,8,17,9,4
1537912597363455,1,-6,9,11,26,-3,1,2
1537912597363455,-18,-13,-22,-18,-1,10,-4,-11
1537912597372431,-9,2,-33,-16,25,10,-6,-9
1537912597372431,-25,-16,-10,-22,42,8,-9,-22
1537912597387391,8,-2,-19,-33,-90,-42,-20,24
1537912597387391,4,-5,20,-6,10,-17,-11,-21
1537912597388388,-4,0,-4,-19,-48,-55,-26,-2
1537912597388388,9,13,-16,-13,24,40,11,11
1537912597400356,-11,-7,-20,21,34,26,17,-14
1537912597400356,-12,-34,-13,-43,-1,-14,-16,-5
1537912597409332,-11,14,-11,-1,-17,7,-6,-8
1537912597409332,18,20,31,51,-19,-3,10,14
1537912597423295,14,11,23,43,42,11,8,-2
1537912597423295,2,1,12,25,-8,-1,-1,3
1537912597432272,-3,0,38,-3,-4,-14,-5,-2
1537912597432272,-12,-27,-34,-18,31,35,-5,3
1537912597447232,4,6,-44,-15,-53,-55,-5,-1
1537912597447232,-9,-14,-8,-10,-18,-41,7,3
1537912597448229,15,-1,-4,-15,2,-6,-24,12
1537912597448229,8,16,17,-15,9,3,2,4
1537912597460197,-7,0,17,-13,6,11,-6,-13
1537912597460197,-9,-4,-28,-40,0,25,11,-4
1537912597469172,-11,-24,-22,17,-17,-25,-10,-13
1537912597469172,11,20,19,38,4,9,13,11
1537912597483135,-11,-7,2,-43,9,51,8,3
1537912597483135,-3,4,3,56,-13,-14,-11,-14
1537912597492111,9,16,24,24,14,7,4,-5
1537912597492111,17,3,20,15,38,33,30,25
1537912597507071,6,-8,3,35,14,35,8,8
1537912597507071,-21,-2,10,-30,-10,-37,-37,-27
1537912597508069,-4,-6,-37,-47,-31,-14,-8,12
1537912597508069,-7,-9,-11,-13,-6,-4,-9,-13
1537912597521034,-10,-9,-23,-16,-29,-33,1,-6
1537912597521034,35,12,2,-1,36,49,22,31
1537912597530010,-7,-12,-4,4,0,24,19,-1
1537912597530010,-12,-1,-5,-33,-43,-45,-28,-12
1537912597542975,1,-14,6,9,43,21,7,-3
1537912597542975,-6,11,12,17,43,14,9,-5
1537912597551952,6,6,-12,5,-28,-6,10,4
1537912597551952,-7,0,5,3,20,6,-5,-6
1537912597566911,2,0,-1,-18,-48,-33,-22,-4
1537912597566911,7,13,50,68,45,25,14,10
1537912597572896,7,-6,4,4,18,14,8,15
1537912597572896,-8,-12,-19,-16,-25,3,4,-12
1537912597580874,-8,7,4,4,1,7,-14,-12
1537912597580874,2,-18,-9,-29,7,18,10,12
1537912597589850,-12,16,3,-11,-25,-12,-7,-14
1537912597589850,5,-4,-12,-9,-24,-8,-7,3
1537912597603812,9,8,-4,11,39,37,18,15
1537912597603812,-4,-24,-1,-11,-1,-14,-4,-2
1537912597610794,-9,-9,-7,-21,2,15,-2,-10
1537912597610794,-4,14,-20,-4,-4,-10,-12,-9
1537912597626751,6,20,13,21,-22,-11,15,14
1537912597626751,9,3,17,19,20,3,-4,10
1537912597632735,-20,-28,-6,7,19,-1,-10,-25
1537912597632735,15,2,9,5,-28,-25,-2,10
1537912597640714,2,6,14,8,34,20,14,4
1537912597640714,-5,4,-16,2,-31,-17,-18,-16
1537912597649690,0,5,1,5,12,2,7,6
1537912597649690,-9,-13,-16,-16,1,10,2,-2
1537912597663653,-9,-13,-10,1,-5,-28,-19,-14
1537912597663653,-9,2,-12,-22,-5,20,12,1
1537912597670634,-1,-7,3,-8,1,1,-3,-5
1537912597670634,1,0,2,-5,-20,-31,-16,2
1537912597686591,7,7,4,3,7,6,8,4
1537912597686591,-1,0,0,-5,-2,-13,-8,-1
1537912597693573,1,-1,3,8,23,22,1,-2
1537912597693573,-1,0,3,4,13,-1,5,2
1537912597700554,-6,-3,-1,-4,-13,-20,-7,-9
1537912597700554,2,3,-8,0,-8,-4,-4,-4
1537912597709530,4,1,4,10,7,2,6,8
1537912597709530,-2,-4,2,-2,6,4,0,-2
1537912597724491,-5,-5,-4,-3,2,-7,-9,-4
1537912597724491,-3,0,-8,-5,-19,-3,5,3
1537912597730474,6,2,5,0,0,-4,0,5
1537912597730474,-2,-6,1,-5,2,7,-3,1
1537912597746431,-2,-1,-5,-1,-6,-2,-3,-7
1537912597746431,1,4,-4,-3,-7,-4,0,-3
1537912597753413,-2,-4,5,2,4,-3,-4,-3
1537912597753413,-3,0,1,-1,0,-4,0,-1
1537912597769370,0,-2,-3,-1,-2,3,0,0
1537912597769370,5,3,-2,-3,-9,-4,6,8
1537912597771365,-4,-4,0,-2,-7,-7,-5,-7
1537912597771365,-4,-4,-4,-2,3,6,6,0
1537912597784330,2,1,0,2,-1,-1,-2,1
1537912597784330,-5,-3,-3,-5,4,-8,-9,-12
1537912597790315,3,-2,0,-2,-7,-3,2,5
1537912597790315,-3,-2,1,0,3,12,-2,-6
1537912597806271,-4,-2,0,1,-2,2,-4,-3
1537912597806271,2,3,-2,-2,1,10,8,4
1537912597813253,1,-1,-2,0,2,-4,-2,0
1537912597813253,0,0,0,-1,-7,-1,2,1
1537912597829210,0,-3,-2,-4,3,-4,-3,-1
1537912597829210,0,-1,1,0,-7,-3,-3,-2
1537912597831205,0,0,1,1,-3,-4,-1,-1
1537912597831205,0,-1,1,1,-1,-3,-2,-2
1537912597844170,-3,-2,-3,0,-3,-1,-3,-3
1537912597844170,-1,1,-3,0,-2,1,0,3
1537912597850154,-1,-2,-1,-5,2,-4,-2,0
1537912597850154,0,-3,-1,-1,-4,-2,-2,-2
1537912597866112,-1,0,0,-2,0,1,1,-2
1537912597866112,-1,-1,0,-1,-5,-2,2,2
1537912597873093,-1,-2,-1,0,2,0,-1,-1
1537912597873093,-1,0,-2,-2,-3,-2,-4,-2
1537912597889050,0,1,0,0,-1,-2,4,1
1537912597889050,-4,-2,-2,0,-5,-5,-9,-5
1537912597891045,-1,-1,-3,-3,1,0,-1,1
1537912597891045,2,0,0,-3,0,1,1,0
1537912597904010,-5,-2,-1,-1,-3,-13,-6,-9
1537912597904010,3,2,1,0,0,1,2,3
1537912597910991,-1,-2,-2,-3,-7,-5,-1,-3
1537912597910991,-2,-1,-1,1,0,2,3,2
1537912597925951,0,1,-1,-2,-1,0,-5,1
1537912597925951,-1,1,-2,-1,-4,-9,-10,-6
1537912597932933,-2,-3,-1,1,2,-1,-2,0
1537912597932933,1,0,-1,-1,-2,-3,0,1
1537912597949887,1,0,0,1,0,2,3,3
1537912597949887,0,-1,-1,1,-2,1,2,2
1537912597950885,0,0,0,-1,-11,3,0,-3
1537912597950885,-1,0,0,-3,-2,1,3,2
1537912597963850,1,-2,-2,0,2,4,2,1
1537912597963850,0,-2,-3,-2,-2,-5,1,0
1537912597970831,0,-1,2,3,2,-7,-4,0
1537912597970831,-2,-1,-1,0,2,6,-2,-3
1537912597986789,-3,0,-1,-1,-1,-1,-2,-3
1537912597986789,0,0,0,-1,1,0,4,3
1537912597992773,-2,-1,-1,0,4,3,0,-4
1537912597992773,-3,-2,1,0,-3,-6,-5,-4
1537912598009727,3,-2,-2,-1,2,2,1,2
1537912598009727,1,0,1,1,5,8,3,3
1537912598010725,-2,2,-2,0,2,-1,-2,-1
1537912598010725,3,2,1,3,-7,-7,-1,3
1537912598022693,-4,-3,-2,-2,5,2,1,-5
1537912598022693,-4,-3,-5,-5,-1,1,-4,-3
1537912598031669,1,0,-2,-1,0,0,-1,-2
1537912598031669,-2,0,1,-1,-2,-5,-5,-2
1537912598046629,-1,-1,-2,-2,-8,2,1,3
1537912598046629,2,0,0,0,-3,-4,-2,5
1537912598053610,-1,-3,-1,-1,0,-2,0,-2
1537912598053610,-3,-1,-2,-2,1,-1,-1,-5
1537912598069567,0,-1,0,1,4,3,7,6
1537912598069567,-2,-1,-1,-3,1,5,-1,-6
1537912598070565,1,-1,-1,1,-3,-3,0,0
1537912598070565,-1,-4,-1,-3,-6,-6,-4,-4
1537912598083530,0,0,-2,-2,0,5,2,-1
1537912598083530,1,-1,0,-2,-3,-3,1,2
1537912598090512,1,0,2,0,2,1,-1,1
1537912598090512,-2,-1,0,0,1,-3,0,0
1537912598106469,-4,-3,-1,-1,3,4,-2,-3
1537912598106469,0,-1,-2,-1,-1,-1,4,0
1537912598113451,-1,0,0,0,4,3,-1,1
1537912598113451,0,0,-1,0,-2,-3,3,1
1537912598129408,3,1,0,0,2,8,0,2
1537912598129408,-3,-2,-2,1,-4,-11,-7,-4
1537912598131404,2,-1,0,-1,-2,3,4,3
1537912598131404,-1,-1,-1,0,1,1,-3,1
1537912598144368,0,-1,0,2,-3,-8,-5,-3
1537912598144368,-1,-1,-1,-1,-2,-4,4,-1
1537912598150353,-1,0,-1,-2,-2,1,-1,-3
1537912598150353,-3,1,-1,-2,1,-1,-3,-1
1537912598166310,-1,-1,1,-1,-4,-10,-6,-3
1537912598166310,1,0,-1,2,-2,-1,2,3
1537912598173291,-4,-2,-2,0,-1,-4,0,2
1537912598173291,4,4,5,4,1,3,-2,-1
1537912598189249,-3,-3,-4,-3,11,6,2,-1
1537912598189249,-1,-1,1,-2,-2,-2,-4,0
1537912598191244,2,1,1,-2,1,2,1,2
1537912598191244,-3,-2,-4,-3,-6,-3,-1,-3
1537912598204208,1,-1,-1,-1,-7,-7,-4,-3
1537912598204208,-1,0,-1,0,-1,4,3,-2
1537912598211189,-2,-2,-2,-2,-1,-8,-4,-4
1537912598211189,-2,-1,-1,-2,5,8,1,1
1537912598226149,0,2,2,0,-1,-5,-2,0
1537912598226149,0,0,0,0,4,8,3,1
1537912598233130,-1,1,-1,0,-4,-7,-5,-2
1537912598233130,0,-1,-2,-1,1,-1,5,6
1537912598249088,2,0,-2,-1,-1,3,1,0
1537912598249088,-2,-1,0,0,-4,-12,-13,-10
1537912598251082,-4,0,0,-2,0,0,-1,-2
1537912598251082,-1,-2,-1,0,-6,0,-1,0
1537912598263050,-3,0,-2,-2,-3,-7,1,-2
1537912598263050,-2,-2,0,0,1,0,-5,0
1537912598272026,1,1,-1,0,1,4,2,0
1537912598272026,-2,-2,-3,0,2,3,1,-2
1537912598285989,1,0,0,1,-3,0,3,5
1537912598285989,-1,0,2,1,-4,-8,-2,-1
1537912598292970,0,0,-1,0,1,2,1,0
1537912598292970,2,0,0,-1,-3,-5,-2,-1
1537912598309926,-1,0,-1,-2,-6,-1,-3,-1
1537912598309926,0,1,-2,1,6,7,4,2
1537912598310924,2,1,1,-1,-6,-2,2,6
1537912598310924,-3,-1,-1,-2,-7,-2,-1,-3
1537912598322892,0,0,0,2,0,-1,-3,-1
1537912598322892,-2,-3,-1,-3,-11,-6,2,0
1537912598331868,-2,-4,-3,-4,2,7,2,-3
1537912598331868,-5,-4,-1,-3,-6,3,1,-5
1537912598346828,0,0,0,-1,-1,-3,1,2
1537912598346828,0,0,-2,-2,2,4,3,3
1537912598352812,-3,-1,-1,0,-2,-6,-7,-6
1537912598352812,2,-1,-1,-1,3,-2,-1,1
1537912598369767,-1,-2,0,-2,-1,-1,-2,-2
1537912598369767,-1,-1,-2,-2,2,4,0,-1
1537912598370764,1,-2,1,-1,-1,-1,-1,-1
1537912598370764,-2,0,-1,-2,-1,-1,-5,-2
1537912598383729,-3,1,-1,2,0,-1,-1,1
1537912598383729,0,1,2,0,0,-3,-2,2
1537912598391709,-2,-1,0,-3,2,4,3,-1
1537912598391709,-1,-3,-2,-2,5,7,-2,-3
1537912598406667,3,-1,0,0,-3,-1,2,1
1537912598406667,-2,-2,0,0,3,2,0,-4
1537912598413648,0,0,-1,2,7,-2,-5,-1
1537912598413648,-1,0,-1,2,2,-3,0,2
1537912598429605,-2,-1,-3,-2,-1,-1,-6,-4
1537912598429605,-2,-1,-2,-1,-2,0,0,-1
1537912598430603,0,0,-1,0,-2,0,1,0
1537912598430603,0,0,1,1,0,-2,-4,-2
1537912598443568,0,-1,-1,-1,2,6,5,4
1537912598443568,-2,0,-1,-1,-2,-3,-2,1
1537912598452544,-1,0,-1,0,-3,-1,1,-3
1537912598452544,2,2,1,2,-1,-2,3,-1
1537912598466506,-2,-1,1,-1,-2,-6,-7,-6
1537912598466506,-1,-3,1,0,0,2,1,-1
1537912598473488,1,-1,-1,-1,0,-1,1,1
1537912598473488,-1,-2,-1,0,1,5,3,2
1537912598488448,-1,0,0,-2,-3,-10,-4,-2
1537912598488448,-1,-2,-3,-4,-3,-1,-5,-4
1537912598495429,-2,0,0,2,4,-1,-2,2
1537912598495429,0,-2,0,-1,-10,-17,-4,-2
1537912598503408,-2,-1,-2,-2,1,6,-2,-2
1537912598503408,1,-1,-1,1,0,1,0,-1
1537912598512384,1,0,1,1,0,-7,1,1
1537912598512384,-2,-2,-2,-3,6,13,4,-3
1537912598526347,1,1,0,1,-5,-6,1,1
1537912598526347,-1,-1,-4,-4,-5,-1,3,1
1537912598533329,0,0,-1,2,-5,-2,-4,-1
1537912598533329,0,-1,-1,0,2,1,1,0
1537912598549287,0,-3,1,-1,-4,-4,-1,0
1537912598549287,-2,-2,-2,-3,0,5,3,1
1537912598555271,-1,0,-2,-3,-6,-3,-4,-1
1537912598555271,-1,1,-1,-2,2,2,0,-1
1537912598563249,-2,-2,-1,0,4,3,1,-3
1537912598563249,1,1,3,3,0,-5,-3,0
1537912598572226,-2,-2,-2,-4,-7,-4,-1,-1
1537912598572226,-2,-1,-1,1,1,-3,-5,-6
1537912598586188,1,-1,1,2,-5,-14,-5,0
1537912598586188,-2,0,-3,-1,4,8,1,0
1537912598593171,1,0,1,1,2,1,0,0
1537912598593171,-4,-2,-4,-5,-1,5,-4,-5
1537912598609126,0,-1,1,0,0,-2,1,1
1537912598609126,1,1,-1,0,-3,-4,-3,-1
1537912598616107,-1,-2,-1,-3,2,4,3,0
1537912598616107,-1,0,0,2,-3,-13,-5,-1
1537912598623088,-1,0,-1,-1,1,6,4,1
1537912598623088,-1,-1,0,0,-2,-3,-2,-3
1537912598632065,0,0,-1,0,-2,1,0,1
1537912598632065,2,1,-1,0,-1,0,1,1
1537912598646027,-3,-1,-2,-2,-9,-2,-2,-3
1537912598646027,0,-1,-2,1,2,3,2,1
1537912598653009,-1,-1,1,-1,-1,-1,0,-2
1537912598653009,-1,-2,-1,0,0,3,3,2
1537912598668966,-1,-2,-5,-4,4,3,-5,-7
1537912598668966,0,0,-1,-3,-13,-13,-4,-1
1537912598675948,-1,-2,0,1,-2,-2,0,-1
1537912598675948,-3,-1,-1,-2,3,4,2,0
1537912598691904,0,0,-2,-1,-3,5,0,1
1537912598691904,-1,-1,0,-1,-3,-7,-6,-1
1537912598693899,0,-3,-4,-3,7,7,1,-2
1537912598693899,-1,-1,0,-1,-4,-6,-3,-3
1537912598706864,-2,-1,-1,0,-5,-2,1,0
1537912598706864,-4,-1,-2,-1,4,4,-1,-1
1537912598712848,-5,-5,-7,-11,-3,-3,-2,-2
1537912598712848,4,-1,4,7,-2,-3,0,2
1537912598728807,5,8,19,13,4,5,7,2
1537912598728807,6,6,24,13,0,-2,1,2
1537912598735789,-3,-3,-12,2,-5,-6,-3,-2
1537912598735789,-9,-7,-16,-9,-4,8,-4,-5
1537912598751746,-2,-7,-14,-5,13,7,-1,1
1537912598751746,0,-4,-8,-9,-1,-7,1,-2
1537912598753741,-5,-5,0,-12,-22,-8,-5,-9
1537912598753741,2,-6,-3,-4,1,-6,-2,4
1537912598766705,-2,26,-1,-16,-2,-4,-5,-5
1537912598766705,0,-5,-2,2,-5,1,-1,0
1537912598773687,0,-1,6,15,3,-2,1,-2
1537912598773687,1,-2,6,3,-4,-14,-5,-1
1537912598788647,-3,-8,-3,-1,-7,-5,0,-3
1537912598788647,-4,-2,-10,-1,9,2,0,-3
1537912598795630,1,2,7,7,-5,6,1,1
1537912598795630,2,6,8,4,30,12,5,2
1537912598811585,4,1,4,-3,-3,2,6,8
1537912598811585,-3,-1,-9,-8,-1,3,-1,-2
1537912598813579,-1,-1,0,4,-9,-19,-10,-2
1537912598813579,-1,-5,-5,0,20,22,3,-2
1537912598834523,-3,-5,-3,-5,-5,6,2,-2
1537912598834523,-1,-2,0,-2,-18,-30,-3,-2
1537912598835521,0,0,-1,4,19,19,6,3
1537912598835521,0,2,-1,-7,-16,-14,-1,-2
1537912598848485,-4,-14,1,0,7,3,0,-5
1537912598848485,-2,-1,1,-4,-4,7,0,0
1537912598855467,1,15,25,2,-7,-4,-4,-6
1537912598855467,-1,39,-14,1,-4,2,1,-1
1537912598872421,2,-21,-25,-9,-6,-4,3,3
1537912598872421,-2,6,47,-2,5,6,-3,-1
1537912598873419,-4,-29,-42,1,0,-4,-3,-1
1537912598873419,1,2,33,8,0,0,-2,0
1537912598886384,4,2,-75,-23,-2,-1,-1,-4
1537912598886384,0,15,-15,1,-4,-2,-3,-3
1537912598893366,18,43,59,2,-3,-2,1,3
1537912598893366,-20,-64,-45,25,-2,-1,3,2
1537912598909323,-2,-10,38,22,4,-12,-4,5
1537912598909323,3,-44,51,-7,5,11,11,6
1537912598915307,-15,26,21,-7,10,2,-8,-9
1537912598915307,5,67,-38,-16,-24,-16,-10,-5
1537912598932262,7,12,37,11,2,-8,-6,-5
1537912598932262,-12,-32,-40,-2,11,10,5,-1
1537912598933259,10,-21,32,-3,8,8,5,3
1537912598933259,6,27,119,0,-10,-5,-3,-3
1537912598954203,-9,2,-106,8,-8,-2,-2,-1
1537912598954203,7,0,2,5,-2,-3,-4,-2
1537912598956197,-16,-64,-13,6,9,6,1,-4
1537912598956197,7,2,-101,-43,-18,-6,-2,0
1537912598969163,-2,-22,-1,-31,-9,-1,4,2
1537912598969163,-11,-31,14,5,15,8,1,-1
1537912598975147,-4,38,-17,-6,-12,-4,-1,6
1537912598975147,-5,-16,57,23,3,-10,-3,-3
1537912598991104,-5,72,127,40,17,-1,-2,-2
1537912598991104,8,9,-116,6,-5,-2,-5,-3
1537912598992102,11,-25,-73,-33,-1,5,6,3
1537912598992102,-10,-59,-1,-10,7,3,2,1
1537912599014043,5,17,11,-9,-17,-5,-1,0
1537912599014043,-6,44,127,14,12,7,-4,-7
1537912599014043,7,42,-51,21,-6,-10,-7,-3
1537912599014043,17,-22,-81,-15,-12,-3,3,4
1537912599030000,-15,-42,-15,3,7,0,1,-3
1537912599030000,-13,-12,38,-9,-1,2,0,1
1537912599035984,-8,-6,-36,-11,-4,1,-2,-3
1537912599035984,5,-14,-25,-1,-6,2,1,1
1537912599050944,3,6,-9,-7,0,-1,1,5
1537912599050944,10,15,-18,6,-2,-2,3,7
1537912599051942,3,1,80,0,8,-1,-4,-1
1537912599051942,-11,46,93,-1,17,19,-9,-13
1537912599073883,12,-39,-99,-8,-49,-28,-10,-1
1537912599073883,-16,-58,-40,4,21,-2,13,7
1537912599074880,-3,-19,29,15,9,-9,3,13
1537912599074880,2,27,37,0,-21,23,16,1
1537912599089840,4,43,67,7,12,10,-10,-11
1537912599089840,9,26,-8,-9,-3,6,-15,-11
1537912599095824,-15,-10,-66,-22,-41,-46,-9,-10
1537912599095824,-1,6,4,7,6,-16,8,3
1537912599111781,-9,-26,11,-2,-19,2,-10,-19
1537912599111781,8,66,-63,-9,-10,-22,-1,10
1537912599111781,17,-36,14,-1,-12,-26,-7,18
1537912599111781,10,51,-7,9,1,-7,6,20
1537912599126741,0,-67,8,-11,19,30,21,13
1537912599126741,1,16,2,-14,-17,24,-1,-5
1537912599132725,-13,-13,-23,34,62,19,12,0
1537912599132725,-32,-25,3,12,-25,-39,-43,-60
1537912599149680,-2,22,68,32,-10,-30,-19,-32
1537912599149680,16,9,-50,-77,-24,17,14,18
1537912599155664,5,-12,-35,-40,-5,33,25,27
1537912599155664,4,-21,30,37,41,0,8,17
1537912599171621,-24,23,22,9,28,31,0,-11
1537912599171621,1,-40,-55,38,9,-13,2,9
1537912599171621,-8,-16,14,-12,-22,-3,-9,-8
1537912599171621,19,12,-39,12,24,23,9,6
1537912599186581,5,61,67,-17,-14,-20,-7,0
1537912599186581,-7,-95,-33,-27,41,31,4,-6
1537912599193563,10,17,-26,-5,-49,-27,-4,9
1537912599193563,-21,14,58,27,25,7,-10,-8
1537912599209520,14,-22,-87,-36,-20,-21,-1,14
1537912599209520,-7,37,54,19,47,24,29,27
1537912599215504,-19,17,58,25,-3,-25,-67,-57
1537912599215504,-9,-40,-72,-28,19,9,9,-26
1537912599231462,0,-17,-15,1,-42,-1,10,24
1537912599231462,15,65,95,29,12,-20,-2,0
1537912599232459,19,50,11,-16,-33,41,22,10
1537912599232459,-17,-44,-82,-33,-45,-55,-21,-1
1537912599247419,-1,-51,-74,10,64,47,23,-10
1537912599247419,-3,-14,-3,-6,-16,-10,-8,9
1537912599253403,-5,44,65,3,21,12,-28,-43
1537912599253403,0,-3,25,-15,-27,-20,-18,-30
1537912599269360,-3,-3,-8,7,8,-11,10,20
1537912599269360,-17,-11,22,28,5,12,1,-5
1537912599275344,8,13,13,33,13,12,14,24
1537912599275344,19,-5,-53,-22,1,27,16,30
1537912599291302,-1,-21,-6,-24,-10,4,12,14
1537912599291302,13,64,1,23,41,7,7,45
1537912599292299,-21,-74,-28,-24,-42,-49,-35,-46
1537912599292299,-25,-25,112,17,-24,-3,-28,-67
1537912599307259,5,12,-88,-40,-50,-43,-18,-18
1537912599307259,-1,10,-32,-7,3,16,17,-2
1537912599313243,2,-28,5,37,58,32,36,41
1537912599313243,19,70,20,-52,20,24,12,39
1537912599329200,5,-18,16,10,-17,8,-9,-9
1537912599329200,-7,-19,35,17,-20,-12,-10,-22
1537912599335184,1,-5,-60,-11,-13,5,33,25
1537912599335184,-23,-45,-14,53,70,19,9,5
1537912599351142,-9,27,56,14,16,-3,-23,-3
1537912599351142,0,-2,-51,-28,-53,-27,-20,-44
1537912599352139,-3,24,25,-8,4,1,-5,-14
1537912599352139,22,7,2,2,23,38,45,34
1537912599367099,-5,8,-1,-14,-41,-37,-20,-5
1537912599367099,-11,17,44,14,-43,-43,-39,-31
1537912599373083,-4,-3,31,-28,-4,-6,-6,-24
1537912599373083,19,-84,-128,-50,-45,-17,11,32
1537912599388043,4,-20,-28,44,73,56,69,53
1537912599388043,-19,2,61,2,-25,-49,-42,-32
1537912599396022,-2,20,-24,-29,-12,2,-35,-24
1537912599396022,10,19,3,-43,-2,9,14,13
1537912599410982,13,20,31,50,12,-15,-2,-5
1537912599410982,4,-7,8,47,21,20,48,52
1537912599417963,-3,34,68,58,59,31,23,30
1537912599417963,-16,-32,-25,-4,-45,-29,-65,-71
1537912599426939,-32,-45,-80,-76,-1,-21,-33,-72
1537912599426939,11,3,-29,-27,12,41,40,3
1537912599432923,14,-1,-3,-6,10,-34,13,42
1537912599432923,9,59,89,-2,-19,-16,-24,18
1537912599447883,-2,44,44,29,-36,-45,-38,-25
1537912599447883,10,-29,-59,0,18,30,19,11
1537912599455862,-10,-17,12,8,-1,-10,43,17
1537912599455862,-2,-9,-22,20,20,11,-42,-22
1537912599470821,-7,49,26,-35,11,-2,-19,-8
1537912599470821,2,-37,-49,-16,-18,-24,-20,-17
1537912599477803,13,-20,-11,32,26,22,55,47
1537912599477803,-6,3,71,70,10,7,41,18
1537912599486779,2,36,49,0,14,12,-45,-23
1537912599486779,-1,-10,-68,-49,-22,-7,-7,-21
1537912599492763,-5,-18,-18,-14,13,-6,-13,-10
1537912599492763,0,22,-9,-22,-79,-28,9,3
1537912599507723,-6,-3,45,17,2,19,7,10
1537912599507723,-1,10,12,-13,0,-10,-14,-16
1537912599515702,-13,-44,-96,-40,-32,-10,-38,-46
1537912599515702,7,0,-21,3,34,18,41,32
1537912599530663,27,-5,66,38,6,47,58,64
1537912599530663,-11,-4,-16,24,-23,-34,-11,20
1537912599538641,-13,-21,54,-23,-34,-26,-66,-72
1537912599538641,-4,-22,-118,-27,32,1,3,-4
1537912599546620,16,-23,-10,-1,4,35,63,55
1537912599546620,-9,4,59,23,-31,-48,-30,-35
1537912599553601,-20,25,26,16,10,-1,-44,-59
1537912599553601,14,28,36,-17,-34,-13,-29,9
1537912599568561,-5,-18,-21,-6,5,-10,10,-10
1537912599568561,5,-16,-4,13,64,62,46,37
1537912599575542,20,32,-8,-18,-24,-11,31,46
1537912599575542,-21,2,38,2,-4,6,-24,-48
1537912599590502,-5,9,-68,-5,17,13,9,16
1537912599590502,10,-20,5,3,-10,-1,7,4
1537912599598481,-4,37,3,16,16,11,-1,3
1537912599598481,1,-35,5,18,5,-14,-11,11
1537912599613441,-11,1,49,8,1,3,-15,-16
1537912599613441,5,39,21,-32,-24,-14,-10,-3
1537912599614439,13,-16,-61,3,14,24,26,26
1537912599614439,-2,-4,-8,5,6,-1,19,-2
1537912599628401,-18,-6,3,-11,-12,-30,-39,-41
1537912599628401,-17,17,49,7,-3,-10,-36,-36
1537912599635383,17,6,-30,-9,-24,2,8,25
1537912599635383,11,-4,28,14,20,11,22,23
1537912599650342,-2,-37,-75,-24,4,8,12,0
1537912599650342,5,-17,19,7,30,24,16,31
1537912599658321,0,-15,16,7,-32,-8,-3,-1
1537912599658321,-18,6,2,-5,-18,-31,-10,-39
1537912599674278,11,3,6,8,6,-8,0,8
1537912599674278,9,13,-6,1,-10,6,9,9
1537912599674278,-11,4,9,-14,-7,-3,-22,-9
1537912599674278,-2,6,-2,-5,5,8,5,-18
1537912599688240,-5,-2,-4,-2,-6,-2,-7,-2
1537912599688240,-3,-1,-16,-15,-13,-5,1,-5
1537912599695222,7,-4,4,5,13,35,26,19
1537912599695222,-8,-1,-9,1,-7,-16,-11,6
1537912599710182,6,9,16,3,1,6,6,7
1537912599710182,4,-5,-13,4,5,11,1,3
1537912599718161,-3,32,15,2,3,-11,-6,-8
1537912599718161,0,-34,-13,-2,-3,-2,-3,3
1537912599734118,-4,-5,11,-1,0,-3,-3,-4
1537912599734118,-2,-19,-44,-13,-4,-5,-6,-7
1537912599734118,-9,-4,-8,-7,2,-1,2,-6
1537912599734118,3,25,20,5,3,11,3,10
1537912599748082,-1,1,5,6,4,-3,-1,-1
1537912599748082,-3,19,25,7,-5,-5,-10,-10
1537912599756061,1,-9,-8,-5,3,-6,-3,-5
1537912599756061,5,7,10,1,3,11,7,13
1537912599771021,-3,-12,-10,-1,-4,-7,-5,-4
1537912599771021,-4,-2,-17,-9,-5,-8,-7,-8
1537912599778002,-4,-15,-8,-2,6,3,3,-1
1537912599778002,0,-2,1,1,4,0,2,7
1537912599793960,3,14,7,1,-4,-4,-3,-1
1537912599793960,-8,-12,-7,-7,0,4,-3,-7
1537912599794958,0,-8,-3,0,2,-6,-2,0
1537912599794958,5,12,1,3,3,5,5,9
1537912599807922,-1,1,-5,-3,-1,-3,-3,-2
1537912599807922,0,-1,2,3,7,1,0,-3
1537912599815902,-4,-8,0,3,1,0,-2,-3
1537912599815902,-2,28,15,-6,-6,-2,-1,4
1537912599830860,-2,-30,-38,-4,4,5,3,-1
1537912599830860,-1,21,19,2,-1,-4,-2,-1
1537912599837842,-4,-34,-14,1,2,-3,0,-6
1537912599837842,0,8,-2,0,0,6,1,3
1537912599853798,-2,0,6,-8,-1,-2,-2,0
1537912599853798,-3,-5,-27,-5,-6,-6,-4,-3
1537912599854795,1,17,15,2,4,-1,0,-2
1537912599854795,-4,-12,-2,1,0,-2,1,1
1537912599867760,1,6,20,4,-4,-2,-3,-3
1537912599867760,-4,-14,-13,-4,-1,-1,-2,-2
1537912599875739,3,0,-21,-11,-4,1,0,-1
1537912599875739,-2,-11,-9,-1,-5,-4,-1,-1
1537912599890700,-2,9,8,0,11,10,0,-4
1537912599890700,-2,-3,19,9,1,0,-3,-1
1537912599897681,1,-1,-5,0,-1,-1,0,-1
1537912599897681,4,0,-11,-2,0,0,2,1
1537912599913638,-3,4,9,3,-1,-5,-3,-1
1537912599913638,1,6,29,5,0,1,-2,-1
1537912599914635,-4,-8,-27,-4,-6,0,-1,-2
1537912599914635,1,2,-34,-9,6,0,1,1
1537912599928598,-3,-27,-12,-10,-6,-4,-1,-4
1537912599928598,0,-8,3,-3,0,-1,0,-1
1537912599935580,2,7,41,10,2,0,1,0
1537912599935580,-2,-2,-2,-1,-3,-1,-1,-3
1537912599950540,1,6,-15,1,-4,2,3,2
1537912599950540,-5,-12,-1,-5,-5,-12,-8,-5
1537912599958519,3,11,16,2,0,3,2,0
1537912599958519,-2,4,16,5,2,1,-2,-1
1537912599973479,0,-22,-27,-5,-1,-2,0,0
1537912599973479,8,19,10,3,3,2,2,2
1537912599974477,-2,9,-11,1,-2,-8,-4,-2
1537912599974477,-1,-6,-37,-9,0,-1,-1,1
1537912599988439,-10,-12,7,-7,-6,4,3,-3
1537912599988439,4,-12,-26,-7,-5,-7,-1,3
1537912599995420,1,-1,24,-1,6,2,0,1
1537912599995420,1,8,37,11,7,1,0,3
1537912600010381,0,13,-2,2,-11,-6,-4,-3
1537912600010381,-5,3,28,6,10,8,1,-4
1537912600018359,0,0,-30,-1,4,3,2,0
1537912600018359,1,-9,0,-2,-13,-7,-1,-1
1537912600033319,1,7,-7,0,-3,-7,-2,3
1537912600033319,-3,0,3,-1,-3,2,-3,-4
1537912600034316,1,0,9,2,-2,-4,-1,-2
1537912600034316,-6,-5,-6,-1,2,6,-1,-6
1537912600048280,3,8,8,0,6,6,4,2
1537912600048280,-1,-2,-11,-5,-9,-15,-4,0
1537912600055260,-3,-7,-5,-2,2,7,7,9
1537912600055260,-3,-2,5,2,-2,-3,-9,-9
1537912600070220,-1,4,5,1,-9,-18,1,2
1537912600070220,-2,-7,-16,-6,1,8,-10,-9
1537912600078198,-1,11,-3,-1,3,1,2,1
1537912600078198,2,0,11,1,-5,-1,2,3
1537912600094156,3,2,2,5,8,-12,-4,0
1537912600094156,-4,-5,-15,-4,-8,3,5,0
1537912600094156,-3,-8,6,-2,-1,-2,-9,-5
1537912600094156,0,0,5,1,1,0,2,6
1537912600108119,-4,4,-3,1,1,-6,-6,-10
1537912600108119,3,-3,-3,2,10,18,12,12
1537912600116097,-2,-3,5,-1,-4,0,0,-7
1537912600116097,-2,-2,-4,-6,6,7,9,2
1537912600131058,3,1,-2,-2,1,6,-5,-2
1537912600131058,3,4,1,-1,-3,-8,-4,-1
1537912600138039,0,-1,1,1,-3,1,1,1
1537912600138039,-3,-1,-4,-3,-1,-4,-6,-2
1537912600153997,0,0,2,1,-3,1,2,1
1537912600153997,-2,0,-3,1,2,1,1,1
1537912600154994,-2,-1,-5,-2,1,-4,-5,-3
1537912600154994,1,-5,0,0,-6,-7,0,-2
1537912600167960,-1,1,0,-1,4,7,-2,-1
1537912600167960,-2,-11,-1,-1,-7,-5,2,0
1537912600175939,-2,4,-4,-1,-3,-4,-3,-1
1537912600175939,1,7,0,0,2,0,0,-1
1537912600190899,2,2,-1,-2,-2,4,1,0
1537912600190899,-3,-4,-8,-3,-1,-11,-4,0
1537912600197879,0,-4,3,-2,0,6,8,2
1537912600197879,0,-1,3,1,-2,-3,-4,-3
1537912600221816,-2,-1,-4,-2,-1,1,-1,0
1537912600221816,-2,-3,-2,-4,-5,4,-1,-5
1537912600222814,1,-2,1,1,3,-3,-2,0
1537912600222814,0,2,-2,0,-4,-3,-3,-2
1537912600227800,-1,-1,0,0,1,3,-1,-1
1537912600227800,-2,4,0,-1,-3,-16,-7,-2
1537912600235778,1,-1,1,-2,2,7,3,0
1537912600235778,0,-2,-1,0,-3,-4,-2,2
1537912600250737,-2,-3,-2,-3,-2,-3,-1,-4
1537912600250737,-1,2,-1,0,4,1,0,-2
1537912600257719,0,-1,1,3,8,-2,-3,-2
1537912600257719,-1,-4,0,-1,-2,-1,3,0
1537912600273676,2,-1,-1,0,4,5,-1,0
1537912600273676,-2,1,-2,-3,-3,-5,0,1
1537912600274674,0,-2,1,0,-2,3,-2,-1
1537912600274674,-1,-1,0,-1,1,3,4,1
1537912600287638,0,2,2,2,0,-3,-3,-1
1537912600287638,0,2,0,2,0,3,3,-2
1537912600295617,1,-1,0,0,-5,-5,2,2
1537912600295617,-2,-1,-1,-1,-2,-6,-6,-4
1537912600310577,1,0,-1,1,-1,2,2,2
1537912600310577,4,1,-1,2,1,-2,0,3
1537912600318556,-2,-3,-2,-3,-3,2,1,-2
1537912600318556,-2,-1,-2,-2,-3,-2,-3,-2
1537912600333517,-2,-1,-1,-2,-2,-6,-3,-3
1537912600333517,-4,0,1,1,-5,-5,-5,-4
1537912600341495,2,-1,-1,-2,-3,-5,1,4
1537912600341495,2,-1,-1,0,2,2,0,0
1537912600348476,-3,-2,-2,-3,-13,-4,0,-1
1537912600348476,0,1,0,-1,3,-2,-2,-3
1537912600355458,-3,-3,-2,-1,-4,-6,-4,-4
1537912600355458,1,-1,0,0,1,3,-1,-2
1537912600370417,0,1,0,0,-1,-6,2,2
1537912600370417,-2,-2,-2,-4,0,11,3,-3
1537912600378395,-1,0,-1,-2,0,-9,-1,-1
1537912600378395,-4,-3,-2,-1,0,1,-3,-2
1537912600393356,0,-1,1,-1,6,8,-1,1
1537912600393356,-1,-2,0,-3,-6,-14,-3,0
1537912600401334,0,0,-1,0,-1,-1,-3,-3
1537912600401334,-1,-1,-1,-1,-2,1,0,-1
1537912600408316,-1,-2,-2,1,0,2,-2,1
1537912600408316,-1,-1,0,-1,-1,6,2,0
1537912600415297,-1,-1,-1,1,-5,-4,-3,-1
1537912600415297,-1,0,0,0,2,-3,-1,-3
1537912600430257,-2,-3,-2,-3,-11,-4,0,-2
1537912600430257,3,1,1,2,3,2,0,0
1537912600438235,0,1,0,0,1,-2,1,-1
1537912600438235,2,0,0,1,4,7,2,2
1537912600453196,0,0,-1,1,4,-1,0,1
1537912600453196,-4,0,-1,0,-7,-16,-6,-3
1537912600461174,-3,-3,-4,-7,0,13,3,-4
1537912600461174,-2,-3,-1,-1,1,4,-2,-3
1537912600468155,2,0,1,-1,4,3,4,1
1537912600468155,0,-3,-3,0,1,7,1,0
1537912600476134,1,0,-1,2,-3,-9,-3,1
1537912600476134,-1,0,0,0,-2,-4,-2,0
1537912600490097,-1,-2,1,0,-1,-3,0,-1
1537912600490097,0,-1,0,-1,0,-3,-2,-2
1537912600498076,-4,-2,-1,-1,1,4,-3,0
1537912600498076,-3,-2,-3,-2,0,6,2,0
1537912600513036,-1,0,-1,0,-2,-1,-2,-1
1537912600513036,1,-2,-2,-1,-7,0,-2,3
1537912600521014,2,0,1,2,0,-3,0,0
1537912600521014,-2,-2,1,-2,0,5,4,1
1537912600535974,-1,2,0,-2,-1,-6,-2,-1
1537912600535974,-2,-1,-1,0,7,11,4,3
1537912600536972,-2,0,-2,-1,-4,-11,-4,-3
1537912600536972,-1,0,1,-1,0,-4,-7,-2
1537912600550934,0,-1,-2,0,2,0,-2,-4
1537912600550934,-2,-2,-2,-2,6,1,3,0
1537912600557916,1,0,0,1,-2,-3,-2,1
1537912600557916,0,-2,-1,-2,-1,1,-1,0
1537912600572876,0,-1,1,0,-2,-6,-4,0
1537912600572876,1,-1,0,-1,-8,-3,-1,0
1537912600580854,-2,-2,-1,1,-1,-5,-5,-1
1537912600580854,1,1,-1,0,-6,-3,2,2
1537912600595814,-1,1,0,3,-4,-9,-8,-2
1537912600595814,-1,0,-3,0,8,12,8,0
1537912600596812,0,-1,1,0,-1,0,1,1
1537912600596812,-3,-2,-4,-4,4,9,3,-4
1537912600610774,0,-1,-2,-1,-10,-18,-2,0
1537912600610774,1,-1,0,-1,-2,10,5,2
1537912600618753,-1,0,-1,-1,3,5,2,-1
1537912600618753,2,1,-1,3,-1,-7,-2,0
1537912600632716,-4,-1,-1,0,1,1,1,-1
1537912600632716,-1,0,-1,-2,-3,-3,-4,2
1537912600641692,0,0,-1,0,2,2,-1,-2
1537912600641692,1,0,1,1,-5,-6,-3,2
1537912600656652,-2,-2,-1,-2,3,8,-1,-4
1537912600656652,0,1,-1,-1,-2,-6,-4,-1
1537912600656652,-2,-1,1,-1,3,-2,-2,-2
1537912600656652,-2,-2,-2,-1,-2,-1,0,0
1537912600670614,-1,-2,-2,-2,5,15,1,0
1537912600670614,-4,-1,0,1,-2,-10,-5,-2
1537912600678593,-1,-1,-3,-2,0,5,0,-1
1537912600678593,-3,-2,-2,-2,-4,-4,-2,-1
1537912600693553,1,0,1,0,-1,3,2,0
1537912600693553,0,0,1,3,-3,-7,-2,1
1537912600701532,0,0,-1,-2,0,8,4,-1
1537912600701532,-1,-2,0,-2,-2,-3,-1,-1
1537912600716492,-1,-1,1,2,0,-3,-3,0
1537912600716492,0,-1,0,0,1,-3,0,-1
1537912600716492,-3,0,1,0,-3,-7,-4,-2
1537912600716492,1,0,1,-3,-5,-2,-2,1
1537912600730454,1,1,-2,-1,2,5,3,3
1537912600730454,-5,-2,-3,-4,-1,2,-4,-7
1537912600738433,-1,-1,-3,-1,-1,-2,-2,1
1537912600738433,-4,-3,-4,-3,-7,-12,-7,-7
1537912600753393,0,0,0,0,-1,-9,-5,0
1537912600753393,-5,-1,-2,-5,2,14,0,-6
1537912600761372,-1,2,-1,-1,-5,-12,-2,-1
1537912600761372,0,-1,1,1,7,6,1,-2
1537912600776332,0,-1,0,-2,0,-3,0,0
1537912600776332,-1,-1,0,-1,-2,-6,-3,-1
1537912600777329,0,-3,0,-1,-1,1,0,-1
1537912600777329,0,0,1,2,0,-3,0,1
1537912600790295,-1,0,-2,0,0,5,2,-2
1537912600790295,3,2,2,2,-5,-4,0,2
1537912600799270,0,-1,-2,-2,-4,3,1,0
1537912600799270,0,0,1,3,2,-4,-3,-1
1537912600813233,-1,0,-1,-1,-2,-1,1,0
1537912600813233,-2,-2,-2,-2,-5,-2,1,-2
1537912600821212,2,-1,-1,0,1,3,2,1
1537912600821212,-2,-1,-2,-1,3,1,0,-1
1537912600836172,-2,-1,1,0,-2,3,3,1
1537912600836172,0,1,-1,-1,-4,-6,0,-1
1537912600837169,1,-3,1,0,6,7,3,1
1537912600837169,1,1,-1,0,2,-1,0,-1
1537912600850135,-2,-4,-2,-1,-11,-3,1,-2
1537912600850135,-1,0,-2,-2,0,-6,-3,1
1537912600859111,-3,0,-1,-3,-2,5,-1,-4
1537912600859111,-1,0,0,-1,-3,-3,0,0
1537912600873074,0,0,-1,-2,6,-3,-6,-1
1537912600873074,0,-2,1,0,1,-2,0,1
1537912600881053,-2,-1,-1,-1,-1,1,-2,-3
1537912600881053,0,1,-2,0,2,7,0,3
1537912600896012,-2,0,-1,-1,3,3,-1,-4
1537912600896012,1,-2,0,0,1,-1,-1,1
1537912600897009,-1,-1,-1,-3,-12,-13,-4,-1
1537912600897009,-2,-2,-4,-1,10,10,3,-3
1537912600910972,0,0,0,-2,-6,-5,1,2
1537912600910972,0,-1,0,1,7,-3,-2,-3
1537912600918950,-2,-3,-1,-2,3,3,1,-2
1537912600918950,-1,-1,-2,-3,-4,3,-2,-5
1537912600932913,-2,-1,-1,0,-3,-4,-4,0
1537912600932913,1,-1,0,0,-2,4,3,2
1537912600940892,-1,-1,-1,0,0,5,2,-1
1537912600940892,0,-1,1,0,-4,-5,0,2
1537912600955852,-1,-2,-2,-1,3,4,-1,-3
1537912600955852,-1,0,0,-1,-2,1,-1,-1
1537912600956849,0,-2,-1,0,0,-4,-2,-2
1537912600956849,1,-1,1,-1,-3,0,-1,1
1537912600970812,-1,0,-1,0,-1,-6,2,0
1537912600970812,2,0,0,0,2,2,2,0
1537912600978790,-1,0,-3,-2,-4,-2,-1,-1
1537912600978790,-1,1,-1,-2,-2,-4,-3,0
1537912600992753,-1,-1,2,0,-1,-3,-3,-2
1537912600992753,-3,-3,-3,-2,2,8,-1,-2
1537912601001729,2,0,1,0,1,-2,0,-2
1537912601001729,-1,0,-1,0,-3,0,0,-1
1537912601016689,-2,-1,-2,-3,-3,1,0,-2
1537912601016689,0,0,-1,0,0,-7,-3,-1
1537912601016689,-1,-2,0,-1,-10,-4,0,1
1537912601016689,-4,-3,-3,-4,2,3,-2,-6
1537912601030652,-1,1,-1,-2,-4,11,1,-3
1537912601030652,0,-2,-2,-2,2,4,0,0
1537912601038631,-1,0,0,0,1,-3,-6,-1
1537912601038631,1,2,2,1,1,-5,-1,0
1537912601053590,-2,-3,-3,-2,-3,1,-1,0
1537912601053590,0,0,0,-1,-3,-2,0,0
1537912601061569,-1,0,-2,-2,1,-3,-2,0
1537912601061569,-1,-2,-2,-1,-3,0,1,1
1537912601076530,-1,-2,-2,0,5,0,-4,-1
1537912601076530,-1,-1,-2,0,-4,-4,-2,-1
1537912601076530,-2,-1,0,0,1,0,-2,1
1537912601076530,-2,1,0,-1,1,-2,0,-1
1537912601090492,-1,-2,0,-2,-1,-4,0,-1
1537912601090492,0,-2,1,-1,-3,-4,-3,-1
1537912601098471,-1,-2,-2,0,5,7,2,0
1537912601098471,0,-1,-2,0,-2,-3,-3,-2
1537912601113431,1,3,1,1,-1,0,-2,-1
1537912601113431,-1,-1,0,-3,-7,-6,-4,-1
1537912601121410,-3,-1,0,-2,7,7,-1,-1
1537912601121410,-1,-2,-1,-1,-8,-9,-1,-2
1537912601136370,0,-2,-2,1,-5,-5,-3,-1
1537912601136370,-4,-2,-3,-3,1,4,0,-1
1537912601137367,3,2,0,0,-3,-6,0,3
1537912601137367,1,-1,-3,-2,0,2,2,1
1537912601150332,-1,0,0,0,0,0,0,0
1537912601150332,-1,0,-1,0,0,-5,1,-2
1537912601158311,-2,1,0,1,3,2,0,-1
1537912601158311,-1,-1,1,0,0,2,-3,-2
1537912601173271,0,-2,-1,-2,0,-1,0,1
1537912601173271,-1,-2,-2,0,0,1,-2,-1
1537912601181249,0,0,-2,-1,0,-1,0,0
1537912601181249,0,-3,0,-1,-2,-2,0,-2
1537912601196209,-1,-1,0,-1,3,2,-1,2
1537912601196209,0,-1,-1,0,0,-2,-1,2
1537912601197207,1,-1,-2,-5,-5,-2,0,2
1537912601197207,-3,-2,1,0,-7,-16,-5,0
1537912601210172,-8,-6,-6,-8,9,22,-2,-10
1537912601210172,2,1,0,0,-3,0,5,4
1537912601219148,-2,-1,-2,-1,-5,-4,-2,-4
1537912601219148,0,-1,0,0,-7,-1,1,0
1537912601233111,1,0,0,2,2,-2,1,0
1537912601233111,-1,1,-2,0,0,-6,-3,-6
1537912601241090,-1,-2,-1,-1,-1,4,2,1
1537912601241090,0,0,-1,1,1,2,0,-1
1537912601256049,0,0,0,0,-3,-7,-2,0
1537912601256049,0,0,-1,-1,-1,1,-3,-2
1537912601257047,-1,1,2,1,-2,-5,-1,0
1537912601257047,-2,-1,-1,-2,2,1,0,0
1537912601271010,0,-1,1,0,-2,-2,0,3
1537912601271010,-2,0,0,-2,1,2,-3,-1
1537912601278988,-1,0,0,0,1,-4,-2,-2
1537912601278988,1,1,0,-1,2,0,-2,0
1537912601292951,-1,1,-2,-2,0,2,0,-1
1537912601292951,-2,-1,-1,-1,-1,-3,0,0
1537912601300930,-1,-4,-1,-2,-10,-16,-5,-4
1537912601300930,-2,-2,-4,-3,7,14,7,-2
1537912601315889,4,1,1,2,1,-5,0,3
1537912601315889,0,-2,-1,-1,4,-5,-5,-1
1537912601323868,-1,0,0,2,3,4,1,-1
1537912601323868,-2,-3,-1,0,-1,-3,-2,-2
1537912601330850,0,-2,-1,-2,-2,0,2,1
1537912601330850,-4,-3,-3,-2,-4,-3,-4,-4
1537912601338828,-1,0,-1,0,1,-3,-4,-3
1537912601338828,-2,1,0,0,-1,-2,-2,-2
1537912601352791,0,0,-1,-1,-2,-1,1,1
1537912601352791,0,0,0,0,-4,-2,-1,0
1537912601360769,-2,1,-2,0,1,7,2,-1
1537912601360769,0,-1,-1,-4,-2,-1,0,2
1537912601375730,-3,-1,-4,-2,-4,-5,-1,-4
1537912601375730,-2,-2,-1,0,3,5,2,-2
1537912601383708,0,-1,0,1,1,4,2,0
1537912601383708,-1,-1,0,2,0,1,-2,3
1537912601390690,-6,-3,-5,-4,9,0,-3,-6
1537912601390690,3,2,2,1,1,0,0,2
1537912601399666,-1,-1,-1,-3,-4,-2,-2,-2
1537912601399666,-1,-2,-1,-3,-1,0,-1,-2
1537912601412631,0,-1,1,2,-2,-6,-1,1
1537912601412631,-1,-1,-1,-1,-2,0,-1,-1
1537912601421607,-1,0,-1,-2,0,0,-1,1
1537912601421607,0,1,-1,2,-3,-6,-3,-1
1537912601435570,-1,0,0,0,-2,0,-1,-2
1537912601435570,0,1,-1,0,1,1,-1,1
1537912601444546,1,0,0,0,-3,-3,-1,-1
1537912601444546,-1,-1,0,0,0,-1,0,-1
1537912601450529,0,-1,-1,-1,-3,-3,-1,-1
1537912601450529,0,-3,-3,-3,-3,1,2,1
1537912601459506,-2,0,0,-1,0,1,-3,-1
1537912601459506,-1,1,1,2,1,-3,-1,-2
1537912601473468,-1,0,2,0,-1,0,-1,0
1537912601473468,2,-2,1,-1,-5,-3,1,3
1537912601482444,-1,0,1,3,6,3,0,-4
1537912601482444,-3,-2,-5,-5,-2,11,5,-1
1537912601495410,1,-1,0,-3,-17,-12,-2,1
1537912601495410,-3,-2,-2,-1,16,12,0,-4
1537912601504386,0,0,-1,0,5,4,3,3
1537912601504386,-1,1,-1,-1,-4,-5,-4,-1
1537912601519345,-1,-3,-3,-1,-1,-2,-1,-3
1537912601519345,-1,-1,-1,0,-8,-8,-3,-3
1537912601521340,-3,-2,-2,-2,-5,-1,-1,-1
1537912601521340,-3,-1,-1,-1,1,-4,-3,-2
1537912601533308,0,-1,0,0,2,2,0,0
1537912601533308,-1,-2,1,-1,-4,-4,-2,-1
1537912601542284,2,-1,0,-1,0,3,0,0
1537912601542284,1,0,-1,2,-1,-3,0,-1
1537912601555250,-1,1,0,-1,1,0,0,2
1537912601555250,0,-1,-1,0,-2,-2,1,0
1537912601564226,-1,-2,-1,-3,-5,-2,1,0
1537912601564226,-2,-2,-1,0,-3,-4,-4,-5
1537912601579186,0,0,-1,-1,4,9,4,0
1537912601579186,-2,1,-1,-1,-5,-2,0,-3
1537912601581181,2,0,-1,1,10,-5,-3,4
1537912601581181,-2,-3,-4,-4,3,11,3,-1
1537912601593149,-1,-1,0,-2,-6,-12,-8,-6
1537912601593149,1,1,-1,3,-2,4,4,1
1537912601609106,-2,-1,-1,-2,-3,-6,-1,-2
1537912601609106,1,1,1,2,1,1,-2,3
1537912601615090,0,0,1,0,4,0,0,0
1537912601615090,-1,0,-1,-3,-3,-5,-3,-2
1537912601624066,-2,-3,-2,-1,-6,-6,-3,-4
1537912601624066,0,0,-1,1,1,3,-1,0
1537912601639026,0,-1,-1,-1,-3,0,-1,0
1537912601639026,-1,-1,0,-1,-3,-5,-2,1
1537912601641021,-1,0,-2,-2,-3,3,3,0
1537912601641021,-2,-2,1,-1,-3,-3,-1,-1
1537912601652988,2,-2,1,0,2,0,-1,-1
1537912601652988,-1,0,-1,0,0,-1,-1,0
1537912601661965,-1,-1,-1,0,-2,3,-3,-2
1537912601661965,0,-1,-2,0,1,-2,1,1
1537912601675928,0,1,1,1,-3,-1,1,-1
1537912601675928,-3,0,0,0,-1,2,2,1
1537912601684903,-3,-1,-2,-2,0,4,-2,-2
1537912601684903,-1,0,0,1,0,-2,-2,-2
1537912601699863,-1,-1,-1,-1,-1,-1,-1,2
1537912601699863,-1,-2,-3,0,6,8,-2,-3
1537912601700860,0,0,2,1,-12,-18,-5,-2
1537912601700860,-2,-2,-2,-4,6,7,4,1
