timestamp,emg1,emg2,emg3,emg4,emg5,emg6,emg7,emg8
1537911535341989,-1,0,-5,-6,-16,-21,-3,-1
1537911535341989,-1,0,4,12,15,-32,-4,-3
1537911535342986,1,1,-2,-11,-7,37,-2,0
1537911535342986,-1,-6,-17,-31,49,2,-2,0
1537911535344981,0,-1,-1,-6,-10,0,0,-1
1537911535344981,0,0,1,2,-45,2,0,0
1537911535345977,-2,0,3,13,43,-12,-1,-5
1537911535345977,1,2,7,25,13,-5,-1,-3
1537911535352959,-1,1,1,3,9,13,-1,0
1537911535352959,-1,0,0,-2,14,4,-2,-2
1537911535359940,-1,-1,-1,8,-24,-3,-2,-1
1537911535359940,0,0,1,-3,-16,0,0,0
1537911535368916,-1,-2,-2,-9,-5,-11,2,-1
1537911535368916,-1,1,-1,-4,-13,7,2,0
1537911535384874,1,1,-1,7,-1,-13,-2,1
1537911535384874,-3,0,2,1,-15,-11,-1,-2
1537911535388863,-1,-5,-8,-14,-3,-2,-4,-4
1537911535388863,0,0,2,0,-16,8,2,0
1537911535412799,0,0,6,27,4,-2,-1,-2
1537911535412799,-1,-1,-3,-7,-30,-8,-1,-1
1537911535413798,-1,-6,-6,0,14,3,0,-1
1537911535413798,2,1,-5,-20,-15,1,-1,-1
1537911535452693,-1,2,16,32,-6,-2,-1,1
1537911535452693,-2,4,7,32,-6,-12,-8,-5
1537911535453690,-1,-3,-4,9,27,2,-1,0
1537911535453690,0,-8,-20,-36,-4,13,1,1
1537911535456682,-1,-4,-2,-10,3,-2,-5,-4
1537911535456682,-1,0,-3,27,19,-2,-4,-3
1537911535457679,-1,3,2,-8,-14,1,-7,-2
1537911535457679,-2,5,12,29,2,4,-1,-3
1537911535465658,-1,4,7,57,40,-5,-8,-2
1537911535465658,-1,-6,-29,-95,8,6,-11,-4
1537911535471641,5,18,49,127,17,4,-4,-3
1537911535471641,-4,-13,-12,-79,-8,0,13,7
1537911535480617,-5,-7,-10,-48,-15,15,0,-6
1537911535480617,0,0,19,99,42,-18,-14,-6
1537911535493582,-1,-8,-30,-128,-39,22,13,7
1537911535493582,0,6,5,41,13,-40,5,-1
1537911535502558,0,-6,-17,14,-3,17,-15,-2
1537911535502558,1,1,15,-83,-72,7,1,2
1537911535526494,-12,-8,-24,40,114,-7,-2,-9
1537911535526494,10,12,33,96,-17,6,-38,-10
1537911535527492,1,1,-14,-84,-16,0,25,11
1537911535527492,0,2,28,127,3,-11,12,8
1537911535547438,-4,-11,-7,38,-37,21,-3,0
1537911535547438,-4,7,14,-43,12,-3,-7,-9
1537911535549433,-7,-6,-10,112,79,-38,8,-2
1537911535549433,4,0,-45,-84,-63,21,10,11
1537911535562398,2,-2,5,57,-110,-23,3,1
1537911535562398,-2,-3,11,123,55,-27,-13,-2
1537911535564393,0,-2,6,50,-21,18,-15,-3
1537911535564393,4,11,9,42,19,13,12,-1
1537911535585337,-2,-12,-45,-55,-12,10,-11,-3
1537911535585337,4,-4,-19,-113,-54,-5,11,13
1537911535586334,0,14,43,105,10,-5,-6,-10
1537911535586334,-1,-7,-23,-95,-35,-25,8,10
1537911535598302,1,3,10,32,37,-36,22,6
1537911535598302,-4,3,15,37,-35,0,-5,-6
1537911535607278,3,7,7,-63,-2,15,10,-1
1537911535607278,-7,-2,8,-26,-26,7,7,-4
1537911535622238,5,0,5,4,-28,-17,-13,-2
1537911535622238,-6,-15,-22,-70,36,-54,5,1
1537911535624233,-1,-5,-2,-6,-6,9,1,1
1537911535624233,-9,-22,-47,-36,36,-33,-17,-10
1537911535645177,-4,10,21,-15,-74,10,0,-4
1537911535645177,1,3,-15,28,62,20,12,4
1537911535646174,4,4,38,42,-83,59,-20,-6
1537911535646174,3,7,6,5,96,-21,-3,-7
1537911535659139,4,12,24,-53,26,65,-5,13
1537911535659139,-2,1,4,74,-67,18,-10,-5
1537911535668116,-7,-18,-48,-70,45,-23,-4,-3
1537911535668116,-7,-3,18,-13,21,88,4,-1
1537911535683076,-3,-12,-36,31,2,-65,-21,-13
1537911535683076,0,2,-6,-89,-4,44,-6,-7
1537911535684073,7,7,8,30,-16,-6,1,15
1537911535684073,-4,-8,-18,55,-1,2,24,-3
1537911535705017,-4,3,21,-82,-19,-26,34,8
1537911535705017,0,5,7,63,-15,34,14,7
1537911535707012,-3,0,-12,-35,15,-17,2,-2
1537911535707012,3,0,14,-6,-2,-20,1,4
1537911535718980,-1,-1,5,4,33,1,-12,-5
1537911535718980,-2,-3,2,-2,-29,-54,1,-3
1537911535727956,-2,-5,-27,-56,9,14,1,-1
1537911535727956,2,0,6,34,-24,-2,-6,1
1537911535742916,0,-5,-10,-7,0,-1,-1,-3
1537911535742916,0,-2,-8,-12,2,0,-11,-3
1537911535743914,-1,2,10,-10,-25,-17,1,-3
1537911535743914,1,4,6,11,-3,-3,-7,-3
1537911535764858,-1,0,-2,6,14,3,0,-3
1537911535764858,-1,-4,0,-6,17,12,4,2
1537911535766854,0,1,5,-8,-7,-10,2,1
1537911535766854,-1,-3,-4,-3,-15,-8,-2,0
1537911535779818,-1,-1,-3,7,15,6,-4,-2
1537911535779818,-3,-3,0,4,-3,2,0,-4
1537911535786800,0,-1,-6,-10,-5,-7,4,2
1537911535786800,0,1,4,8,-4,-6,-11,-3
1537911535802757,0,1,5,12,-2,3,-2,-2
1537911535802757,0,-2,-4,-4,6,3,0,-2
1537911535803755,-1,-1,-2,-9,-4,-3,0,0
1537911535803755,-2,-1,3,3,-6,-1,-3,0
1537911535825696,0,0,1,6,3,5,-2,0
1537911535825696,-1,-3,-6,-8,1,-4,3,1
1537911535826695,-2,-2,0,0,0,-5,0,-1
1537911535826695,-1,0,3,5,-4,-8,-10,-5
1537911535838661,-1,-1,4,25,-43,-10,3,2
1537911535838661,-2,-4,-11,-19,35,8,-6,-3
1537911535853621,0,0,-3,-13,26,3,4,2
1537911535853621,0,2,3,7,-34,-2,-4,-4
1537911535862598,0,0,3,27,55,3,-6,-6
1537911535862598,-4,-3,-5,-44,-28,-4,-6,-1
1537911535864593,0,0,1,6,-17,-21,-1,-4
1537911535864593,1,-3,-5,-9,20,37,21,12
1537911535885535,0,0,0,-2,-15,8,1,0
1537911535885535,2,1,3,18,-28,2,4,2
1537911535886532,-2,-3,-4,-1,65,-7,-14,-7
1537911535886532,-2,4,7,6,-19,-14,-4,-8
1537911535898500,0,-4,-3,-5,11,-18,16,2
1537911535898500,0,-2,-4,3,-4,5,-1,0
1537911535907476,0,-1,-5,-6,-30,5,-6,0
1537911535907476,1,1,2,12,0,-31,-7,3
1537911535922436,-3,-1,-2,-4,3,11,-7,-6
1537911535922436,-2,0,-1,5,7,-5,-3,-5
1537911535924431,1,-1,0,13,-13,6,9,1
1537911535924431,-2,0,-2,-1,11,-1,-3,-2
1537911535945374,-1,0,-2,-9,-8,-5,-9,-1
1537911535945374,0,0,2,-1,-19,-1,-2,-2
1537911535946372,-2,-2,-2,-9,9,0,4,1
1537911535946372,1,1,2,0,20,9,-3,-2
1537911535958340,0,-4,-7,-28,-19,-3,-2,-1
1537911535958340,0,2,10,25,57,-6,-2,-3
1537911535973300,-1,-2,1,-11,-41,-8,-10,-6
1537911535973300,0,-2,0,-6,2,-1,12,1
1537911535982276,-1,0,3,-6,-28,1,-2,0
1537911535982276,1,0,0,-3,-10,2,3,3
1537911535984271,-2,2,3,0,-7,-3,0,-2
1537911535984271,-2,-2,-6,-3,-29,-6,-11,-8
1537911536005214,1,-3,-5,-6,18,2,9,6
1537911536005214,0,-2,-5,-2,38,13,0,0
1537911536006212,0,-2,-4,1,-8,-10,-1,0
1537911536006212,1,1,-1,-1,-5,7,-5,-1
1537911536027156,0,-1,-2,0,-2,-4,10,5
1537911536027156,-4,0,-2,-2,-17,-8,-4,-6
1537911536029151,1,0,1,0,7,10,0,2
1537911536029151,0,2,4,1,29,-2,-5,-5
1537911536041118,0,0,-1,0,-16,6,0,4
1537911536041118,-2,-2,-2,-2,-19,-2,1,-1
1537911536050094,0,-1,-2,-4,-4,-1,6,0
1537911536050094,-2,-1,-1,-4,-5,2,0,1
1537911536065055,-1,-2,1,3,24,4,-9,-6
1537911536065055,2,0,-1,-1,-3,4,5,3
1537911536067049,-3,-5,-6,-3,-11,-8,-2,-4
1537911536067049,0,-3,-4,1,7,1,-1,-1
1537911536079017,0,3,0,3,4,2,-6,-1
1537911536079017,-1,1,0,1,-6,-5,0,-2
1537911536087993,-1,2,3,-3,-12,0,-3,3
1537911536087993,-2,-2,-3,0,-6,0,4,3
1537911536100958,-2,0,-5,2,4,-12,-8,-7
1537911536100958,3,0,-2,4,8,32,5,3
1537911536109934,0,-1,-2,0,2,-3,-2,-5
1537911536109934,-2,-1,3,1,-7,0,4,3
1537911536124895,-1,-3,0,0,5,-6,1,0
1537911536124895,0,0,2,1,5,-8,-1,-2
1537911536126889,2,0,7,0,-6,0,3,-1
1537911536126889,-1,-1,4,-1,-5,-5,-5,-2
1537911536138857,-1,-1,2,-1,4,1,-9,-2
1537911536138857,-2,0,2,-1,-10,-7,16,1
1537911536147833,-2,-4,-5,0,1,1,2,0
1537911536147833,0,0,-2,-1,5,-3,-8,-5
1537911536161796,0,0,-1,0,-8,0,-7,1
1537911536161796,-2,-4,-7,-3,-27,-18,-5,0
1537911536168777,0,0,-4,7,27,6,7,9
1537911536168777,1,8,12,20,-23,-1,4,-7
1537911536184735,-2,-2,1,33,40,23,-7,-7
1537911536184735,-2,-2,-1,-56,-16,19,-5,-6
1537911536186731,-1,-2,4,84,-61,-31,-6,2
1537911536186731,6,-4,-27,-97,19,9,7,15
1537911536207674,-3,-12,-21,-12,-26,-41,-20,-9
1537911536207674,1,7,14,11,-7,2,22,5
1537911536208672,3,-5,-10,-105,-18,25,-17,-25
1537911536208672,-21,-10,-6,81,42,20,31,19
1537911536221637,1,10,31,9,-67,-31,-8,-10
1537911536221637,-25,-45,-108,-95,51,3,-14,-6
1537911536228619,19,2,-1,105,-50,-10,2,6
1537911536228619,-28,1,30,87,-22,-2,-18,-17
1537911536245572,62,4,-19,-96,15,-5,-18,7
1537911536245572,20,27,86,127,-70,-10,10,6
1537911536246570,-54,-38,-68,-128,68,14,20,0
1537911536246570,-20,-12,-27,78,-74,-14,-21,-16
1537911536267513,6,36,46,127,94,44,57,33
1537911536267513,30,6,62,94,-20,-24,-28,-20
1537911536269508,-54,4,49,127,66,-1,-4,-8
1537911536269508,50,-23,-40,41,-9,-15,2,-14
1537911536281476,92,15,-65,-121,-45,-3,-4,23
1537911536281476,-61,1,-13,-91,20,9,-11,-4
1537911536288458,-32,-29,4,-34,11,-8,-15,0
1537911536288458,-24,11,2,-79,31,4,5,7
1537911536305412,-61,-31,-4,92,14,19,5,-28
1537911536305412,31,9,-6,-50,10,-10,-12,33
1537911536306410,-24,5,28,5,28,-25,-32,-32
1537911536306410,-38,-1,10,-80,-45,23,4,10
1537911536327354,61,22,-6,24,55,19,43,18
1537911536327354,-44,7,-1,-34,-32,-18,16,6
1537911536329348,29,28,19,1,-9,5,11,11
1537911536329348,-49,0,41,10,23,2,7,5
1537911536342313,-29,-31,13,100,-3,-3,-27,-29
1537911536342313,46,-7,-23,-52,1,4,-8,-7
1537911536348297,-34,1,-27,-39,-20,-4,39,18
1537911536348297,127,44,-10,47,-8,-5,3,36
1537911536365252,-81,-8,28,-37,15,-26,-9,-33
1537911536365252,2,-16,15,53,2,18,29,11
1537911536366249,29,-5,-87,-128,-64,6,-13,23
1537911536366249,-51,-54,-73,-45,0,-23,-9,-54
1537911536387193,-7,8,-7,-14,-4,61,-10,5
1537911536387193,-41,-8,24,11,26,-25,24,14
1537911536389188,64,24,82,68,13,41,1,11
1537911536389188,44,23,43,97,15,-7,-26,-21
1537911536401156,3,-10,-27,-97,-33,-50,0,6
1537911536401156,10,28,34,59,0,40,0,-15
1537911536410133,-26,3,20,74,61,5,6,8
1537911536410133,35,4,-29,-26,18,2,-10,-11
1537911536424095,-38,-15,33,23,-42,-17,-8,-18
1537911536424095,21,-15,-63,13,6,9,-19,-3
1537911536433071,-11,-15,-7,-63,-41,-28,19,8
1537911536433071,-42,-34,-4,101,-35,8,-4,0
1537911536448031,35,8,-37,-97,-12,-2,0,3
1537911536448031,-11,1,-15,20,-12,-19,-34,-1
1537911536449029,13,22,-10,0,-6,11,-2,-15
1537911536449029,-4,16,48,-58,6,-10,7,-4
1537911536469973,-81,-24,14,34,-10,5,-16,0
1537911536469973,35,-3,4,31,14,-6,2,-4
1537911536471968,69,23,15,36,1,-13,-21,-13
1537911536471968,-29,-10,15,-33,10,1,9,14
1537911536483936,-1,11,1,31,1,3,-5,2
1537911536483936,-28,0,-8,-13,13,-2,-3,-12
1537911536492913,-12,-4,-3,9,-8,-6,7,0
1537911536492913,15,3,-5,-28,1,6,-1,9
1537911536507871,16,4,3,9,2,8,13,4
1537911536507871,-13,-14,-16,16,-5,-8,-2,-10
1537911536508869,0,-5,-1,-24,-15,4,-2,0
1537911536508869,2,6,0,7,8,-2,-3,-1
1537911536529812,-5,-3,-10,-15,-5,-8,-5,-4
1537911536529812,1,-1,-5,-13,1,2,3,1
1537911536531807,4,-8,-11,14,-2,0,0,-1
1537911536531807,3,10,7,-12,8,-1,-2,5
1537911536543775,0,1,15,28,4,2,5,4
1537911536543775,4,4,5,11,1,2,3,3
1537911536552751,-3,-5,-6,6,0,1,-5,-6
1537911536552751,-5,-3,-4,-3,-2,-3,-1,-2
1537911536567711,1,1,-1,4,-6,4,3,2
1537911536567711,2,1,-2,-4,-1,4,-1,-2
1537911536568708,-1,-4,2,7,0,-3,-13,-13
1537911536568708,-1,2,-1,-19,-1,1,19,15
1537911536589652,3,0,-3,1,1,-1,-1,1
1537911536589652,-1,3,3,-7,3,-4,-2,-7
1537911536591647,-3,-4,-5,1,-4,-5,-7,-1
1537911536591647,0,-1,3,-9,0,-3,-3,-2
1537911536603615,2,-1,-2,3,0,-2,8,5
1537911536603615,-4,-4,2,-12,-3,-2,-2,-4
1537911536612591,-1,-1,-5,-3,-3,0,4,1
1537911536612591,2,2,-2,-8,1,-1,-9,-2
1537911536626553,-1,2,10,4,-1,-1,2,4
1537911536626553,-2,-1,-1,4,-2,-2,-3,-2
1537911536633535,1,-2,-4,-2,-5,-2,3,1
1537911536633535,-2,0,1,-9,4,-1,-6,-1
1537911536650489,-3,-2,-7,-1,-2,-3,1,-1
1537911536650489,1,-3,0,-2,0,0,-2,-3
1537911536651487,-1,0,-1,-1,-3,0,0,1
1537911536651487,1,2,1,1,-3,-3,-2,-2
1537911536663455,0,-1,2,0,-2,2,-1,0
1537911536663455,-1,1,-3,-2,-2,-1,-1,-2
1537911536672431,0,-1,0,2,0,-2,-1,0
1537911536672431,-1,0,0,-6,-2,1,-3,-3
1537911536687391,0,-1,-3,-1,-1,-1,-5,-6
1537911536687391,3,0,-1,0,1,0,15,12
1537911536693375,-2,-1,2,2,3,0,-2,-3
1537911536693375,-1,1,-2,-2,-1,-1,-3,-2
1537911536710329,-2,-4,-7,-4,-4,1,-1,-2
1537911536710329,-2,0,-2,-1,-1,-2,-4,-4
1537911536711327,2,-2,-1,2,-2,-1,0,-1
1537911536711327,-2,-1,-4,-4,-1,-1,2,1
1537911536723295,0,1,0,-2,1,-3,-3,-1
1537911536723295,-2,0,0,-3,1,0,-2,-3
1537911536732271,0,-2,1,-1,0,-2,1,-1
1537911536732271,0,-1,0,-3,-3,-2,-3,-4
1537911536747231,-1,-1,0,4,1,-1,-3,-1
1537911536747231,-1,-2,0,-3,-1,0,4,1
1537911536754212,0,-1,0,1,0,1,0,0
1537911536754212,0,-2,-1,-1,1,-2,-3,-1
1537911536770170,-1,0,0,-1,0,0,-1,-1
1537911536770170,0,-3,-2,0,-1,-2,-3,-3
1537911536771168,-4,-1,-3,-2,-1,0,-2,-1
1537911536771168,-1,-2,-2,-3,0,-3,1,0
1537911536784133,1,1,-1,-3,-2,1,2,4
1537911536784133,0,-1,1,-1,-1,0,-3,-2
1537911536793109,-1,1,-1,2,-1,-2,-5,-2
1537911536793109,-1,-2,-4,-4,-2,-1,-9,-3
1537911536807072,-2,-3,2,1,-1,-2,9,-5
1537911536807072,2,1,4,3,-5,0,16,14
1537911536814053,0,0,-1,-3,3,-1,-3,0
1537911536814053,0,1,8,36,13,0,-1,-1
1537911536830010,-1,8,20,78,-5,3,-9,-2
1537911536830010,-8,-8,-25,-63,16,-5,-6,-12
1537911536832005,0,-4,12,43,-28,-13,-2,-8
1537911536832005,8,-5,-3,-20,36,14,7,12
1537911536852950,-28,-9,-19,-49,-10,-9,-17,1
1537911536852950,-17,-5,-23,-7,-53,-15,1,-12
1537911536853947,53,22,3,-46,45,31,26,17
1537911536853947,-49,-15,49,62,-97,-25,-2,-14
1537911536866913,58,27,0,31,23,34,17,31
1537911536866913,-47,-39,-83,-120,-48,-4,-19,-7
1537911536873894,-5,-9,-25,-67,-105,-20,-30,-20
1537911536873894,75,50,51,41,98,9,35,32
1537911536889851,-37,9,60,-10,80,35,13,10
1537911536889851,42,41,91,127,-52,-5,11,23
1537911536891846,-72,-48,-100,-101,-48,-4,-18,-22
1537911536891846,0,-20,-25,52,34,-9,-25,-26
1537911536912788,-67,-13,13,32,44,-6,-1,-30
1537911536912788,49,-4,27,0,23,-3,-2,9
1537911536913786,50,19,18,36,19,5,3,7
1537911536913786,-33,-6,-21,19,-33,0,-13,-12
1537911536926751,41,17,-10,9,26,-2,-15,4
1537911536926751,2,-5,-7,-29,-30,3,-4,-10
1537911536933732,-21,-8,28,50,-18,-1,-1,12
1537911536933732,8,10,-16,2,28,5,5,1
1537911536949690,-28,-8,-2,18,56,9,-9,-6
1537911536949690,1,6,7,-26,-28,0,14,9
1537911536951684,-15,-4,8,6,0,-3,-13,-12
1537911536951684,7,9,6,-28,-12,5,-4,4
1537911536972629,-2,-6,-9,33,-66,-21,1,-6
1537911536972629,-20,-11,-7,-26,0,6,8,-4
1537911536973627,1,9,12,40,50,5,13,8
1537911536973627,-5,-24,-14,-11,-22,-1,-3,-5
1537911536986591,22,-17,-47,-100,-50,-17,0,-4
1537911536986591,-6,13,15,44,57,11,-15,-6
1537911536995567,8,17,31,51,-17,-9,9,6
1537911536995567,-8,-2,-23,-74,10,-2,0,1
1537911537010527,-11,-22,-13,-33,-67,-17,-3,-3
1537911537010527,-8,-14,-35,-33,52,6,4,-1
1537911537011525,-3,9,14,13,19,-2,-1,-3
1537911537011525,-25,0,14,-9,-24,2,-1,0
1537911537032469,31,14,12,20,2,-4,4,3
1537911537032469,-10,-8,1,3,2,-3,-11,-10
1537911537034464,5,2,6,12,26,2,10,6
1537911537034464,-6,-1,-10,-22,-19,-7,-8,-3
1537911537046432,3,-9,-13,-36,-35,-7,-3,-2
1537911537046432,5,8,16,43,9,0,-2,0
1537911537055409,-12,-5,-8,-18,-4,-1,-2,0
1537911537055409,5,-1,-11,-16,-5,-1,3,2
1537911537070369,0,1,8,24,-4,2,3,-2
1537911537070369,-5,1,-9,-26,-51,-4,-6,-1
1537911537071366,5,2,1,43,88,-2,0,-1
1537911537071366,-2,-12,-18,-106,-49,-3,-1,-5
1537911537092311,-18,-5,-5,-17,-11,-3,0,-3
1537911537092311,18,7,-2,20,10,-2,-5,1
1537911537094307,-4,-6,-4,-29,-22,0,3,1
1537911537094307,-5,1,7,39,15,1,-2,-1
1537911537106275,7,-1,-4,-1,-7,-3,-3,0
1537911537106275,4,1,5,0,17,1,-4,-3
1537911537115250,-6,-3,-1,-2,-7,1,4,0
1537911537115250,-1,4,1,14,0,1,-2,1
1537911537130207,3,-1,1,-7,-11,-1,0,0
1537911537130207,-6,-1,4,14,13,-2,1,0
1537911537136191,-2,-1,-1,-8,-8,-2,-3,-3
1537911537136191,-1,-2,-6,-5,-12,-2,5,2
1537911537152149,2,-2,-1,1,-1,-1,-3,-2
1537911537152149,-3,2,2,3,12,0,-1,-1
1537911537154144,-6,-2,-5,-10,-10,-2,-3,-1
1537911537154144,2,1,-2,2,-2,-1,-1,0
1537911537166111,1,2,2,6,-1,-1,-2,-4
1537911537166111,-4,1,-1,4,7,-2,2,1
1537911537175088,2,-1,-2,-9,-9,0,-2,0
1537911537175088,-1,1,1,8,0,-2,0,-2
1537911537190047,1,2,1,2,-2,-2,-1,2
1537911537190047,-4,-1,-1,-4,-1,1,-3,-1
1537911537192042,-1,-4,-2,-6,-4,-2,-1,1
1537911537192042,1,1,3,3,3,0,3,0
1537911537211989,-3,-1,0,6,-2,-2,-6,-7
1537911537211989,-1,-2,-2,-13,6,1,19,8
1537911537212986,0,-1,0,1,-8,-2,0,-4
1537911537212986,2,-1,-4,-2,6,-1,-4,1
1537911537233930,0,-1,-3,-10,-3,-2,0,0
1537911537233930,-1,-1,1,9,1,-5,-8,-5
1537911537241909,1,1,1,2,2,2,3,1
1537911537241909,-2,-2,0,-5,-7,-3,2,-1
1537911537248890,2,-1,-1,1,-1,-2,-5,0
1537911537248890,-3,0,-1,0,4,0,-6,-1
1537911537249887,0,-2,-3,-5,-2,0,-2,-1
1537911537249887,-1,-1,-1,6,-1,-2,-3,-2
1537911537271828,0,0,-2,2,2,1,4,1
1537911537271828,-2,-2,1,2,-3,-3,-1,-4
1537911537272826,-2,-1,-4,-3,-2,2,2,-1
1537911537272826,1,-1,-3,-1,-2,1,0,-1
1537911537294768,0,0,0,-1,0,1,1,0
1537911537294768,-1,0,2,1,1,-2,0,-1
1537911537294768,1,-2,-1,-3,-3,-3,-4,1
1537911537294768,1,0,1,1,1,-1,0,-1
1537911537309728,0,1,0,0,-1,1,0,0
1537911537309728,-1,2,0,0,-1,0,-4,-3
1537911537309728,-1,-2,0,-4,0,0,1,0
1537911537309728,-1,0,0,0,-4,0,-3,0
1537911537331669,1,-2,1,-2,-1,-2,3,-2
1537911537331669,-2,0,0,1,0,1,0,-2
1537911537332666,0,-1,0,-1,-2,-3,0,-1
1537911537332666,-1,-3,-2,0,-2,-1,-1,1
1537911537354607,-1,-1,-2,-1,-1,-1,1,-1
1537911537354607,0,0,1,1,2,0,-1,-1
1537911537354607,-2,1,0,-2,-1,-2,1,1
1537911537354607,0,-2,-3,-3,-2,-1,-2,-2
1537911537369567,-1,0,-3,-1,0,0,-3,0
1537911537369567,-2,-2,0,-2,-2,0,-4,-2
1537911537370565,1,-1,-1,2,-1,-1,1,1
1537911537370565,-1,-3,-2,0,-1,-1,-2,0
1537911537391508,0,-2,0,-2,-2,0,3,1
1537911537391508,-1,-1,-2,-2,-2,-2,0,-1
1537911537392506,0,-1,-1,-1,-1,-1,2,3
1537911537392506,0,-1,0,2,1,1,0,-4
1537911537414447,-2,0,0,0,0,-1,-6,-3
1537911537414447,0,0,0,0,0,0,-3,0
1537911537415445,-2,-1,0,-2,-2,0,2,-4
1537911537415445,-2,-1,-1,-1,-2,-1,0,1
1537911537429407,-1,-1,-2,-1,0,-3,0,-3
1537911537429407,1,1,-2,-1,-2,0,-8,-2
1537911537430405,1,-1,-1,0,-2,-2,-4,-2
1537911537430405,-1,1,2,1,-1,0,1,4
1537911537452346,-3,0,3,1,-2,-2,2,-3
1537911537452346,-2,0,3,8,1,-2,-4,-4
1537911537452346,1,-2,-4,-4,0,0,2,6
1537911537452346,1,-1,-6,-2,3,-2,-3,-2
1537911537475285,4,6,14,45,7,0,-7,-2
1537911537475285,-2,0,6,19,-7,0,-1,2
1537911537475285,-2,-6,-15,-67,-6,0,-3,-5
1537911537475285,1,0,-7,-32,-21,-6,0,-3
1537911537489248,-5,-2,14,92,23,-6,-11,-3
1537911537489248,-10,-11,-27,-92,-32,5,7,0
1537911537490245,-22,2,18,40,4,0,-7,-9
1537911537490245,9,-20,-42,-75,23,0,-3,-5
1537911537512187,21,7,26,64,-8,-12,-6,0
1537911537512187,-39,-15,-27,-61,43,15,3,-4
1537911537512187,-29,-28,-45,-75,-79,-5,2,-6
1537911537512187,5,25,47,91,-74,-10,-2,2
1537911537535125,13,-11,-72,-128,70,22,12,7
1537911537535125,-7,-29,24,94,-34,-19,-8,-17
1537911537536122,-83,23,28,63,49,10,9,-3
1537911537536122,76,99,39,-31,-70,20,24,66
1537911537549088,-52,13,20,127,21,-21,-10,-7
1537911537549088,-75,-33,-8,-59,-126,14,17,-9
1537911537550085,-56,-66,-37,-91,85,-13,-19,-37
1537911537550085,41,21,104,127,26,8,9,-14
1537911537572026,96,-16,-97,-128,-28,-28,-13,24
1537911537572026,-84,6,13,104,-29,-7,2,1
1537911537573024,83,4,6,127,40,-5,-1,-12
1537911537573024,-115,-67,-4,95,23,-9,-5,-38
1537911537594965,58,36,2,-99,-84,18,22,33
1537911537594965,15,8,-23,8,86,-10,-24,-17
1537911537595962,54,24,7,-23,21,5,15,38
1537911537595962,-65,-19,-18,-56,31,1,-15,-32
1537911537608927,9,-8,11,43,-46,12,7,10
1537911537608927,-53,-2,0,-4,-2,-8,-5,-13
1537911537609925,59,46,31,32,-36,7,10,35
1537911537609925,26,-3,-31,-86,25,0,-9,6
1537911537631866,-88,-29,16,-3,-18,0,2,-34
1537911537631866,72,25,20,86,12,2,8,17
1537911537632864,-41,-7,31,91,-41,-8,-11,-1
1537911537632864,45,-15,-46,-62,65,-5,-3,7
1537911537654805,-8,10,0,-26,-62,-2,-5,-4
1537911537654805,-8,-5,-1,60,49,-1,0,-7
1537911537655802,22,-7,-11,-65,-18,1,0,12
1537911537655802,-88,-35,-24,21,-14,-2,0,-11
1537911537669765,58,25,28,69,21,3,4,11
1537911537669765,1,-8,-21,-124,38,3,3,5
1537911537669765,5,24,14,-5,-6,3,1,3
1537911537669765,-26,-1,2,6,-22,-8,-8,-10
1537911537691706,-24,-8,-6,-33,64,2,-1,-2
1537911537691706,-8,-14,4,26,-12,-2,-2,-6
1537911537692704,11,9,2,7,-11,2,0,1
1537911537692704,12,1,2,-33,-33,-7,-5,-5
1537911537714645,-37,-15,-6,52,34,-5,-9,-16
1537911537714645,51,10,13,24,18,4,5,17
1537911537715642,-56,-14,-11,-15,-12,-11,-12,-22
1537911537715642,13,4,-10,-14,4,-1,4,9
1537911537729605,23,-3,19,11,-6,4,0,-2
1537911537729605,30,8,-10,-44,-13,-4,-4,8
1537911537730602,-15,-1,-4,6,28,1,0,-3
1537911537730602,-12,-3,-3,25,-3,0,0,-1
1537911537751546,-24,-9,3,-6,6,2,1,-3
1537911537751546,11,12,6,2,16,-2,-3,2
1537911537752544,3,-4,-4,-8,-27,-3,-1,-4
1537911537752544,9,-2,1,20,9,3,4,3
1537911537775482,-18,-4,2,-15,-14,-3,-1,-2
1537911537775482,14,6,0,-8,-9,-1,1,4
1537911537775482,-2,-5,1,2,-4,1,-3,-6
1537911537775482,8,-1,-7,-10,-1,-2,-1,2
1537911537789445,-23,-3,3,5,16,0,0,-5
1537911537789445,1,2,4,4,-15,-2,0,1
1537911537790442,6,-3,-5,-14,7,1,0,-1
1537911537790442,8,3,-3,16,-1,-3,-3,3
1537911537812383,-15,-2,1,-6,-2,3,0,-3
1537911537812383,9,2,5,-2,-4,1,1,1
1537911537812383,-4,-7,-9,-31,-14,0,-3,-3
1537911537812383,1,2,1,4,-2,-1,-2,2
1537911537835322,-8,-4,2,7,-2,-4,-1,-3
1537911537835322,4,2,0,-10,-1,-2,0,0
1537911537835322,-2,2,0,10,9,-2,0,-2
1537911537835322,-2,-2,-2,0,0,-7,0,-1
1537911537849285,-3,-1,2,-3,4,-7,-5,0
1537911537849285,-1,1,-3,0,4,-15,-5,-1
1537911537850282,1,-4,-4,-1,-7,15,0,0
1537911537850282,1,1,-3,7,2,-19,-1,-2
1537911537872223,-10,-5,0,-4,-6,47,13,-1
1537911537872223,-4,2,2,-3,-6,-65,-9,0
1537911537872223,12,-1,-3,5,1,37,2,-3
1537911537872223,4,1,0,-3,2,-18,-9,0
1537911537895162,-6,0,4,4,-1,-10,-5,-7
1537911537895162,6,-2,-7,-4,-2,9,1,1
1537911537896160,-9,-5,-2,-2,-1,-15,-1,-1
1537911537896160,-5,-2,2,0,4,9,4,-2
1537911537909125,-6,1,3,10,-3,-2,-3,-2
1537911537909125,12,-1,-4,-14,-1,6,2,2
1537911537917104,0,2,4,24,5,-18,-5,-2
1537911537917104,2,-2,-8,-40,-7,22,2,2
1537911537940042,-8,-4,-3,-4,-3,-13,-1,-1
1537911537940042,0,0,0,2,1,12,2,-2
1537911537941040,-1,-1,-2,1,5,3,1,-1
1537911537941040,-1,-1,1,17,1,-3,-4,-1
1537911537955002,-3,-2,-1,-4,-3,16,0,-4
1537911537955002,-10,0,0,0,-4,10,0,-3
1537911537956000,21,2,-2,2,9,-5,-1,2
1537911537956000,-6,-3,-1,2,-6,3,4,2
1537911537968965,-1,0,-2,2,2,-18,-4,-4
1537911537968965,2,-1,1,-8,-11,13,1,0
1537911537969963,-9,2,6,23,2,-8,-3,-2
1537911537969963,0,-4,-6,-14,5,-1,-1,0
1537911537991903,1,-5,-11,-33,-13,-1,1,2
1537911537991903,0,0,1,-2,2,5,-1,0
1537911537992901,-5,-1,2,-2,-10,-5,0,-2
1537911537992901,4,0,4,12,4,3,1,-1
1537911538014842,0,0,3,8,3,-4,-2,-2
1537911538014842,-3,1,-3,5,0,3,-1,0
1537911538015840,6,-1,-3,-12,-8,-7,-1,2
1537911538015840,0,1,-1,9,2,5,0,-3
1537911538029802,-2,-1,-1,1,0,-5,0,1
1537911538029802,2,3,2,3,3,3,0,-1
1537911538029802,-4,-2,-1,-7,-3,-1,0,-1
1537911538029802,-3,0,-1,9,-1,0,0,-3
1537911538051744,-4,-1,4,30,10,0,-1,2
1537911538051744,6,-4,-3,-14,-7,1,6,3
1537911538052741,1,4,-3,-24,-33,-2,-2,0
1537911538052741,1,1,7,21,18,-2,-3,-1
1537911538074682,-16,2,12,99,41,-11,-6,-3
1537911538074682,13,-13,-19,-70,-8,1,2,4
1537911538075680,-7,-3,20,40,-40,-2,-4,-7
1537911538075680,-4,-15,-50,-90,10,2,0,2
1537911538089643,-12,13,42,93,5,-15,-7,-7
1537911538089643,9,-9,-49,-81,94,26,8,4
1537911538089643,-3,3,13,83,-74,-21,-14,-7
1537911538089643,-7,9,32,118,-92,-8,-1,1
1537911538111584,42,-14,-71,-128,55,19,2,1
1537911538111584,-12,6,22,70,-52,-2,-2,0
1537911538112581,-13,10,25,59,53,1,-2,-2
1537911538112581,14,-19,-51,-85,39,10,0,-2
1537911538135520,-12,4,50,120,-77,-9,-4,-5
1537911538135520,-8,37,57,88,-99,-14,1,2
1537911538135520,54,-20,-94,-112,56,11,2,10
1537911538135520,-17,-3,15,84,80,-5,-1,-3
1537911538149482,1,5,23,-9,-43,3,-2,2
1537911538149482,-33,-14,1,26,-128,-3,-1,-11
1537911538150480,-12,-6,-1,18,-68,-10,12,3
1537911538150480,17,31,73,55,113,3,-22,-2
1537911538172421,-19,-38,-97,-107,-112,-19,22,2
1537911538172421,12,9,22,109,127,-1,-4,1
1537911538172421,-11,-9,-31,-128,-96,8,3,2
1537911538172421,10,4,19,80,15,-5,-9,-4
1537911538195360,-6,4,3,-42,27,11,-2,0
1537911538195360,0,3,4,74,25,-8,-9,-7
1537911538195360,-11,-7,-18,-95,127,4,6,0
1537911538195360,15,6,12,51,41,5,5,3
1537911538209322,2,13,27,-14,-79,2,-3,3
1537911538209322,5,-10,-25,-38,72,4,-2,-2
1537911538210320,-17,8,36,100,60,3,0,-8
1537911538210320,-1,-8,-34,-97,-44,-4,5,2
1537911538232261,16,10,15,18,-41,-10,-9,1
1537911538232261,5,-7,0,-12,-82,5,3,3
1537911538232261,-10,-9,-17,25,72,-9,-11,-6
1537911538232261,-20,-11,-21,-112,-125,0,11,-2
1537911538255200,23,4,5,50,41,2,1,2
1537911538255200,-3,-2,7,93,15,-4,-7,0
1537911538256197,-14,-14,-34,-85,29,-4,-7,-6
1537911538256197,0,6,13,66,-9,2,3,2
1537911538270160,-4,-8,-36,-93,60,4,0,-1
1537911538270160,-9,1,5,-1,-21,-5,0,-3
1537911538277141,12,7,19,40,33,2,-2,0
1537911538277141,2,-2,-13,-51,-47,-6,7,4
1537911538292101,-8,7,25,90,-53,-2,-2,-2
1537911538292101,7,-4,-15,-19,61,3,2,2
1537911538292101,-1,1,9,-28,-78,0,-4,0
1537911538292101,-6,-3,-2,41,4,-10,4,-2
1537911538315040,-6,3,20,69,23,0,1,1
1537911538315040,-2,-10,-26,-128,-92,0,4,1
1537911538316037,0,4,27,42,60,0,-8,-5
1537911538316037,1,-1,-15,-7,-52,-1,-5,-5
1537911538329003,-2,-4,-11,7,67,1,-2,-2
1537911538329003,4,4,11,2,96,2,-2,-1
1537911538330000,4,4,7,-4,-59,2,-7,-2
1537911538330000,-9,2,14,71,18,3,0,-2
1537911538351941,-10,-11,-28,-69,5,-2,-1,-4
1537911538351941,9,4,7,70,-50,-8,-7,-2
1537911538352939,2,5,6,-46,22,1,6,4
1537911538352939,-3,-8,-18,-100,61,7,1,0
1537911538374880,5,2,4,-18,35,2,2,2
1537911538374880,-9,-8,-5,-18,9,1,-1,-3
1537911538375877,2,2,8,46,-31,1,6,2
1537911538375877,2,1,5,17,-21,-2,0,-2
1537911538388843,-2,-3,-7,-37,-4,0,1,0
1537911538388843,-9,0,3,-6,-8,1,0,-2
1537911538396822,7,1,4,38,-21,-3,4,3
1537911538396822,5,2,-1,5,-5,5,-1,2
1537911538411781,-5,0,2,12,0,-2,-3,-2
1537911538411781,-1,-3,-9,-24,-2,-15,-1,-3
1537911538412779,-3,2,5,41,-17,1,-6,-1
1537911538412779,-5,-3,-3,-14,-10,-4,3,-3
1537911538434720,0,1,-1,-10,-9,-36,-7,-3
1537911538434720,5,5,4,2,1,-4,6,5
1537911538435718,-6,-4,1,-10,-18,-43,-15,-10
1537911538435718,-3,-1,2,7,-6,25,-1,3
1537911538448683,-1,-3,-1,2,-1,14,-3,-1
1537911538448683,0,-1,-1,-8,-8,3,-3,-1
1537911538456662,-21,-2,1,18,-5,-25,10,1
1537911538456662,29,1,0,-5,-10,-45,-14,-1
1537911538471622,-3,1,5,13,4,33,32,6
1537911538471622,2,-4,-8,-14,-2,13,4,0
1537911538472620,-11,-2,0,5,-5,23,4,-1
1537911538472620,6,-2,1,1,-29,-21,-12,1
1537911538494560,6,1,-5,-11,39,22,18,6
1537911538494560,0,2,1,6,-7,0,1,-1
1537911538495557,1,1,3,-1,-25,1,3,-2
1537911538495557,-7,-1,5,85,12,11,-3,-1
1537911538508523,2,-4,-9,-82,-30,-7,-11,-3
1537911538508523,-1,-2,1,13,9,-4,-6,-2
1537911538516501,5,0,-1,4,-20,16,0,2
1537911538516501,-6,-1,-2,-21,6,0,0,-1
1537911538531461,-3,-4,0,19,-6,-5,-9,-1
1537911538531461,-2,-1,-1,-12,-13,-5,-4,-2
1537911538532460,4,-1,-5,33,37,3,3,3
1537911538532460,-9,-1,0,-21,-12,9,3,-4
1537911538555397,-3,1,2,24,1,-9,-4,-2
1537911538555397,0,-2,-5,-9,-1,0,-3,-2
1537911538555397,-3,-1,-1,19,-22,4,0,-1
1537911538555397,4,-2,-3,-16,46,1,0,-1
1537911538568363,3,0,-4,21,0,-2,-6,-1
1537911538568363,2,0,-2,-71,-41,-2,-2,0
1537911538577339,2,-1,-2,-3,-3,3,0,1
1537911538577339,-9,-2,1,30,-36,1,3,-2
1537911538592299,-5,-4,-4,-17,80,-6,-7,-3
1537911538592299,1,-1,-2,12,-5,2,3,1
1537911538592299,-2,0,-4,-28,8,0,1,0
1537911538592299,-2,-1,-1,-26,-2,2,-2,0
1537911538615237,2,-1,5,29,-20,-1,-4,-2
1537911538615237,-4,1,1,9,-12,-2,0,-1
1537911538616235,4,-4,-6,-6,21,3,2,3
1537911538616235,-8,-2,-4,-7,-17,-4,-2,-3
1537911538629200,-1,0,2,3,-16,-2,-2,-1
1537911538629200,-1,0,-2,9,16,-2,-2,-3
1537911538637179,5,2,4,6,-18,-1,-1,-1
1537911538637179,-1,0,1,4,11,2,1,0
1537911538652139,-3,1,4,21,-3,-3,-2,0
1537911538652139,-2,-1,-2,-30,-3,0,1,-1
1537911538652139,-1,-3,0,-4,-6,1,0,0
1537911538652139,10,4,1,16,16,0,1,1
1537911538675077,-2,-4,-6,-59,-29,-2,0,-1
1537911538675077,-4,0,11,80,2,0,-3,-2
1537911538676075,2,-3,-10,-74,-30,2,0,0
1537911538676075,-3,4,9,84,46,-3,-2,-2
1537911538698016,0,-1,-4,-6,9,-1,-3,-1
1537911538698016,2,-2,-3,-35,21,2,3,1
1537911538698016,-2,-3,0,32,7,0,-1,-1
1537911538698016,-5,-6,-12,-95,-28,0,1,-2
1537911538711979,2,5,11,105,3,-3,-1,-2
1537911538711979,-1,5,15,82,-31,-5,0,-1
1537911538712976,8,-1,-13,-25,89,0,-3,-1
1537911538712976,-7,-10,-29,-99,6,4,0,-1
1537911538735915,-4,3,14,84,-13,-3,-3,-3
1537911538735915,-4,3,3,21,-25,3,-1,0
1537911538737910,10,6,19,127,-11,-3,2,4
1537911538737910,-9,-14,-33,-53,98,-2,-9,-8
1537911538757856,-9,-2,-4,-12,-97,5,3,-1
1537911538757856,12,-1,15,103,7,2,4,6
1537911538758854,3,12,24,62,42,-5,-2,1
1537911538758854,0,7,26,105,12,0,1,-2
1537911538770822,-6,-14,-45,-81,-51,8,6,3
1537911538770822,3,5,7,83,39,1,-2,-3
1537911538779797,6,3,18,-44,-49,19,11,9
1537911538779797,-6,-11,-10,-9,-53,-12,-8,-6
1537911538794757,12,33,85,77,127,-7,-2,2
1537911538794757,-10,-22,-58,-113,-81,-7,-2,-4
1537911538796752,-6,-8,-27,-128,-124,-11,-8,-6
1537911538796752,9,29,70,100,-104,-6,2,3
1537911538819691,-2,-12,-9,-100,-128,-1,2,2
1537911538819691,-11,-21,-38,-25,37,-1,-11,-11
1537911538821686,1,19,55,114,94,0,-10,-3
1537911538821686,-10,-28,-88,-104,-128,7,13,4
1537911538824678,2,4,20,127,13,-1,2,0
1537911538824678,6,20,50,24,-1,-21,-10,-2
1537911538832656,-11,-28,-83,-66,96,20,0,-3
1537911538832656,-9,1,11,21,59,-6,3,-1
1537911538846619,22,16,26,104,124,-4,-1,5
1537911538846619,-11,-26,-66,-128,67,20,12,2
1537911538854597,-4,3,14,-22,97,-7,-9,-9
1537911538854597,6,12,34,109,10,-8,-5,-2
1537911538861579,-11,-16,-47,-25,107,13,3,0
1537911538861579,4,28,73,119,-7,-2,-2,3
1537911538868560,-5,-17,-32,-43,-83,-13,-3,-4
1537911538868560,0,-7,-10,-4,-15,1,3,0
1537911538883521,-2,4,12,58,82,-1,-4,0
1537911538883521,4,4,17,92,62,15,11,7
1537911538891499,-9,-12,-20,14,-77,-7,-2,-5
1537911538891499,14,31,71,90,21,7,5,9
1537911538906459,-27,-59,-110,-123,-128,-15,-21,-23
1537911538906459,-7,-4,11,93,28,-1,5,1
1537911538914437,12,8,18,68,16,7,11,6
1537911538914437,2,7,19,88,50,-5,-9,-3
1537911538921419,1,3,-8,-61,-43,6,7,2
1537911538921419,0,3,10,36,-35,-5,-2,0
1537911538928400,-5,-1,-10,-24,-32,-1,0,-4
1537911538928400,0,1,6,-33,-29,-8,-8,-5
1537911538943360,-7,-2,1,-25,-58,-1,5,3
1537911538943360,14,2,-3,22,-56,-5,-4,0
1537911538951339,0,4,17,72,-84,-10,-4,-2
1537911538951339,-6,-14,-30,-77,4,2,-2,-3
1537911538966299,-4,-5,-15,-16,-92,-6,-4,-3
1537911538966299,1,6,14,24,5,3,-2,-1
1537911538974278,3,12,29,85,16,-7,1,1
1537911538974278,-6,-13,-30,-61,-77,2,0,-3
1537911538989238,-1,-1,3,-43,-15,-4,-4,-4
1537911538989238,-4,-8,-20,-92,61,-7,-7,-7
1537911538990235,3,8,14,52,35,5,2,5
1537911538990235,-7,-13,-26,-42,-58,3,0,0
1537911539003200,9,16,28,78,6,-4,-1,0
1537911539003200,-8,-6,-21,-104,10,-6,-3,-3
1537911539011179,1,-12,-17,-40,52,2,5,-1
1537911539011179,-1,1,6,17,99,-9,-4,-2
1537911539026139,0,4,-1,-20,28,-5,-3,-1
1537911539026139,-4,-7,-16,-65,1,-1,-1,-1
1537911539034117,-6,-4,-8,-60,-45,-4,-2,-5
1537911539034117,1,3,4,32,28,2,0,1
1537911539049078,4,4,9,43,47,0,-1,1
1537911539049078,-1,-2,-8,61,-88,-4,-3,-1
1537911539050075,-2,-2,-2,-32,-3,-3,-3,-1
1537911539050075,2,-2,-6,-20,-16,1,-2,-1
1537911539064037,-1,0,3,24,58,3,-1,2
1537911539064037,-3,-1,-2,-46,-83,-3,-2,-2
1537911539071019,5,0,3,12,-27,0,0,1
1537911539071019,0,-2,-4,6,-17,4,4,1
1537911539085979,-1,2,6,11,-3,-3,-2,-3
1537911539085979,0,0,-2,7,29,-1,-3,-2
1537911539093958,-2,-3,-2,6,7,-1,-1,0
1537911539093958,-5,-5,-9,-24,20,0,-2,-1
1537911539108917,0,2,8,10,-5,-2,-3,0
1537911539108917,1,1,-3,-10,21,2,1,-2
1537911539109915,-11,-3,-7,-19,-22,0,0,-2
1537911539109915,11,5,8,36,-11,1,1,1
1537911539123878,-1,1,4,7,-10,1,2,1
1537911539123878,-4,1,-2,-3,-3,1,1,0
1537911539130859,6,2,0,12,2,-2,-3,-1
1537911539130859,-10,-8,-3,3,6,0,-2,-1
1537911539145820,1,0,-2,-15,-3,-2,0,-1
1537911539145820,-1,-2,-1,-13,12,-1,-2,-2
1537911539154795,-2,1,2,8,3,-2,-1,-1
1537911539154795,0,3,2,3,8,1,-1,0
1537911539169755,2,0,-2,-10,-12,-2,0,0
1537911539169755,0,-1,1,12,-7,3,0,-1
1537911539169755,-2,0,-1,4,-5,-2,-1,0
1537911539169755,-1,-2,1,-1,-6,0,-1,0
1537911539184715,-2,-2,-2,0,-3,-2,0,1
1537911539184715,2,-1,-1,1,6,-2,1,1
1537911539190699,-1,-1,-4,0,0,-1,-1,-1
1537911539190699,-2,-1,-5,-11,-1,-1,2,1
1537911539207655,-1,-6,-3,4,1,3,2,-1
1537911539207655,2,-3,0,3,6,1,0,-1
1537911539214635,-1,-2,-5,-17,-11,-4,-4,-1
1537911539214635,-2,0,3,18,-10,-4,-2,-2
1537911539229595,-1,0,-2,-14,-2,-1,-2,-1
1537911539229595,3,0,-3,-41,22,1,1,2
1537911539229595,-3,-2,-1,-1,4,0,-1,-2
1537911539229595,0,2,0,-4,0,-1,-1,-1
1537911539243558,1,1,3,1,-2,-3,-1,-1
1537911539243558,-4,-3,0,6,-3,-3,-2,-1
1537911539251536,-1,1,0,3,-2,-3,-2,-1
1537911539251536,0,-1,-1,-3,7,-1,-3,0
1537911539266496,0,-3,0,6,-1,0,0,-1
1537911539266496,0,0,-1,6,-7,-1,-2,1
1537911539274475,-1,0,0,3,-2,2,1,0
1537911539274475,0,-1,-3,6,0,1,-2,-2
1537911539289435,-3,0,-1,-1,-1,1,-1,-2
1537911539289435,1,0,-3,4,-7,-1,0,-1
1537911539290433,0,-3,0,2,0,1,0,0
1537911539290433,-1,-1,-2,-1,4,2,1,-2
1537911539303398,0,1,1,1,-4,3,1,1
1537911539303398,0,0,1,1,1,1,-1,-1
1537911539311377,-2,-2,-1,4,1,0,-1,-1
1537911539311377,-2,-3,-3,-2,-1,-1,-1,-1
1537911539326336,1,2,2,8,2,0,-1,-2
1537911539326336,0,4,9,50,-5,-1,-2,-1
1537911539334315,-1,-1,-1,2,-11,0,-1,-1
1537911539334315,-3,-2,-5,-49,-34,-7,-1,-3
1537911539349275,0,1,6,75,25,-6,-5,-1
1537911539349275,-15,-14,-22,-35,-86,-8,-3,-6
1537911539350273,3,-10,-22,11,22,-3,-2,-5
1537911539350273,10,21,50,71,11,-9,0,2
1537911539363238,1,-4,-12,-43,-85,-16,-11,-1
1537911539363238,7,3,12,90,114,-25,4,0
1537911539372214,-13,-25,-62,-128,-82,37,-2,-1
1537911539372214,0,8,30,124,32,-9,-25,-7
1537911539386176,3,3,-4,-35,36,34,32,8
1537911539386176,4,13,30,69,-52,-46,-22,-6
1537911539394156,-15,-29,-51,-59,-4,-40,-1,-5
1537911539394156,-3,-9,-36,-60,127,66,14,1
1537911539409115,1,14,46,48,-69,-12,1,4
1537911539409115,-2,8,20,79,-77,28,-5,-1
1537911539410113,3,16,50,93,-35,-43,-7,2
1537911539410113,16,-5,-34,-57,-23,-27,-11,-3
1537911539424075,-4,-14,-33,-122,-55,-6,-3,-2
1537911539424075,-6,-9,-9,9,107,-5,-16,-11
1537911539432054,1,10,27,64,0,8,16,7
1537911539432054,-17,-20,-43,-83,-102,-24,2,-5
1537911539446017,7,18,46,105,69,-13,2,4
1537911539446017,-3,-11,-42,-128,-15,-34,4,-2
1537911539453995,-1,0,0,-84,72,5,14,5
1537911539453995,2,10,26,96,-38,-42,6,2
1537911539468955,-4,-15,-31,33,97,29,-7,-2
1537911539468955,7,13,28,20,-128,26,18,12
1537911539469953,-7,-17,-58,-59,-16,23,-6,-8
1537911539469953,0,1,2,59,-69,49,10,6
1537911539483916,2,11,37,83,88,24,-11,-2
1537911539483916,-2,-10,-17,9,-64,25,3,0
1537911539491894,7,15,28,36,-46,24,6,4
1537911539491894,-3,-2,12,72,106,-8,-5,-1
1537911539505857,-5,-5,-14,-79,-97,-26,-7,-5
1537911539505857,-3,-6,-14,-74,66,-12,-2,-1
1537911539514833,5,11,27,108,-4,-14,-4,0
1537911539514833,-5,3,8,20,22,-8,-11,-6
1537911539529793,-5,-14,-26,-24,55,1,2,0
1537911539529793,-2,-11,-23,-128,62,19,4,-2
1537911539529793,5,7,26,102,20,-4,-5,-1
1537911539529793,-3,-5,-6,-69,-85,8,6,0
1537911539543755,0,-6,-19,-90,-28,7,1,0
1537911539543755,-2,-3,-5,12,11,7,-2,0
1537911539551735,1,7,11,-25,88,-1,-7,-2
1537911539551735,1,2,12,38,63,13,12,5
1537911539565697,-6,-7,-11,-45,38,1,-1,-3
1537911539565697,1,3,13,75,4,4,-4,0
1537911539581654,6,6,12,-3,-5,3,0,2
1537911539581654,0,0,2,6,-6,3,0,2
1537911539589633,-2,-3,-6,2,3,-8,-5,-2
1537911539589633,0,3,13,13,68,0,0,-1
1537911539589633,4,10,18,88,-72,-19,2,2
1537911539589633,-4,-10,-12,-15,-106,-18,-5,-2
1537911539603595,-4,-4,-9,-8,49,-2,-8,-6
1537911539603595,0,-1,-16,-94,-92,-13,-5,0
1537911539611574,-4,-10,-34,-112,43,23,-7,-3
1537911539611574,0,0,0,-14,-30,27,18,3
1537911539626534,-5,6,16,127,29,2,0,-1
1537911539626534,10,1,-1,-21,0,1,1,3
1537911539635510,0,3,8,-5,50,2,-5,0
1537911539635510,0,-6,-9,-43,80,1,-2,-1
1537911539648476,-2,2,8,50,10,-1,-1,-1
1537911539648476,0,6,24,124,116,6,10,4
1537911539657451,-7,-16,-34,-111,-10,-1,1,-3
1537911539657451,-1,6,9,72,35,3,-3,-1
1537911539663435,0,-9,-22,-79,-103,-1,3,-1
1537911539663435,-2,3,9,69,25,6,-2,0
1537911539678395,1,5,15,64,-94,-5,-2,-1
1537911539678395,-1,-4,-3,-32,6,-1,0,1
1537911539686374,3,11,25,77,-49,-21,-5,-2
1537911539686374,2,-9,-21,-39,-58,-1,1,-1
1537911539695350,-14,-15,-23,-62,-17,-4,-2,-6
1537911539695350,10,5,6,57,46,2,-6,0
1537911539717291,1,3,6,-13,9,-1,4,3
1537911539717291,-1,1,2,-18,-48,2,8,4
1537911539719286,2,3,9,-2,100,9,-1,1
1537911539719286,-5,-4,-9,-28,-22,-17,-7,-4
1537911539740230,3,4,12,48,-49,-3,-8,-4
1537911539740230,-1,2,5,53,12,17,3,2
1537911539741228,-2,-5,-3,-42,-26,14,-2,-2
1537911539741228,-8,6,19,105,56,12,3,0
1537911539755190,10,-2,1,55,3,5,0,2
1537911539755190,-5,-4,-9,-42,-36,-10,-5,-2
1537911539756188,6,11,35,127,-40,-12,1,4
1537911539756188,-1,-1,7,30,62,-3,1,1
1537911539777132,-5,-4,-5,12,19,0,-1,-3
1537911539777132,0,5,17,70,20,-4,1,0
1537911539779126,0,-4,-8,-37,-23,-22,-3,-2
1537911539779126,-6,-10,-19,-86,-64,-13,-5,-5
1537911539800070,-4,-6,-12,-54,7,20,4,2
1537911539800070,1,0,4,11,-7,38,-6,-3
1537911539801068,-1,3,4,13,12,24,-1,-4
1537911539801068,0,-3,-10,-44,-21,-3,-1,0
1537911539814033,3,3,7,70,-2,-23,-4,-1
1537911539814033,-4,-9,-24,-128,41,-23,-2,-2
1537911539821014,0,2,3,55,43,-13,-2,-3
1537911539821014,-4,-9,-19,-114,-78,-13,-2,-3
1537911539837969,-1,-1,0,-28,1,-8,-3,-1
1537911539837969,1,1,4,53,-26,-10,-3,0
1537911539838967,-2,-2,-7,-14,10,-10,-1,0
1537911539838967,1,2,4,15,-6,-8,-1,-1
1537911539860907,-1,-1,0,-22,-18,-3,0,-1
1537911539860907,-2,0,-2,15,21,0,0,-1
1537911539861905,-2,-5,-8,-21,5,0,0,-2
1537911539861905,0,0,-1,3,-26,3,-3,0
1537911539874870,-3,-4,-11,-52,24,9,1,-2
1537911539874870,-3,-4,-7,-23,8,-3,-4,-3
1537911539880854,1,2,7,36,-2,6,0,0
1537911539880854,0,-1,2,4,-1,8,-1,-1
1537911539897809,-2,-3,-8,-24,-13,0,-2,-2
1537911539897809,0,0,1,4,-13,-4,-2,-1
1537911539898806,0,1,8,36,-22,3,-1,-1
1537911539898806,-7,1,-2,-15,43,4,1,-1
1537911539921745,7,-7,-19,-67,-72,-4,-1,1
1537911539921745,-1,-4,0,9,10,-8,-2,-1
1537911539922742,0,-2,4,5,-11,0,1,-1
1537911539922742,-1,0,4,45,-10,-16,-3,0
1537911539933713,-4,4,9,25,10,-4,0,0
1537911539933713,-1,1,2,6,-9,-18,-1,1
1537911539942689,1,-1,-5,-15,15,-13,-4,0
1537911539942689,1,-1,3,17,-15,-8,0,-1
1537911539957649,-3,-1,-1,8,10,-7,0,1
1537911539957649,0,-3,-4,-11,-6,0,-1,-2
1537911539958646,-2,-1,0,5,1,-2,2,-1
1537911539958646,2,0,-4,-24,4,3,0,0
1537911539979590,-2,-3,-1,3,-2,6,2,1
1537911539979590,-2,-1,-3,-21,9,9,2,-1
1537911539981585,1,2,-3,-6,-12,-11,-7,-2
1537911539981585,0,-3,-2,-3,14,7,5,2
1537911539993553,-3,-2,-5,-18,8,-7,-5,-4
1537911539993553,0,2,7,41,-16,-5,-2,-1
1537911540002529,0,-2,-3,-30,18,1,2,0
1537911540002529,-1,0,5,13,-34,1,-1,-2
1537911540017489,0,3,6,112,80,0,-3,0
1537911540017489,-6,-9,-21,-60,-36,-3,0,-2
1537911540019484,-2,-3,0,38,-15,-1,2,1
1537911540019484,-1,-4,-8,-37,-16,-7,-6,-2
1537911540040428,6,4,10,28,1,-13,-1,1
1537911540040428,-6,-1,5,14,10,-6,0,-2
1537911540041425,9,-1,-5,-8,10,1,1,0
1537911540041425,-10,-2,-3,1,9,1,-4,-2
1537911540053393,2,-3,-4,-30,-18,-11,-2,0
1537911540053393,3,1,1,-4,6,-13,1,2
1537911540062369,-6,-3,-2,-17,-15,-10,-1,-2
1537911540062369,1,0,-1,7,14,-1,-1,-1
1537911540077329,-4,-2,-3,-23,-21,11,-2,-1
1537911540077329,-2,-1,1,-9,-2,16,-2,-3
1537911540079324,0,1,2,23,11,12,0,-3
1537911540079324,2,-2,-2,-5,4,10,-2,0
1537911540100268,-5,-2,-5,-19,-10,12,0,1
1537911540100268,1,1,3,13,4,6,-3,0
1537911540101266,-1,1,3,4,-5,7,-1,0
1537911540101266,-8,-3,-6,-33,11,7,0,-1
1537911540113237,8,1,1,42,-35,4,-1,-2
1537911540113237,-1,-2,-4,-68,29,8,1,1
1537911540122210,-3,-3,-5,-18,-7,-2,-4,-3
1537911540122210,1,-1,-2,1,1,-7,0,-1
1537911540137170,-4,0,0,-4,-2,-6,2,-1
1537911540137170,1,0,5,38,-1,-5,-1,-1
1537911540139165,-1,-1,0,10,2,-4,0,-2
1537911540139165,2,-1,-1,-2,3,-5,1,-1
1537911540160109,-3,-2,-1,-8,-1,-3,1,-1
1537911540160109,3,0,-1,13,-7,-3,-1,1
1537911540161107,-3,0,-1,-13,1,0,0,1
1537911540161107,4,-1,0,16,-4,1,-1,0
1537911540174073,-2,-1,0,-12,-1,3,0,-1
1537911540174073,-2,1,3,38,5,2,-2,-1
1537911540183049,-4,-1,-7,-54,-41,-1,-1,-2
1537911540183049,-1,-1,-5,-13,42,3,-3,0
1537911540198007,0,1,11,79,8,-3,-2,0
1537911540198007,-2,-7,-18,-83,-18,6,1,1
1537911540199006,0,3,9,56,5,-1,-1,0
1537911540199006,2,3,6,28,-3,1,-1,-1
1537911540219948,-3,1,6,58,-28,-6,-2,-2
1537911540219948,1,1,-7,-53,22,-1,-3,-2
1537911540221943,-1,-12,-20,-50,16,8,5,4
1537911540221943,-6,-14,-26,-94,-76,-10,-6,-6
1537911540234908,5,17,41,84,112,-5,-2,0
1537911540234908,-11,-14,-41,-89,-101,-13,-3,-3
1537911540242887,9,12,15,127,75,-9,-5,2
1537911540242887,-5,-21,-39,-68,108,4,9,3
1537911540257846,-4,-10,-18,-128,-124,-17,1,-1
1537911540257846,-5,6,26,118,127,-14,-4,-5
1537911540258844,14,19,44,73,-49,-10,4,4
1537911540258844,-1,-11,-34,-34,77,2,-4,3
1537911540279788,-4,-3,8,41,-99,-20,-7,-4
1537911540279788,2,1,-7,-43,19,5,-5,0
1537911540281782,-4,7,33,90,-60,9,2,1
1537911540281782,-1,3,15,77,-30,4,-16,-8
1537911540293750,-6,-16,-53,-108,64,33,5,0
1537911540293750,-6,-18,-36,-31,52,16,2,-2
1537911540302726,1,11,28,85,93,16,-2,-3
1537911540302726,2,10,13,20,-20,21,-2,0
1537911540317686,-9,-20,-44,-93,-27,31,-21,-9
1537911540317686,9,17,65,127,-30,26,17,8
1537911540318684,-3,-14,-36,-61,-53,11,4,3
1537911540318684,-4,-2,7,52,63,-1,4,-1
1537911540339628,2,5,-6,-86,-42,94,5,3
1537911540339628,6,16,41,104,-80,92,-1,1
1537911540341623,-8,-18,-27,-69,-94,27,-9,-8
1537911540341623,5,12,22,35,21,-10,2,3
1537911540353591,0,-1,3,-23,-56,-58,-1,1
1537911540353591,-5,-2,-1,-3,5,-57,-1,-4
1537911540362567,2,12,32,31,59,-20,-2,0
1537911540362567,-1,-7,-23,-102,-81,-17,-2,-2
1537911540376531,-1,-4,-9,-39,-18,-20,11,4
1537911540376531,-3,-3,-3,13,20,-24,-2,-2
1537911540383511,-3,-5,-15,-8,59,-36,-3,0
1537911540383511,5,7,10,17,-31,-26,-2,-2
1537911540400466,2,10,33,127,78,-14,1,1
1537911540400466,-3,-9,-30,-71,26,-33,-9,-4
1537911540401463,-9,-6,-19,-61,-52,-21,-7,-6
1537911540401463,-2,-11,-26,-66,24,-9,6,4
1537911540413431,0,2,18,109,-25,-30,-3,-3
1537911540413431,-2,-3,-5,53,-74,-33,-4,-2
1537911540422407,1,-2,-9,17,24,-13,-2,-2
1537911540422407,-2,0,-2,-3,-105,-8,1,0
1537911540436369,-3,3,7,30,11,-13,-1,-2
1537911540436369,6,1,-4,-11,-28,0,3,3
1537911540443350,5,6,18,48,-23,3,5,2
1537911540443350,7,21,60,127,80,-1,-2,3
1537911540460305,-16,-27,-68,-111,34,-18,-1,-5
1537911540460305,-2,-11,-28,-103,43,-8,-3,-1
1537911540461303,-4,-5,-20,12,67,-5,-6,-2
1537911540461303,-1,-9,-17,-87,-63,15,0,-2
1537911540473271,1,4,6,-40,-35,6,-2,-1
1537911540473271,2,8,20,42,5,9,0,1
1537911540482247,-2,-4,-12,-51,9,18,3,1
1537911540482247,1,8,18,76,-28,20,-2,1
1537911540497207,4,10,31,127,97,8,2,0
1537911540497207,-5,-4,-4,19,-64,8,-3,0
1537911540503191,6,-9,-13,-67,4,4,2,-1
1537911540503191,1,3,10,34,34,8,0,0
1537911540520145,-1,-6,-7,-29,-42,3,-2,-1
1537911540520145,2,7,11,76,71,2,-3,-1
1537911540521143,-6,-2,-1,13,-64,1,-1,-2
1537911540521143,-2,0,2,5,78,4,2,-2
1537911540544081,4,7,7,11,15,0,-1,1
1537911540544081,-6,-6,-6,-44,-81,11,4,0
1537911540545079,-3,-8,-14,-18,-90,-6,1,-3
1537911540545079,2,0,5,80,-76,-8,2,-1
1537911540557047,2,6,8,-68,-44,7,3,2
1537911540557047,-1,-1,-2,-67,9,-2,-2,-1
1537911540559041,-5,-4,-9,-47,19,4,-2,0
1537911540559041,-1,4,9,45,6,1,1,1
1537911540579985,-1,0,3,45,71,2,-3,-2
1537911540579985,-3,2,7,48,60,4,1,2
1537911540580983,9,7,18,68,-38,-5,-2,1
1537911540580983,-3,-5,-10,-54,-91,-10,-6,-5
1537911540602924,3,2,9,10,49,14,7,5
1537911540602924,-3,-13,-31,-38,-98,-4,2,-1
1537911540603922,2,9,32,82,19,9,7,6
1537911540603922,-4,-7,-25,-103,-36,-2,-2,-3
1537911540617884,2,1,-1,-35,79,7,2,2
1537911540617884,0,6,4,-72,-17,0,-3,-3
1537911540618881,-3,-3,6,66,-31,-4,3,0
1537911540618881,-3,-5,0,-8,-12,-1,3,1
1537911540639825,-2,5,-1,32,17,-7,-6,-4
1537911540639825,12,8,24,127,54,-7,5,5
1537911540641820,-7,-6,-15,-66,-34,0,-8,-5
1537911540641820,4,9,26,111,39,4,-1,1
1537911540662764,1,-4,-4,25,-128,-11,-9,-2
1537911540662764,-2,7,24,75,-2,6,10,7
1537911540663762,1,-7,-17,-61,-22,-1,2,-2
1537911540663762,1,3,12,81,50,4,-3,0
1537911540677724,0,0,-1,5,-67,-3,0,2
1537911540677724,1,0,0,6,-20,-3,-5,-4
1537911540678722,-4,0,-6,-24,69,6,1,1
1537911540678722,-5,-8,-18,-88,3,2,-1,-2
1537911540699666,1,0,2,2,20,1,2,-1
1537911540699666,0,1,2,19,-121,-8,-9,-3
1537911540701661,-5,-6,-21,-38,37,10,-7,-8
1537911540701661,-7,-16,-29,-58,-70,-15,-6,-6
1537911540722606,-3,-4,-4,21,-45,-3,0,-2
1537911540722606,-1,-4,-9,18,34,-4,-4,-3
1537911540724600,1,4,9,48,41,-2,-3,-2
1537911540724600,3,7,13,52,13,2,1,1
1537911540736569,-4,-6,-11,-43,-3,-3,-2,-3
1537911540736569,-1,-4,-4,-17,44,2,1,-3
1537911540743550,1,1,4,8,7,0,-1,3
1537911540743550,-4,-2,-8,-46,16,1,-1,-1
1537911540760504,-2,-3,-2,-1,15,-2,0,-2
1537911540760504,0,-1,0,-11,8,-3,-2,-3
1537911540761502,0,0,-2,-22,7,6,2,0
1537911540761502,0,-2,-2,5,-9,3,-2,-2
1537911540782447,0,0,1,4,20,2,-2,-2
1537911540782447,-1,-2,-6,-10,4,1,-1,-1
1537911540784440,-2,-3,-7,-16,-19,11,-1,-2
1537911540784440,0,3,4,24,12,9,-1,-1
1537911540796408,1,1,1,11,9,2,0,0
1537911540796408,-1,-3,-7,-35,9,16,-3,-1
1537911540805384,0,-2,-1,4,-4,-9,2,0
1537911540805384,0,1,3,16,-4,-5,0,-1
1537911540820344,-1,4,0,-7,6,-16,0,-1
1537911540820344,-6,-2,-3,-11,-4,-23,-1,-2
1537911540821342,2,-4,-4,1,2,-19,-2,1
1537911540821342,2,-2,0,10,0,-12,2,0
1537911540842285,-3,-6,-6,-14,-9,-17,-11,-4
1537911540842285,1,1,-2,1,8,-8,2,-1
1537911540844280,0,5,6,9,3,-10,-6,0
1537911540844280,-2,-1,-2,-7,5,-10,2,0
1537911540856248,-1,0,-1,-3,4,-5,1,-1
1537911540856248,-2,-3,-3,-8,3,-27,1,-1
1537911540865224,-3,-2,-2,-12,1,-33,1,-2
1537911540865224,2,0,1,1,-11,-27,-6,-1
1537911540880184,-1,0,0,-3,11,-6,3,-1
1537911540880184,1,-1,-2,-9,-35,-2,-2,-2
1537911540881181,-3,-1,2,40,30,5,1,-1
1537911540881181,0,-3,-8,-49,-7,13,1,1
1537911540902125,-1,-2,-3,1,-1,15,3,-1
1537911540902125,0,0,-2,9,-5,7,-5,-2
1537911540904120,-3,0,0,5,-3,-2,-5,-2
1537911540904120,-1,2,6,40,10,-15,-2,1
1537911540916088,-2,-2,0,4,-1,-28,-1,-1
1537911540916088,1,-2,-4,-15,10,-22,-3,-1
1537911540925065,0,-1,-2,7,-8,-5,-1,1
1537911540925065,-4,-1,0,9,8,11,3,-3
1537911540940025,0,-2,-1,-8,-6,19,1,0
1537911540940025,-1,-1,0,7,10,27,1,0
1537911540941022,-3,-3,-4,-14,-7,29,-2,-1
1537911540941022,0,-2,1,-2,-8,25,2,0
1537911540961967,0,0,-2,-1,2,20,-2,-1
1537911540961967,-2,0,-1,4,7,20,0,-2
1537911540969944,0,2,-3,-10,-7,13,0,-3
1537911540969944,-1,1,-2,-3,1,10,-5,-3
1537911540975928,-3,-3,-1,9,-5,33,0,0
1537911540975928,1,0,-3,-1,13,61,0,2
1537911540984905,-2,-2,-4,-11,-9,119,1,-2
1537911540984905,0,-4,-1,5,0,106,-2,-1
1537911541000862,-1,-1,-1,4,1,103,-1,0
1537911541000862,0,-1,-2,-7,-5,15,-1,-1
1537911541006846,-1,-2,-2,-8,-3,-26,1,-1
1537911541006846,-2,-1,0,6,2,-57,-1,-2
1537911541022802,-2,0,-1,0,1,-54,-1,-2
1537911541022802,-1,-2,-2,-4,0,-39,-1,0
1537911541023800,-1,1,1,1,-1,-80,-2,-1
1537911541023800,0,-1,0,13,2,-81,0,0
1537911541035767,3,4,6,42,-9,-90,3,0
1537911541035767,-3,-6,-12,-64,18,-63,3,2
1537911541044743,-1,-2,0,-7,9,-48,1,1
1537911541044743,0,-1,1,-1,-50,-30,1,1
1537911541059703,2,5,11,55,24,-23,1,1
1537911541059703,-2,-6,-16,-47,67,-7,-1,-4
1537911541061698,6,9,15,26,-44,-6,5,3
1537911541061698,-2,-2,1,60,-23,-12,-7,-5
1537911541082642,2,-2,-3,57,-28,-21,1,1
1537911541082642,-4,-15,-37,-79,4,-13,1,0
1537911541083639,4,6,19,113,58,-47,-2,0
1537911541083639,6,17,37,68,16,-48,6,6
1537911541096604,-6,-21,-57,-112,16,-63,7,2
1537911541096604,-1,6,32,127,-70,-62,1,2
1537911541104583,-4,8,22,42,81,-40,-9,-8
1537911541104583,2,-23,-66,-70,-1,39,15,7
1537911541119543,1,17,44,123,-20,20,-7,-2
1537911541119543,6,10,21,60,6,51,7,7
1537911541121538,-12,-32,-64,-120,-128,43,-7,-6
1537911541121538,2,18,50,127,-8,45,-9,-5
1537911541142482,0,12,31,53,-96,47,-3,2
1537911541142482,-6,-15,-18,-20,-87,37,2,-2
1537911541144476,-1,-1,-5,44,123,42,-5,-6
1537911541144476,0,-3,-9,18,-38,24,0,2
1537911541156445,4,11,38,75,-113,22,5,6
1537911541156445,-9,-10,-24,25,63,9,-13,-11
1537911541165422,3,-3,-11,-31,-48,17,6,7
1537911541165422,-2,0,-3,-21,85,2,-17,-7
1537911541180382,-1,-3,-16,-11,127,10,-16,-5
1537911541180382,-2,-3,-8,-54,92,16,-14,-8
1537911541181380,7,7,11,54,-91,7,7,5
1537911541181380,-3,1,-2,7,-22,-3,-4,-4
1537911541202322,-8,-17,-40,-128,-13,7,-1,-5
1537911541202322,6,21,44,50,-10,6,-5,1
1537911541204320,-15,-33,-72,-113,39,16,-1,-3
1537911541204320,1,11,34,120,-6,8,2,2
1537911541216285,2,-3,-7,45,71,6,1,-2
1537911541216285,3,10,16,99,10,-9,7,5
1537911541225261,-4,-1,-8,-23,33,-1,-3,-3
1537911541225261,2,1,9,28,85,10,10,6
1537911541240221,-4,-13,-32,-104,-25,5,1,-1
1537911541240221,0,-1,-2,-16,-4,-1,-1,-2
1537911541241218,5,14,38,31,-41,10,7,3
1537911541241218,-4,-3,1,-6,-97,3,-3,-3
1537911541262162,-1,-1,-5,-8,74,-4,-7,-5
1537911541262162,6,14,27,21,-34,8,2,5
1537911541264156,-10,-21,-57,-109,-44,-6,3,-1
1537911541264156,-8,-5,-16,-16,-54,-25,-8,-7
1537911541286098,12,7,36,127,-44,-18,3,2
1537911541286098,-5,-9,-20,-55,-35,-17,-4,-1
1537911541288092,1,3,11,44,19,-21,-3,-2
1537911541288092,-4,-3,-10,-67,42,-8,0,0
1537911541299063,-2,7,21,83,-36,-8,-3,-2
1537911541299063,-5,-5,-13,-19,26,-3,-2,-3
1537911541306045,6,1,3,-4,7,-6,-1,2
1537911541306045,-3,-7,-12,-112,-84,-3,2,1
1537911541322999,-2,-1,1,16,-26,-1,-1,0
1537911541322999,1,3,14,47,-38,-4,0,-2
1537911541323997,-1,10,31,108,38,-1,-1,0
1537911541323997,-1,0,-3,-6,-27,-3,0,0
1537911541335965,-3,-7,-24,-98,62,2,-1,-2
1537911541335965,1,7,23,121,-48,-1,4,3
1537911541344943,1,3,13,42,9,-1,0,-1
1537911541344943,-5,-15,-34,-77,125,-2,-5,-4
1537911541359902,-1,0,7,7,14,3,3,1
1537911541359902,-2,-4,-5,-11,-24,0,3,0
1537911541361898,2,3,13,5,-44,-2,-3,1
1537911541361898,1,0,0,8,-14,-3,-1,-1
1537911541382841,-4,-1,-8,-28,-79,-2,3,0
1537911541382841,-1,-3,-6,-2,98,-7,-13,-6
1537911541383839,-1,-3,-6,-42,-87,8,4,0
1537911541383839,-2,-4,-9,-8,11,3,0,0
1537911541395806,1,2,1,10,33,3,1,1
1537911541395806,2,-5,-13,-39,-61,-3,2,2
1537911541404782,2,6,5,-12,-5,-4,-2,1
1537911541404782,3,7,13,37,6,-2,2,1
1537911541419742,-1,-1,0,-7,-26,-3,-2,-2
1537911541419742,-1,-3,-6,-3,-5,-2,1,-1
1537911541421737,1,4,8,34,23,1,1,-1
1537911541421737,9,20,48,122,-61,-6,3,5
1537911541442680,-19,-37,-76,-90,-42,-17,-14,-13
1537911541442680,-2,-2,-5,46,3,4,3,0
1537911541443677,-1,2,13,68,-20,-7,0,-1
1537911541443677,-3,-3,-6,-23,40,1,-1,-2
1537911541456642,4,9,16,18,4,5,5,3
1537911541456642,7,0,2,6,-11,-2,-1,1
1537911541464621,-5,-1,-3,4,-24,-6,-3,-1
1537911541464621,-1,-5,-11,-20,12,1,1,0
1537911541479581,-3,4,11,10,10,0,1,0
1537911541479581,-3,-3,-3,-12,-39,4,5,0
1537911541481576,-1,-2,2,-36,14,-1,-4,-1
1537911541481576,-4,-2,-3,16,62,0,-5,-3
1537911541502519,2,0,0,-18,-35,-1,2,1
1537911541502519,-1,-5,-14,-67,-8,-3,0,-1
1537911541503517,1,2,4,35,-4,0,0,0
1537911541503517,-1,-3,-5,-25,11,1,-1,-2
1537911541525458,1,2,5,15,-39,2,0,2
1537911541525458,-2,0,4,32,-1,-1,-1,-1
1537911541526455,-1,-1,-4,-14,29,-1,-2,-1
1537911541526455,-2,-5,-4,-4,12,2,-1,0
1537911541540418,4,4,12,26,41,3,0,0
1537911541540418,-4,-2,-7,-10,-73,-3,-1,-1
1537911541541415,0,-2,-3,1,40,-3,-1,-2
1537911541541415,1,0,3,27,-28,-2,-1,-2
1537911541562359,-3,-5,-8,-79,-2,1,1,-2
1537911541562359,-2,1,6,23,-21,-2,-2,0
1537911541564354,0,2,7,37,15,-2,-2,-1
1537911541564354,-1,-3,-9,7,-2,-4,-5,-4
1537911541585298,-2,-4,-9,-71,-11,2,1,1
1537911541585298,-2,-1,-4,5,2,-3,0,-1
1537911541586295,0,3,4,34,-45,0,-2,-1
1537911541586295,-1,-3,-5,-15,15,-2,0,-4
1537911541600258,-2,0,2,21,35,0,0,0
1537911541600258,-1,2,6,26,23,-1,-3,0
1537911541601256,-1,-1,-3,-12,3,2,0,1
1537911541601256,-1,-2,-4,-16,-14,-1,0,1
1537911541622199,0,3,10,68,0,-3,0,0
1537911541622199,0,1,2,6,16,-1,1,0
1537911541624195,-1,-1,-3,-29,8,-1,0,-1
1537911541624195,-2,-2,-5,-28,-41,-4,-1,-1
1537911541645139,-2,-1,-3,-9,46,1,-2,-1
1537911541645139,0,3,6,29,-6,-3,-1,-2
1537911541646136,-3,-6,-15,-44,33,-2,-2,-2
1537911541646136,-1,-1,-3,34,-59,4,4,3
1537911541659101,1,1,5,62,1,-2,-1,-1
1537911541659101,-3,-2,-2,1,9,-2,-1,-3
1537911541666082,0,-2,1,50,-4,0,0,2
1537911541666082,0,1,2,29,41,-1,-2,0
1537911541683037,0,1,7,4,-32,0,0,0
1537911541683037,-2,-5,-11,-56,4,-1,-1,-2
1537911541684034,0,2,7,24,17,0,0,-1
1537911541684034,-1,-3,-4,-16,-3,-1,-1,-2
1537911541704978,0,1,0,11,14,0,-1,0
1537911541704978,0,-1,-1,-2,30,0,-1,-1
1537911541705975,-1,-1,2,-18,-37,1,2,0
1537911541705975,0,-1,-2,-20,-9,-3,-1,-2
1537911541718940,0,6,11,98,-49,-6,-2,-2
1537911541718940,-1,-8,-9,-52,-7,-2,-3,-2
1537911541727917,-3,-4,-11,-59,-19,-1,-1,-3
1537911541727917,-2,-3,-1,13,18,3,-2,0
1537911541742877,1,5,9,66,56,-1,-4,-3
1537911541742877,-2,-4,-14,-82,-62,4,-1,-1
1537911541743874,-1,-2,1,-6,-6,4,0,-1
1537911541743874,-1,-2,-1,-11,-58,3,0,-1
1537911541765816,-2,-3,-8,-60,82,11,-2,-1
1537911541765816,-1,1,4,40,60,12,-3,-2
1537911541766814,1,1,-4,-13,8,13,0,0
1537911541766814,-1,-1,-1,-20,-5,7,1,-1
1537911541778781,0,-2,-8,-51,-34,5,0,0
1537911541778781,-1,-1,-4,-13,11,2,-2,0
1537911541787758,-1,-2,1,18,15,30,-1,-1
1537911541787758,0,-2,-1,-1,20,55,0,0
1537911541802718,1,1,0,1,-49,35,0,-1
1537911541802718,-2,-1,2,2,10,-2,0,-2
1537911541803715,1,-2,-2,-17,-4,-36,-1,0
1537911541803715,0,-2,-1,-3,7,-45,-1,1
1537911541824661,-1,-2,-2,-22,-5,-33,-2,0
1537911541824661,1,0,3,15,4,-21,1,0
1537911541826655,-1,1,4,32,10,12,-1,0
1537911541826655,-1,0,0,-8,0,28,0,-1
1537911541838622,-2,-4,-6,-20,1,23,-2,1
1537911541838622,1,3,6,35,12,9,-2,1
1537911541847598,-2,0,1,1,9,28,0,-1
1537911541847598,-1,0,-1,-12,2,4,-1,-4
1537911541862557,-2,-3,-2,-6,1,-10,-1,-3
1537911541862557,-3,-1,4,14,4,-29,-4,-2
1537911541863554,-4,0,0,5,-2,-22,-2,-1
1537911541863554,8,-1,-3,-10,2,-37,8,5
1537911541885496,-1,-1,2,7,5,-19,3,2
1537911541885496,0,1,-2,-3,-3,13,-2,-1
1537911541886493,0,0,3,4,2,-12,-2,-2
1537911541886493,11,8,6,6,6,-7,0,1
1537911541900456,-17,-9,-8,-6,1,-28,-4,-7
1537911541900456,-8,-7,-4,-2,3,-20,0,2
1537911541907437,-4,0,-2,0,-2,-24,-3,1
1537911541907437,0,0,-1,2,4,-26,-7,-4
1537911541922397,10,3,3,-10,-3,-14,3,3
1537911541922397,-3,-2,5,8,1,6,0,-5
1537911541924392,4,16,1,3,1,-8,-1,-4
1537911541924392,3,2,0,-1,-1,-8,-1,3
1537911541945336,-2,-15,-9,-4,-1,-1,-5,-1
1537911541945336,-6,-14,-1,-1,-1,1,2,2
1537911541946334,7,-12,3,3,7,1,2,-1
1537911541946334,-13,-5,0,-3,-1,-7,-8,-8
1537911541958303,-2,4,4,-4,-1,-17,1,1
1537911541958303,5,2,2,3,0,-12,1,1
1537911541967277,1,6,-1,-5,-4,-8,3,2
1537911541967277,-7,-4,-3,2,4,10,-2,-2
1537911541982239,2,-3,-2,1,1,16,0,1
1537911541982239,3,8,-2,0,-2,9,-3,-1
1537911541984234,-2,-3,-5,-4,-4,4,-2,-2
1537911541984234,-3,-4,-5,-2,-2,8,1,2
1537911542005177,1,0,1,1,2,5,-2,1
1537911542005177,3,7,1,6,3,10,4,2
1537911542011162,-3,-4,-3,2,3,5,-6,-2
1537911542011162,-4,-5,1,2,-1,-9,-5,-2
1537911542019139,1,3,-2,-3,-5,-6,17,6
1537911542019139,-1,-2,-1,3,1,-1,-14,-5
1537911542027119,-2,-3,-2,2,4,-4,2,0
1537911542027119,-1,1,0,-5,-3,-4,0,2
1537911542043076,0,2,0,-3,0,5,-5,-4
1537911542043076,0,-3,-2,-3,-3,3,0,1
1537911542044074,-1,-4,-3,-2,-1,-3,2,0
1537911542044074,0,1,-1,-1,1,5,2,-1
1537911542065016,0,1,-4,-7,-2,6,-3,-2
1537911542065016,1,0,-1,-3,2,3,5,0
1537911542066014,0,3,-1,-1,-1,1,-3,-1
1537911542066014,-3,-1,-1,0,0,-2,-2,-2
1537911542078979,-1,-1,1,0,1,2,-2,-3
1537911542078979,0,0,2,1,-2,-3,-2,-2
1537911542087955,-3,-4,2,2,-1,-3,-1,0
1537911542087955,-2,1,1,3,0,0,2,-2
1537911542102915,0,0,0,1,1,-3,1,1
1537911542102915,-1,-1,-1,0,0,0,-2,-2
1537911542103913,-1,-3,-2,2,1,2,1,0
1537911542103913,1,-1,1,1,0,4,4,1
1537911542124856,-1,0,-3,1,-2,1,-4,-3
1537911542124856,1,0,-2,0,0,0,0,-1
1537911542124856,0,-3,-1,-3,-3,-3,-1,0
1537911542124856,-1,-1,-2,-2,0,-1,-4,-4
1537911542146798,-2,1,1,0,1,3,-5,-3
1537911542146798,0,0,1,-2,-3,0,7,4
1537911542147796,-2,-1,-3,-2,-1,-1,0,1
1537911542147796,1,-3,0,0,-1,-1,-1,0
1537911542160760,0,-1,-1,-1,-3,1,-3,-2
1537911542160760,-2,-1,-1,0,0,0,-4,-2
1537911542169737,0,0,-1,1,-1,-2,-2,-4
1537911542169737,0,-1,-2,0,-2,-2,3,0
1537911542184695,-2,0,2,3,0,0,2,1
1537911542184695,-1,0,2,1,0,-1,-2,-2
1537911542184695,-1,-2,0,0,-3,-1,-1,-1
1537911542184695,1,-3,-1,-3,-2,-2,-1,2
1537911542206637,-1,-2,-1,-2,1,0,2,1
1537911542206637,1,0,-2,-1,-1,-2,1,0
1537911542207634,-2,0,-1,1,0,0,1,-3
1537911542207634,-2,-1,-1,0,-1,-2,-2,0
1537911542221597,-1,-1,-1,-2,-2,-3,-3,-2
1537911542221597,1,0,-1,0,-1,0,6,3
1537911542222595,0,-3,0,-1,-2,-3,3,2
1537911542222595,-1,0,-1,1,0,-2,-1,-1
1537911542244536,-1,-3,0,-2,1,0,-1,-3
1537911542244536,-2,-2,0,-1,-2,0,-11,-7
1537911542244536,0,-1,1,1,0,3,0,1
1537911542244536,0,-2,-1,0,1,2,19,10
1537911542266477,-1,-2,-4,-3,-4,0,-5,-2
1537911542266477,2,0,-2,-1,-1,-2,-1,-5
1537911542267474,-2,-1,-1,-4,-3,-2,-2,-1
1537911542267474,-1,0,-2,-2,0,-1,-4,-5
1537911542281437,0,0,-1,0,0,2,2,2
1537911542281437,-2,-3,0,-2,-1,0,2,2
1537911542282434,-1,0,-2,-2,0,-1,-5,-1
1537911542282434,-2,-1,-1,-3,-2,-2,-2,0
1537911542304376,-1,-1,-2,-1,1,-1,1,0
1537911542304376,-3,-1,0,0,-4,-3,0,-3
1537911542305373,0,0,-2,0,3,-1,1,1
1537911542305373,-1,0,0,1,-1,1,-5,-5
1537911542327315,1,0,0,-1,-2,0,2,-1
1537911542327315,-2,-3,0,-1,-2,-3,-7,-3
1537911542328313,0,0,2,2,0,3,0,0
1537911542328313,-3,-1,-1,0,-1,-1,4,1
1537911542342276,-1,0,0,-3,-2,-2,-3,-2
1537911542342276,0,0,-1,2,2,5,-1,-4
1537911542343274,1,1,-1,0,-2,0,7,8
1537911542343274,-1,-1,-1,-2,2,1,-7,-3
1537911542364217,0,-2,-1,-2,0,-2,-1,0
1537911542364217,-1,-3,-4,-1,-4,0,3,1
1537911542365216,-2,-1,-3,-1,-2,0,-2,-2
1537911542365216,0,0,0,0,-1,-2,-2,0
1537911542378180,0,1,1,1,0,-1,1,1
1537911542378180,-1,-1,-2,-3,0,-1,-7,-2
1537911542387156,-2,-2,0,-2,-2,-1,-2,-2
1537911542387156,-2,-2,0,0,0,1,-4,-3
1537911542402116,-1,-1,-2,-2,0,0,-4,-4
1537911542402116,-1,-1,-3,-4,0,0,4,3
1537911542402116,1,1,1,1,-1,0,-2,-2
1537911542402116,-1,-1,-2,-3,-1,0,-2,1
1537911542424058,-1,0,3,1,-2,-1,0,-1
1537911542424058,0,0,-1,-1,1,2,-2,2
1537911542425056,0,-2,-2,-2,-2,-3,-1,-1
1537911542425056,0,0,-1,-1,-1,0,-9,-6
1537911542447993,-2,-2,-3,-3,0,-2,-3,-5
1537911542447993,0,0,-2,-2,-1,-1,10,6
1537911542447993,-1,0,0,0,-1,1,5,0
1537911542447993,2,1,2,0,-1,3,0,0
1537911542461956,-1,0,0,1,0,-2,-2,-2
1537911542461956,-2,-1,0,-1,-1,-1,-7,-7
1537911542462954,-1,0,0,-3,-1,-1,-4,-2
1537911542462954,-1,-1,-1,1,0,-1,-1,-4
1537911542483897,-2,1,-2,-2,-1,0,0,4
1537911542483897,1,2,1,2,0,1,3,3
1537911542484894,-2,-2,-4,-1,-2,0,-2,0
1537911542484894,0,-2,2,0,1,-1,1,-1
1537911542506835,0,-1,-1,0,-2,-2,-1,-1
1537911542506835,-2,1,2,1,0,-1,-6,-8
1537911542507832,1,-1,-3,-5,-1,-3,6,6
1537911542507832,-2,0,-2,-3,-3,-1,-2,-2
1537911542521795,1,-1,-1,-1,-2,-1,2,1
1537911542521795,-3,-1,0,-3,1,2,-8,-5
1537911542522792,-2,-1,-1,-1,0,0,-3,-4
1537911542522792,-3,0,-2,-2,-2,-1,-1,0
1537911542544733,0,0,-1,-1,2,-1,-5,-3
1537911542544733,0,-2,-3,-2,-1,-1,-5,-1
1537911542544733,0,-2,-1,0,-3,-4,-5,-5
1537911542544733,-2,1,1,-1,-2,0,2,2
1537911542567672,-1,-2,-1,-3,0,-4,-1,-1
1537911542567672,0,0,-2,-2,-1,-4,6,5
1537911542568670,-2,0,1,-1,1,-1,-6,-6
1537911542568670,1,-2,-1,0,-2,1,4,0
1537911542581635,1,1,2,-1,-1,2,1,0
1537911542581635,-2,-1,-1,-5,-3,-2,1,1
1537911542582632,-1,0,0,-2,-3,0,4,2
1537911542582632,1,0,-1,-1,-1,-1,-5,-4
1537911542604573,0,-1,0,-1,0,2,1,0
1537911542604573,-1,0,-1,1,-2,-3,-3,0
1537911542604573,0,1,1,2,0,4,-4,-5
1537911542604573,-3,0,-2,0,-1,-3,-2,-1
1537911542634493,-1,-1,-2,-1,-1,-2,-1,0
1537911542634493,-3,-1,-1,1,-2,-3,1,-4
1537911542635490,-1,-1,-2,2,1,0,-9,0
1537911542635490,-1,-1,0,-1,-3,0,3,1
1537911542641474,-1,0,0,1,0,5,5,0
1537911542641474,0,0,0,0,0,-1,-2,-1
1537911542642472,-2,-3,-2,-3,-2,-2,-4,-2
1537911542642472,0,-1,-4,-2,0,-3,-3,-3
1537911542664413,-2,-1,-1,0,-3,-2,4,2
1537911542664413,-1,0,-1,-2,-2,-2,-6,-3
1537911542665411,-1,-2,1,-1,-2,-2,2,0
1537911542665411,-1,-1,-1,-2,1,-2,0,-1
1537911542687352,0,0,-2,-2,-4,-1,-2,1
1537911542687352,-2,-1,0,-2,1,1,4,4
1537911542688349,0,0,0,-2,-1,-2,1,-2
1537911542688349,0,0,0,1,1,0,-2,-2
1537911542701315,-1,-2,-2,-1,-2,0,-4,-1
1537911542701315,-1,-2,0,0,-1,-2,0,0
1537911542702312,-2,2,-1,-1,-1,-1,0,1
1537911542702312,-2,-1,0,-2,-3,0,-3,-2
1537911542724253,-2,-1,0,2,-2,-3,-3,-3
1537911542724253,0,-2,3,1,1,3,-8,-2
1537911542725251,0,-3,-2,-1,0,-3,12,6
1537911542725251,-1,-1,0,0,1,-1,-4,-2
1537911542747192,-1,1,-1,0,1,-2,5,1
1537911542747192,-2,-2,-2,0,0,-1,-1,1
1537911542748190,0,0,-3,-2,-2,2,-1,-2
1537911542748190,-2,-1,-2,-1,-1,0,0,1
1537911542762152,-1,-2,-3,0,1,1,-2,-2
1537911542762152,0,0,-1,-1,-1,-1,1,-2
1537911542762152,-1,-2,-1,-2,-2,-3,-5,0
1537911542762152,-1,-1,-2,-1,-2,0,1,2
1537911542784094,-2,-1,0,0,1,0,-5,-4
1537911542784094,0,2,0,2,0,3,0,-1
1537911542785093,0,-2,1,1,1,0,-3,2
1537911542785093,0,1,1,0,-1,-1,-2,-4
1537911542808032,-2,-1,-1,1,3,-1,2,3
1537911542808032,-1,0,0,-1,-2,0,0,-2
1537911542808032,-1,0,-1,-1,0,-4,-6,0
1537911542808032,0,-2,0,-2,-1,2,6,4
1537911542821993,1,1,-1,-1,0,4,-8,-7
1537911542821993,0,-1,-1,-1,0,0,1,0
1537911542822991,-1,-1,-1,1,-2,2,2,-2
1537911542822991,0,-1,-1,1,1,-3,-2,0
1537911542843935,-1,1,-1,-2,-1,-1,-5,-1
1537911542843935,-1,-1,-1,0,-5,-2,-5,-5
1537911542844932,-4,-2,-2,-2,1,-4,-2,-10
1537911542844932,1,2,5,32,2,0,-5,3
1537911542867872,-1,1,10,47,17,3,4,-1
1537911542867872,0,-5,-10,-21,-35,-2,4,8
1537911542867872,3,3,8,-11,30,1,2,1
1537911542867872,-14,-9,-12,-8,2,-6,-11,-15
1537911542881834,15,6,16,36,3,8,5,11
1537911542881834,-4,-8,-19,11,30,-6,11,10
1537911542882831,1,2,12,92,-31,0,-3,-21
1537911542882831,-7,7,1,-59,-3,9,3,18
1537911542904771,-9,-4,2,-12,17,-8,-2,-10
1537911542904771,39,26,7,-1,-11,-5,23,48
1537911542904771,-43,-7,-5,-14,2,10,-36,-87
1537911542904771,-34,-9,10,40,4,-1,14,17
1537911542934691,15,-6,-10,-5,-21,3,-29,21
1537911542934691,-72,-21,10,73,-16,8,-20,-23
1537911542935689,112,57,-7,-106,8,-12,28,37
1537911542935689,7,8,6,111,43,-18,-7,-5
1537911542940675,-48,-8,-26,-111,-32,2,13,9
1537911542940675,7,7,9,-48,4,-1,-6,-30
1537911542949651,43,7,19,84,-52,6,7,31
1537911542949651,-48,-5,-20,-128,8,8,1,-10
1537911542964611,-29,-44,-48,-3,16,-1,-12,-34
1537911542964611,27,3,-20,26,13,-7,-16,-51
1537911542964611,-26,-19,3,-43,0,-2,23,105
1537911542964611,99,19,4,23,-14,17,42,36
1537911542987550,58,29,8,33,-1,-6,-29,-23
1537911542987550,-80,-39,1,-45,-9,-15,-25,-77
1537911542988547,-7,2,-2,22,15,8,18,30
1537911542988547,-67,13,32,11,-1,2,-1,-17
1537911543001512,63,23,37,48,4,15,25,-13
1537911543001512,25,2,37,81,13,-43,5,79
1537911543009491,-80,-24,7,-17,11,79,-6,-37
1537911543009491,84,-15,-50,-79,-51,-48,-18,-9
1537911543024453,-111,-46,-92,-120,-46,-14,14,-5
1537911543024453,50,5,-63,-109,-3,-23,-8,-3
1537911543025450,-1,-1,29,107,35,2,-6,-2
1537911543025450,18,18,27,-48,-20,14,-12,-9
1537911543047391,41,21,52,65,15,1,9,30
1537911543047391,-1,-17,-1,17,-3,-1,24,36
1537911543048389,-54,-12,-8,13,3,-19,-5,-5
1537911543048389,20,17,18,71,17,31,4,-34
1537911543061354,-7,0,10,-12,-1,-7,-4,21
1537911543061354,17,19,31,65,8,-12,35,42
1537911543069333,-1,-21,-19,-75,-12,-10,0,-6
1537911543069333,-18,3,3,116,5,-7,-39,-42
1537911543084292,-22,-17,-21,-99,-18,-5,7,-15
1537911543084292,-31,-2,-75,-91,-47,35,11,11
1537911543085291,67,4,12,-79,-40,-28,-9,-20
1537911543085291,-42,-22,-30,29,-3,-21,-3,22
1537911543107231,18,8,33,30,20,7,3,17
1537911543107231,11,14,32,61,31,14,-44,-36
1537911543108228,-78,-5,-18,-11,-7,-1,14,-39
1537911543108228,86,4,10,9,20,21,-5,31
1537911543121193,-46,11,4,44,6,-1,10,-40
1537911543121193,24,6,12,-34,-1,19,-3,26
1537911543129171,-22,-4,-9,38,18,-20,-15,6
1537911543129171,-67,-12,7,-10,0,1,20,17
1537911543144131,-1,7,42,55,-28,-12,-22,-48
1537911543144131,25,-11,-15,-13,5,-17,14,4
1537911543145128,19,-14,-23,57,31,-2,15,18
1537911543145128,-1,-10,-31,-97,-7,-20,-2,-23
1537911543167069,-37,-13,-27,-28,-44,-1,0,16
1537911543167069,41,12,6,-28,-15,-31,-46,-31
1537911543168067,17,1,25,9,0,8,-2,16
1537911543168067,-6,-2,-35,-24,13,-4,12,35
1537911543181032,17,21,38,53,44,-22,-1,-12
1537911543181032,-19,6,0,25,6,49,28,10
1537911543189011,43,4,-10,-3,3,-19,-17,-14
1537911543189011,6,-2,20,13,-6,0,-15,-25
1537911543203971,-17,-23,-5,2,8,6,5,10
1537911543203971,-35,19,9,33,23,7,10,4
1537911543204968,-13,7,40,-46,-64,5,-4,-7
1537911543204968,-26,-10,-2,87,73,14,10,4
1537911543227907,10,-24,-80,-3,8,-13,-6,2
1537911543227907,-23,-41,-25,-93,-63,-13,-23,-41
1537911543227907,36,22,-40,-9,10,-22,-12,10
1537911543227907,-73,-8,17,-67,-54,2,2,-20
1537911543240873,67,5,25,40,14,8,20,40
1537911543240873,-33,4,13,34,23,8,36,31
1537911543248851,-88,-23,-5,-11,0,1,-11,-40
1537911543248851,77,10,21,33,5,-3,-44,7
1537911543264809,-2,9,-3,1,-1,3,12,-3
1537911543264809,0,11,23,14,7,4,4,19
1537911543264809,63,16,9,22,10,4,7,9
1537911543264809,-36,-9,-3,15,-49,-1,-7,-34
1537911543287748,-2,11,18,-28,78,26,2,67
1537911543287748,-4,-9,39,57,0,-19,-16,-29
1537911543287748,-54,-35,-95,13,-1,6,-9,-21
1537911543287748,-20,-17,-44,-106,-41,-6,-9,-17
1537911543300713,-1,8,13,3,-22,2,6,2
1537911543300713,38,17,27,47,31,10,-20,-5
1537911543309691,5,21,24,50,1,6,8,15
1537911543309691,-1,-9,-16,10,5,-21,10,43
1537911543324650,13,2,-8,-52,-25,-15,2,-45
1537911543324650,-46,-19,0,17,20,6,-11,3
1537911543325648,16,5,19,-4,0,12,8,-1
1537911543325648,-19,-3,13,27,11,15,16,16
1537911543347587,42,16,32,16,-3,-18,-34,-23
1537911543347587,5,5,-31,-4,-18,5,30,35
1537911543348585,39,-7,15,-31,-8,-15,-6,2
1537911543348585,23,5,3,44,10,9,-8,-3
1537911543361550,-62,-32,-49,-46,-14,-13,4,-8
1537911543361550,1,1,-6,-11,-19,-7,2,-30
1537911543369529,8,-1,-15,-102,-22,3,-1,29
1537911543369529,-37,4,-4,10,11,2,-13,-28
1537911543384489,-12,-13,4,28,-7,9,-7,-13
1537911543384489,19,2,0,-5,-3,0,-6,1
1537911543385486,-50,-1,13,4,4,-22,8,-11
1537911543385486,-3,1,23,13,13,16,15,14
1537911543407428,69,30,6,49,-2,6,-5,6
1537911543407428,-6,-2,-6,-16,-33,9,-2,-3
1537911543408425,-1,-4,33,25,32,-1,-4,-10
1537911543408425,93,19,-1,-6,16,-2,-10,11
1537911543430366,-18,0,4,39,-18,-14,-4,10
1537911543430366,-54,-20,-53,3,-10,-4,8,-19
1537911543430366,13,-8,-11,-86,-11,9,-4,-2
1537911543430366,-7,-8,0,-34,25,-13,6,2
1537911543444329,-50,-12,-21,-38,-16,5,-2,-19
1537911543444329,9,28,31,17,28,-11,-9,16
1537911543445327,66,14,-1,59,18,6,-6,7
1537911543445327,0,6,14,-4,-15,-18,8,16
1537911543467268,-42,-6,14,7,6,9,3,-15
1537911543467268,8,-21,2,7,13,18,-4,-16
1537911543468267,-19,3,-18,16,1,-10,-2,-7
1537911543468267,-64,-20,0,3,-12,-9,-8,-15
1537911543490209,105,42,24,8,-8,12,26,38
1537911543490209,19,3,-2,16,7,-21,-5,-8
1537911543491204,-32,-12,-20,1,-13,15,-3,2
1537911543491204,40,-5,2,-7,-21,-4,-6,-7
1537911543504169,-66,-31,-41,-61,14,-10,-8,-18
1537911543504169,-35,-19,-11,-78,-31,-3,-10,-2
1537911543505166,53,36,26,62,12,11,24,9
1537911543505166,-82,-16,-25,-67,19,1,-5,-32
1537911543527107,-3,1,17,25,7,-2,-9,35
1537911543527107,37,14,7,8,2,19,10,10
1537911543528104,-18,-12,-7,13,0,-36,-29,7
1537911543528104,-3,0,10,32,-9,-4,14,-11
1537911543551043,11,1,8,0,-1,1,-11,-22
1537911543551043,-43,-8,-7,-3,13,9,6,-2
1537911543551043,-34,-22,-13,5,-7,20,-3,-27
1537911543551043,48,31,25,12,1,0,-14,-11
1537911543564008,-27,-1,17,4,-4,-9,-2,-1
1537911543564008,22,-2,-42,48,-1,18,-5,5
1537911543565006,-58,-22,21,-58,-11,-2,0,-18
1537911543565006,1,-28,-61,67,17,-3,-4,9
1537911543590938,43,22,11,-52,-21,22,-17,2
1537911543590938,-27,-6,-11,-66,-19,-9,-3,-11
1537911543591935,9,-7,-31,-56,-14,19,-6,5
1537911543591935,-50,5,12,-7,7,-3,19,22
1537911543593929,2,-10,10,63,9,-4,1,-9
1537911543593929,86,31,39,49,19,8,7,7
1537911543603904,-25,5,3,11,2,-17,-20,4
1537911543603904,39,-1,15,8,-19,0,15,-23
1537911543615871,10,1,-20,3,7,9,9,33
1537911543615871,-41,-19,-5,-22,-4,-7,6,-11
1537911543623851,22,25,17,20,4,-27,-5,-8
1537911543623851,1,12,29,19,-1,18,1,1
1537911543638810,-38,-12,-43,27,11,-8,9,-3
1537911543638810,45,-14,-3,-97,-4,0,7,-5
1537911543646787,-69,-12,-38,50,-24,-8,25,18
1537911543646787,48,10,88,-58,-25,0,-7,9
1537911543661748,12,-17,-92,33,19,2,4,-2
1537911543661748,-38,-10,1,-74,-50,-21,8,5
1537911543662745,24,6,-14,-3,23,14,-5,-5
1537911543662745,-69,2,15,-11,-35,-26,-8,-19
1537911543675710,72,16,60,44,5,34,18,31
1537911543675710,-3,14,2,60,37,-13,-7,7
1537911543683688,78,-2,11,-4,-14,5,11,6
1537911543683688,-31,-4,-33,1,7,2,-23,5
1537911543698648,-24,-3,18,-27,-6,-17,-13,-15
1537911543698648,-9,-12,-6,23,6,4,-12,-13
1537911543706627,-4,9,51,61,25,15,2,-6
1537911543706627,26,4,-64,-73,-36,-18,-20,12
1537911543721587,-45,-14,-13,-48,-8,8,9,-10
1537911543721587,24,15,15,-33,21,13,-3,12
1537911543722585,-39,-19,-8,22,10,-18,5,-4
1537911543722585,11,-15,-6,37,11,6,15,5
1537911543735550,5,5,-5,22,-15,-13,-13,-10
1537911543735550,-34,-5,0,-47,-27,2,-24,-17
1537911543743528,13,4,9,-14,2,-3,9,-3
1537911543743528,48,13,9,23,11,11,21,36
1537911543767464,-17,-2,2,-26,-21,-20,-19,-31
1537911543767464,-51,-19,13,68,26,-1,11,-35
1537911543768462,3,6,2,-5,-7,1,-15,16
1537911543768462,-23,0,-12,-12,-6,7,5,-5
1537911543781427,0,-4,11,13,-7,-16,9,10
1537911543781427,-74,-9,-22,7,5,-9,0,-16
1537911543782425,64,9,8,41,-3,-11,16,16
1537911543782425,2,-21,-21,-66,-35,-4,-3,2
1537911543796388,-22,-13,-11,18,-25,3,-4,-21
1537911543796388,3,8,23,-4,73,7,6,9
1537911543803369,-37,-6,-44,19,-26,1,14,-1
1537911543803369,24,8,15,-12,-11,-10,-3,-4
1537911543818330,6,2,11,-20,5,7,9,15
1537911543818330,57,2,7,40,-24,-5,-7,38
1537911543827306,22,26,27,10,16,-3,-17,-32
1537911543827306,-58,-3,-2,23,24,-2,-8,-15
1537911543842266,12,-6,2,-36,-4,3,0,-18
1537911543842266,93,11,-12,29,-7,-9,7,40
1537911543842266,-16,-13,10,-36,1,-4,8,26
1537911543842266,-92,-21,-4,6,6,0,-23,-39
1537911543856229,48,5,-8,18,-15,13,-15,-20
1537911543856229,-12,-3,10,-7,7,-7,-9,9
1537911543864208,-46,-15,-22,61,-33,1,7,-18
1537911543864208,30,0,-12,-86,4,5,7,7
1537911543878170,-16,-6,-4,-53,-16,-28,5,4
1537911543878170,4,10,-4,24,0,-19,-10,-13
1537911543887146,-15,-15,-5,-48,-16,-1,-5,-7
1537911543887146,74,7,45,93,25,14,14,18
1537911543902106,-33,10,-21,18,21,8,-26,3
1537911543902106,-21,-19,-21,-25,-29,-1,2,-18
1537911543903104,20,6,2,-33,28,-12,-6,5
1537911543903104,-13,5,-15,20,2,2,16,-3
1537911543916070,30,11,35,-13,18,-9,-6,-4
1537911543916070,-32,10,13,21,-7,13,4,9
1537911543924049,-21,-22,-3,19,3,1,-13,-25
1537911543924049,105,46,45,52,36,26,11,38
1537911543939007,-31,-3,-36,-37,-4,8,-3,-1
1537911543939007,-26,-9,-17,-35,-17,-4,-3,-17
1537911543946985,25,-1,-9,-29,10,1,-5,10
1537911543946985,-14,-10,-4,2,-17,-9,35,1
1537911543961945,-16,-15,-4,-13,-5,1,-10,2
1537911543961945,16,22,21,18,-6,-1,3,6
1537911543961945,-10,-4,-26,-37,-4,-6,4,1
1537911543961945,-29,-9,9,24,-5,-10,-17,-23
1537911543977902,-14,1,-7,34,14,-2,20,-1
1537911543977902,2,-5,-1,-22,-8,-2,4,1
1537911543983886,42,1,19,-3,-11,9,-18,11
1537911543983886,-32,-8,-34,-1,7,-21,-38,-71
1537911543998847,-8,5,24,28,13,62,13,59
1537911543998847,-35,-11,14,-11,-19,-4,15,-10
1537911544006825,39,18,1,31,21,0,2,8
1537911544006825,-19,-32,-40,15,-7,-5,-14,22
1537911544021785,66,2,-27,-64,0,-24,-16,-23
1537911544021785,-4,-1,6,-21,-33,-3,-7,-15
1537911544022782,-27,-5,5,-13,13,6,20,17
1537911544022782,-9,6,2,51,-3,2,-9,2
1537911544035748,-14,4,31,-23,-6,-6,13,-5
1537911544035748,17,9,-6,5,5,2,17,16
1537911544044724,-71,-27,-29,-27,-13,-17,-6,-25
1537911544044724,114,32,10,2,7,10,12,18
1537911544058688,-80,-19,13,30,8,-31,-32,-23
1537911544058688,71,20,18,21,14,23,42,27
1537911544066667,-31,-4,-14,-5,-4,1,10,-13
1537911544066667,-19,-4,3,-13,-1,8,-1,-36
1537911544081626,-16,-5,12,14,-4,-2,7,51
1537911544081626,39,8,6,8,2,-9,-24,7
1537911544082624,-48,-10,3,4,-8,-4,-12,-16
1537911544082624,-7,-2,-35,6,15,7,-2,-3
1537911544096587,57,10,4,-43,-20,-8,-1,-13
1537911544096587,-51,-17,-30,50,-19,-7,-18,-15
1537911544104565,65,13,0,-57,60,36,21,21
1537911544104565,-21,2,21,-38,-24,-9,2,8
1537911544118527,-13,-9,3,39,11,5,-15,-15
1537911544118527,-21,12,35,-16,0,-5,-11,-14
1537911544126505,55,15,3,54,-8,-29,-32,-10
1537911544126505,6,-8,-15,-44,-3,7,23,24
1537911544141465,-44,-4,-15,2,10,9,-17,-19
1537911544141465,-16,-14,-9,4,8,-7,-5,3
1537911544142462,0,7,27,6,-21,14,-4,-33
1537911544142462,-85,-8,10,25,24,-16,-2,-2
1537911544156425,115,7,-7,-35,-52,6,-7,-7
1537911544156425,-11,-21,-55,21,16,-16,1,0
1537911544164403,-6,-7,-12,-83,-24,-2,1,11
1537911544164403,-38,-21,-18,-11,-13,6,4,3
1537911544178366,3,20,38,2,12,0,17,0
1537911544178366,40,10,3,4,0,-10,-7,0
1537911544186345,-58,-13,-3,15,1,16,7,-8
1537911544186345,25,7,9,3,-9,2,10,-3
1537911544201305,-10,-6,-5,36,24,-12,-4,11
1537911544201305,6,12,7,-10,6,18,-6,-11
1537911544202303,74,25,39,34,-5,-7,24,53
1537911544202303,-39,-11,-32,3,1,-14,-15,-32
1537911544216266,2,-8,-10,-24,-4,11,12,0
1537911544216266,-5,-5,-1,-2,-4,1,0,-4
1537911544224248,-22,-14,-26,-19,-2,-19,-12,-4
1537911544224248,-19,1,18,25,6,-7,22,18
1537911544238208,70,19,-1,-33,-15,-8,7,36
1537911544238208,-48,-11,9,9,-8,11,-6,-24
1537911544247183,14,-3,-30,-29,-5,9,3,2
1537911544247183,-10,-8,15,-5,11,-6,0,8
1537911544262142,-31,1,-5,4,-3,-15,4,-7
1537911544262142,-8,-4,20,-12,20,15,-7,-33
1537911544262142,15,7,5,17,-17,-15,-22,26
1537911544262142,5,0,-3,16,-4,7,18,12
1537911544276105,-2,3,37,38,10,-1,-4,-7
1537911544276105,44,4,-40,-17,-6,-13,0,2
1537911544284084,0,-4,1,4,-11,5,-2,-11
1537911544284084,-32,-10,-6,-11,7,7,-34,-12
1537911544299043,19,-1,-15,-2,-4,-8,17,0
1537911544299043,-1,6,12,-7,12,9,5,17
1537911544307022,-18,5,20,2,-7,10,11,-12
1537911544307022,46,1,-26,-9,-7,2,-22,6
1537911544321983,-25,-7,-11,29,7,2,14,2
1537911544321983,-47,-8,-9,-34,-10,-3,-12,-1
1537911544321983,33,16,19,9,23,-12,-8,4
1537911544321983,34,18,30,36,-6,3,-4,-30
1537911544335946,-19,-13,-1,-27,-9,-7,5,19
1537911544335946,25,-4,-38,-12,-1,-16,4,18
1537911544343924,-36,-9,15,-4,5,-9,-7,-10
1537911544343924,-2,-2,-15,-1,-1,1,-8,-19
1537911544358884,-12,-8,0,22,9,1,1,28
1537911544358884,16,3,15,7,-8,-9,18,-23
1537911544366863,30,21,14,8,-23,-14,-12,34
1537911544366863,-23,0,9,-12,20,3,4,-18
1537911544380826,-55,-13,-30,33,5,5,2,-13
1537911544380826,1,-15,19,-43,-27,6,-13,8
1537911544388804,19,-14,-58,6,2,-4,8,-24
1537911544388804,30,11,13,1,31,-4,3,16
1537911544395786,-37,-7,-3,-75,-46,-3,-18,-20
1537911544395786,-12,-16,-6,49,9,-6,-2,-2
1537911544404762,-12,11,10,7,-1,17,18,-5
1537911544404762,24,-1,4,-22,4,-17,-9,17
1537911544418724,7,-3,2,3,10,21,5,-4
1537911544418724,-23,8,-3,27,-4,18,0,-7
1537911544426704,-42,2,4,-20,0,-4,0,3
1537911544426704,29,2,8,1,-7,2,10,-6
1537911544440667,-29,0,-2,28,21,-5,-9,12
1537911544440667,29,11,24,-8,-17,-16,-9,10
1537911544449642,-62,-23,-23,5,11,18,3,-17
1537911544449642,3,-8,-15,-40,-15,-5,8,21
1537911544455626,-8,7,22,54,12,4,-8,-23
1537911544455626,-14,4,-2,-27,0,0,-7,-5
1537911544464601,25,-8,-14,-9,-15,-16,-15,7
1537911544464601,-13,3,4,-13,-4,20,3,4
1537911544486543,60,15,-4,-5,-7,0,3,-2
1537911544486543,-27,-3,-5,17,32,4,-3,-1
1537911544493525,11,-6,13,5,6,-7,-8,-4
1537911544493525,-46,-4,-3,-25,-30,1,0,-8
1537911544509482,38,6,6,14,-16,-23,-23,-12
1537911544509482,19,5,4,15,29,8,11,11
1537911544511478,-54,-2,0,1,4,1,-2,-23
1537911544511478,35,-9,-11,1,-3,-2,-4,21
1537911544532421,3,-6,5,8,0,-2,9,-7
1537911544532421,4,-2,-11,-14,-8,-19,1,7
1537911544533419,17,7,6,-5,-4,19,-8,4
1537911544533419,-12,2,7,7,7,5,-13,-10
1537911544546384,-10,-2,-14,23,11,2,28,4
1537911544546384,10,-8,-16,-50,-24,-6,-12,-1
1537911544553365,-3,-4,-3,-6,5,0,9,-3
1537911544553365,-6,4,9,3,-18,-5,6,10
1537911544570319,1,0,-6,-18,11,-3,-10,-2
1537911544570319,-8,-1,4,30,11,2,1,-10
1537911544571316,-6,0,5,12,-3,0,2,-5
1537911544571316,9,1,-6,3,-2,-10,-5,-1
1537911544600238,-12,-5,0,-11,2,-5,-1,-2
1537911544600238,-11,-2,1,6,-3,0,6,4
1537911544601236,7,0,0,-2,0,-3,-2,-3
1537911544601236,10,-1,-8,-1,-6,-2,1,2
1537911544606223,-18,-4,-2,-12,6,7,-1,-4
1537911544606223,3,3,4,-3,-3,3,-1,-1
1537911544613204,8,0,-2,6,-1,-10,2,0
1537911544613204,-3,-2,-6,-1,0,-5,2,4
1537911544630158,-16,-3,0,-14,-4,-4,-3,-3
1537911544630158,1,2,4,8,-2,-2,0,-1
1537911544631156,2,-1,-1,1,-2,-2,4,1
1537911544631156,-7,-3,-5,-4,-4,2,-3,1
1537911544652100,-5,0,1,-6,1,7,-3,-3
1537911544652100,4,-3,-1,5,-1,9,2,1
1537911544654095,-1,-2,-3,-1,4,6,0,3
1537911544654095,0,-2,-2,-7,-3,1,-5,-7
1537911544667060,-2,2,1,-1,1,1,-4,0
1537911544667060,0,3,0,3,2,2,12,8
1537911544674041,-1,-2,0,-1,-1,-2,-4,-4
1537911544674041,-3,2,-1,0,-4,3,-2,0
1537911544689999,-5,-3,-1,-3,-1,-2,-6,-4
1537911544689999,-2,-5,2,1,-1,-7,-1,-3
1537911544690997,0,0,-3,-4,-1,-6,-1,0
1537911544690997,2,2,-1,1,-2,-5,-3,-1
1537911544711940,-2,-3,-2,-3,-2,-1,7,1
1537911544711940,0,1,-3,0,0,3,-2,-1
1537911544713935,1,-1,-2,3,-2,0,1,-1
1537911544713935,-2,-2,-2,3,1,0,-1,0
1537911544725902,-2,-1,-2,-2,-4,-2,-2,0
1537911544725902,0,-2,1,5,-3,0,-3,-2
1537911544734878,2,-2,0,3,-1,-2,-4,-1
1537911544734878,1,1,-1,5,0,-1,4,2
1537911544749838,-3,0,2,0,0,-2,-1,-2
1537911544749838,-1,0,-2,2,1,-1,-2,-1
1537911544751833,-1,-3,-1,1,0,0,1,0
1537911544751833,-1,0,-1,-2,0,1,0,2
1537911544772777,-2,-2,-1,-5,-2,-1,4,-2
1537911544772777,0,0,-2,-4,-1,3,-6,-2
1537911544773775,1,0,0,-5,-2,-1,1,-1
1537911544773775,-3,-2,-2,-4,0,-3,1,-3
1537911544785742,-2,0,0,-5,2,-3,-12,-2
1537911544785742,-8,-1,-1,-7,-3,0,2,-2
1537911544794718,8,2,2,-2,1,1,0,-2
1537911544794718,-2,-2,-1,-3,-1,-1,-2,1
1537911544809678,-6,-1,1,0,0,0,-4,-3
1537911544809678,5,0,0,-1,-1,-2,-4,0
1537911544811673,-5,-2,-2,-2,-3,-1,-7,-1
1537911544811673,-1,-2,0,-3,-2,-1,-3,-1
1537911544832617,-2,0,-3,-3,0,1,0,-2
1537911544832617,-2,0,-1,0,-1,1,5,1
1537911544833615,-1,-2,0,-1,1,-1,0,2
1537911544833615,2,-1,-2,-1,-1,-1,1,1
1537911544846580,-3,0,2,0,0,0,-2,-1
1537911544846580,1,0,0,1,-1,2,3,1
1537911544854559,0,0,3,1,1,4,-2,-1
1537911544854559,-1,-1,0,-1,-1,-2,-4,-3
1537911544869520,-1,-1,-3,-3,-2,-3,1,-1
1537911544869520,1,-2,-1,0,1,-3,-4,1
1537911544871516,-5,0,1,1,-2,-4,-2,-6
1537911544871516,-3,-2,-2,-1,1,1,0,-2
1537911544892460,-1,-2,1,-1,-3,0,-2,-4
1537911544892460,0,0,-1,0,2,-1,-2,-2
1537911544893458,0,0,-3,0,0,-1,-4,1
1537911544893458,-1,-1,-2,0,-3,0,10,4
1537911544906422,0,-1,-2,-1,-1,-2,1,1
1537911544906422,-1,-1,1,-1,-3,0,-2,-2
1537911544915398,-2,-1,-1,-2,0,-2,-2,-1
1537911544915398,1,-2,-1,-1,-2,-2,-4,-1
1537911544930357,1,0,1,-2,1,-2,0,2
1537911544930357,-1,-1,1,0,-2,-1,-1,0
1537911544931356,-1,-2,-4,-2,-2,-6,-2,-1
1537911544931356,-1,0,1,-1,0,-1,-4,-2
1537911544952299,-1,-2,-2,1,-2,-1,7,3
1537911544952299,0,-1,-1,1,1,-1,-1,-1
1537911544954294,-2,0,-2,-1,-2,-1,0,0
1537911544954294,-2,-1,-2,-2,-4,-4,-8,-4
1537911544966262,-1,-4,0,0,-1,-4,1,1
1537911544966262,-2,1,1,0,1,-1,-1,-1
1537911544975239,-2,-2,-1,-1,0,1,-1,-1
1537911544975239,0,1,0,-2,0,-1,1,-1
1537911544990198,0,0,-2,-1,0,0,-3,-2
1537911544990198,0,-1,-1,-1,-4,-2,-1,1
1537911544991194,1,-2,0,2,0,-1,1,1
1537911544991194,1,0,-1,1,0,-1,1,-1
1537911545012138,0,-2,-1,0,-2,-1,-1,-3
1537911545012138,-2,0,-3,-3,1,1,0,-3
1537911545014133,1,-1,0,-1,0,1,-3,-1
1537911545014133,-2,-1,-1,0,1,1,1,1
1537911545026100,2,1,-1,0,-1,0,-2,-3
1537911545026100,1,-2,-2,-1,-1,-1,0,-2
1537911545035077,-2,0,0,-2,0,1,2,1
1537911545035077,-1,-2,1,-1,-1,-1,1,-1
1537911545050036,-1,1,-1,-3,-2,-1,-2,-1
1537911545050036,-2,-2,-1,-1,-1,-1,-1,0
1537911545051034,-1,-1,-2,-1,0,-1,-3,-1
1537911545051034,0,-2,-2,0,-1,-3,7,1
1537911545072976,-2,-2,-3,0,0,1,0,-2
1537911545072976,0,-2,-1,0,0,-2,0,-1
1537911545073974,-2,-1,-1,-1,-4,-2,1,1
1537911545073974,1,1,-1,-2,2,-2,-4,0
1537911545085941,1,-3,-2,-1,0,0,-1,0
1537911545085941,-1,0,-2,-1,-2,-2,-2,-1
1537911545094918,-2,-3,-2,-3,0,0,1,1
1537911545094918,0,-3,0,-1,0,0,-2,-1
1537911545109878,-1,-1,1,0,-1,-1,1,0
1537911545109878,-2,-2,1,0,0,0,-1,-1
1537911545111872,1,0,-1,0,0,0,0,-2
1537911545111872,0,-1,-1,-1,-2,-1,1,-1
1537911545132817,0,-1,-2,0,0,0,-2,0
1537911545132817,-1,0,0,0,-2,-2,-3,-3
1537911545133814,0,-2,-1,1,1,0,3,1
1537911545133814,-1,0,0,-1,1,2,-1,0
1537911545145782,-1,-2,-1,-1,-1,0,0,2
1537911545145782,0,-2,0,-2,-1,-1,-4,-2
1537911545154757,-1,1,-1,-1,0,-2,0,-3
1537911545154757,-1,-1,0,-2,0,-1,-2,-2
1537911545169718,1,-1,-1,-3,0,0,-1,-2
1537911545169718,-1,-2,-1,0,-1,-1,4,0
1537911545171713,0,-1,1,0,-1,-2,-3,-1
1537911545171713,-1,-1,0,0,-1,-1,-1,-1
1537911545192657,0,-1,0,-2,1,0,-3,-2
1537911545192657,1,0,-1,-1,0,1,-5,2
1537911545193654,-2,0,-1,-1,-2,-2,1,0
1537911545193654,-1,-1,0,0,-1,0,1,0
1537911545205621,0,-1,0,-1,-1,-3,0,-2
1537911545205621,0,0,-2,-1,-2,0,0,-2
1537911545214596,-1,-1,0,-2,0,1,0,1
1537911545214596,-1,-1,-1,-2,-1,0,1,0
1537911545229557,0,-2,0,-2,-1,-2,-2,-2
1537911545229557,-1,0,0,0,0,-2,3,1
1537911545231551,1,-2,0,-1,-2,0,-1,0
1537911545231551,-2,-1,0,0,0,0,-2,2
1537911545252495,-1,2,0,0,0,-2,3,-1
1537911545252495,-1,-3,0,-1,-2,-2,0,0
1537911545253492,1,-2,-2,-1,-1,-1,-1,-2
1537911545253492,0,-2,-1,-1,-4,-1,-1,-2
1537911545274436,-1,0,-1,0,-2,-2,0,-1
1537911545274436,1,-1,0,-1,-1,0,-1,-2
1537911545276431,-1,0,-1,-2,0,-3,-2,-2
1537911545276431,0,0,1,-1,0,-1,-1,-1
1537911545289396,-1,0,-2,-1,-1,0,-1,-1
1537911545289396,-1,1,-2,-2,-2,2,1,-1
1537911545291391,-1,-3,-1,-1,-2,0,-1,0
1537911545291391,-2,0,0,1,0,-1,0,-2
1537911545312335,-2,-3,-2,0,-1,-1,-1,0
1537911545312335,-1,0,0,-2,0,-1,-1,-1
1537911545314330,-2,2,0,0,0,0,-2,0
1537911545314330,-1,-2,-3,-1,-1,-2,-1,0
1537911545335274,-2,0,0,1,-1,1,-4,-3
1537911545335274,1,-3,-2,-1,-1,-2,1,0
1537911545336271,0,-1,0,-1,0,-2,-1,-1
1537911545336271,-1,-3,-1,-2,-1,-1,-2,-1
1537911545350234,1,-1,0,0,-1,1,-1,0
1537911545350234,-2,-1,-2,0,-2,0,-2,-1
1537911545351233,-2,-2,-1,-1,0,-1,0,1
1537911545351233,-1,-1,-1,1,1,-2,-2,-2
1537911545372177,-2,-1,-1,-2,0,-2,-1,0
1537911545372177,-1,-1,1,0,1,0,2,1
1537911545374173,0,-2,-1,-1,0,0,0,0
1537911545374173,1,1,-2,-1,-2,-1,0,-1
1537911545395115,-2,0,-3,-4,-2,-4,0,0
1537911545395115,-2,0,-2,1,0,0,2,-1
1537911545396113,0,0,-1,-1,-1,1,-3,-4
1537911545396113,-1,-2,0,0,0,0,-2,-2
1537911545409077,-1,1,-2,-1,-2,-1,-1,0
1537911545409077,-1,1,0,-2,-1,-1,-2,-2
1537911545416058,0,-1,-1,0,0,-2,1,1
1537911545416058,-1,1,1,0,-2,0,-2,-1
1537911545433012,0,-4,-2,-3,-2,-2,-1,0
1537911545433012,-1,-1,0,1,0,-1,-3,-2
1537911545434010,-1,-1,-1,0,-1,1,1,0
1537911545434010,-1,-1,0,0,-1,1,0,0
1537911545454954,-1,0,0,0,1,0,-1,-1
1537911545454954,-1,1,-3,-3,-1,-2,-1,-1
1537911545455952,-1,-1,-3,-2,0,0,-1,-1
1537911545455952,0,-3,-3,-2,-2,-3,5,1
1537911545468917,-1,-3,-1,0,-2,-1,1,-1
1537911545468917,0,-2,-2,-1,0,-2,-2,-2
1537911545475899,-2,1,-1,-1,-2,-2,0,-2
1537911545475899,0,1,-1,-1,0,0,-3,0
1537911545492853,-1,0,0,-1,-1,-1,-2,0
1537911545492853,-1,-1,0,0,-2,-1,1,2
1537911545493851,1,-1,-1,-2,-1,-2,0,1
1537911545493851,-3,-1,0,-3,-1,0,-1,-1
1537911545514795,0,-1,-2,0,-1,-1,0,-2
1537911545514795,-1,-1,-1,1,-1,-2,-3,-3
1537911545516790,0,-2,1,1,-3,1,6,1
1537911545516790,-2,-1,-1,-3,1,-1,-2,-1
1537911545529755,-1,2,1,1,0,0,2,-1
1537911545529755,0,0,0,-2,-4,-3,-1,-1
1537911545535738,0,0,-1,1,0,0,-8,-1
1537911545535738,-1,0,0,1,-1,-2,0,-2
1537911545552693,0,0,0,-1,0,2,-1,0
1537911545552693,-3,-2,1,-1,0,-1,0,0
1537911545553691,0,-1,-1,-3,-1,-1,-1,-3
1537911545553691,0,-1,-1,0,-1,-1,-2,-2
1537911545574635,1,0,-1,1,1,2,-5,-1
1537911545574635,-1,-2,-3,-1,0,-2,-1,-1
1537911545576631,-1,-1,-2,-2,-1,-2,-1,0
1537911545576631,0,-2,-1,-2,-4,-2,-3,0
1537911545589595,-1,0,-3,-2,1,1,0,-1
1537911545589595,-1,-1,-1,-1,0,0,-1,-2
1537911545595579,-1,-1,-4,-2,-2,0,-2,-1
1537911545595579,0,2,0,0,-1,1,-1,-1
1537911545612535,-1,-2,0,-1,-2,-3,1,-1
1537911545612535,0,-3,-1,-1,-1,2,0,0
1537911545613533,-2,-2,-1,-3,0,-3,-1,-1
1537911545613533,-1,-3,-1,-3,1,-2,-3,-1
1537911545634474,-1,0,1,1,-2,-1,2,1
1537911545634474,0,0,-1,-1,-1,-2,0,1
1537911545636469,-2,0,-1,0,1,-1,-3,-2
1537911545636469,0,-1,-2,0,-1,0,-1,-1
1537911545649434,-2,-2,-1,0,0,0,0,1
1537911545649434,-1,-2,0,0,0,2,0,-1
1537911545656416,-1,-1,-1,-2,-2,-1,-2,-2
1537911545656416,0,-1,0,0,1,2,3,1
1537911545672373,-2,-1,-3,-3,-1,-1,-1,0
1537911545672373,-3,-1,1,0,-2,-2,-5,0
1537911545673371,-1,-1,0,1,-2,-1,0,0
1537911545673371,-2,-3,0,1,-1,-2,-1,-1
1537911545695312,-1,-2,1,-3,-2,-2,0,0
1537911545695312,0,1,-1,-1,-1,-1,0,-2
1537911545696310,-3,-1,0,1,-1,-3,-2,0
1537911545696310,1,1,1,0,2,0,0,-2
1537911545709274,-2,-2,-1,1,-2,0,-1,-1
1537911545709274,-1,0,0,-1,-1,-1,-2,0
1537911545716256,-1,-1,-2,-3,0,-2,-5,-3
1537911545716256,-1,-2,-2,-1,0,-1,-1,-1
1537911545731216,-1,-1,0,-2,-1,0,-2,-2
1537911545731216,-1,-1,-2,-2,0,-2,2,-1
1537911545740193,-1,0,-1,1,-1,1,-2,-1
1537911545740193,-1,-1,-2,-1,-1,-1,-3,-1
1537911545755154,-1,-2,-2,0,0,-2,-2,-3
1537911545755154,0,0,-1,-4,0,-1,-1,-1
1537911545756150,0,-1,0,0,-1,-1,1,-1
1537911545756150,-2,-1,-1,-2,-1,-2,-1,0
1537911545768117,1,-1,0,-1,-2,-1,0,1
1537911545768117,-1,0,0,0,0,0,0,0
1537911545777093,-1,-4,0,0,-1,-1,1,1
1537911545777093,-2,-1,-3,0,-3,-2,0,0
1537911545792052,-1,0,1,0,1,1,0,-1
1537911545792052,-1,-1,-2,1,-1,-1,0,-1
1537911545794047,-2,-1,-2,-2,-2,-2,0,0
1537911545794047,0,-1,-2,-1,-2,-1,-1,-2
1537911545814991,-1,0,-1,1,1,-1,-1,0
1537911545814991,-1,-2,-2,-2,-1,-1,-1,-1
1537911545815989,-2,-2,-4,-4,-1,-3,-1,-2
1537911545815989,0,0,-2,0,-1,-1,-1,1
1537911545828954,-1,0,-1,-2,-1,-1,-1,-1
1537911545828954,-1,-1,-2,-3,-2,-2,5,2
1537911545844911,-1,-1,-1,0,0,-1,-1,-1
1537911545844911,-2,-2,0,0,0,-1,-3,-3
1537911545851892,0,-2,-2,0,-1,-1,2,-1
1537911545851892,-2,-2,0,0,0,1,-3,-2
1537911545853887,-1,0,1,1,-1,0,2,-2
1537911545853887,-1,1,-1,-1,-1,-1,-1,0
1537911545874831,-1,-2,0,-1,-2,0,-3,0
1537911545874831,-1,-1,-2,0,-2,0,-5,-1
1537911545876826,1,1,-1,1,0,1,1,-1
1537911545876826,-2,0,-1,0,-1,0,1,-2
1537911545888794,-2,-1,-3,-3,0,-2,-3,-1
1537911545888794,-2,-2,0,-1,-1,-3,0,0
1537911545897770,0,1,0,0,-1,-1,-1,0
1537911545897770,-1,-1,-1,-1,-2,0,1,-1
1537911545912731,-1,-2,-1,-1,-1,0,0,1
1537911545912731,0,0,-1,0,0,0,-1,-1
1537911545913728,0,-1,1,-1,1,1,-5,-4
1537911545913728,-1,-2,-3,0,0,0,0,0
1537911545934673,-1,-1,-1,-2,-2,-3,2,2
1537911545934673,0,-3,-1,1,2,1,1,2
1537911545936668,-1,-1,0,0,0,1,4,4
1537911545936668,1,1,1,-1,0,3,3,2
1537911545948635,2,3,2,0,0,-2,1,-1
1537911545948635,2,0,0,-1,-2,-3,8,3
1537911545957612,0,-1,-1,0,-2,-1,0,-1
1537911545957612,-1,-2,-2,-2,0,0,-2,-2
1537911545972571,0,0,2,-1,-2,2,3,0
1537911545972571,-2,-3,-1,-2,-1,2,-5,-2
1537911545973569,-1,0,0,-2,-1,-2,-2,-1
1537911545973569,-1,-1,-3,-1,-2,-3,-1,1
1537911545994513,0,-1,-1,1,0,0,-2,-1
1537911545994513,1,1,0,-1,1,0,-1,-1
1537911545996509,-2,-1,2,-1,0,1,-1,-1
1537911545996509,0,-1,-1,0,-2,-1,-1,-1
1537911546008475,-1,-2,-1,0,-1,-3,-3,-3
1537911546008475,0,-1,0,0,0,0,-2,-3
1537911546017451,-1,-3,-2,-3,-2,-2,2,0
1537911546017451,-1,-1,-1,-1,-1,-1,0,0
1537911546032410,-3,-1,-2,0,0,-1,-3,-2
1537911546032410,-1,1,-1,-2,-3,-1,2,0
1537911546033407,-1,0,-1,0,0,-1,-2,0
1537911546033407,0,0,1,1,-1,0,-3,-2
1537911546055348,0,-2,-1,-2,-2,-2,-1,0
1537911546055348,-1,-1,1,-1,0,1,-3,0
1537911546056346,0,1,0,-1,-1,-2,0,1
1537911546056346,-1,-2,0,-1,-2,-2,0,-1
1537911546068314,-1,-2,-1,0,1,0,0,-2
1537911546068314,-2,0,-3,0,-1,-1,-2,-2
1537911546077290,0,-2,-2,-2,0,1,0,-2
1537911546077290,-3,-1,0,-1,-2,-2,-2,-1
1537911546092250,-2,-1,-2,-2,-1,0,0,-1
1537911546092250,0,0,-1,1,-1,-3,-2,-1
1537911546094245,1,-1,-2,-1,0,-1,-1,0
1537911546094245,-1,-1,-2,-2,0,-1,-2,-2
1537911546115189,-1,0,0,2,-2,0,3,-1
1537911546115189,-1,1,1,-2,-1,-2,-5,-4
1537911546116187,-1,-2,-1,0,-1,-2,0,2
1537911546116187,-3,0,0,1,-1,-1,2,-2
1537911546128155,0,-2,-1,-1,0,1,-1,0
1537911546128155,-1,-1,-1,0,-1,0,0,0
1537911546137131,-1,1,-1,-1,1,0,-2,-2
1537911546137131,1,-1,-2,-1,0,1,-1,-1
1537911546152092,-1,1,-2,-1,0,0,0,0
1537911546152092,-1,0,-4,-3,-1,0,1,-1
1537911546154087,1,-1,0,0,-1,-2,-1,-1
1537911546154087,-1,-1,-2,-1,-1,-2,0,0
1537911546175030,0,-1,-1,-1,0,-1,-4,-1
1537911546175030,-1,-3,-3,0,-1,1,0,2
1537911546176027,-2,-2,-1,0,-1,-1,-1,-2
1537911546176027,0,0,0,-1,-1,-2,-2,0
1537911546196970,1,-1,0,-1,-1,0,1,1
1537911546196970,-1,0,1,0,0,-2,1,1
1537911546198965,-2,-1,-1,0,0,0,-2,-1
1537911546198965,1,0,-1,-1,-3,0,-1,-1
1537911546211930,0,1,0,0,-1,-1,-2,0
1537911546211930,-2,-2,-3,-2,-3,-2,-2,-3
1537911546213925,-1,1,2,3,-1,0,2,2
1537911546213925,0,-1,-2,0,1,1,-4,-1
1537911546234869,0,-1,0,0,-1,-3,-4,-3
1537911546234869,-1,-1,-1,-1,-1,2,0,0
1537911546235866,0,-1,-2,-3,-2,0,-1,-3
1537911546235866,0,-2,0,-2,-2,-2,-2,-2
1537911546257808,-1,-1,0,-1,1,1,-3,-2
1537911546257808,-1,-1,0,-1,0,0,-3,-1
1537911546259802,0,-1,-1,-2,-1,-1,-1,-2
1537911546259802,-1,-2,0,0,-1,-1,2,0
1537911546271770,-1,-2,-1,-1,1,-1,4,-1
1537911546271770,-1,0,-1,-1,-2,-1,-2,0
1537911546278752,-1,0,-1,-2,0,-1,0,-1
1537911546278752,0,2,-2,1,-1,-1,0,-2
1537911546294709,-4,-3,-2,-3,-2,-2,0,0
1537911546294709,-1,1,1,1,0,-2,-1,-2
1537911546296704,0,-1,0,0,-1,-2,-2,1
1537911546296704,-1,0,-1,-1,-1,-2,-2,-2
1537911546317648,-2,0,0,-1,-3,0,-1,-1
1537911546317648,1,-2,-2,-2,-4,-5,2,-1
1537911546318646,0,0,1,-1,-2,1,5,3
1537911546318646,0,-3,-1,-3,-1,-2,-1,-1
1537911546332608,1,0,0,0,0,1,-4,-1
1537911546332608,-2,0,-1,-2,0,-2,3,1
1537911546333605,0,-1,0,0,0,-3,-5,-3
1537911546333605,0,2,2,0,0,0,-1,1
1537911546354550,0,0,-2,-2,-1,1,1,2
1537911546354550,0,0,0,1,-1,0,-3,-1
1537911546356547,0,-1,-1,-2,0,-2,-2,-1
1537911546356547,0,-3,-2,0,0,2,2,1
1537911546377490,-1,-2,-1,0,-1,0,-1,-3
1537911546377490,-1,0,0,0,0,1,-2,-1
1537911546378486,-1,-2,-3,-3,0,0,1,1
1537911546378486,-2,-3,-1,-3,-1,-4,-3,-2
1537911546391452,0,-1,0,1,-2,-1,2,-1
1537911546391452,-2,-1,-3,-1,0,0,-4,-3
1537911546400429,0,1,-1,1,-3,0,1,0
1537911546400429,-1,-1,0,0,-3,-2,-1,-1
1537911546415388,0,0,0,-1,0,-1,-6,-1
1537911546415388,0,1,2,0,1,1,2,0
1537911546416385,-1,-2,-3,-4,-1,-2,-1,-3
1537911546416385,-1,0,0,0,-1,0,0,1
1537911546437328,-2,-1,-1,-1,0,-2,-2,0
1537911546437328,0,0,-2,-1,-2,1,-1,1
1537911546438325,-1,0,-1,-2,-1,0,0,-2
1537911546438325,0,1,-1,-1,-1,2,-2,-1
1537911546451290,-2,-4,-1,-2,-2,-2,1,-1
1537911546451290,0,0,-1,0,0,-2,-1,1
1537911546458272,0,-2,0,-1,0,0,-1,-1
1537911546458272,-3,-1,-2,-2,-1,-1,-1,0
1537911546475227,1,1,-1,-2,1,0,2,-1
1537911546475227,1,0,1,-1,0,-2,-3,-2
1537911546476224,-2,0,-1,-1,-2,-2,0,-2
1537911546476224,-2,-1,-2,0,1,0,2,1
1537911546497168,0,0,0,1,-2,-1,-1,-1
1537911546497168,-1,-2,0,-1,-1,1,-2,-1
1537911546499163,-1,-1,-1,-1,0,0,-3,1
1537911546499163,1,0,-1,-1,0,-2,2,0
1537911546520107,-1,-1,-1,0,-1,1,-2,-2
1537911546520107,-2,-1,-2,-3,-1,-2,-5,-3
1537911546521104,-3,0,0,0,-1,2,-2,-1
1537911546521104,-1,-2,0,-2,-1,-1,5,4
1537911546535066,-1,-1,-1,1,-1,0,-4,-3
1537911546535066,1,-1,0,-2,-1,-1,-2,-2
1537911546536064,-1,-1,0,1,-1,-2,-2,-1
1537911546536064,-1,-1,-3,-2,0,0,-6,-4
1537911546557008,0,-1,-3,-2,0,-2,1,2
1537911546557008,-1,-2,-2,1,-2,1,6,2
1537911546559003,-1,-1,-2,1,-3,-3,-4,-1
1537911546559003,-1,0,-3,-1,-4,-4,6,1
1537911546571968,2,4,3,2,0,-1,1,1
1537911546571968,-1,-1,-1,-1,2,0,-1,-2
1537911546578949,2,2,1,-1,-2,-1,5,3
1537911546578949,0,-3,1,0,-1,0,-4,-3
1537911546594908,-3,-2,1,-2,-3,-1,-1,-2
1537911546594908,1,0,6,9,4,6,-11,0
1537911546595906,-2,-1,-3,-6,-2,-3,3,-1
1537911546595906,-2,-4,-4,-7,-2,-2,-3,-1
1537911546617847,0,-7,-16,-2,0,-3,1,2
1537911546617847,-1,-1,-3,-8,-6,-2,-5,-1
1537911546618845,2,-1,4,5,9,0,-3,0
1537911546618845,-22,-6,-4,6,-1,0,-3,-13
1537911546639787,8,6,-1,-11,-7,-2,0,1
1537911546639787,-7,-1,3,4,10,0,-2,1
1537911546641782,15,1,0,-3,-1,3,0,-5
1537911546641782,-10,1,1,3,-1,-7,2,12
1537911546654747,-4,3,3,9,2,-3,-6,1
1537911546654747,-13,2,9,39,-6,-7,4,-10
1537911546656742,23,5,22,-43,-2,-18,-20,28
1537911546656742,15,-1,-19,49,15,35,16,-21
1537911546677685,-22,-14,18,-4,-8,-13,14,-1
1537911546677685,4,-10,-61,-70,-2,-9,15,15
1537911546678683,-10,-7,6,-7,-7,24,2,-17
1537911546678683,16,1,-12,-33,-14,-33,-11,1
1537911546690652,-3,8,16,26,13,1,-12,-34
1537911546690652,-28,-2,12,32,37,0,2,-2
1537911546699627,4,0,-8,14,-5,-7,2,0
1537911546699627,18,8,13,-13,8,-3,-4,29
1537911546714588,23,1,-8,8,-1,14,11,44
1537911546714588,-9,8,16,3,-9,11,-23,-45
1537911546716584,-18,2,4,9,-4,-2,0,1
1537911546716584,-10,0,31,15,4,1,-5,-14
1537911546737526,4,-6,-46,-3,-5,-23,5,5
1537911546737526,8,1,37,-11,-18,5,-2,14
1537911546738523,-4,2,-34,7,22,-1,1,-8
1537911546738523,-2,-5,30,1,-6,5,-9,14
1537911546751488,-7,-14,-47,-49,-23,0,2,-13
1537911546751488,-2,-1,19,-17,17,-10,-6,-39
1537911546759467,-5,-11,-42,-39,-23,10,13,17
1537911546759467,5,-13,-44,-65,-7,-8,5,12
1537911546774427,-13,-3,2,-35,5,6,-2,13
1537911546774427,3,2,5,36,-11,-15,2,-19
1537911546776422,9,16,54,57,6,19,14,-5
1537911546776422,-17,3,8,41,5,-7,20,-53
1537911546797366,23,10,24,30,3,12,14,88
1537911546797366,-11,0,19,0,-5,-10,-4,-7
1537911546799361,-9,-12,-50,9,1,-3,-2,-10
1537911546799361,2,-1,-6,-14,-5,-1,-10,-4
1537911546811329,-16,0,5,2,4,-3,-11,-44
1537911546811329,6,-1,-2,-2,-9,0,5,20
1537911546820305,-2,0,14,-2,-2,14,-3,8
1537911546820305,-5,-2,-13,9,18,-10,3,4
1537911546835264,1,-1,-10,-17,-20,4,-8,-20
1537911546835264,9,-3,-15,12,22,10,5,24
1537911546836261,-17,-6,-3,-10,-14,-24,-6,-52
1537911546836261,18,8,3,-22,3,28,4,28
1537911546857206,-1,2,21,37,25,-1,0,3
1537911546857206,1,-7,-11,-53,-33,-6,-1,19
1537911546859200,1,-1,-24,13,5,-15,-3,-21
1537911546859200,-2,1,6,2,-4,-5,14,7
1537911546871168,1,4,27,10,2,-1,-4,-1
1537911546871168,-15,-2,-27,-12,-7,4,-3,-24
1537911546880144,4,-3,8,-8,4,-6,5,38
1537911546880144,-8,-3,3,6,-11,-8,-22,-24
1537911546895104,3,-1,-8,8,1,2,-4,-2
1537911546895104,4,1,12,9,1,-6,0,4
1537911546896101,-16,-5,-12,0,1,9,1,13
1537911546896101,6,-1,-1,0,-7,6,-2,3
1537911546917045,-11,-9,-9,-25,4,-4,-4,-26
1537911546917045,10,-4,-13,6,-5,-1,0,23
1537911546919040,10,2,4,-17,-1,-3,6,22
1537911546919040,-12,3,11,8,4,16,-14,-38
1537911546931008,1,2,-2,14,-7,-9,-9,-15
1537911546931008,7,0,-2,-12,-5,11,18,42
1537911546939984,-3,-2,6,2,1,-17,-14,-6
1537911546939984,-8,1,0,4,-2,9,14,23
1537911546954944,22,9,37,-5,2,10,-9,3
1537911546954944,-13,-9,-45,29,2,0,-2,-21
1537911546955942,-4,-2,5,-1,4,-15,-6,-23
1537911546955942,18,2,-3,6,-1,-4,-4,20
1537911546976887,-21,-1,8,-32,-7,-6,4,-2
1537911546976887,6,6,10,19,-1,5,-19,-10
1537911546977883,-9,-1,4,-18,-19,1,-1,2
1537911546977883,7,-8,-33,-14,16,-17,5,-16
1537911546998828,0,-6,-21,42,6,9,4,-8
1537911546998828,5,8,39,-29,0,-14,-4,17
1537911546999826,-6,-4,-14,15,0,4,-5,16
1537911546999826,-9,-2,8,-2,-29,2,-11,-6
1537911547013788,10,3,4,2,39,3,-2,-7
1537911547013788,7,-1,-25,-6,-2,-12,15,8
1537911547014786,10,6,19,1,0,-12,-12,1
1537911547014786,-24,-1,2,6,-4,11,-9,-11
1537911547036727,-6,-4,-3,0,-15,-14,12,5
1537911547036727,1,-3,-1,2,-4,-9,-2,-4
1537911547037725,-4,-2,6,-2,5,25,4,-9
1537911547037725,-4,2,2,8,1,-32,-9,5
1537911547059664,2,1,10,-11,-10,-10,-5,4
1537911547059664,10,0,0,-2,6,26,0,-37
1537911547059664,-8,-6,-1,6,-1,-8,-2,-11
1537911547059664,4,-5,-33,-2,0,8,8,27
1537911547074625,-10,-1,21,-3,-5,-4,-1,-7
1537911547074625,-2,-8,-30,2,-8,-1,6,4
1537911547074625,3,1,3,-47,-4,-12,6,0
1537911547074625,-9,0,12,-1,-2,-1,-4,-25
1537911547096566,8,4,-3,6,2,2,2,13
1537911547096566,1,1,9,11,2,-6,5,-1
1537911547097564,5,2,7,24,5,7,2,22
1537911547097564,6,2,23,-1,6,5,2,14
1537911547119504,-8,-1,-31,4,-6,-9,-4,-17
1537911547119504,-13,0,12,-9,0,0,-10,14
1537911547119504,1,4,27,1,-7,-3,-4,-35
1537911547119504,-6,-6,-39,2,8,26,2,8
1537911547134464,-7,-14,-14,-33,-21,-3,-13,-8
1537911547134464,-2,-5,-20,-9,24,-10,-4,-11
1537911547134464,7,5,-4,14,9,7,-7,5
1537911547134464,3,6,28,6,-4,-15,1,2
1537911547156406,-5,1,5,-14,-5,17,2,-13
1537911547156406,-13,-2,-16,3,-12,-3,6,23
1537911547157403,22,0,2,1,-1,6,-14,14
1537911547157403,-10,2,4,0,2,-16,-7,-19
1537911547179344,1,0,3,1,1,6,0,10
1537911547179344,3,0,3,4,-2,5,1,5
1537911547180343,-6,8,18,21,8,9,2,-31
1537911547180343,-1,0,24,-5,-7,-5,1,18
1537911547194305,-2,-10,-70,-3,2,-12,-2,-13
1537911547194305,2,0,32,-19,-10,4,-9,-9
1537911547195303,-7,-6,-9,14,-1,8,1,-1
1537911547195303,13,-6,-26,-11,-6,0,1,-8
1537911547216247,1,0,2,-27,1,-7,-11,10
1537911547216247,3,3,-1,9,5,-3,0,-12
1537911547217244,-12,1,4,-5,0,-3,-2,-2
1537911547217244,0,2,22,18,-3,-5,-7,-2
1537911547239186,-9,1,7,20,6,2,6,-14
1537911547239186,18,2,-10,-10,-2,-5,-1,37
1537911547240185,-2,-4,3,-9,-6,-6,-3,-4
1537911547240185,-9,-6,-12,-3,4,4,12,3
1537911547254145,7,0,10,20,1,-8,-3,-4
1537911547254145,-5,-1,-4,-18,-3,12,-6,-14
1537911547255142,-3,0,-11,-5,1,2,10,5
1537911547255142,9,1,-2,-14,-2,-1,-3,5
1537911547277083,-8,-6,-9,1,-10,-9,16,3
1537911547277083,-6,-2,10,15,10,1,-4,-10
1537911547277083,5,-3,-14,-15,-7,-6,-1,13
1537911547277083,-3,-3,-3,-1,0,-1,-1,-8
1537911547299024,-3,4,16,1,-4,6,-3,1
1537911547299024,12,-3,-8,-3,-4,-6,-3,-19
1537911547300021,3,2,-6,0,1,-2,8,30
1537911547300021,-8,0,3,-4,0,3,-5,-20
1537911547313984,-1,3,15,4,1,-2,-4,3
1537911547313984,-1,0,-3,2,0,-1,-5,-6
1537911547314981,-2,-2,-4,-4,2,16,8,-3
1537911547314981,6,-1,-1,-2,-3,-9,0,7
1537911547336923,4,-1,-1,2,3,7,-3,8
1537911547336923,-6,-3,0,0,-4,-6,0,-2
1537911547336923,-1,-1,-5,-2,-5,-7,1,-8
1537911547336923,2,0,-2,-1,0,-9,-5,1
1537911547359862,1,1,-2,-4,2,9,-2,-5
1537911547359862,-4,2,3,3,-4,1,1,-1
1537911547360859,-5,-3,0,0,-1,-8,-5,-4
1537911547360859,1,-3,-7,-7,-2,1,-3,-3
1537911547373826,0,-1,5,0,1,-1,1,5
1537911547373826,-3,0,2,0,-3,0,3,-1
1537911547374823,-1,0,-4,0,1,0,-4,-3
1537911547374823,-6,0,-2,-3,-1,-3,0,-4
1537911547396764,7,-1,0,-2,-2,0,-2,2
1537911547396764,0,-1,2,4,-1,3,2,6
1537911547397761,-1,-3,-4,-2,-1,-4,0,-5
1537911547397761,1,-1,-2,0,-1,0,-2,1
1537911547419702,-2,1,2,3,2,-1,0,0
1537911547419702,-1,1,-2,2,-3,3,-1,-2
1537911547420700,0,-1,-2,-1,-2,-5,-5,-5
1537911547420700,1,-1,-1,4,0,0,1,1
1537911547434662,-1,0,-3,3,-1,2,-2,-1
1537911547434662,0,0,1,4,0,-2,-1,0
1537911547434662,-3,-3,1,1,-1,-4,-1,-3
1537911547434662,1,-1,-1,1,-2,2,0,0
1537911547456604,0,0,0,1,1,-1,-1,-1
1537911547456604,0,0,1,1,0,0,-1,-1
1537911547457601,-1,-3,-3,-3,-2,-3,-1,-1
1537911547457601,0,0,0,-4,-3,3,0,-3
1537911547479541,1,2,2,-4,-2,-2,0,-1
1537911547479541,-3,-3,-2,-6,0,-2,-1,-2
1537911547480539,0,-3,-2,-4,2,0,-1,-2
1537911547480539,0,0,0,-4,-3,1,3,1
1537911547494501,-2,0,2,-2,-1,0,-3,-2
1537911547494501,-3,-1,-1,-1,-2,2,0,0
1537911547494501,-1,-1,-1,-3,-3,-1,-4,-2
1537911547494501,0,-1,-2,-3,1,0,-1,0
1537911547516443,0,-2,-1,-4,-2,-2,-2,0
1537911547516443,1,0,0,-2,-1,-4,-2,-1
1537911547517440,-1,-2,0,-2,-2,-1,1,-2
1537911547517440,1,-2,0,1,-1,-3,-3,0
1537911547539381,-3,-2,-1,-1,-2,-1,0,-2
1537911547539381,-6,-2,-2,-3,-2,-1,-1,-3
1537911547540379,6,3,-1,-1,-1,-2,0,-1
1537911547540379,-2,1,0,0,1,0,3,1
1537911547553344,-1,-1,-2,-3,1,1,-1,-1
1537911547553344,-2,-2,-1,-1,-1,0,-2,1
1537911547561323,-6,-2,1,2,-2,-1,0,-2
1537911547561323,0,-1,-1,-2,1,-2,0,1
1537911547576284,1,-2,-1,-1,-2,-2,-3,0
1537911547576284,-2,-1,2,1,0,-2,-3,-8
1537911547577282,0,-1,-2,-2,1,-4,-3,0
1537911547577282,1,0,-1,-3,-6,-3,1,0
1537911547600220,1,-1,-1,-3,-1,-1,5,2
1537911547600220,1,0,0,-1,2,1,-2,1
1537911547600220,-2,-2,-1,-1,-4,-4,2,0
1537911547600220,-2,-1,-1,0,-2,0,-4,-2
1537911547614183,-1,1,0,0,0,-1,-1,-2
1537911547614183,1,-1,1,0,-1,1,-2,-2
1537911547615181,-1,0,-1,0,1,0,-2,0
1537911547615181,-2,-1,-1,-2,0,0,-3,-4
1537911547637121,1,-2,-2,-2,-3,-2,10,5
1537911547637121,3,-1,0,0,-1,2,1,0
1537911547637121,-2,-1,-2,0,-2,-1,-3,-2
1537911547637121,0,-2,-1,-2,-1,-3,-1,-1
1537911547660060,-1,1,2,1,-1,1,-2,0
1537911547660060,-1,-1,1,1,-1,-1,-9,-3
1537911547660060,0,-1,0,-1,-1,-1,5,2
1537911547660060,-2,-1,0,0,0,-1,-2,0
1537911547674022,-1,0,-1,-1,0,1,-6,-4
1537911547674022,-1,-1,-1,1,-1,-2,3,4
1537911547675019,-3,0,-3,-3,0,1,-4,0
1537911547675019,1,0,0,1,0,-1,-1,-2
1537911547696960,-2,-1,-2,1,0,0,-3,-3
1537911547696960,1,0,0,-2,0,-1,-1,1
1537911547696960,-1,-1,1,-2,-2,0,-5,-5
1537911547696960,0,-1,-3,-2,-2,-4,10,4
1537911547719899,0,-1,-2,-2,0,1,-5,-3
1537911547719899,-1,0,0,0,-4,2,0,1
1537911547720897,-2,-1,-2,-1,-3,-3,0,-2
1537911547720897,-2,-1,0,-1,-1,1,-3,-1
1537911547733862,-1,-1,2,1,-1,-3,0,0
1537911547733862,-1,0,-2,0,-1,-2,-4,0
1537911547741841,-1,0,-1,0,0,0,-8,-2
1537911547741841,-1,-1,0,-2,-2,-2,-1,-2
1537911547756801,1,-3,-6,-3,1,-6,0,1
1537911547756801,1,0,-2,-2,0,0,4,0
1537911547757798,-1,1,-1,1,2,3,0,0
1537911547757798,1,-1,-1,-5,-4,0,-6,0
1537911547779740,-1,-1,-2,-4,-4,-1,1,-2
1537911547779740,0,-1,-1,-1,-1,0,3,2
1537911547780737,-1,-1,-3,0,0,0,1,0
1537911547780737,1,0,1,1,-1,-1,-3,-2
1537911547793702,-1,1,4,2,0,2,1,-1
1537911547793702,-1,-3,-4,-4,-1,-2,-6,-3
1537911547801681,2,0,0,-2,-2,1,6,0
1537911547801681,-4,-1,-3,-2,-1,-4,-4,-4
1537911547816641,1,1,1,3,-1,3,4,2
1537911547816641,-2,-1,-2,-2,-1,-1,3,-3
1537911547817639,-1,-3,-3,-4,-1,0,-8,-4
1537911547817639,0,-1,0,-1,-4,3,16,10
1537911547839581,0,0,2,-1,3,2,-6,-3
1537911547839581,1,3,2,1,0,-2,6,5
1537911547840580,-2,-2,1,1,-2,-4,-4,-6
1537911547840580,2,2,1,2,3,5,-19,-6
1537911547853544,0,-2,-4,-4,-3,-1,4,3
1537911547853544,-4,-4,-2,-3,0,1,1,1
1537911547861521,-2,-1,-1,-3,-5,-5,-2,2
1537911547861521,1,1,-2,0,7,5,3,2
1537911547876481,3,-2,-4,-2,7,0,-20,-17
1537911547876481,-8,6,5,10,2,0,9,-2
1537911547877478,-8,-4,-2,-9,-4,-1,-1,6
1537911547877478,1,-2,-2,-7,-8,-5,-12,-3
1537911547899419,12,-3,-1,3,-28,-8,4,8
1537911547899419,-1,-22,-17,-25,38,9,8,-1
1537911547900417,-12,21,15,61,12,-3,-14,-16
1537911547900417,4,9,12,55,-16,-1,10,4
1537911547913382,-17,-10,-17,-95,-18,-6,1,-1
1537911547913382,-3,-14,-9,-58,-6,0,-6,-10
1537911547922357,-24,-14,-12,-36,-9,1,4,1
1537911547922357,55,9,8,55,21,-2,2,8
1537911547936320,-35,5,-3,21,1,-10,-5,-7
1537911547936320,36,2,2,-2,-15,1,-12,0
1537911547937318,-45,-26,-10,-5,8,1,39,6
1537911547937318,18,22,3,-7,0,-5,-35,-6
1537911547959259,24,8,9,45,25,15,3,13
1537911547959259,-33,-11,-8,7,-13,-25,-2,-12
1537911547960256,3,3,5,-1,13,5,1,-1
1537911547960256,-36,-14,-4,-22,-9,-11,34,1
1537911547973222,53,10,13,-2,4,-1,20,18
1537911547973222,-41,21,13,27,-24,13,-15,2
1537911547981200,36,-8,-27,-15,20,-6,-7,-8
1537911547981200,33,6,17,-35,-30,-5,7,-5
1537911547996161,-17,-20,-26,10,47,-40,2,6
1537911547996161,-9,9,17,37,-29,38,18,9
1537911547997158,1,-6,-31,-35,-26,-29,-12,-1
1537911547997158,-37,-20,10,-15,16,12,-21,0
1537911548019100,18,0,-21,-27,-29,-8,8,3
1537911548019100,-3,-8,-7,4,14,-30,-4,-6
1537911548020097,-52,10,36,9,-2,17,-16,9
1537911548020097,87,5,-30,2,16,2,-5,-32
1537911548033063,-10,18,30,52,4,14,-9,26
1537911548033063,-1,16,41,19,11,-16,-5,-11
1537911548042040,10,-10,29,9,2,7,17,17
1537911548042040,-47,-24,-48,1,-11,-11,7,-1
1537911548057000,-9,-2,11,7,-16,15,-25,-23
1537911548057000,8,-20,-56,-55,-20,-5,-14,-15
1537911548057998,33,-2,-13,1,27,4,5,26
1537911548057998,-21,6,59,32,2,2,4,5
1537911548079937,10,-9,-27,16,1,0,0,-21
1537911548079937,-1,-9,2,-61,6,1,-17,12
1537911548080935,7,-13,-55,-1,-27,-20,0,-18
1537911548080935,-5,-1,-7,-29,-3,13,-10,-4
1537911548102877,-46,4,7,-40,-9,-18,-3,-12
1537911548102877,-7,4,47,46,14,27,24,3
1537911548102877,82,40,26,21,5,21,-14,9
1537911548102877,-46,-5,-15,0,3,-1,27,16
1537911548116838,-2,-1,32,28,4,21,-2,-6
1537911548116838,29,-2,-27,-3,3,-18,-3,0
1537911548117836,-17,12,4,2,-5,14,10,-3
1537911548117836,4,5,14,22,19,8,11,17
1537911548139778,-33,-18,-16,-38,-16,-7,6,-8
1537911548139778,-22,-3,-13,8,6,-5,10,8
1537911548140775,73,11,-18,-3,-31,2,-42,-16
1537911548140775,-3,-5,9,-19,5,-4,-12,-10
1537911548162716,-29,-15,-13,-31,-1,7,1,-26
1537911548162716,1,3,-34,-12,-6,-5,1,32
1537911548162716,-26,7,43,4,7,1,5,-9
1537911548162716,4,4,2,28,-4,-16,-4,1
1537911548176679,36,7,2,17,10,16,-5,7
1537911548176679,7,1,40,22,6,-5,-6,-12
1537911548184657,15,7,-8,22,-9,-4,3,4
1537911548184657,-13,-16,-9,-29,4,17,8,33
1537911548199618,-26,1,-35,8,7,-4,-15,-10
1537911548199618,16,12,9,4,-7,-14,6,12
1537911548200616,16,-18,3,-13,1,14,26,6
1537911548200616,-2,6,13,-12,-5,-23,-20,-23
1537911548222556,-20,-15,-24,12,-11,-4,5,-1
1537911548222556,-17,-5,-13,-12,-16,-13,-3,-4
1537911548223554,36,6,-2,-33,26,11,1,-5
1537911548223554,-30,-3,27,26,6,-6,-1,4
1537911548236519,27,7,5,5,-14,1,-3,-4
1537911548236519,3,4,26,61,3,26,-9,-17
1537911548237518,-58,-17,-47,-72,-7,-20,-5,-4
1537911548237518,40,10,8,-21,-13,11,-9,-2
1537911548259459,-47,-9,-9,17,-7,-20,0,2
1537911548259459,30,-10,-23,7,22,1,-10,-1
1537911548260456,-22,4,13,-5,3,-1,3,4
1537911548260456,-2,11,21,-14,-4,-17,-4,-14
1537911548282396,-10,-4,-6,20,0,2,25,18
1537911548282396,-1,-14,-22,4,-2,1,-3,-2
1537911548283394,-6,-6,-4,-19,-15,-16,11,0
1537911548283394,-19,3,-15,-4,-4,9,-8,-17
1537911548296358,30,16,34,-9,10,-8,5,11
1537911548296358,-17,5,9,25,-1,18,-3,-11
1537911548297356,-3,-12,8,24,6,18,11,6
1537911548297356,5,-20,-30,-18,-15,-4,-9,-18
1537911548320294,28,14,-2,-17,-6,2,6,48
1537911548320294,-9,4,-17,-27,28,-12,7,13
1537911548320294,10,6,20,16,-8,-6,-27,-6
1537911548320294,-13,-6,-12,6,-5,-9,1,0
1537911548343232,-3,-9,1,-15,-9,11,-2,-7
1537911548343232,-9,1,5,-9,0,0,0,-11
1537911548343232,-17,-4,17,70,24,-5,-4,1
1537911548343232,14,4,-14,-49,-25,1,2,1
1537911548356198,3,-3,18,-34,-11,-8,-15,-12
1537911548356198,5,3,-24,-11,-19,-2,-7,-2
1537911548357196,-20,-13,-10,-20,12,6,-5,-15
1537911548357196,10,1,-5,30,15,-1,6,5
1537911548380135,1,-3,-17,-4,2,0,6,-9
1537911548380135,42,11,25,-7,1,-9,-13,-1
1537911548380135,8,3,11,24,-6,8,1,-4
1537911548380135,-22,9,-6,11,17,11,13,9
1537911548402077,6,11,45,7,1,4,5,4
1537911548402077,-6,-6,-25,41,-4,-16,1,-2
1537911548403076,-24,-11,-29,-60,-27,-13,1,-3
1537911548403076,50,2,6,-2,22,6,-6,11
1537911548417038,-22,-1,20,0,5,-15,-7,-15
1537911548417038,10,-8,-46,30,-5,14,12,8
1537911548417038,-13,-10,25,-17,-1,-2,-5,2
1537911548417038,-36,-5,-24,-23,-26,-16,18,-2
1537911548439975,53,8,-7,-3,3,-6,-21,2
1537911548439975,-5,7,35,-21,6,8,17,15
1537911548440974,-10,8,-5,20,-5,-1,-7,-3
1537911548440974,-17,-5,9,10,7,13,-3,-8
1537911548461916,-8,-3,15,18,3,7,-5,-5
1537911548461916,6,-7,-14,-3,-16,-19,-10,-6
1537911548462914,7,12,-3,-9,7,8,17,9
1537911548462914,-20,-5,11,-4,-5,-7,-1,-8
1537911548476877,34,2,-26,7,1,-3,-4,6
1537911548476877,-4,3,17,-18,2,5,-7,-12
1537911548476877,-14,5,28,34,2,-3,-11,-2
1537911548476877,3,-3,-20,-6,-4,-6,2,3
1537911548499815,-18,-15,-39,-22,2,10,4,-8
1537911548499815,-41,-11,42,-18,-1,-19,-4,-15
1537911548500813,67,0,-75,25,-16,-5,-1,7
1537911548500813,-27,-3,19,-37,-2,3,23,21
1537911548522753,19,4,-3,-8,-10,3,-9,-6
1537911548522753,1,8,15,-26,3,7,19,19
1537911548522753,-20,0,15,14,-1,-15,4,-14
1537911548522753,10,-8,-8,27,2,9,-10,-1
1537911548536716,-2,5,0,10,6,9,19,6
1537911548536716,14,6,2,4,-4,-8,5,8
1537911548537713,-28,2,23,0,-2,-4,-6,-2
1537911548537713,22,4,-35,5,3,-5,-18,-4
1537911548559655,-7,-9,19,3,4,3,11,4
1537911548559655,-9,-16,4,-1,-10,19,-12,-13
1537911548561650,-15,8,-16,20,20,-8,11,10
1537911548561650,31,0,-5,-25,-26,-5,-15,-14
1537911548582594,0,-2,-23,-13,6,-1,-6,1
1537911548582594,-9,1,-1,-52,-8,-6,-18,-17
1537911548583592,-40,-16,-1,9,-17,4,-3,1
1537911548583592,44,16,15,14,21,-2,0,-2
1537911548595559,7,6,8,8,0,4,-3,7
1537911548595559,1,1,-11,15,5,-6,2,-3
1537911548604535,-3,-10,25,-16,-6,-2,-28,-19
1537911548604535,-17,10,-2,27,4,-3,8,12
1537911548619496,-18,-11,-5,2,2,9,5,-12
1537911548619496,18,1,7,2,5,11,17,13
1537911548621491,-44,-8,21,0,-1,-2,9,-2
1537911548621491,45,2,-31,7,-4,-22,-10,4
1537911548642435,-19,-1,16,2,5,9,-1,-14
1537911548642435,8,2,-23,17,-14,-10,-9,2
1537911548643433,23,-3,-28,-47,1,2,7,3
1537911548643433,-31,-13,28,-5,5,-1,2,-3
1537911548656396,-11,12,26,23,-5,8,-12,-1
1537911548656396,1,-6,-41,-22,9,4,1,-3
1537911548665373,24,-4,-6,-27,-14,-11,-7,-8
1537911548665373,-29,-5,-12,-25,-7,-1,6,7
1537911548680332,-7,-3,17,15,20,-1,-9,-8
1537911548680332,18,17,24,32,0,-2,-25,-13
1537911548681332,33,22,-1,12,7,18,12,19
1537911548681332,-19,-12,4,-2,-4,8,3,-10
1537911548702274,42,5,-6,3,-11,-23,-13,8
1537911548702274,-15,-8,7,1,0,8,11,-1
1537911548704269,-1,0,-9,0,0,-19,-7,-7
1537911548704269,-12,-3,21,9,2,12,-2,-3
1537911548716236,-6,-9,-26,-4,-3,-1,-1,-3
1537911548716236,-20,-6,-13,-13,1,-11,-12,-9
1537911548725212,3,-1,-1,4,0,-7,2,-6
1537911548725212,1,-7,4,-9,-11,2,-4,-1
1537911548740173,-4,6,-11,-15,5,1,19,9
1537911548740173,1,-9,6,-5,-2,-9,-1,2
1537911548741169,-4,5,4,1,2,-1,0,1
1537911548741169,-36,-6,1,15,3,4,-6,-9
1537911548762113,39,4,0,-8,-8,-10,-7,3
1537911548762113,-1,6,3,12,0,0,2,3
1537911548764108,-4,-6,0,6,3,3,0,4
1537911548764108,-39,-9,-14,-6,-1,-2,-7,-10
1537911548776076,37,1,4,0,-3,-6,0,2
1537911548776076,-5,6,-1,-2,2,9,4,-5
1537911548785052,1,2,1,-1,-2,-1,13,4
1537911548785052,12,4,-2,-3,2,-1,-7,-1
1537911548800012,-25,-5,-1,1,-2,0,-5,-4
1537911548800012,7,-2,1,-2,0,-2,0,0
1537911548801011,7,-3,1,2,2,-1,-2,-2
1537911548801011,10,1,-5,3,-3,-1,-1,0
1537911548821954,-19,-3,-2,-4,-4,0,1,-3
1537911548821954,2,-1,-5,-12,-4,-2,-2,1
1537911548823950,-7,-1,3,1,1,2,-2,-4
1537911548823950,8,2,-1,7,4,2,4,4
1537911548835917,-13,-2,-1,-2,-3,-3,-2,-4
1537911548835917,-3,1,1,-1,-1,0,5,3
1537911548844893,1,-5,-4,5,-3,0,-3,-3
1537911548844893,13,5,0,2,-1,-1,4,3
1537911548859853,-12,-2,0,-7,-3,-3,1,-2
1537911548859853,-1,-3,0,0,-1,-1,2,1
1537911548861847,2,-1,1,-1,0,1,-4,-1
1537911548861847,-3,2,-1,-1,-3,-3,1,-3
1537911548882793,7,-2,-1,0,-2,-1,-1,0
1537911548882793,-2,1,1,2,-1,1,14,11
1537911548883790,0,0,-2,-1,-2,-5,-2,-6
1537911548883790,1,0,1,0,0,2,0,1
1537911548896755,-10,-3,1,2,-4,-2,-3,-1
1537911548896755,3,1,0,-1,-1,1,-2,-2
1537911548904733,1,-2,-3,-1,-1,1,0,2
1537911548904733,-1,0,-5,1,1,-2,0,-2
1537911548919692,-6,0,1,1,0,-1,-2,-1
1537911548919692,7,-2,-3,-3,-3,1,-6,-6
1537911548921687,-7,0,2,2,0,2,-6,1
1537911548921687,5,-2,-3,0,-1,-2,-1,2
1537911548942630,-10,-5,-1,1,-3,-2,-7,-5
1537911548942630,4,3,2,2,1,0,4,2
1537911548943628,5,-1,-1,0,1,1,-5,-1
1537911548943628,13,0,-1,1,1,0,3,5
1537911548955596,-6,-1,-2,-1,-1,-1,2,-2
1537911548955596,-11,-5,-2,4,-3,-3,-12,-8
1537911548964572,2,4,2,4,0,1,5,-1
1537911548964572,2,-1,-3,0,-3,0,-2,0
1537911548979532,-8,-1,0,-2,-2,-3,-1,-2
1537911548979532,6,-1,0,-3,-1,1,-4,0
1537911548981526,-1,-4,-3,-8,-1,1,0,1
1537911548981526,-2,-2,-2,-5,0,-2,4,-1
1537911549002470,-3,-1,-1,-5,-2,-2,-3,-4
1537911549002470,-10,-5,-3,-6,-4,-7,8,-2
1537911549003468,7,1,0,-2,0,-1,-2,3
1537911549003468,-4,-2,0,-4,-2,-1,-4,-2
1537911549024412,-1,-1,0,0,0,1,4,5
1537911549024412,1,-1,-1,-2,0,-1,-6,-4
1537911549026406,-4,0,-1,-1,0,-1,1,-1
1537911549026406,-2,-2,-2,-1,1,-2,-4,-3
1537911549039372,0,0,0,-2,-1,2,2,1
1537911549039372,-4,-3,-1,-2,-1,0,10,12
1537911549041367,6,0,-1,-1,1,1,-7,-1
1537911549041367,-1,1,-1,-2,-2,2,2,2
1537911549062311,1,-1,-2,-1,-2,-3,0,0
1537911549062311,-5,0,-1,0,2,0,2,-2
1537911549063308,-4,-1,0,1,-2,-1,-3,-5
1537911549063308,0,1,2,0,-1,0,-6,-1
1537911549085250,0,0,-3,-1,0,0,1,1
1537911549085250,-2,-1,-2,-1,-1,-3,2,0
1537911549086249,-2,-1,-1,0,-1,-2,-1,0
1537911549086249,-2,-2,-2,0,1,0,-1,-3
1537911549098216,-2,0,1,1,1,1,0,-1
1537911549098216,1,0,2,0,0,-4,-3,-2
1537911549107192,-1,0,0,-3,-2,0,2,-2
1537911549107192,-2,-1,1,1,-2,-2,-2,-2
1537911549122151,1,0,-1,-1,-1,0,-1,-1
1537911549122151,1,-1,0,-1,-2,-1,1,0
1537911549124146,-3,-3,-2,-2,-1,-1,-1,0
1537911549124146,2,-1,-2,-2,-3,-1,-3,-2
1537911549145089,-2,0,-1,-1,1,1,-2,-4
1537911549145089,-1,-1,1,3,2,2,-10,-6
1537911549146087,-2,-1,-2,-2,-3,-2,-1,3
1537911549146087,-10,-2,-1,0,-1,-1,-11,-8
1537911549159052,11,1,0,2,-1,1,15,7
1537911549159052,-1,0,0,-2,-2,0,4,7
1537911549166033,-1,-4,-1,-2,-1,0,-1,-1
1537911549166033,1,-1,-2,-3,-2,-2,-3,-2
1537911549181990,-6,-2,-2,-1,-1,0,-4,-3
1537911549181990,0,0,-1,0,0,0,1,2
1537911549183985,-3,-2,-1,0,0,-3,-1,0
1537911549183985,2,-2,-3,-2,-3,-5,7,5
1537911549204929,-5,-2,-2,-4,1,1,-4,-4
1537911549204929,-1,1,-1,-1,1,-1,-2,-1
1537911549205927,13,0,-2,1,0,0,-4,1
1537911549205927,-1,-1,0,1,1,1,3,0
1537911549218892,1,0,-2,-3,0,-4,-4,2
1537911549218892,-2,0,1,2,-1,2,-2,-4
1537911549225874,-5,-2,-1,1,-1,-3,7,1
1537911549225874,4,2,0,1,-1,-1,-3,-1
1537911549242828,0,-3,1,0,-1,0,-1,3
1537911549242828,-1,-3,0,-1,0,-1,-5,-4
1537911549243828,-4,-4,-3,-3,-1,-1,2,-1
1537911549243828,2,-1,1,2,1,2,1,1
1537911549264770,-4,-2,-1,-1,-1,-6,-3,-2
1537911549264770,2,1,0,0,-2,-1,-2,-2
1537911549266764,-1,0,-2,-2,-1,0,-1,-1
1537911549266764,-1,-1,-2,-2,1,-2,0,1
1537911549278732,-1,1,-1,3,4,4,1,-1
1537911549278732,-3,-3,-4,-1,-2,0,-10,-6
1537911549285713,0,-1,0,-1,-2,-2,-1,-1
1537911549285713,4,-1,1,-1,-2,0,3,3
1537911549302668,-2,-2,0,-2,-2,-2,-12,-8
1537911549302668,0,-1,-1,0,1,1,15,7
1537911549303666,-6,-2,-3,-1,0,-1,-3,-4
1537911549303666,-1,-1,1,-1,-2,-1,0,-2
1537911549324610,0,-1,-2,-3,-2,-1,-2,0
1537911549324610,-3,1,1,0,-2,-1,-6,-5
1537911549326604,-3,1,-1,0,-3,-4,0,-1
1537911549326604,-2,0,-1,0,1,-2,1,-1
1537911549339569,0,-2,-2,0,-3,0,-2,-1
1537911549339569,0,-3,-1,-2,-2,-3,2,1
1537911549345553,1,1,0,-3,-1,3,3,-2
1537911549345553,0,0,-1,-1,-1,-2,-1,0
1537911549362508,-3,-1,-1,0,-1,-2,4,1
1537911549362508,2,-1,0,-1,-1,2,-5,-2
1537911549363505,-1,1,1,1,2,2,-3,-2
1537911549363505,-3,-1,-1,2,0,2,3,2
1537911549384450,-1,1,0,-1,0,-1,2,0
1537911549384450,0,-1,-2,-2,-2,-2,0,0
1537911549386445,-2,-1,-1,0,-2,0,-8,-4
1537911549386445,-3,-3,-4,-2,-1,-2,-6,-5
1537911549399411,0,-3,1,2,-1,-1,2,1
1537911549399411,0,-1,1,2,1,3,-16,-11
1537911549406391,0,-1,0,1,0,-1,16,11
1537911549406391,-1,1,1,-1,-1,2,1,0
1537911549422349,-7,-1,-2,-2,-4,-5,-1,-4
1537911549422349,9,1,-1,-1,3,0,-6,-3
1537911549423348,0,-2,1,0,0,1,-6,-3
1537911549423348,-1,-2,-1,-1,-3,-3,-1,0
1537911549445290,-1,-1,0,-1,-1,0,4,2
1537911549445290,-3,1,0,1,0,2,-3,-3
1537911549446285,-1,0,-2,0,-2,-5,5,1
1537911549446285,1,0,-1,-1,-1,-4,7,4
1537911549459250,-2,2,3,0,0,0,-8,-6
1537911549459250,-2,-1,-1,0,-3,0,9,3
1537911549466232,1,-1,1,3,1,-2,-5,-4
1537911549466232,1,-8,-8,-6,-4,-5,-3,-4
1537911549482189,3,4,5,1,-2,-2,8,5
1537911549482189,-9,-6,-5,-4,-1,-10,1,2
1537911549484184,-2,2,-10,-1,-4,-8,21,12
1537911549484184,2,-1,10,-1,4,19,-4,-2
1537911549505128,5,-11,-6,-3,-4,-5,1,4
1537911549505128,-22,3,-6,-1,-2,-7,9,1
1537911549506126,7,4,-10,-1,-2,-6,-13,-6
1537911549506126,-1,6,32,8,3,-1,-5,-2
1537911549518093,-3,2,-2,-1,-4,0,-4,-1
1537911549518093,23,-13,-46,-10,3,9,-9,-3
1537911549527069,-4,-12,-19,-16,-5,-3,-10,-7
1537911549527069,-11,-5,-2,-9,-8,-7,-2,0
1537911549542029,-1,-5,8,2,3,0,-1,-4
1537911549542029,10,23,33,20,-1,0,-3,-1
1537911549544023,0,4,2,-6,2,12,20,6
1537911549544023,7,6,12,5,5,1,0,0
1537911549563969,-8,-7,-6,10,4,4,-7,2
1537911549563969,-16,-16,-24,-12,-7,-28,-11,-8
1537911549571948,1,8,29,15,4,11,-25,-15
1537911549571948,21,6,10,-6,-5,-1,0,4
1537911549578929,-5,-5,-15,12,4,6,10,0
1537911549578929,0,2,27,-23,10,16,-1,0
1537911549587905,-9,-20,-70,9,-9,-16,4,1
1537911549587905,-26,-7,0,-41,-4,20,4,-7
1537911549601869,13,-2,-21,-9,-9,-6,-1,1
1537911549601869,20,3,10,17,1,4,0,5
1537911549603863,-14,7,32,-12,5,-10,-5,-6
1537911549603863,6,1,-26,28,8,-5,-14,2
1537911549624808,-12,7,46,-1,-1,-4,-4,-10
1537911549624808,-13,-7,-2,32,-2,3,-14,-8
1537911549626804,17,0,-7,-19,-1,-3,37,20
1537911549626804,-3,-15,-23,-9,-5,14,4,-1
1537911549638771,-14,3,1,-9,3,3,-6,-3
1537911549638771,14,9,18,3,-1,-22,0,-3
1537911549647748,2,3,45,12,-7,14,-10,-1
1537911549647748,-11,-9,-62,-8,-1,8,15,12
1537911549662707,-7,-10,-9,-36,-7,-32,-8,-9
1537911549662707,-7,-4,-6,-13,1,9,29,7
1537911549663705,-1,1,-17,-11,-1,-19,-17,-8
1537911549663705,1,8,63,16,-6,-22,30,14
1537911549684648,-5,-4,-43,22,4,11,-11,4
1537911549684648,-1,-3,0,-29,-6,-7,-6,-5
1537911549686643,-19,1,4,9,1,-1,-8,-6
1537911549686643,35,4,0,6,-1,-2,3,4
1537911549698611,-6,5,11,14,3,13,-2,-2
1537911549698611,13,-1,1,-2,-2,-2,-6,1
1537911549707587,-9,-2,7,11,3,3,-3,-4
1537911549707587,-11,-1,-10,8,3,-5,-12,-12
1537911549722546,17,8,7,-6,-1,4,8,6
1537911549722546,-13,-4,-4,1,-2,6,1,0
1537911549728533,3,-5,-2,2,2,4,-9,-3
1537911549728533,-1,-1,-8,-3,-3,-2,3,-3
1537911549744487,4,-3,4,-4,-4,-5,-6,-4
1537911549744487,-5,2,-1,7,3,5,-6,1
1537911549746482,8,1,-3,1,-2,4,-2,0
1537911549746482,-9,-2,2,-6,-2,-11,-9,-9
1537911549758450,0,0,1,-2,-1,-4,3,0
1537911549758450,-2,-4,-4,2,-2,3,-1,-1
1537911549767426,2,-3,2,-7,-3,-1,4,0
1537911549767426,-4,0,-2,1,0,-2,-5,-3
1537911549782386,1,-3,-1,1,-1,-2,1,-3
1537911549782386,4,-1,-5,0,-1,3,2,1
1537911549788370,-9,2,1,-3,2,0,2,-1
1537911549788370,-2,0,-2,1,1,-4,-3,-4
1537911549804327,14,3,1,-1,1,4,1,4
1537911549804327,-8,-3,-2,-3,-3,-4,2,0
1537911549806322,-2,-5,1,0,1,1,-1,1
1537911549806322,-4,-2,-2,3,0,-1,-5,-3
1537911549818290,0,-1,1,-4,-3,-1,5,3
1537911549818290,1,-1,-1,3,-3,-1,7,3
1537911549827268,-3,-3,0,3,-2,-2,-7,-7
1537911549827268,-4,1,0,4,0,0,1,0
1537911549842227,4,1,-1,4,-2,-3,3,1
1537911549842227,-1,-2,-4,2,-2,-1,0,-1
1537911549844222,3,0,-3,4,2,2,-3,-1
1537911549844222,-2,-2,-1,3,-2,-3,-9,-2
1537911549865164,-4,0,0,3,1,-1,4,-1
1537911549865164,-1,0,-3,-2,-2,1,-2,-2
1537911549866162,-7,-4,-1,-4,-2,0,4,0
1537911549866162,11,-1,0,-5,-1,-2,0,0
1537911549878130,-2,-2,-1,-5,-1,2,-3,-1
1537911549878130,-4,-4,-1,-6,-1,0,0,-2
1537911549887106,-1,0,-3,-6,0,1,-3,-2
1537911549887106,3,2,-3,-4,0,-2,0,-2
1537911549902065,0,-1,-4,-2,0,0,-1,1
1537911549902065,0,1,0,-4,-1,-1,-6,-3
1537911549904060,2,-2,0,-2,-1,-1,9,7
1537911549904060,-4,-2,0,0,0,0,5,1
1537911549925004,-1,0,1,-2,-1,-3,5,0
1537911549925004,-1,0,0,-3,-2,-1,-5,-1
1537911549926001,-1,-1,-1,-1,-1,-1,-6,-3
1537911549926001,-3,-2,-1,-4,0,-1,-3,-2
1537911549946945,0,1,2,-2,1,2,-6,-3
1537911549946945,-8,-4,-4,-2,-3,-4,17,4
1537911549948940,13,2,2,1,3,3,-10,-1
1537911549948940,-2,-3,-2,-3,-3,-6,5,3
1537911549961906,-1,-2,0,0,-3,1,-2,-2
1537911549961906,-2,0,1,2,1,-1,-2,-2
1537911549963900,0,1,1,-2,-2,-1,-5,-2
1537911549963900,-2,-2,0,0,0,-1,-6,-3
1537911549984844,-1,0,0,-2,-2,-1,-1,-1
1537911549984844,-1,1,1,0,0,2,3,3
1537911549985842,-1,-1,-1,-2,1,-2,4,-1
1537911549985842,8,1,-2,0,1,0,-2,2
1537911550007784,-3,-1,0,-1,0,0,1,1
1537911550007784,2,1,-1,0,0,2,-11,-3
1537911550008781,-6,-2,-1,0,-3,-3,2,1
1537911550008781,-6,1,-1,2,0,-1,0,-2
1537911550022743,4,0,0,1,1,-1,-5,2
1537911550022743,0,1,0,0,0,0,-1,1
1537911550023741,-2,-2,-1,0,-2,0,-5,-6
1537911550023741,-2,-1,0,-3,-1,2,1,2
1537911550044684,0,0,-1,2,1,1,-1,-2
1537911550044684,0,-1,0,0,1,-2,-10,-7
1537911550046680,1,-3,-1,-1,-4,-4,19,10
1537911550046680,1,0,0,0,0,0,3,1
1537911550067623,-1,-4,-4,-3,-3,-1,3,2
1537911550067623,-1,1,-1,-1,-2,-2,4,1
1537911550068620,1,1,1,1,1,2,-9,-3
1537911550068620,-3,-1,-1,-1,-2,-1,-5,-3
1537911550081586,-7,-3,0,-3,0,-2,1,0
1537911550081586,4,0,-1,0,0,1,1,0
1537911550088567,3,0,0,-2,-2,-1,2,2
1537911550088567,-6,-1,-1,0,-1,-1,0,0
1537911550104524,7,1,1,0,-2,1,-3,-3
1537911550104524,-4,-2,-2,-3,-3,-3,4,1
1537911550106519,-2,-2,-3,-1,-1,0,-3,-2
1537911550106519,-1,-4,-4,-3,0,-1,-6,-6
1537911550127464,-2,-2,-1,1,-2,-1,2,-2
1537911550127464,4,0,-2,-2,-1,1,-2,-1
1537911550129458,0,-1,0,0,0,-2,-5,-5
1537911550129458,-10,-1,-1,-1,-3,-2,-7,-3
1537911550141428,7,-2,1,-1,-1,-5,1,2
1537911550141428,0,-1,2,1,0,-1,12,7
1537911550148409,-2,-2,-4,-2,1,0,-2,-3
1537911550148409,-3,-4,-3,-3,-1,-1,5,1
1537911550164367,-6,-1,-1,2,0,1,-7,-2
1537911550164367,-2,1,3,3,0,0,-7,-4
1537911550166360,6,-1,-1,-3,-5,-2,-4,-2
1537911550166360,1,-2,-1,1,-1,-1,12,6
1537911550187303,-3,0,5,0,-1,0,0,-1
1537911550187303,-2,-5,-11,-3,-3,-2,5,5
1537911550188301,-9,-3,2,10,3,2,-6,-7
1537911550188301,13,8,2,-8,0,2,-4,-1
1537911550201266,0,7,22,6,-3,-3,3,0
1537911550201266,-9,-11,-26,-13,-6,-5,-7,-7
1537911550208248,12,-7,-30,-11,-3,0,-4,-2
1537911550208248,-11,-7,9,-2,0,1,-3,-4
1537911550225202,-14,6,-4,2,-1,1,6,0
1537911550225202,9,6,38,1,-2,-6,-1,1
1537911550226200,-3,-6,-27,-1,-1,1,3,4
1537911550226200,-1,-1,0,-1,1,-1,-11,-3
1537911550247144,6,-3,-7,1,0,0,0,0
1537911550247144,-11,10,9,8,5,-1,0,-8
1537911550249139,-4,2,15,0,-1,10,1,10
1537911550249139,15,3,-1,-5,-7,-39,-4,0
1537911550261108,12,1,-12,8,0,39,4,6
1537911550261108,-1,2,-2,-7,7,10,4,3
1537911550270085,-4,10,34,13,3,8,4,7
1537911550270085,-4,-2,21,26,9,-8,-1,4
1537911550285043,2,-14,-32,-16,-5,-71,-17,1
1537911550285043,3,-11,-7,-19,-7,43,3,-8
1537911550286043,-13,-5,-34,-15,-5,8,-5,-26
1537911550286043,2,-12,-34,-32,-9,-9,-1,29
1537911550306985,-15,3,15,-5,-2,2,24,9
1537911550306985,13,4,3,3,1,-25,-19,-4
1537911550308981,0,4,5,23,-1,0,5,2
1537911550308981,-1,8,20,-15,-2,7,0,-2
1537911550320946,-7,-4,14,1,-5,-7,21,-1
1537911550320946,0,-4,-18,23,4,6,0,1
1537911550329922,8,8,53,-11,-1,-1,-1,4
1537911550329922,2,0,-65,17,2,-10,-6,-14
1537911550344882,-5,0,38,-12,2,29,-6,6
1537911550344882,-5,-11,-16,-10,-7,-13,0,1
1537911550345880,-2,-15,-42,-35,-7,-39,0,1
1537911550345880,6,2,23,26,4,20,2,-6
1537911550367821,7,4,-6,-40,2,14,-5,-4
1537911550367821,-6,-1,14,10,-5,-14,-2,-2
1537911550368818,-3,4,8,16,3,-5,-6,-2
1537911550368818,-9,-5,2,-5,-2,15,9,-1
1537911550380786,5,2,-6,23,0,2,-6,-3
1537911550380786,-3,-2,-2,6,3,-9,-1,-2
1537911550389762,-2,-2,-1,-5,-1,5,-3,-1
1537911550389762,-6,0,11,1,-2,5,-14,-11
1537911550404722,0,-5,-12,13,0,-2,-1,-3
1537911550404722,-1,1,-3,-9,-1,-1,-4,1
1537911550406717,2,1,4,1,1,-3,2,0
1537911550406717,-3,1,3,2,1,5,-7,-5
1537911550427660,-1,-2,-10,1,0,-3,-8,-6
1537911550427660,2,2,-1,-8,-1,-1,-1,1
1537911550428658,-1,-2,2,5,0,3,4,1
1537911550428658,-4,-3,-4,-4,-3,-6,14,2
1537911550440626,-1,0,-7,-1,-1,-2,-6,-3
1537911550440626,-2,1,1,0,0,0,6,3
1537911550449602,2,-2,-1,2,0,3,-1,2
1537911550449602,-3,-1,0,-5,-1,3,-2,-2
1537911550464562,-8,-2,-2,0,0,-5,-2,-2
1537911550464562,4,0,1,3,-2,2,1,2
1537911550466557,3,-1,0,-1,-1,0,0,3
1537911550466557,-9,0,1,-2,0,0,-8,-7
1537911550487502,4,0,-1,3,-1,1,-2,-1
1537911550487502,1,-1,-2,1,2,-1,1,2
1537911550488500,-3,0,-2,0,-4,-1,-2,-3
1537911550488500,2,1,1,6,0,1,1,-1
1537911550501464,-8,-4,-3,4,-1,-1,-7,-3
1537911550501464,-2,-1,-1,1,-2,1,1,-2
1537911550509443,1,-1,1,1,0,0,3,2
1537911550509443,0,1,0,3,-2,1,-3,-2
1537911550524403,-1,-1,-4,2,-1,-3,-4,-4
1537911550524403,-1,0,-2,0,-1,-4,1,-1
1537911550526399,-3,-1,2,2,-1,1,-2,-2
1537911550526399,1,-1,0,-4,0,1,0,1
1537911550547342,1,-1,-2,-5,0,-4,-1,-1
1537911550547342,-1,-1,0,-2,-2,-2,1,1
1537911550548340,-3,-3,-3,-3,-2,-2,0,-1
1537911550548340,-8,-1,-2,-6,-2,0,-1,-3
1537911550561304,14,0,-2,-3,0,0,-1,1
1537911550561304,-3,0,-1,-4,-1,1,-3,0
1537911550570280,-1,-1,-1,-3,1,0,-2,-2
1537911550570280,3,-1,2,-4,-2,0,-3,0
1537911550584242,-5,-2,-4,-2,-1,-1,-1,-4
1537911550584242,-2,-1,0,-2,-1,-1,-1,0
1537911550586237,1,0,0,-1,-2,1,-4,0
1537911550586237,-1,-2,-2,-2,-2,-2,3,-1
1537911550607181,-2,-1,-2,-1,0,-1,2,0
