timestamp,emg1,emg2,emg3,emg4,emg5,emg6,emg7,emg8
1537920347922550,1,1,-1,-1,0,-6,-37,-2
1537920347922550,1,-1,1,0,-1,-1,-14,2
1537920347938507,0,-1,-1,-1,-1,-1,4,-2
1537920347938507,1,0,-1,-1,-1,-6,4,3
1537920347939505,-1,0,0,1,-3,-23,42,2
1537920347939505,0,-2,-2,-1,5,0,-14,0
1537920347940502,-2,-1,0,-1,4,55,-13,-4
1537920347940502,-2,-4,-4,-3,-13,-4,13,1
1537920347942497,0,1,0,-1,0,-26,-53,-5
1537920347942497,-2,0,0,2,5,-10,-7,-2
1537920347951473,1,0,0,-3,-18,10,17,-1
1537920347951473,-3,-1,-1,-2,4,-20,5,-3
1537920347958454,-2,-4,-2,-4,-10,28,15,9
1537920347958454,-3,-1,0,-2,1,6,-11,-4
1537920347966433,0,1,-1,2,7,-50,-18,4
1537920347966433,0,1,1,2,4,53,4,-2
1537920347981393,-2,-2,-2,-2,-2,1,4,9
1537920347981393,0,0,-1,-1,1,6,13,-12
1537920347996354,-1,-2,-2,0,1,-18,-6,-2
1537920347996354,-1,0,0,0,-4,-34,6,4
1537920348002337,-1,1,0,2,9,32,1,-6
1537920348002337,0,1,-3,-1,-4,9,17,7
1537920348017297,-2,-1,1,-3,-2,-2,-10,-2
1537920348017297,-1,-1,-1,0,0,-22,-22,-6
1537920348058188,1,-1,-1,0,3,0,-7,3
1537920348058188,0,2,-1,0,-4,1,4,0
1537920348058188,1,-2,0,-2,-1,-8,6,2
1537920348058188,-4,-2,-1,-2,-3,-1,-13,-8
1537920348062177,2,-1,-1,1,10,23,-57,3
1537920348062177,-2,-2,-1,-5,-16,0,49,-1
1537920348063174,0,0,2,0,1,1,12,7
1537920348063174,2,0,-2,-1,-17,-47,-25,4
1537920348069158,-4,-1,-1,-3,0,1,0,-4
1537920348069158,0,-1,-1,0,12,-8,-29,-1
1537920348078134,-3,-1,-2,-1,-6,5,25,-5
1537920348078134,-3,-3,0,0,1,18,3,-1
1537920348084118,-3,1,0,0,2,-10,3,-7
1537920348084118,-1,-1,-1,-2,5,2,-4,0
1537920348099079,-1,0,-1,-2,-7,6,2,-6
1537920348099079,1,1,-1,-1,1,0,-6,0
1537920348107057,-2,-1,-1,0,-4,-23,-15,-5
1537920348107057,2,0,1,-1,-3,28,43,3
1537920348122017,0,0,-1,-1,1,-21,-44,2
1537920348122017,2,-2,0,1,6,35,53,-1
1537920348128998,-1,1,0,-1,-4,2,12,1
1537920348128998,1,-1,-1,1,-1,-2,9,0
1537920348144956,-2,-1,-1,1,4,0,-14,-1
1537920348144956,1,2,-1,1,5,3,13,-1
1537920348145953,-2,-2,-3,-5,-10,-29,-32,-2
1537920348145953,-1,-2,-1,-1,-8,-4,23,0
1537920348167894,-1,-1,-2,-3,-2,4,1,-4
1537920348167894,-2,0,0,1,12,1,2,0
1537920348167894,1,1,1,2,3,2,-1,-2
1537920348167894,0,0,-3,-4,-10,-31,-59,1
1537920348189836,0,0,-1,1,-6,-19,-4,-3
1537920348189836,0,-1,1,-1,0,49,9,6
1537920348190833,-1,-2,-3,-3,-6,10,21,4
1537920348190833,-2,0,-2,1,5,-1,-3,-3
1537920348204796,-1,0,0,-1,4,-22,-29,-2
1537920348204796,-1,-1,-1,-1,4,10,-10,-6
1537920348212774,0,0,1,0,-5,-6,14,1
1537920348212774,-1,-1,0,0,0,-18,-18,0
1537920348227734,0,-1,-2,0,5,43,20,1
1537920348227734,0,0,0,0,1,-32,-24,-4
1537920348227734,-4,-2,-2,-2,-2,15,18,-1
1537920348227734,-2,-1,-1,0,0,-3,-8,1
1537920348249676,-1,0,-2,0,-2,-11,0,-5
1537920348249676,-1,-2,-1,-1,-14,-10,-5,4
1537920348250673,2,-3,-2,-1,1,11,26,3
1537920348250673,-2,0,-2,-2,-4,-56,-8,-2
1537920348264636,-3,-1,1,3,15,77,0,-3
1537920348264636,-2,-2,-2,-3,-12,-16,-11,-5
1537920348265633,0,1,0,1,-2,-16,-41,-6
1537920348265633,-1,-1,-1,-3,3,19,13,0
1537920348287574,0,-1,-1,-2,-8,-26,-7,2
1537920348287574,0,-3,-1,0,4,-13,0,3
1537920348288572,0,0,0,0,6,21,16,-1
1537920348288572,0,0,2,5,3,7,16,-4
1537920348309516,-1,-1,0,-2,-4,-45,-16,-2
1537920348309516,-1,0,-2,-5,-9,28,-7,-4
1537920348310513,-2,-1,-1,-1,-9,-15,10,-1
1537920348310513,0,0,-1,-1,4,30,3,-4
1537920348325473,0,-2,-1,1,3,-1,18,0
1537920348325473,-4,-2,1,0,3,-17,-15,-8
1537920348325473,-1,-1,0,-1,-1,3,37,8
1537920348325473,0,1,0,1,8,-13,-14,4
1537920348347414,-1,0,-2,-1,-7,48,21,2
1537920348347414,0,0,-1,-4,-5,-18,-31,-5
1537920348348412,-2,1,-1,1,1,10,-10,-4
1537920348348412,-1,-3,-1,-1,-1,4,-9,0
1537920348370353,-1,-1,0,1,-2,-19,-6,3
1537920348370353,1,2,-2,1,6,2,26,5
1537920348371351,0,-2,-2,-5,-10,-21,-1,-2
1537920348371351,0,-2,-1,-3,-4,13,1,-3
1537920348385313,-2,-2,-1,-3,-7,-7,-93,-7
1537920348385313,0,1,0,2,7,5,42,0
1537920348385313,1,0,-2,-4,-6,-22,14,1
1537920348385313,-2,-2,0,1,6,35,-17,-6
1537920348407254,1,-2,-2,-3,-1,-8,-5,2
1537920348407254,-2,-2,-1,-1,-1,-4,21,-1
1537920348408252,1,1,1,2,7,-11,-10,3
1537920348408252,-2,-2,-1,-2,-3,-7,-8,-3
1537920348431190,-2,-1,-1,0,3,5,23,-5
1537920348431190,0,-1,-1,-4,-7,-14,-10,-3
1537920348431190,-2,-1,-3,0,-4,14,7,0
1537920348431190,0,0,-1,-1,-4,2,-13,0
1537920348445153,-1,-1,1,1,4,2,14,-3
1537920348445153,-3,-2,-2,-1,1,-44,-22,0
1537920348446151,1,-2,-1,0,0,39,-3,-2
1537920348446151,0,1,2,0,0,16,27,0
1537920348467095,0,-1,-2,-1,-3,-1,13,6
1537920348467095,-3,-1,-3,-1,-5,-7,3,-3
1537920348468092,2,3,2,2,12,-1,0,-2
1537920348468092,-1,-2,-3,-3,-13,-29,-17,1
1537920348491032,-1,0,-1,-3,-2,20,15,-6
1537920348491032,-1,-2,-1,0,2,10,10,2
1537920348491032,0,-1,0,1,6,-3,-22,1
1537920348491032,0,-1,-2,-3,-8,-10,7,-4
1537920348504995,0,1,-1,-2,-12,-20,-14,5
1537920348504995,2,0,0,0,0,1,-23,-2
1537920348505992,-2,-4,-1,1,4,10,-33,-10
1537920348505992,3,2,0,-1,5,-8,53,11
1537920348527933,-2,-2,-1,-1,-8,5,-4,3
1537920348527933,1,-2,1,2,1,15,20,1
1537920348527933,-3,0,1,-1,1,-2,-25,-9
1537920348527933,-4,-2,-2,-1,-3,-19,-28,-9
1537920348550872,0,0,-1,-2,-3,-9,14,-5
1537920348550872,1,0,1,3,5,20,-14,12
1537920348550872,0,0,4,1,0,0,19,8
1537920348550872,-3,-4,-9,-11,-13,-32,-33,-5
1537920348564835,-2,2,6,10,35,16,48,7
1537920348564835,-3,-4,-6,-12,-44,-3,-28,-16
1537920348565832,2,1,-2,-4,-16,-23,28,10
1537920348565832,5,0,1,9,30,52,-9,23
1537920348587774,3,1,1,-5,-20,-25,15,-7
1537920348587774,-2,-3,-8,-8,-7,-14,-19,-6
1537920348587774,-3,0,0,4,8,-7,-5,-19
1537920348587774,-3,-1,0,-2,-8,3,-25,-4
1537920348609713,-1,0,-1,3,15,7,23,10
1537920348609713,-4,-2,2,3,11,-3,5,1
1537920348610711,4,-5,-2,-7,-6,2,14,19
1537920348610711,6,0,1,2,9,-1,-6,-18
1537920348624673,-9,1,7,3,-3,0,-7,-18
1537920348624673,9,-1,7,-2,0,7,-1,22
1537920348625671,-20,-3,-10,4,3,2,23,-36
1537920348625671,3,2,7,4,-6,0,-1,2
1537920348647612,-37,-7,-17,-13,-4,5,-34,-35
1537920348647612,23,-3,3,-2,-5,-15,34,5
1537920348648609,6,2,1,-4,-1,3,-6,21
1537920348648609,4,2,2,3,0,6,-7,-9
1537920348669554,-18,-7,1,0,1,-6,8,-26
1537920348669554,-8,4,19,7,15,20,18,-12
1537920348670551,0,-6,-13,1,-4,-2,-9,-11
1537920348670551,4,1,-5,-4,-8,-9,2,0
1537920348685512,4,-3,1,0,-4,-7,-10,15
1537920348685512,9,3,-6,-2,2,3,15,17
1537920348685512,14,4,4,-4,-1,3,-27,15
1537920348685512,-13,1,1,1,0,14,22,-27
1537920348707453,-16,0,5,7,8,-2,25,-4
1537920348707453,-1,-1,-6,-1,-2,-8,-9,8
1537920348708452,-5,0,3,0,-2,4,5,-12
1537920348708452,-12,-6,-2,-3,-2,-6,-19,-23
1537920348730391,14,1,1,0,-1,-6,5,18
1537920348730391,-2,4,-6,2,3,25,-3,3
1537920348730391,-1,-4,-1,-5,-7,-6,17,3
1537920348730391,-12,-3,3,6,13,2,-55,-38
1537920348744354,24,5,-1,-4,-19,22,73,32
1537920348744354,-9,3,1,3,2,-60,-91,-5
1537920348752332,1,1,-1,-3,-5,-55,-32,-14
1537920348752332,0,0,-1,3,5,77,102,16
1537920348767292,33,0,-2,-7,-11,-11,-59,34
1537920348767292,-6,0,13,-1,7,22,29,-4
1537920348768290,-12,-13,-31,-5,-13,-10,-1,-12
1537920348768290,9,-1,-5,-3,-1,-22,-24,43
1537920348790231,5,0,-10,-1,5,-1,-3,-1
1537920348790231,-5,0,9,7,12,-2,-3,3
1537920348790231,0,1,8,-2,-5,18,-22,-10
1537920348790231,-5,-1,-2,-4,-6,-16,17,5
1537920348804194,-15,-4,2,3,8,1,-33,2
1537920348804194,6,-2,-8,-2,-1,14,43,14
1537920348812172,-1,1,5,0,1,-5,-37,8
1537920348812172,5,-4,-5,0,-1,-22,11,71
1537920348827132,-1,0,2,-8,-19,-2,-32,-21
1537920348827132,-11,-4,-4,2,-2,-1,41,-15
1537920348828130,2,2,3,4,23,13,-6,5
1537920348828130,-10,0,4,-5,-29,-13,-1,-28
1537920348850071,12,-1,-4,1,10,-27,-34,-2
1537920348850071,-5,-3,-7,-6,2,21,12,-13
1537920348851068,-2,1,5,0,-14,-1,8,10
1537920348851068,1,-3,-1,-1,9,5,-17,-7
1537920348864034,2,1,0,-2,2,4,17,11
1537920348864034,0,-3,-5,-3,-12,-20,-20,-21
1537920348872013,-2,-2,3,1,9,25,13,3
1537920348872013,6,-2,-5,-6,0,-18,-10,7
1537920348887971,5,-1,-3,0,3,19,-2,-4
1537920348887971,1,1,-3,-5,3,0,-1,7
1537920348887971,3,-2,4,2,1,-4,10,0
1537920348887971,-18,-3,8,1,-3,0,10,-22
1537920348909912,-33,-10,-13,0,-1,-7,12,-32
1537920348909912,-4,-1,-4,-3,-7,-4,-22,8
1537920348910910,31,14,5,3,-1,-2,24,-9
1537920348910910,4,0,10,3,3,7,3,-6
1537920348923875,-12,-4,1,5,9,-5,1,-65
1537920348923875,0,-2,-2,4,19,16,-6,68
1537920348932851,-2,-4,-9,-18,-33,-73,-5,37
1537920348932851,5,9,6,0,-14,43,-19,-21
1537920348947811,9,3,3,-1,-8,-20,11,-11
1537920348947811,-13,-2,-5,-4,-6,-5,-39,-28
1537920348947811,-10,-5,-1,1,17,32,-14,-11
1537920348947811,1,1,-3,1,8,-25,-22,-19
1537920348970264,-7,-1,0,-1,-1,-2,-8,27
1537920348970264,-15,-14,-6,-1,-4,-4,15,-11
1537920348970264,-6,14,2,0,0,6,20,-20
1537920348970264,34,-20,-13,-10,-8,-2,-57,16
1537920348984226,8,37,14,4,4,14,33,-19
1537920348984226,19,23,-8,1,0,-15,-24,-8
1537920348992205,-4,-21,4,5,3,22,10,-25
1537920348992205,-45,-14,-11,-2,-2,-30,-53,-63
1537920349007166,16,-8,-1,-3,-1,34,61,56
1537920349007166,-4,-3,4,0,-6,-16,-34,-33
1537920349008163,-1,1,-6,-3,-3,-15,74,43
1537920349008163,-5,16,-9,-9,-8,-6,-66,41
1537920349029105,1,-10,9,8,16,1,28,-28
1537920349029105,-16,-7,1,-1,-7,-15,38,-11
1537920349038081,-5,2,-5,-1,0,28,-5,-13
1537920349038081,3,5,5,4,5,-20,14,20
1537920349053041,-7,6,-5,-8,-15,-45,-45,18
1537920349053041,-4,-35,5,0,10,47,18,-16
1537920349055036,-12,-1,7,-5,-20,-41,-16,-44
1537920349055036,5,-3,-14,0,7,37,30,-16
1537920349075980,8,2,-3,-1,2,11,-3,14
1537920349075980,10,1,-2,-4,-15,-44,-7,30
1537920349076977,4,-6,1,-1,0,11,-28,-40
1537920349076977,6,4,4,1,2,-5,61,25
1537920349088945,-10,-17,-1,0,-4,24,-72,-38
1537920349088945,4,4,-2,0,10,-5,26,5
1537920349097921,-4,1,0,1,2,-3,-27,-15
1537920349097921,-3,-2,-4,-3,3,4,82,9
1537920349112881,-5,9,0,3,-3,-15,-33,3
1537920349112881,5,-3,1,-1,2,1,26,-1
1537920349114876,14,2,0,7,1,25,4,27
1537920349114876,3,-4,14,1,11,19,-13,8
1537920349135819,8,-5,-1,-3,-28,-74,-44,6
1537920349135819,-7,5,-4,-4,-8,40,-2,-44
1537920349136817,-1,4,-2,-1,7,-30,3,26
1537920349136817,-5,-2,-1,-3,-7,-8,-9,-10
1537920349149782,-5,-7,-9,-4,4,3,22,18
1537920349149782,-7,8,0,-2,2,-3,-28,-19
1537920349157761,-16,-6,-3,2,8,10,-30,-16
1537920349157761,23,2,-3,-2,-11,-20,-48,36
1537920349172721,8,-1,3,2,8,25,94,35
1537920349172721,-2,-1,-2,7,-2,-21,26,38
1537920349174716,2,24,-2,-5,-4,25,-49,5
1537920349174716,-24,-14,3,3,2,5,13,-40
1537920349195660,12,3,-3,-2,3,-3,21,-6
1537920349195660,-1,-4,0,0,11,30,17,0
1537920349196658,-19,-17,-5,-3,-6,-20,-20,10
1537920349196658,20,19,1,-1,-21,-19,-30,-18
1537920349209623,0,-1,-4,-4,4,13,44,46
1537920349209623,0,4,1,2,2,-14,-52,-21
1537920349218599,6,-6,-2,-5,-3,-2,4,47
1537920349218599,-5,0,1,1,-4,-12,51,4
1537920349233558,-14,-18,-3,-1,3,-4,-6,-15
1537920349233558,-2,10,5,2,1,39,-18,-12
1537920349234556,-11,-25,-5,0,6,-15,-28,-24
1537920349234556,3,12,12,3,4,45,113,-9
1537920349255500,-5,1,-11,-3,-2,-9,-62,-40
1537920349255500,-10,-2,-2,-5,-8,-30,36,-16
1537920349257494,-9,9,3,10,11,36,61,-7
1537920349257494,14,-8,-9,-7,-4,-12,19,28
1537920349269462,-3,6,7,2,2,-17,-8,-42
1537920349269462,9,8,-3,-5,-11,26,-53,0
1537920349278438,0,-5,1,2,0,5,41,1
1537920349278438,-10,4,-2,0,-1,-24,-39,-4
1537920349293398,4,-14,-8,0,7,14,-10,16
1537920349293398,11,2,4,-3,-16,37,44,24
1537920349299382,-10,2,1,-1,-3,-29,-3,6
1537920349299382,-12,-4,-3,0,7,-4,-46,3
1537920349323318,7,-2,-2,-3,-6,-7,9,-4
1537920349323318,-5,9,1,3,9,2,71,47
1537920349324315,15,-21,-2,3,3,9,54,82
1537920349324315,14,19,-4,-2,-2,10,-28,-6
1537920349329302,-13,6,3,3,8,-7,-61,-28
1537920349329302,-18,-10,-7,-8,-20,-38,60,-12
1537920349338279,-3,10,2,2,2,9,-95,-54
1537920349338279,4,-20,-3,0,4,49,46,37
1537920349353238,2,24,-2,-1,-8,-1,5,17
1537920349353238,-13,-7,-1,-2,-1,-9,-47,-9
1537920349354236,13,2,-8,-7,-3,-28,-35,-25
1537920349354236,-2,12,5,7,7,12,0,-5
1537920349376177,-10,-17,-1,-1,-3,4,-12,-23
1537920349376177,9,-6,-1,-2,-6,-2,-33,-26
1537920349377174,3,1,0,2,2,8,40,11
1537920349377174,-8,-8,-7,-6,-7,-32,-50,-6
1537920349389142,9,1,3,2,15,62,54,25
1537920349389142,13,-4,-3,2,-9,-43,-26,11
1537920349406097,3,13,9,3,5,13,54,4
1537920349406097,-3,1,0,2,-2,-46,-21,-18
1537920349413078,1,-6,-6,-7,-11,22,-39,9
1537920349413078,10,-5,-5,-2,8,2,4,-1
1537920349415073,-2,8,2,0,-7,-30,-15,-15
1537920349415073,-10,-12,-3,-1,6,6,23,-41
1537920349436017,-7,0,2,-2,-8,-10,-28,-15
1537920349436017,-7,10,1,0,4,9,-37,-4
1537920349437014,-16,-26,-6,-4,-7,0,12,-9
1537920349437014,9,30,-2,7,6,-5,-8,22
1537920349457958,18,-16,2,-3,-11,-44,-10,-3
1537920349457958,-8,3,0,-5,-12,12,20,-4
1537920349459953,5,0,-4,-3,9,18,24,4
1537920349459953,-7,-9,0,-6,-16,24,19,-6
1537920349472918,-18,-13,-3,-1,0,-19,-48,-34
1537920349472918,12,15,1,5,11,-32,-35,-23
1537920349474913,11,1,1,-1,-11,-8,15,-3
1537920349474913,-5,-15,-3,-6,3,34,-4,37
1537920349495857,-2,8,3,2,2,-4,8,3
1537920349495857,-13,-9,-1,4,8,-10,29,-25
1537920349496854,9,10,-5,-6,-9,59,21,36
1537920349496854,-4,-6,2,3,5,-28,-74,-15
1537920349517798,-8,2,-2,-1,2,7,49,-16
1537920349517798,0,-3,-3,-3,-5,12,-19,-8
1537920349519793,7,7,2,4,0,-43,-24,21
1537920349519793,0,-3,-5,-7,-11,-2,-7,21
1537920349532758,-6,-5,0,0,14,12,20,8
1537920349532758,1,-4,-1,1,-4,-1,33,57
1537920349539739,13,6,0,-7,-14,1,-59,-19
1537920349539739,-16,-2,2,5,7,-13,53,-23
1537920349555697,10,4,4,0,-6,-22,0,26
1537920349555697,-5,2,-1,3,12,-7,0,-30
1537920349556694,-11,-11,-10,-3,7,28,-29,-28
1537920349556694,-6,-9,15,5,4,-9,6,-4
1537920349578635,1,2,0,0,2,21,-3,4
1537920349578635,2,-25,-6,-8,-9,-34,-13,22
1537920349579633,-12,9,0,3,11,41,-11,-26
1537920349579633,33,1,-3,-2,-7,-20,66,15
1537920349600577,-2,-4,0,-5,-14,-13,11,16
1537920349600577,4,4,5,-3,-3,25,-7,3
1537920349602572,1,-7,-1,0,9,-24,14,14
1537920349602572,-13,-10,-9,-2,0,2,-64,-39
1537920349615537,-1,15,6,3,-10,-36,51,-22
1537920349615537,13,4,-4,-1,2,40,60,60
1537920349617532,-16,-6,-2,-2,-3,-7,22,-10
1537920349617532,-5,2,-1,-2,2,-1,-20,-21
1537920349638476,0,0,-5,-2,3,-20,-32,32
1537920349638476,-4,2,0,2,11,-5,-41,-27
1537920349639473,9,-3,1,-2,-8,15,2,12
1537920349639473,-9,-3,-3,-3,-12,-18,-6,2
1537920349653436,12,-1,-5,-5,-4,34,-6,32
1537920349653436,-11,-3,0,3,9,-4,3,-19
1537920349654433,2,2,3,1,4,7,-26,-4
1537920349654433,3,4,1,1,-2,-38,29,20
1537920349675377,-9,-4,-2,2,7,74,-33,-29
1537920349675377,-6,4,0,-1,-1,-8,45,-10
1537920349677372,-7,1,0,2,-3,-37,-36,-6
1537920349677372,0,-3,6,-2,2,28,7,-10
1537920349698316,-3,-2,-12,-1,-3,-9,17,-18
1537920349698316,8,0,1,-7,-16,-20,-60,27
1537920349699313,5,-6,1,-2,0,36,69,21
1537920349699313,-8,-7,-3,2,14,-27,0,-2
1537920349713276,3,5,5,1,-14,31,-17,-2
1537920349713276,-5,-2,-1,2,7,23,-39,-51
1537920349719260,-6,6,1,-2,-18,-38,-25,-35
1537920349719260,4,0,-1,2,5,22,14,2
1537920349735217,-5,-1,-2,-2,-1,-22,-26,-6
1537920349735217,13,-4,-2,1,5,-9,27,39
1537920349737212,10,2,-1,-2,1,8,-3,27
1537920349737212,4,3,-3,-2,-6,2,-4,11
1537920349758156,-2,-9,-1,-1,0,-28,-32,9
1537920349758156,-12,-5,1,-2,-6,11,-10,-21
1537920349759153,-20,-13,-3,-1,1,-20,-17,-13
1537920349759153,-2,-2,-3,-2,-3,39,10,-1
1537920349772119,9,5,-2,1,5,-24,15,0
1537920349772119,5,4,3,2,-2,-13,-17,17
1537920349779100,-6,1,-1,-5,-8,24,-12,-5
1537920349779100,-7,-3,-4,-5,0,-12,-37,-17
1537920349796054,-6,-6,3,2,11,21,104,4
1537920349796054,19,6,0,0,-8,-13,8,-2
1537920349797052,23,-3,-5,-4,-3,1,-37,10
1537920349797052,-3,3,-1,2,-3,-12,11,-4
1537920349817997,-9,1,0,2,16,7,-3,-15
1537920349817997,14,-3,-2,-1,-21,-11,-29,49
1537920349819991,-7,3,1,2,4,-18,42,26
1537920349819991,16,-1,-5,-2,-7,14,4,-4
1537920349840935,-3,3,3,1,2,2,-36,3
1537920349840935,-11,-2,1,1,11,7,39,-24
1537920349841933,-10,-9,-3,1,1,-20,-15,-16
1537920349841933,-1,-2,-3,-3,-9,-5,-12,19
1537920349855895,-11,-6,0,-3,-9,-26,-5,-33
1537920349855895,1,15,1,0,1,17,33,-3
1537920349856893,14,8,-1,0,11,-13,22,6
1537920349856893,-5,-5,0,2,-4,34,26,-7
1537920349877836,5,3,-3,-3,-9,10,-26,-5
1537920349877836,1,-7,-3,-3,-5,-14,-11,-23
1537920349879831,-9,-3,1,3,8,-15,8,2
1537920349879831,-5,1,-2,-2,8,27,5,0
1537920349892796,2,-1,-3,-5,-11,-15,-39,10
1537920349892796,-2,-1,-2,-1,1,13,64,-35
1537920349899778,8,1,2,2,2,-12,10,41
1537920349899778,13,1,1,-1,0,-6,-7,48
1537920349922719,7,-1,0,-2,5,-5,-6,15
1537920349922719,-10,-7,-4,-2,2,-4,-30,6
1537920349924713,-13,1,-2,-5,-16,-15,16,-44
1537920349924713,-9,0,0,-1,-1,-3,11,-15
1537920349937676,3,9,1,1,2,22,-18,10
1537920349937676,-2,-14,-1,-1,6,-43,5,19
1537920349939671,-10,-1,-1,-1,8,49,10,-46
1537920349939671,9,1,3,3,-4,-24,-20,36
1537920349952636,-2,-1,-2,-5,-6,-12,-4,-13
1537920349952636,-12,-10,1,2,3,24,-4,-15
1537920349959709,-2,3,-3,-1,-6,-23,-20,-16
1537920349959709,-4,-4,-3,-3,1,-12,13,-21
1537920349975575,-6,4,-2,0,-2,15,17,-42
1537920349975575,-8,-7,-2,-3,-12,-3,-43,6
1537920349977569,8,-4,-1,0,2,-6,7,0
1537920349977569,2,3,-2,-3,-3,2,-18,0
1537920349998513,19,0,0,1,10,13,16,29
1537920349998513,-4,6,-1,-3,-5,-16,-24,-25
1537920349999511,-7,-3,1,0,0,10,-8,-32
1537920349999511,-8,1,-1,-1,-12,-9,-5,16
1537920350012477,4,-4,-1,1,-1,-17,-7,2
1537920350012477,-9,-3,-3,2,8,-12,-2,-22
1537920350019459,15,0,-3,-5,-8,55,26,15
1537920350019459,9,10,2,2,2,-29,-19,0
1537920350035416,-11,-9,-5,-3,-4,4,-55,-9
1537920350035416,4,8,0,2,7,-6,-1,-43
1537920350037412,-17,-3,2,1,0,-2,12,3
1537920350037412,13,-2,-5,-6,-2,4,13,9
1537920350058354,3,3,2,-2,-5,-17,-5,13
1537920350058354,4,-4,-2,-1,5,10,-11,-10
1537920350059351,-12,-3,-2,0,-2,4,-4,-14
1537920350059351,-9,-15,0,1,5,54,27,-12
1537920350071320,13,14,4,2,1,-20,9,5
1537920350071320,3,-12,-5,-4,-7,1,-8,27
1537920350080295,13,11,0,-3,4,-25,-8,23
1537920350080295,-7,-6,-1,0,-3,10,-5,-6
1537920350095255,-11,-7,1,-1,-6,-19,21,-19
1537920350095255,-8,2,-1,0,9,28,-22,3
1537920350097249,-2,-3,1,4,2,13,31,-5
1537920350097249,-9,0,-2,-1,6,-27,-6,-11
1537920350118193,-9,-7,-2,-3,-9,-5,-15,3
1537920350118193,8,8,-1,-1,-8,28,36,-1
1537920350119191,-3,-2,0,0,3,-26,-31,5
1537920350119191,-6,2,3,4,17,-11,-23,-24
1537920350132156,-1,-6,-6,-8,-25,18,3,-6
1537920350132156,1,5,1,-2,4,-14,7,20
1537920350141133,1,6,-1,-1,-3,-6,25,3
1537920350141133,-11,-14,-1,2,-2,-26,-15,-15
1537920350156094,4,-4,-1,0,7,23,13,3
1537920350156094,-4,34,2,-3,-6,9,-39,20
1537920350157092,14,-21,3,4,3,1,12,-3
1537920350157092,1,3,-2,-2,-8,-25,-15,-3
1537920350178035,-7,3,1,4,6,-7,13,5
1537920350178035,6,-9,-6,-4,-4,3,11,1
1537920350180031,1,4,0,0,2,15,-7,24
1537920350180031,1,5,0,-3,-3,2,2,-12
1537920350191998,-9,-9,0,-1,5,21,9,-15
1537920350191998,-1,-2,0,0,5,-6,-28,-2
1537920350200974,-2,2,-4,-2,-8,-33,-19,-3
1537920350200974,1,-5,-1,-5,-13,26,0,-10
1537920350215933,-3,4,0,-2,3,13,38,26
1537920350215933,-5,-2,2,3,0,-17,-21,6
1537920350216931,1,-1,-3,-1,3,-8,-19,3
1537920350216931,3,-1,-2,0,0,6,38,6
1537920350238873,0,6,1,3,4,-12,-24,13
1537920350238873,1,-18,0,1,4,3,3,-3
1537920350239870,-32,-1,-2,-2,-5,22,38,-22
1537920350239870,10,2,0,0,-1,-10,-2,13
1537920350260814,-6,0,1,2,1,-7,-11,-18
1537920350260814,0,0,-2,-3,-1,-4,-8,9
1537920350261811,-5,-8,-3,1,-3,7,14,-23
1537920350261811,-9,1,-3,-3,-2,2,29,43
1537920350275772,14,1,0,-1,-1,-6,24,8
1537920350275772,-3,1,1,1,-5,-14,-26,-10
1537920350277767,8,3,1,1,5,19,-39,1
1537920350277767,-13,2,2,0,-9,-25,-4,-13
1537920350297713,5,-6,-6,-5,-2,9,35,21
1537920350297713,7,2,2,3,1,10,29,12
1537920350299708,-1,4,1,2,5,1,14,40
1537920350299708,5,-1,-1,0,5,-4,-64,-11
1537920350311676,-9,-3,-4,-6,-7,-36,10,18
1537920350311676,-15,-7,-1,-2,-3,17,-29,-55
1537920350320652,19,2,-2,-3,-15,0,28,-9
1537920350320652,-6,0,0,1,15,22,-3,-4
1537920350335612,2,-3,0,-2,-20,-46,-53,52
1537920350335612,-5,1,2,5,12,5,40,-42
1537920350336610,4,-1,-5,-7,-3,40,-38,-8
1537920350336610,-9,2,2,1,9,20,84,-11
1537920350358551,2,-3,-2,-1,-1,12,-9,12
1537920350358551,2,0,-1,-3,-8,-16,31,33
1537920350359548,11,3,1,-1,0,-24,-30,-15
1537920350359548,-21,-7,0,-2,-9,-17,-5,-22
1537920350371516,-20,-7,-2,0,3,50,-27,-57
1537920350371516,13,2,0,3,8,18,42,40
1537920350380492,2,3,3,0,0,-28,8,13
1537920350380492,10,5,-1,0,0,8,13,1
1537920350395452,-26,-3,-1,4,4,-39,-66,-83
1537920350395452,3,1,-1,-5,-9,3,89,6
1537920350397447,-6,-6,-2,-1,3,2,-29,-19
1537920350397447,6,-2,-1,-2,-7,-4,-22,-2
1537920350418391,2,3,1,-2,-2,8,4,-8
1537920350418391,0,-5,-6,-5,-2,1,-44,-2
1537920350419388,-7,-1,1,1,6,-23,12,13
1537920350419388,17,1,-2,-4,-8,-42,-36,7
1537920350431356,-6,1,-1,0,2,82,51,18
1537920350431356,5,4,1,1,2,11,8,8
1537920350440333,3,0,-2,0,8,10,30,-31
1537920350440333,-4,-3,-2,0,-8,-28,-16,9
1537920350455293,3,-2,-1,-5,-9,-25,29,-8
1537920350455293,-7,-8,-2,-3,-3,-10,-36,-26
1537920350457287,-8,-4,-2,-3,-8,8,1,-2
1537920350457287,8,-7,-5,-2,7,2,-28,-1
1537920350478231,-6,6,3,5,8,-4,3,-8
1537920350478231,17,0,-2,-3,-13,-8,-30,2
1537920350479228,4,-2,-1,-2,-2,-42,-14,-5
1537920350479228,-16,-3,-1,1,10,51,27,-12
1537920350492194,32,1,-1,-2,-10,11,-35,-6
1537920350492194,-1,5,-1,0,2,-8,15,-11
1537920350501170,-6,-5,-2,0,0,-2,-31,46
1537920350501170,0,3,0,-1,2,-2,-18,-25
1537920350516130,-5,-3,-2,-2,-1,-12,29,3
1537920350516130,-6,-1,-1,-1,-8,-6,-46,-16
1537920350517127,2,-4,-2,-5,-6,18,19,-2
1537920350517127,-11,2,2,2,2,5,2,-23
1537920350538071,13,-2,-2,-1,8,-11,-8,33
1537920350538071,-11,-4,-2,-2,2,-9,-8,-24
1537920350540065,-2,4,1,2,3,15,51,-21
1537920350540065,3,-3,-1,-2,-12,-24,2,43
1537920350561009,-1,-3,-1,-1,8,23,31,28
1537920350561009,-3,0,1,0,-16,-21,-9,-5
1537920350562007,-6,-3,-2,-1,-2,-20,-9,5
1537920350562007,-5,0,0,-3,-10,8,-5,-17
1537920350575970,1,-1,0,1,3,-4,-5,-12
1537920350575970,-7,-4,0,3,14,51,-3,16
1537920350576967,0,0,-2,1,1,-12,-28,-7
1537920350576967,4,2,0,2,-1,6,53,-5
1537920350597911,-6,-3,-3,-3,-4,-44,-6,3
1537920350597911,2,-1,-1,-4,-7,-45,-16,15
1537920350599906,0,-3,-1,-6,-7,65,2,7
1537920350599906,-1,1,0,1,5,-6,-21,-23
1537920350620851,-2,-2,-1,1,-7,-57,-10,-14
1537920350620851,4,0,-1,0,1,43,32,50
1537920350621848,-5,-3,0,3,8,-2,0,-24
1537920350621848,1,-5,-4,-3,-5,-3,2,13
1537920350635811,6,9,3,4,14,40,-6,3
1537920350635811,-1,0,-3,-4,-11,-33,-5,-14
1537920350636809,-8,-1,-1,-1,-6,-54,-46,-8
1537920350636809,0,-1,3,3,15,93,37,-26
1537920350657757,-1,-2,-3,-4,-13,-2,-1,-3
1537920350657757,-1,0,0,0,-1,3,-8,-10
1537920350659746,7,2,-2,1,14,-18,-13,24
1537920350659746,0,1,0,-1,-12,-25,-24,4
1537920350680690,-1,-3,0,0,-1,-8,23,6
1537920350680690,-1,-2,-4,-3,-9,10,57,-10
1537920350681687,-3,1,1,1,0,-3,-8,59
1537920350681687,12,-1,-3,-3,0,-40,-36,-2
1537920350694652,-3,-3,0,0,7,60,32,7
1537920350694652,-3,-1,0,-1,3,-10,-28,0
1537920350709612,-10,-4,-4,-5,-10,-15,25,-25
1537920350709612,13,0,-3,-1,6,33,26,29
1537920350717591,-7,-1,-1,-3,-9,-39,-22,-15
1537920350717591,9,-1,2,0,8,-2,2,3
1537920350719586,-4,-1,-1,-3,-12,44,-9,-32
1537920350719586,-5,0,-2,0,8,-9,-48,-4
1537920350740530,6,-2,-3,-3,-16,-24,28,10
1537920350740530,-11,-2,1,2,14,19,-6,-8
1537920350742524,5,0,-1,-1,-9,-28,-16,-4
1537920350742524,-10,-4,-2,-5,-13,-21,4,-2
1537920350754492,7,2,1,2,2,7,-6,-5
1537920350754492,2,-2,-2,0,5,16,-21,-24
1537920350761474,8,-1,-1,-1,2,3,35,51
1537920350761474,-8,0,0,3,6,4,-15,-21
1537920350778428,0,1,0,1,0,-45,25,19
1537920350778428,-5,-1,-1,-2,1,27,-37,-1
1537920350779426,9,0,0,0,-5,21,62,-10
1537920350779426,-4,-1,-1,-2,-4,-27,-9,11
1537920350800370,1,-1,0,-1,5,4,-6,19
1537920350800370,-1,-1,-2,-1,-3,-11,7,15
1537920350802364,-2,-2,0,1,3,-12,-23,-18
1537920350802364,-3,1,0,-3,-10,-12,-2,15
1537920350815329,-11,-5,-3,-4,3,17,4,-22
1537920350815329,16,4,4,7,11,-7,-5,14
1537920350829292,-3,0,-1,-3,-21,16,33,3
1537920350829292,2,-1,1,2,-3,-30,-27,26
1537920350838269,3,-4,-4,-5,-3,16,-7,-9
1537920350838269,-1,0,-2,-3,-3,20,27,20
1537920350839266,-4,0,-2,1,9,4,28,10
1537920350839266,1,0,-1,0,2,15,6,-20
1537920350860210,-6,-1,0,-1,0,-17,-17,-10
1537920350860210,-2,-2,-2,-1,4,-14,-3,-4
1537920350862204,-3,-3,0,0,-2,-6,-32,-25
1537920350862204,8,0,-2,-3,-5,3,-49,5
1537920350875170,-7,-3,-2,2,10,34,76,-11
1537920350875170,3,0,-2,0,0,-18,-6,-3
1537920350882152,5,1,-3,-5,-15,-11,-38,-17
1537920350882152,-7,-3,-2,-4,4,1,38,-15
1537920350898108,15,2,1,1,-4,8,-69,-32
1537920350898108,3,-2,-2,-2,-4,-11,68,32
1537920350899106,-5,-1,1,0,-2,-17,-57,-13
1537920350899106,-8,-3,-2,-1,2,5,51,0
1537920350921047,-7,0,1,1,4,5,-15,-16
1537920350921047,-7,-2,0,2,7,8,-8,1
1537920350922044,1,0,-1,-1,-4,-24,-29,-29
1537920350922044,2,-2,-3,-2,-8,8,5,5
1537920350935010,0,0,-2,-2,1,3,-8,4
1537920350935010,-2,0,1,-1,-13,-25,-27,17
1537920350941991,-4,0,0,2,19,25,9,12
1537920350941991,0,-2,0,-1,-8,2,12,-7
1537920350957948,0,-1,-1,0,-10,-31,11,-16
1537920350957948,-5,-2,-2,-1,7,22,-15,-15
1537920350959943,1,-1,-3,-3,1,18,41,31
1537920350959943,0,1,1,0,-8,9,-25,-3
1537920350980887,1,0,0,-2,-8,-15,-1,10
1537920350980887,-8,-2,-3,-2,-7,-19,10,-45
1537920350981884,-4,-1,-1,2,8,6,7,11
1537920350981884,-1,0,-1,2,5,0,-19,-41
1537920350994850,-6,0,-1,1,2,9,1,35
1537920350994850,-4,0,-1,-2,-6,-12,-31,-35
1537920351001831,-2,-4,0,-1,1,6,-1,10
1537920351001831,1,-2,0,-2,-2,-18,7,16
1537920351017788,-8,-1,1,1,7,11,-27,-36
1537920351017788,0,0,0,0,-2,3,30,-9
1537920351019783,7,0,0,-1,-4,-16,-12,39
1537920351019783,1,1,-1,0,3,-9,26,6
1537920351040727,-2,-3,-1,-3,-2,22,-19,-8
1537920351040727,2,1,-1,1,0,-24,7,15
1537920351041725,-2,-2,0,1,4,18,-6,-7
1537920351041725,-2,2,-1,1,1,-32,-6,-22
1537920351054690,4,-1,-2,0,-4,34,15,21
1537920351054690,-5,-5,-2,-3,-4,-26,-57,-14
1537920351069650,6,1,-1,-2,-7,-1,21,-10
1537920351069650,4,-1,-3,-3,-5,0,2,14
1537920351077629,-5,-1,-1,-2,3,-7,2,-38
1537920351077629,-1,0,0,0,1,12,-7,41
1537920351079624,1,-1,-2,3,4,-15,17,-5
1537920351079624,0,-1,-1,0,5,33,15,-3
1537920351099570,-5,-2,-1,-1,1,-5,5,8
1537920351099570,1,-1,-3,-2,-8,4,-26,-23
1537920351108546,-5,0,0,-1,0,-10,12,-7
1537920351108546,-3,-2,0,0,2,9,10,-1
1537920351114530,3,1,2,1,-2,-15,32,65
1537920351114530,-1,-2,-3,-1,-3,9,-1,-31
1537920351123506,-3,-1,1,-2,-4,-13,-2,-41
1537920351123506,3,2,0,-1,3,9,-7,34
1537920351138466,-3,-2,-1,0,-1,-15,-36,-16
1537920351138466,-1,0,0,0,1,10,8,6
1537920351139463,0,-3,-4,-6,-7,-6,-31,7
1537920351139463,-5,-2,-1,0,-1,-3,-1,-46
1537920351160407,2,-2,-4,-3,-2,-13,-70,5
1537920351160407,5,4,3,3,1,6,49,-10
1537920351162402,-4,0,-4,0,-1,-7,-8,-1
1537920351162402,-5,-2,0,-1,5,26,3,-12
1537920351174370,6,0,-2,-1,-2,-8,16,36
1537920351174370,-8,-4,0,-3,-4,-6,-37,-21
1537920351183346,5,1,2,1,3,14,-2,14
1537920351183346,1,0,-1,-2,-3,-6,-19,-2
1537920351199304,-4,1,0,-2,0,-13,13,-24
1537920351199304,-2,-1,1,-1,-3,-18,22,4
1537920351201300,-7,-5,-2,-1,0,15,-36,-5
1537920351201300,6,0,-2,-2,-2,-7,66,26
1537920351220248,-1,-1,0,0,0,1,20,-1
1537920351220248,0,-2,-1,-1,-4,-10,-3,10
1537920351222243,-10,-2,-4,-3,-2,-15,-27,-28
1537920351222243,-2,0,0,1,-4,-7,-30,-27
1537920351234211,2,-3,-2,-2,-1,15,1,-5
1537920351234211,3,2,2,3,3,-15,-6,-2
1537920351243187,-2,-2,-2,-3,-2,9,30,-27
1537920351243187,6,0,0,-1,-2,17,-11,26
1537920351258147,4,2,1,2,1,-27,-51,3
1537920351258147,-8,-4,-3,-5,-2,4,-91,-14
1537920351259145,4,3,1,0,-6,4,33,35
1537920351259145,-5,-5,-2,-1,1,-5,-16,4
1537920351281086,-11,-4,-2,-3,-6,10,6,-27
1537920351281086,8,2,-1,0,6,-12,-4,16
1537920351282084,0,1,3,4,12,-12,26,-4
1537920351282084,-2,-1,0,2,-7,3,20,1
1537920351294051,-5,-5,-3,-5,-10,4,-21,-17
1537920351294051,4,1,-2,-1,-6,-29,-14,52
1537920351303027,0,0,-1,-2,3,35,67,0
1537920351303027,-2,-1,0,0,3,-23,-57,-12
1537920351317986,1,0,0,1,6,3,6,3
1537920351317986,-6,-3,-4,-5,-6,0,11,-8
1537920351319981,1,-2,-2,0,-3,-1,-29,-22
1537920351319981,7,0,0,2,12,8,4,33
1537920351340925,-3,0,0,-2,-8,-15,14,-2
1537920351340925,-3,-3,-2,-2,-2,28,11,-8
1537920351341922,0,1,0,2,-5,-18,12,6
1537920351341922,-8,-5,-3,-4,-6,-10,4,-26
1537920351353890,6,2,1,0,2,-2,-53,-1
1537920351353890,2,0,2,2,7,34,100,3
1537920351362866,2,0,-1,-2,-5,-11,-43,21
1537920351362866,0,0,-1,-1,-2,14,35,1
1537920351377826,0,-2,-3,-1,-3,-71,8,-7
1537920351377826,-2,0,-1,1,0,82,-18,-7
1537920351383810,-4,-1,0,-1,-8,-7,-35,-24
1537920351383810,0,-2,-4,-4,-7,-12,9,11
1537920351400764,-3,-2,-2,-1,-2,1,-41,-1
1537920351400764,-2,-1,0,-1,-4,-14,102,0
1537920351401762,0,-2,-3,-1,-5,-13,-16,-7
1537920351401762,-4,0,2,1,2,21,-56,-5
1537920351413730,5,2,1,3,11,4,28,1
1537920351413730,-1,-1,-2,0,-3,13,26,12
1537920351422706,-1,-1,0,-1,7,-7,-7,-7
1537920351422706,-2,-1,-1,-5,-11,-37,-9,11
1537920351437666,-2,0,-2,-1,-2,22,17,3
1537920351437666,-3,-2,0,0,0,-10,-26,6
1537920351439661,-2,-1,-1,-1,2,3,7,16
1537920351439661,-1,-1,-1,-3,-1,0,-47,-23
1537920351460607,5,1,1,2,4,16,67,10
1537920351460607,-2,0,0,-2,-3,-13,-20,2
1537920351461605,-2,-2,-2,-4,-1,-7,-34,-7
1537920351461605,0,1,2,2,8,30,65,-5
1537920351483545,0,1,2,3,6,-21,-51,-2
1537920351483545,-1,-1,-1,-3,-3,31,39,-21
1537920351484543,3,-1,-1,-2,-9,-3,15,14
1537920351484543,5,1,1,2,0,-6,-4,-3
1537920351498507,-10,-2,0,0,2,10,-2,-16
1537920351498507,1,0,-3,0,2,-24,-25,9
1537920351499504,-9,-3,-1,2,6,14,2,-36
1537920351499504,-1,-2,-3,-2,0,16,23,16
1537920351520445,1,2,2,2,15,12,11,2
1537920351520445,7,1,-1,-3,-25,-31,-23,-15
1537920351522441,-2,-2,-1,0,4,8,-30,4
1537920351522441,-7,0,-3,-2,-11,-26,24,-13
1537920351543384,0,-2,-3,-2,2,11,-22,-8
1537920351543384,-3,-3,-1,0,13,19,8,19
1537920351544381,-1,-1,1,0,-5,-4,2,-6
1537920351544381,0,-3,0,-1,1,4,21,4
1537920351558344,2,0,0,-2,-9,-16,4,6
1537920351558344,-2,-1,-2,1,4,28,-4,-3
1537920351559341,0,-2,-3,-1,-1,-8,4,4
1537920351559341,-2,-1,1,0,4,-8,-24,-3
1537920351580285,0,-4,-4,-1,-3,30,-6,1
1537920351580285,-2,1,0,0,-4,-12,47,-7
1537920351582280,2,-1,0,-1,4,2,-12,-6
1537920351582280,0,1,-2,-1,-1,-11,2,28
1537920351603225,2,0,0,-3,-8,-6,38,-3
1537920351603225,-3,0,-1,-3,2,4,-27,-2
1537920351604222,2,1,1,0,3,-14,-54,-25
1537920351604222,-2,0,-1,-1,-1,3,20,-5
1537920351618184,-3,-4,-3,-1,-4,-1,46,6
1537920351618184,2,-3,-2,-1,-1,-18,-58,-3
1537920351619182,0,1,2,0,4,19,43,17
1537920351619182,1,0,-4,-2,-3,-39,-75,-12
1537920351641124,1,0,0,0,5,34,-6,-1
1537920351641124,-8,-3,-1,-3,-6,9,-5,-17
1537920351642121,2,-3,-1,-2,-1,10,23,0
1537920351642121,2,0,0,-1,-4,-8,-29,-8
1537920351663065,-2,0,-2,-1,3,-14,-56,-2
1537920351663065,-3,-1,-3,-5,-15,-33,29,4
1537920351665060,-4,-1,0,-2,-2,3,-7,42
1537920351665060,-1,1,0,1,0,28,56,-11
1537920351677027,-4,-3,-1,-1,3,1,-10,-25
1537920351677027,3,1,1,0,-4,-15,-22,25
1537920351684009,1,1,-1,0,0,-7,-4,7
1537920351684009,-2,-3,-3,-2,-1,-8,-26,-4
1537920351700963,-1,-2,-3,-1,-5,6,2,8
1537920351700963,-1,-3,1,2,6,1,56,-2
1537920351701962,-2,-1,-4,-2,-3,-19,-4,-7
1537920351701962,-2,-2,-1,1,-2,12,5,-5
1537920351722905,1,2,0,0,-3,-4,-1,-6
1537920351722905,0,-1,0,-2,3,-2,-18,-5
1537920351724900,0,-2,-1,-2,-7,-8,6,-1
1537920351724900,-3,-1,-2,-1,0,-5,-32,-2
1537920351737865,0,-3,-1,-3,-6,6,40,9
1537920351737865,2,-2,0,-1,4,-23,-116,-11
1537920351743862,1,1,1,1,5,11,91,-15
1537920351743862,0,-3,-3,-3,-8,1,10,-22
1537920351760802,1,3,0,1,-3,-31,-60,2
1537920351760802,-3,0,0,0,8,37,11,-2
1537920351761800,-8,-4,-2,-1,1,10,-29,-22
1537920351761800,5,-3,-3,-3,3,3,2,25
1537920351782744,0,-2,-2,-3,-1,-9,22,16
1537920351782744,-3,-1,-1,1,2,-7,-1,-12
1537920351784738,-1,1,-2,-1,0,11,-13,9
1537920351784738,-6,-2,1,0,-1,-3,-7,-10
1537920351797704,-2,-3,-1,-3,-8,-3,-15,-5
1537920351797704,3,1,1,3,7,-17,9,7
1537920351804685,-1,0,-3,-2,-5,13,0,5
1537920351804685,-1,0,1,-1,-3,-15,-22,3
1537920351820643,0,-2,0,2,2,35,3,0
1537920351820643,-3,-3,-2,-2,2,4,23,3
1537920351821640,1,1,2,1,-3,-23,-10,-15
1537920351821640,0,-1,-2,-2,-8,-12,-17,10
1537920351843581,-2,0,0,-1,-1,-6,4,5
1537920351843581,3,0,-2,-1,-1,0,11,5
1537920351844579,-3,-4,-2,-2,-1,3,-17,-1
1537920351844579,-4,-2,0,0,3,5,-17,-8
1537920351857544,3,1,-1,-1,3,1,21,-4
1537920351857544,-10,-4,0,-1,-6,-7,-23,-23
1537920351864526,7,1,-1,0,2,-5,-3,0
1537920351864526,1,-1,-1,-1,2,21,29,11
1537920351880485,-3,-1,-3,-2,-6,-12,-6,-2
1537920351880485,-1,-2,-1,-3,-3,0,-11,-12
1537920351882479,-3,-1,-1,0,8,-14,-7,-9
1537920351882479,0,0,0,0,-5,-9,-33,4
1537920351903422,-5,-1,-1,-2,0,7,31,-5
1537920351903422,-2,-1,-2,0,-5,-14,19,2
1537920351904420,2,-1,0,2,3,16,5,26
1537920351904420,0,-1,-1,2,8,6,-17,5
1537920351918382,-4,-2,0,-1,0,-7,-17,-16
1537920351918382,-2,-1,-1,-2,-2,4,21,5
1537920351924367,-1,0,-2,-1,-2,17,72,0
1537920351924367,3,1,1,2,0,-4,16,11
1537920351940323,-1,-1,0,0,-4,-13,-48,0
1537920351940323,0,-1,0,-2,0,-2,8,3
1537920351942318,-1,-1,-2,-2,-4,-1,-64,-4
1537920351942318,-1,-1,-3,-2,0,1,46,-6
1537920351963261,-2,-2,-3,-3,3,-3,28,14
1537920351963261,1,0,-1,-1,-7,-10,-52,-19
1537920351964259,0,-3,0,-1,-4,-3,46,43
1537920351964259,-1,0,0,0,-3,-12,-1,-10
1537920351977224,-1,-1,0,0,2,9,6,-2
1537920351977224,-2,0,-1,2,5,36,-20,-3
1537920351986200,2,-2,-3,-3,-7,-9,-29,14
1537920351986200,-2,-1,0,0,2,6,54,-5
1537920352000163,0,-3,-2,-2,-3,0,-4,-6
1537920352000163,-2,0,0,0,-1,-26,-30,5
1537920352000163,2,2,0,0,1,-5,-15,3
1537920352000163,-3,-3,-3,-2,-4,-4,-61,-6
1537920352022105,0,-1,-1,0,-3,12,65,-5
1537920352022105,3,2,0,1,3,-7,20,53
1537920352023104,-1,-2,-1,-2,-7,-4,-28,-12
1537920352023104,-1,-1,-1,-2,1,-1,18,8
1537920352037065,-1,-1,-1,1,-2,0,-15,-22
1537920352037065,0,-1,-1,1,0,6,-16,5
1537920352045043,-4,-2,-2,-2,1,-3,-31,-28
1537920352045043,3,1,1,2,2,2,73,17
1537920352060002,-3,-1,-3,-2,-2,-2,-29,-3
1537920352060002,1,-1,-1,0,-1,3,19,3
1537920352061000,-6,-4,-2,-3,-5,-10,-8,-18
1537920352061000,-4,-3,-3,-4,-6,0,-30,0
1537920352081944,2,1,1,0,6,1,67,-6
1537920352081944,4,0,0,0,1,-8,13,2
1537920352082941,-2,0,-2,0,3,14,-8,-3
1537920352082941,-2,0,-2,-2,1,-4,2,-12
1537920352096904,1,-1,-1,-2,-7,22,5,13
1537920352096904,-2,-1,0,-1,4,3,2,-6
1537920352104884,-1,-2,2,1,-3,-12,13,-6
1537920352104884,0,-2,-1,1,1,1,-15,3
1537920352119843,-2,-2,-2,-2,-1,-31,-46,2
1537920352119843,-4,-3,0,1,2,23,64,-32
1537920352120840,4,2,-1,0,-1,7,13,12
1537920352120840,1,0,-1,-2,-1,-4,-17,-19
1537920352142781,-3,0,-1,-1,0,-5,-11,6
1537920352142781,-1,-2,0,-1,-2,-7,-29,-5
1537920352142781,-4,-3,-2,-2,-4,-7,23,-10
1537920352142781,0,-1,1,0,1,4,-17,11
1537920352156744,-2,0,-1,2,0,2,-11,-1
1537920352156744,-5,2,-1,0,6,3,9,-14
1537920352164723,0,-1,0,0,-8,-11,-44,-3
1537920352164723,-2,0,0,-1,-1,3,26,-4
1537920352179683,1,0,2,-1,-4,-6,-11,3
1537920352179683,-2,-1,-3,-2,-2,-3,-26,-1
1537920352180680,-1,-2,-2,-1,3,-1,12,0
1537920352180680,-1,0,0,1,1,5,20,3
1537920352202621,1,-1,-1,0,4,16,-13,4
1537920352202621,-1,-1,0,-1,-7,-36,-4,-7
1537920352202621,-1,0,-2,-1,5,20,44,-1
1537920352202621,-2,-3,-2,-1,-6,-21,-38,-17
1537920352218578,-1,-1,-1,-1,5,34,16,3
1537920352218578,1,1,-3,-1,-6,-10,6,-4
1537920352224562,-7,-2,-3,-1,0,-11,-39,-9
1537920352224562,3,2,0,1,1,14,59,13
1537920352239522,-1,0,-1,-1,0,-9,-6,-14
1537920352239522,-2,-2,-2,-2,-5,5,6,-1
1537920352240520,1,-1,1,-1,-2,-11,-5,1
1537920352240520,-2,-2,-2,-3,0,-7,-27,-4
1537920352262461,0,-4,-1,1,1,14,13,2
1537920352262461,-1,-2,-3,-2,0,7,-14,1
1537920352263458,0,0,2,0,2,-9,-16,1
1537920352263458,-1,-2,0,-3,-5,3,45,5
1537920352276424,0,0,-1,-2,-2,-10,-18,2
1537920352276424,1,-1,0,0,1,6,20,15
1537920352285400,1,-2,-1,-1,-3,-7,-10,0
1537920352285400,-3,0,-1,0,1,-5,-62,-17
1537920352300360,2,0,0,-1,0,-5,56,25
1537920352300360,0,-2,-1,-2,1,20,1,9
1537920352300360,-3,-2,-2,-2,-2,-6,-3,-45
1537920352300360,2,1,-1,2,3,-1,-6,25
1537920352322301,0,-1,-3,-2,-6,2,-10,8
1537920352322301,1,-1,1,0,2,10,-22,-5
1537920352323299,-1,2,1,0,3,8,26,4
1537920352323299,-2,-2,0,-2,-1,15,21,0
1537920352336264,-2,1,-2,2,-2,-20,-54,-8
1537920352336264,-1,-2,-1,-3,-5,-8,42,-7
1537920352345240,1,0,-2,-1,-4,-10,-53,2
1537920352345240,-1,-1,-1,-2,-1,5,18,-3
1537920352360200,0,1,0,-3,-2,-16,19,10
1537920352360200,-2,0,-2,-2,0,5,-23,-7
1537920352360200,0,0,-1,1,2,6,7,7
1537920352360200,0,-2,-1,-2,-2,-8,-15,-4
1537920352382141,0,-1,-1,-1,0,1,-3,-2
1537920352382141,-1,-1,-2,-2,-3,-10,-22,-1
1537920352383139,-3,-1,0,0,-2,-1,26,-10
1537920352383139,3,1,0,2,3,-5,-37,12
1537920352397101,-3,-3,-1,-3,-9,8,53,-12
1537920352397101,5,-3,-1,-1,2,-10,-12,7
1537920352405080,0,0,1,0,1,10,-9,4
1537920352405080,-4,-3,-1,0,3,3,-23,-9
1537920352420040,-1,0,-2,0,-2,-14,8,-21
1537920352420040,-4,-3,-2,-2,6,-18,-35,-3
1537920352421037,5,0,0,0,-3,25,48,26
1537920352421037,-1,-1,-1,-1,-1,14,3,-3
1537920352441981,-2,1,0,-1,5,2,-20,-6
1537920352441981,-1,2,0,-1,-8,2,-37,-12
1537920352442979,-1,-3,-3,0,1,-28,15,8
1537920352442979,-2,-1,-2,-1,-3,-5,18,-12
1537920352465917,-1,-1,-1,-1,3,-2,-27,1
1537920352465917,-5,-2,0,0,-8,-22,-10,-14
1537920352465917,1,-2,-1,-2,2,18,13,15
1537920352465917,-2,0,0,1,-1,0,-8,-4
1537920352479880,-1,-1,-1,-2,-3,-1,0,4
1537920352479880,-2,1,1,3,5,5,6,5
1537920352480877,-3,0,-1,-1,-4,0,-15,-6
1537920352480877,-1,-3,-2,-2,-1,5,1,-4
1537920352502819,0,-1,-2,0,2,-8,21,10
1537920352502819,1,1,1,-1,-3,7,9,2
1537920352502819,-4,-2,-1,0,-2,-12,-13,-4
1537920352502819,-1,2,1,3,8,2,-21,-1
1537920352525757,2,-1,-1,0,-6,2,-28,-6
1537920352525757,0,-1,-3,-1,1,-1,22,3
1537920352526755,-2,0,1,2,1,-18,0,-10
1537920352526755,-2,-1,-1,-2,-6,-2,-45,0
1537920352539720,-1,-3,-1,1,-2,6,32,4
1537920352539720,-2,-2,0,-1,1,9,16,-9
1537920352540718,1,0,0,-2,2,-10,-33,13
1537920352540718,1,-1,1,0,-2,-1,19,9
1537920352562658,-1,0,-3,-4,-2,-3,-5,-17
1537920352562658,0,0,-3,-1,2,10,22,19
1537920352562658,1,0,-2,-1,3,5,-3,10
1537920352562658,-4,0,-2,-3,-5,-13,-23,-14
1537920352585597,0,1,-1,0,0,2,-3,13
1537920352585597,-3,-2,0,-3,-4,2,33,-2
1537920352586595,-1,-1,0,0,0,-3,8,-14
1537920352586595,-1,1,-2,-2,-1,-7,-28,14
1537920352599560,-2,-2,0,-1,-4,-7,17,-14
1537920352599560,0,0,0,0,0,-6,-17,-3
1537920352600558,3,-2,-2,-4,-3,15,4,8
1537920352600558,-2,-2,0,0,-1,-8,20,-5
1537920352622499,-1,0,-1,-1,-6,-9,-14,3
1537920352622499,3,0,0,0,-1,-2,13,8
1537920352623496,-4,-3,-1,0,0,7,-16,-20
1537920352623496,1,-1,-2,-2,-3,4,10,-5
1537920352645439,-4,-3,0,0,4,-3,21,7
1537920352645439,0,0,-1,-2,-5,-1,-14,-1
1537920352646436,-1,0,-3,-2,-1,-7,-33,-6
1537920352646436,-1,0,0,-1,4,-4,9,-1
1537920352660398,-1,-2,-2,0,3,25,-2,4
1537920352660398,-1,-1,-2,-1,-9,-23,-22,-21
1537920352660398,0,0,0,0,-2,6,26,3
1537920352660398,-1,-1,1,-3,-2,-10,-12,-3
1537920352682340,-1,-1,1,0,0,-2,24,17
1537920352682340,-3,-1,1,2,4,-14,-68,-10
1537920352683338,3,2,-2,1,3,18,47,-10
1537920352683338,0,-3,-3,-2,1,4,13,3
1537920352705280,-1,0,1,1,0,-4,-31,-9
1537920352705280,-2,-1,-1,-4,-3,10,3,3
1537920352706278,-1,-1,-1,-2,-3,-15,-13,4
1537920352706278,0,1,-1,-1,-2,13,38,-4
1537920352720239,3,-2,0,0,4,5,-10,6
1537920352720239,-4,-1,0,2,1,-11,8,0
1537920352720239,-1,-2,0,-1,-2,-3,4,-1
1537920352720239,0,-1,-2,-2,-4,-2,2,-1
1537920352742181,-3,-1,-1,-2,0,-1,-20,-9
1537920352742181,2,-1,-1,1,1,1,26,11
1537920352743178,-1,1,0,-1,0,5,-21,-8
1537920352743178,-1,-1,-1,1,4,-12,-24,-7
1537920352765118,-1,0,-1,-4,-15,-3,78,7
1537920352765118,0,0,-3,1,3,1,2,3
1537920352766115,1,0,-1,0,-1,4,6,5
1537920352766115,-2,-1,0,-1,1,1,-9,-10
1537920352780078,-1,-1,-1,-1,4,1,-40,-7
1537920352780078,-2,-4,-2,-3,-5,-8,8,7
1537920352781075,-1,-2,-2,0,-1,-3,17,8
1537920352781075,0,1,1,1,-2,-6,18,-15
1537920352802019,5,2,0,0,4,15,-10,19
1537920352802019,0,-2,0,-2,-3,9,-5,-4
1537920352803017,-2,-4,-1,-2,2,-3,-16,1
1537920352803017,0,-1,-3,-1,-5,1,4,4
1537920352825955,-4,0,-1,0,1,-6,-34,-9
1537920352825955,2,1,-1,0,-1,2,12,2
1537920352825955,-2,-2,-1,-2,-3,3,0,-1
1537920352825955,1,0,0,0,1,-3,15,4
1537920352839918,-4,-2,0,0,0,-4,-30,-9
1537920352839918,-2,0,0,0,2,17,-10,-2
1537920352840916,-1,-2,-1,0,-7,-17,2,-4
1537920352840916,1,1,0,0,-2,3,-16,6
1537920352862858,1,0,-2,0,2,-9,18,-5
1537920352862858,-1,0,-2,-1,-2,10,1,2
1537920352862858,-1,-2,-1,1,1,-16,9,-4
1537920352862858,-2,-2,-1,0,2,12,-3,-4
1537920352885797,1,0,-1,-3,-2,-7,-12,8
1537920352885797,-2,-1,-2,-1,1,-10,-4,-5
1537920352886794,-1,1,-1,-2,-3,-1,-17,2
1537920352886794,0,-1,-1,-1,0,19,15,-3
1537920352899759,-4,-2,0,0,-2,-14,-29,-11
1537920352899759,1,-1,1,-1,3,21,76,22
1537920352900758,0,-1,0,0,-2,-12,-12,-7
1537920352900758,1,-1,-1,-1,0,3,0,8
1537920352922697,-1,-2,-1,-1,-4,-12,-13,-4
1537920352922697,-1,0,-1,0,2,-1,-17,-7
1537920352929679,-2,-1,-1,-2,1,2,-1,0
1537920352929679,-2,-2,-2,-2,-4,-3,-24,0
1537920352945636,-1,-1,-1,-1,0,1,8,9
1537920352945636,1,-1,-1,1,0,-13,7,-1
1537920352946633,-1,0,-1,-1,1,10,6,5
1537920352946633,-3,-1,-1,0,-2,-10,-19,-4
1537920352959599,-1,0,-1,-2,-2,1,15,3
1537920352959599,-3,-2,-1,-2,-1,2,-41,-7
1537920352960597,0,-2,1,0,7,7,46,0
1537920352960597,-1,-1,1,-2,-4,-7,-2,-1
1537920352982537,0,-1,-2,0,-2,7,-11,-7
1537920352982537,1,0,0,2,3,4,2,4
1537920352983534,0,-1,-2,-1,-7,-7,-11,0
1537920352983534,-2,-3,-3,-2,1,-1,7,-4
1537920353005476,-4,-1,0,-1,3,-1,5,-7
1537920353005476,-3,-1,-1,-1,-2,-13,-30,-20
1537920353006473,-1,-2,-3,-2,-1,18,45,6
1537920353006473,3,0,2,0,-5,-24,49,24
1537920353019438,1,1,0,1,4,17,-4,0
1537920353019438,-1,0,-1,-1,-5,-9,-10,-6
1537920353027417,-3,-1,-1,-1,0,1,-18,-11
1537920353027417,-1,-1,-1,-1,0,6,2,3
1537920353050356,-2,-3,0,-3,2,-7,-3,2
1537920353050356,-1,0,2,0,3,-1,33,3
1537920353051354,1,0,-1,0,0,21,-21,1
1537920353051354,1,0,0,0,-3,-19,-1,-5
1537920353065316,0,-1,0,0,-1,-4,7,-6
1537920353065316,-2,-2,-3,-2,-2,12,-17,-5
1537920353066313,-1,1,0,-1,1,-4,-3,3
1537920353066313,-4,-1,-1,-2,-1,0,-41,-13
1537920353079279,-3,-2,-1,0,-7,-6,56,5
1537920353079279,1,1,-1,-1,-4,-24,-1,7
1537920353087258,0,-1,0,-2,3,35,32,3
1537920353087258,-3,0,0,1,-1,-4,-11,-15
1537920353102218,0,-2,-2,-1,-3,-9,-23,-2
1537920353102218,0,-1,-2,-1,-4,-4,-5,1
1537920353103216,1,1,-1,-1,2,-12,-19,1
1537920353103216,-6,-2,-1,0,1,9,-42,2
1537920353125157,5,1,-1,-1,-4,10,78,-18
1537920353125157,-3,-1,0,-1,1,5,15,8
1537920353126154,0,-3,-2,1,-7,-25,-59,-7
1537920353126154,-1,-1,-1,0,-1,8,28,-1
1537920353139120,1,0,-1,-1,1,-8,-36,4
1537920353139120,-1,-1,-2,-1,2,15,15,0
1537920353147100,-3,-1,0,-2,-3,-25,-38,-8
1537920353147100,0,-2,0,0,3,-10,53,12
1537920353162060,1,1,1,0,-2,25,-1,7
1537920353162060,3,1,-1,-1,-5,-4,23,7
1537920353163056,-1,-1,0,0,2,0,1,-4
1537920353163056,0,0,-2,-2,-4,-13,-5,-7
1537920353185993,-1,0,0,-2,-6,-11,-35,2
1537920353185993,-2,-3,-1,-1,2,-1,0,-13
1537920353185993,-1,0,1,0,-3,-15,-10,-1
1537920353185993,1,-1,-1,-1,1,25,29,5
1537920353198958,-3,-2,-1,-1,3,-7,-17,-7
1537920353198958,-1,0,-1,-1,-2,-5,-31,-3
1537920353206937,0,-1,-1,-2,0,10,40,20
1537920353206937,6,1,0,0,0,2,-6,2
1537920353221897,-2,-1,-2,-2,0,1,-11,-2
1537920353221897,-1,0,-1,-1,-1,-7,-5,-2
1537920353222894,-3,0,-1,-1,4,12,42,-18
1537920353222894,-2,0,-1,-1,-3,-7,-44,5
1537920353245832,0,-2,0,0,0,5,36,5
1537920353245832,0,-1,1,0,0,-4,-9,-9
1537920353245832,-1,-1,1,-1,4,7,6,-3
1537920353245832,-3,-2,-1,-4,-10,-9,-7,-1
1537920353258798,-1,0,-2,-3,-1,5,-6,-17
1537920353258798,2,-1,-2,0,1,-15,-49,6
1537920353267774,0,-2,-2,-1,-10,-12,26,-3
1537920353267774,1,0,0,0,4,8,4,-5
1537920353282735,0,-1,-2,-1,2,24,-9,8
1537920353282735,0,0,0,-1,5,17,1,3
1537920353282735,0,0,0,-1,-8,-19,-21,1
1537920353282735,-4,-1,-2,0,-3,-8,2,1
1537920353305673,-1,-1,-1,-1,-3,-23,-20,3
1537920353305673,-1,0,0,0,3,30,29,6
1537920353306671,1,-3,-2,2,3,-18,-17,0
1537920353306671,-1,-2,0,-1,-1,3,11,-8
1537920353319635,-1,-1,-1,-1,-4,3,-2,3
1537920353319635,0,0,-1,-1,0,6,3,4
1537920353327614,0,0,1,0,-4,-8,-18,1
1537920353327614,-1,-1,-1,-1,1,-2,-1,1
1537920353342574,2,-1,-1,-3,1,3,-12,5
1537920353342574,-3,-2,0,-3,-2,-20,-7,-11
1537920353342574,-1,0,0,0,5,17,47,10
1537920353342574,-1,-2,-1,1,-4,3,-28,-1
1537920353365513,3,-2,0,0,0,-5,10,-2
1537920353365513,-1,0,-1,1,-2,4,6,-5
1537920353366510,-1,-2,-2,0,0,-11,-36,-1
1537920353366510,0,-3,0,-2,2,9,25,-1
1537920353388452,-3,0,1,0,1,1,9,2
1537920353388452,-1,-2,-3,-2,-7,-22,1,-12
1537920353388452,0,0,0,1,0,7,-14,-2
1537920353388452,-3,-1,-2,-1,-1,7,29,1
1537920353402414,0,1,-1,2,1,-14,-7,-4
1537920353402414,-2,-3,0,-1,-1,10,-7,-9
1537920353403412,-1,0,0,0,5,-3,9,-2
1537920353403412,1,-2,-2,-3,-7,-10,-21,15
1537920353425353,-2,1,2,-2,-2,1,10,-14
1537920353425353,0,0,0,1,1,-13,8,3
1537920353426350,-2,-2,-2,-1,-3,13,-14,-5
1537920353426350,-2,0,0,1,5,2,-17,-4
1537920353448291,-2,-2,-1,-3,-8,-11,-3,3
1537920353448291,-3,-1,0,-3,-4,-24,27,-6
1537920353448291,-2,-2,-1,-3,-3,36,-3,8
1537920353448291,0,1,-3,0,0,-9,23,-6
1537920353462254,-2,-2,-1,1,4,-5,-41,1
1537920353462254,-2,-3,0,-1,0,4,2,-1
1537920353463252,-1,-1,-2,-1,-3,-10,-5,-9
1537920353463252,1,0,0,0,0,-12,-16,0
1537920353485194,-1,2,0,0,5,16,35,3
1537920353485194,-4,-1,-1,0,-4,-7,-22,7
1537920353486192,5,-1,-2,-2,-3,2,22,1
1537920353486192,2,-1,-1,-1,-2,6,-24,4
1537920353508133,-4,-2,-2,0,4,-14,6,-13
1537920353508133,1,-2,-1,-1,-5,15,32,3
1537920353509132,-5,-1,1,-1,2,1,0,-2
1537920353509132,-1,0,0,1,2,-6,-10,-6
1537920353522096,3,-2,-1,0,0,10,4,13
1537920353522096,1,0,0,-1,0,-4,-7,4
1537920353523094,-2,-1,-2,-1,-2,-10,-12,-4
1537920353523094,-2,-1,0,-2,1,1,2,-8
1537920353546032,0,0,-1,-1,2,-2,-26,-2
1537920353546032,-2,0,1,0,-1,2,-15,-4
1537920353546032,0,0,1,0,0,5,42,19
1537920353546032,-3,0,0,0,-1,-1,-33,-9
1537920353567972,-2,0,-2,-1,1,11,28,-4
1537920353567972,-1,-1,-2,-3,-8,-15,-36,-1
1537920353568969,0,-1,0,0,4,14,-31,1
1537920353568969,2,-2,-1,0,4,10,86,11
1537920353581934,-2,-2,0,1,-9,-18,-11,-10
1537920353581934,-1,-1,-1,0,2,9,-10,-5
1537920353590910,-2,0,0,0,5,-3,-30,-12
1537920353590910,0,-1,-1,-1,-7,-18,-22,7
1537920353605870,-1,0,-1,-2,0,1,11,10
1537920353605870,-2,-3,-2,0,-1,8,11,-15
1537920353606868,0,-1,0,-1,-4,-8,1,-1
1537920353606868,-1,-2,0,-1,6,14,-19,-5
1537920353627812,1,-2,0,-1,-5,-9,5,7
1537920353627812,3,1,-1,1,0,-11,-49,3
1537920353629806,-3,-1,-3,-2,-2,9,35,6
1537920353629806,-1,0,0,2,3,-5,-16,-10
1537920353641774,-3,0,-1,0,-2,-2,1,3
1537920353641774,6,-2,0,-3,-5,9,74,8
1537920353650750,-1,-1,0,-2,-3,-13,-26,-12
1537920353650750,0,-1,-1,0,3,18,5,4
1537920353665710,-2,-1,0,-1,0,-17,-12,-2
1537920353665710,-2,0,-1,-2,1,-8,-7,5
1537920353666707,1,0,-2,-2,-1,12,-22,1
1537920353666707,-2,-2,-1,-2,-7,-3,11,-3
1537920353687651,0,-1,0,0,3,6,-26,-8
1537920353687651,-2,-1,-1,1,2,-12,-11,6
1537920353689646,0,-2,0,-3,-8,2,11,0
1537920353689646,-1,-1,0,2,6,4,3,6
1537920353702611,2,-1,-2,-3,-6,-1,-17,-4
1537920353702611,-2,-1,-1,-2,4,14,-33,5
1537920353709593,0,-2,0,1,-3,-20,63,0
1537920353709593,-2,-1,-1,-3,-6,-5,-41,-18
1537920353725550,3,1,-2,0,1,-4,52,12
1537920353725550,-1,-2,-2,-2,2,-2,-30,-7
1537920353726548,0,0,-2,1,2,14,26,0
1537920353726548,-3,-2,1,-2,-6,-3,-3,-23
1537920353748489,2,-3,-2,-2,-4,-18,-12,16
1537920353748489,-3,0,0,1,-3,13,10,-26
1537920353749486,-1,-1,-1,-1,3,-14,-32,4
1537920353749486,-3,-1,1,-1,-1,-4,-6,0
1537920353762451,-2,-2,-2,-1,-3,15,26,6
1537920353762451,-1,-1,-1,0,3,6,20,-3
1537920353769433,0,1,1,0,-1,-11,-31,-6
1537920353769433,2,-1,-1,-1,-6,-17,16,11
1537920353785390,-3,1,-2,-2,-1,8,-33,-16
1537920353785390,-1,-1,0,0,-2,13,11,-6
1537920353787385,0,-1,-3,-1,-2,-10,7,15
1537920353787385,1,1,-3,-2,-3,-4,36,12
1537920353808329,-5,-2,0,0,7,4,-48,-21
1537920353808329,1,0,0,-1,-4,-7,64,15
1537920353809326,-6,-1,2,1,-1,-4,-51,-12
1537920353809326,7,-1,-4,-4,-7,-2,51,31
1537920353822292,-4,-1,1,2,3,7,-11,4
1537920353822292,2,-1,-2,-2,-4,-14,-13,0
1537920353829273,-3,-2,-3,-2,4,28,-5,-11
1537920353829273,-2,-1,-1,-1,0,-3,-8,-4
1537920353845230,-1,-2,-1,-2,-8,-6,6,0
1537920353845230,0,0,1,1,5,6,5,-1
1537920353847225,1,-2,-1,-1,-4,-18,-9,1
1537920353847225,-5,0,0,0,3,16,14,-9
1537920353868169,0,-2,-1,0,1,-4,6,-1
1537920353868169,0,0,-2,0,-2,-2,-20,1
1537920353869166,0,0,-1,-2,-9,-11,-27,-12
1537920353869166,-3,-1,-2,-1,0,12,32,-7
1537920353882131,1,0,1,1,1,-24,33,-1
1537920353882131,3,0,-3,-1,-1,15,-22,7
1537920353891108,-2,-1,1,0,0,3,19,-8
1537920353891108,0,-1,-1,2,-1,-15,-54,5
1537920353905070,-3,-1,-3,-2,1,7,25,-11
1537920353905070,5,0,-2,-2,-5,-3,-16,15
1537920353907065,-2,0,-2,-2,-1,-2,14,1
1537920353907065,-1,-2,-3,-1,4,10,-26,-10
1537920353928009,2,1,1,1,2,-4,12,10
1537920353928009,-6,-3,-3,-4,-3,-18,-33,6
1537920353929006,1,0,1,2,1,13,-8,-1
1537920353929006,-2,1,0,0,2,2,38,-5
1537920353941971,1,-2,-1,0,2,5,-19,-2
1537920353941971,-2,-1,0,-1,-9,-7,8,-2
1537920353950948,1,-3,-1,-1,-1,-15,-22,8
1537920353950948,-2,-1,0,0,-2,-2,-15,-5
1537920353965907,1,0,-2,-1,-2,0,-20,-1
1537920353965907,-3,-1,1,-2,4,8,18,-6
1537920353966905,-2,-2,0,-1,1,0,46,-1
1537920353966905,4,0,1,1,2,1,-64,-12
1537920353987849,0,-1,-3,-1,5,17,30,8
1537920353987849,-2,-1,-2,-1,-5,-23,-6,-17
1537920353989844,-2,0,-1,-1,-3,-10,-39,1
1537920353989844,-5,-3,0,-1,1,0,77,14
1537920354001812,0,0,-1,-2,-5,11,-5,-17
1537920354001812,-1,-1,-1,2,9,5,-7,5
1537920354010788,1,-1,-2,0,2,7,5,12
1537920354010788,-1,0,0,0,-2,-7,-31,-2
1537920354025747,-1,-1,-2,-4,-13,-6,-1,5
1537920354025747,-2,0,0,0,3,-8,15,-8
1537920354026745,0,1,-1,0,-2,-17,-28,-5
1537920354026745,1,-1,-1,2,7,19,17,-1
1537920354047689,0,-1,-1,-2,-1,-5,2,0
1537920354047689,-1,-1,-1,0,-2,4,-20,0
1537920354049684,-4,-1,-1,-2,1,-20,-13,-3
1537920354049684,2,-1,-3,-3,-4,26,68,8
1537920354061652,0,-3,-1,0,-3,-17,-16,1
1537920354061652,-1,-2,-1,0,-2,25,8,-12
1537920354070628,-1,-2,-2,-3,2,6,-4,-1
1537920354070628,-7,-1,0,-1,0,-11,-31,-14
1537920354085588,1,2,1,0,-2,-6,9,12
1537920354085588,6,-1,-3,-2,-2,-21,-11,11
1537920354086585,1,0,-1,0,-4,12,14,2
1537920354086585,-3,0,-1,-1,0,5,-20,-8
1537920354108527,1,-2,-3,-2,-2,11,-12,0
1537920354108527,-4,-1,1,-1,5,-4,-27,-12
1537920354109526,0,-1,-2,-1,-6,-4,53,5
1537920354109526,0,-1,-2,-2,-5,-13,-41,-9
1537920354121495,-1,-1,-1,-1,3,-1,-26,3
1537920354121495,1,0,1,0,-3,-3,44,10
1537920354130470,-1,-1,-1,0,3,4,-10,-13
1537920354130470,2,0,0,0,-6,-14,-29,4
1537920354145430,-3,-2,0,-1,5,3,13,-8
1537920354145430,-1,0,-2,-1,0,5,1,5
1537920354147425,-1,-2,1,1,2,20,-15,-3
1537920354147425,1,-1,0,1,-3,-11,38,5
1537920354168368,-3,-1,0,-1,1,10,-8,2
1537920354168368,-2,0,1,0,-3,-9,-28,-12
1537920354169366,-2,0,1,1,2,-4,25,7
1537920354169366,0,-3,-1,0,-3,4,-8,5
1537920354181333,-5,-2,0,0,-3,-16,-19,-12
1537920354181333,-2,-1,0,-2,2,9,20,12
1537920354190310,-1,-1,-1,-4,-4,-3,20,-8
1537920354190310,-1,1,-1,-2,0,-7,-31,-3
1537920354205272,1,0,0,-2,3,-3,-3,6
1537920354205272,-1,-1,1,0,5,4,14,8
1537920354207265,1,-2,-2,-3,-10,-10,-16,-13
1537920354207265,2,-2,0,-4,-2,-4,20,12
1537920354228207,-2,-1,-1,1,-1,6,2,-2
1537920354228207,-2,-2,-1,2,2,12,-13,-6
1537920354229204,0,-1,-2,0,-2,1,31,2
1537920354229204,-3,1,-3,-2,-3,-30,-35,-6
1537920354242169,2,0,1,1,1,14,36,4
1537920354242169,-1,0,-1,-3,-4,1,2,-4
1537920354250148,0,-1,-1,-2,2,4,9,2
1537920354250148,-2,-2,1,0,3,5,-38,-5
1537920354265108,-2,-1,0,-1,-6,-19,10,-4
1537920354265108,-5,0,-1,-2,-3,-5,9,2
1537920354272090,2,-3,0,-3,-7,-2,-9,4
1537920354272090,-2,0,-1,1,3,-7,-32,-15
1537920354288047,4,1,-1,-2,-2,12,55,15
1537920354288047,0,0,-1,-2,-3,-2,15,-8
1537920354289045,-3,1,-2,1,2,-7,-48,-5
1537920354289045,-2,-2,0,0,2,9,35,3
1537920354317967,-2,-2,-2,-1,1,3,-31,-9
1537920354317967,1,-1,-1,-2,-4,-7,-25,8
1537920354318964,-3,0,-2,-1,0,-3,13,0
1537920354318964,2,0,0,0,-2,-7,18,5
1537920354325945,-3,0,-2,-1,-1,17,-18,0
1537920354325945,3,-1,-1,-1,-1,-24,-1,-10
1537920354326943,-2,-2,-1,0,3,29,-9,-3
1537920354326943,0,0,0,-1,0,-4,18,4
1537920354347886,-1,0,0,-1,-1,-15,-19,-7
1537920354347886,-3,-3,-2,-2,3,19,6,-5
1537920354349881,4,0,0,0,-1,-16,-12,15
1537920354349881,-2,0,-4,-3,-5,0,16,-18
1537920354370825,4,1,-1,1,6,-6,-53,1
1537920354370825,1,-1,-1,0,-2,16,61,7
1537920354371823,0,-1,-1,0,-4,-33,-35,0
1537920354371823,-3,-2,-1,-3,-2,13,-26,-8
1537920354385785,-1,-1,0,0,-3,-15,5,14
1537920354385785,-3,-1,-2,0,0,-3,-29,-8
1537920354386783,0,-1,-2,-5,-3,-4,14,7
1537920354386783,-1,0,0,1,0,3,7,0
1537920354407727,-1,-3,0,-2,-2,-2,0,-8
1537920354407727,0,0,0,0,6,9,-8,2
1537920354409722,-2,-1,-1,-1,-2,-7,23,-5
1537920354409722,-2,-2,-2,0,4,5,-26,-5
1537920354431663,1,0,-1,-1,-1,3,-15,-3
1537920354431663,-2,-1,-2,-1,-5,-9,7,-1
1537920354432661,2,0,-1,0,-3,-9,-20,-4
1537920354432661,0,-2,1,-2,-4,-4,46,7
1537920354444628,-2,-1,1,2,2,7,4,-5
1537920354444628,0,-3,-2,-1,-3,-1,-20,2
1537920354451610,-3,-1,0,0,2,-2,-20,-10
1537920354451610,0,0,0,0,4,11,2,11
1537920354467567,-1,-1,-1,-2,-5,-5,12,-3
1537920354467567,-3,0,1,-1,-1,-10,4,-1
1537920354469562,1,0,0,-1,1,17,4,0
1537920354469562,-2,-2,0,-2,3,-6,-2,6
1537920354490508,-1,-2,-2,-1,1,0,12,-11
1537920354490508,0,0,-1,-2,0,9,-23,-1
1537920354492501,-1,-1,-2,-3,-3,-10,20,-1
1537920354492501,1,0,1,0,-2,2,56,4
1537920354504469,-3,-2,-2,-1,-2,-9,-35,-8
1537920354504469,-1,-2,-1,-1,3,7,7,1
1537920354511455,-3,-1,-1,1,1,0,4,1
1537920354511455,1,0,-1,0,-6,0,-43,4
1537920354528405,2,0,0,1,0,-2,25,12
1537920354528405,0,0,1,1,1,-4,-1,-3
1537920354529404,-2,-3,-3,-2,-2,16,6,2
1537920354529404,-2,-1,-1,-1,-3,-10,-17,-9
1537920354550347,-2,-2,-2,-2,-3,-3,5,-5
1537920354550347,-1,-1,-1,-3,-3,-11,8,1
1537920354552342,-1,0,1,2,7,8,-42,-3
1537920354552342,4,-2,-1,-1,0,-4,2,8
1537920354564309,-1,-3,-2,-4,-9,11,25,4
1537920354564309,0,0,-2,1,1,-2,-3,-1
1537920354573286,0,-2,-1,-2,0,0,18,-5
1537920354573286,-1,-1,0,1,7,20,-3,-1
1537920354587248,-3,-1,0,-1,-5,-18,-12,-4
1537920354587248,-1,-2,2,0,-2,-5,-18,1
1537920354595227,-4,-1,-1,0,3,13,17,-8
1537920354595227,1,0,0,0,0,-16,-13,13
1537920354610187,1,0,-3,-1,2,27,5,2
1537920354610187,0,0,-2,-2,-4,-2,28,-9
1537920354612182,1,-1,0,0,1,-6,-5,4
1537920354612182,0,1,-1,1,-1,-3,-18,-2
1537920354625147,-2,-3,-3,-1,-2,-8,-15,-7
1537920354625147,1,0,-1,2,2,5,26,9
1537920354632127,-2,-1,-1,-2,-3,8,19,1
1537920354632127,-2,0,-1,-2,-1,0,34,-8
1537920354647087,-4,-1,1,3,6,2,-7,-6
1537920354647087,-2,-1,0,-2,-3,-10,-25,-1
1537920354656063,0,-1,0,-1,-4,-1,8,0
1537920354656063,-4,-3,-1,-2,-6,-18,-17,-2
1537920354670025,0,1,0,-1,-5,3,-26,3
1537920354670025,0,0,-1,1,8,3,17,2
1537920354672021,1,-1,-1,0,-1,6,-28,-2
1537920354672021,-3,-3,-1,-1,0,22,-1,-8
1537920354684986,2,-1,-1,-2,-6,-25,-6,5
1537920354684986,-2,-1,-3,-4,-5,-19,-28,-12
1537920354691967,-1,-3,0,-1,1,20,18,9
1537920354691967,1,1,-3,0,-4,-8,8,1
1537920354707925,-1,1,1,0,3,2,13,-4
1537920354707925,-1,-2,-1,-1,-3,7,9,2
1537920354713909,-3,-1,-2,-2,0,-8,-6,-13
1537920354713909,0,0,1,-1,4,0,-2,2
1537920354730865,-1,-2,-2,-1,1,-8,-5,-6
1537920354730865,-7,0,-1,0,-1,-7,-44,-9
1537920354731862,6,1,-3,-1,-8,-3,94,10
1537920354731862,-1,1,-2,-1,-7,3,-22,-3
1537920354744826,0,-2,-1,-2,-3,0,6,0
1537920354744826,-2,-1,-1,2,6,20,-4,-2
1537920354751808,-1,-2,2,0,-3,-18,-21,2
1537920354751808,-1,-1,-1,0,1,8,15,0
1537920354767766,1,0,-2,-1,-2,-10,1,0
1537920354767766,-1,-1,-1,-2,4,-4,5,-2
1537920354769761,-1,0,0,0,1,10,-37,6
1537920354769761,1,0,-2,0,1,-2,30,0
1537920354790703,-5,-2,1,-2,-1,-4,5,0
1537920354790703,2,2,2,1,-2,22,2,5
1537920354791701,-3,0,-2,-1,0,-11,0,-3
1537920354791701,0,-1,-2,-1,-1,3,25,-3
1537920354804666,-2,-2,-2,0,4,12,12,7
1537920354804666,7,-1,-2,-1,-6,-16,-12,2
1537920354812644,1,0,1,0,2,8,-5,0
1537920354812644,-2,-2,0,0,0,-6,-29,-1
1537920354827604,-1,-2,-3,-3,-7,1,11,-1
1537920354827604,0,-1,-1,-1,-1,0,3,2
1537920354829599,0,2,0,-1,4,4,-9,7
1537920354829599,-2,-3,-1,-1,-1,-10,-20,-8
1537920354850543,-2,-1,0,-1,0,4,18,-1
1537920354850543,-2,-1,-3,0,-5,-8,5,1
1537920354851540,-1,-2,-3,-1,2,13,-17,-8
1537920354851540,0,0,0,-1,-6,-27,14,3
1537920354864506,0,-1,-2,0,3,26,29,-6
1537920354864506,-1,-1,0,-2,-7,-16,23,6
1537920354873482,0,-2,-2,0,-5,-11,2,3
1537920354873482,-1,1,1,0,5,15,3,-5
1537920354888443,0,-2,0,-2,-6,-30,-43,-3
1537920354888443,0,-1,0,0,5,26,21,-5
1537920354889441,-5,-2,-1,1,0,-2,-10,-7
1537920354889441,0,0,0,-2,-2,3,19,12
1537920354910384,-1,2,0,0,0,-6,-22,5
1537920354910384,-3,-1,-2,0,-3,0,-21,-12
1537920354912380,4,0,-2,-2,0,6,27,15
1537920354912380,0,-2,0,0,-2,-15,-60,-15
1537920354924347,-2,-1,-1,-1,0,6,0,2
1537920354924347,-2,-3,-1,-1,3,-3,-15,-2
1537920354933323,-4,0,0,0,-7,-19,-2,-6
1537920354933323,-3,-1,-2,-4,-4,6,-4,0
1537920354948283,3,-2,-1,1,-1,0,-2,4
1537920354948283,-2,0,1,-2,-3,-6,-15,0
1537920354949280,-2,-2,-1,-1,5,-2,-4,-6
1537920354949280,-1,-1,-3,-2,1,1,-4,3
1537920354970224,-1,1,2,1,1,-7,3,0
1537920354970224,0,-1,-2,-2,0,3,14,1
1537920354972220,-3,-1,-2,-2,-4,-19,-21,-3
1537920354972220,-1,-2,0,-1,2,17,33,-6
1537920354993163,0,-2,-3,-2,-3,-4,-2,-2
1537920354993163,-1,0,0,-3,0,9,-2,-3
1537920354994161,0,0,0,-1,0,3,-12,-2
1537920354994161,-2,0,-1,0,-3,-11,1,6
1537920355008124,-4,-1,-2,-1,4,8,4,0
1537920355008124,-1,-1,-2,1,-2,-3,26,-2
1537920355009121,-5,-2,-2,0,-3,-13,-26,-9
1537920355009121,1,0,-1,1,2,27,40,6
1537920355031061,-1,-1,0,0,-4,-11,0,-5
1537920355031061,0,-2,-3,-3,-7,-3,-23,2
1537920355032058,-1,-2,1,0,2,2,10,2
1537920355032058,0,-2,1,1,4,-2,-33,-3
1537920355044026,-3,-2,-2,-2,-5,12,19,-7
1537920355044026,3,-1,1,0,1,-7,-4,11
1537920355053002,1,-1,0,-2,-2,0,-30,-1
1537920355053002,-1,-1,-1,-1,1,-9,-8,-2
1537920355067962,0,-2,0,-1,1,-5,-20,-9
1537920355067962,-3,-2,-1,-1,-1,-7,-26,-3
1537920355069956,1,0,-1,1,0,7,33,2
1537920355069956,-3,-3,0,-1,-2,-1,-21,-3
1537920355090900,0,1,0,0,2,-2,7,14
1537920355090900,-1,-1,-1,0,0,-8,21,7
1537920355091898,0,-2,-1,-2,-7,11,30,-5
1537920355091898,-1,0,-2,-1,-2,-17,-13,-1
1537920355112842,1,0,-1,-1,-2,3,-6,0
1537920355112842,-2,-1,-1,1,1,-10,35,0
1537920355114836,0,-1,-1,-2,3,6,11,5
1537920355114836,-1,0,0,1,2,-7,0,-3
1537920355127802,-1,-1,-2,1,0,13,-21,-1
1537920355127802,0,-3,-1,-1,-5,-16,-3,1
1537920355129796,-2,-1,-1,-2,1,-3,-19,-5
1537920355129796,-1,0,-2,-1,-7,8,51,3
1537920355150740,-3,-1,0,-1,0,-8,-40,-10
1537920355150740,2,1,0,-1,-1,16,42,0
1537920355151738,1,1,-2,1,-1,7,52,3
1537920355151738,2,0,0,-1,-3,-21,-36,-1
1537920355172682,1,0,-2,1,5,9,-8,4
1537920355172682,-1,-1,-1,-5,-6,0,4,0
1537920355174676,-1,-3,-1,0,3,4,-15,-5
1537920355174676,-1,0,-1,-2,-7,-6,3,1
1537920355187641,0,0,0,-1,1,17,17,-2
1537920355187641,-1,-1,0,0,4,-2,-33,-5
1537920355189637,-1,0,-1,-2,-6,-19,25,-3
1537920355189637,-3,-2,-2,-1,-2,-2,-33,0
1537920355210581,-2,-1,1,-2,3,18,-4,-7
1537920355210581,0,0,-2,-2,-2,-8,-6,-3
1537920355211578,-5,0,0,1,2,4,0,-6
1537920355211578,0,0,-1,0,4,6,-45,-2
1537920355232522,0,-2,-3,-1,-4,-20,-4,-2
1537920355232522,-3,-2,-2,-1,2,-5,-15,-4
1537920355234517,-1,-1,0,-1,-2,0,-20,-4
1537920355234517,2,0,0,0,4,11,31,12
1537920355255461,2,-2,0,-3,1,-4,6,3
1537920355255461,-2,-1,0,1,-2,5,-24,-5
1537920355256458,-2,-1,-1,-2,-4,-15,19,-6
1537920355256458,0,-1,-1,-3,0,3,23,-4
1537920355270420,0,-2,-1,1,0,12,8,0
1537920355270420,1,-1,-1,0,8,5,23,15
1537920355272415,2,-1,-1,-3,-15,-18,-6,-1
1537920355272415,-1,-2,-1,0,1,-7,-24,0
1537920355293359,0,-1,-1,0,-3,1,5,-6
1537920355293359,-1,-2,-2,-1,-4,9,-11,-4
1537920355294356,-2,-1,0,-1,4,8,-23,3
1537920355294356,0,-1,1,0,-2,-1,6,-6
1537920355308319,-4,-2,-1,-2,-4,-30,6,-2
1537920355308319,-2,1,-2,-2,-6,5,-81,-8
1537920355309317,1,1,-1,0,4,11,62,7
1537920355309317,-1,-2,-1,-1,-3,-10,-61,-3
1537920355330260,3,1,1,0,1,1,2,8
1537920355330260,0,0,0,-1,-1,-4,-1,-21
1537920355332255,-1,-1,-1,-1,0,5,-20,0
1537920355332255,0,0,-2,-2,0,4,14,-3
1537920355353199,-3,-1,-2,-1,1,-6,-9,6
1537920355353199,-2,-3,0,0,-1,-11,7,-5
1537920355354197,2,0,0,0,1,-1,-11,13
1537920355354197,-3,-1,0,-2,-1,3,17,-1
1537920355367162,-1,-2,-2,-2,-3,9,4,-10
1537920355367162,3,1,0,-1,3,5,49,17
1537920355374143,-1,0,1,0,2,-5,-17,-17
1537920355374143,-1,-1,-1,-1,-2,1,-8,11
1537920355390100,-1,0,-3,-2,-13,-14,1,-3
1537920355390100,-1,-2,0,-1,0,4,-2,-1
1537920355392095,0,-2,-3,0,-3,-1,-5,0
1537920355392095,-4,0,0,-1,1,-1,7,-7
1537920355413039,0,-1,1,1,7,5,1,-2
1537920355413039,1,-1,1,0,5,9,20,2
1537920355414037,-1,-1,-1,-2,-3,-11,-37,3
1537920355414037,1,-2,-2,-3,0,8,16,-4
1537920355428000,-4,-1,-2,0,-5,-16,-13,-5
1537920355428000,1,0,1,1,3,-8,19,7
1537920355433983,-2,-1,1,0,3,8,-33,-1
1537920355433983,-1,-2,-1,-2,-10,14,24,-3
1537920355450938,-1,0,-2,-3,1,-4,-21,-3
1537920355450938,-2,-3,0,-3,-10,-21,-7,-4
1537920355451935,5,-2,0,1,3,2,13,2
1537920355451935,-2,-2,-1,1,4,1,-4,-5
1537920355472879,3,1,-1,0,-4,-3,30,13
1537920355472879,-3,-1,-1,0,3,7,-42,-4
1537920355474874,-4,-2,-3,-3,-6,-3,0,-5
1537920355474874,0,-1,1,0,-5,-21,-5,-3
1537920355487839,0,1,1,0,0,21,34,2
1537920355487839,0,-1,-3,-2,-5,-8,-13,-3
1537920355493823,0,-1,0,0,1,3,17,2
1537920355493823,-4,-1,-1,-1,-1,1,-2,-6
1537920355510778,-1,-1,-1,-2,5,-1,-1,-5
1537920355510778,4,-4,-2,-4,-11,3,-9,7
1537920355511775,-1,-1,-1,0,2,8,-20,-3
1537920355511775,-1,0,-1,-1,1,-14,7,3
1537920355532719,-1,0,-1,0,1,3,34,-1
1537920355532719,-3,1,0,1,2,6,20,-4
1537920355534714,-3,0,-2,0,-3,-15,-54,-4
1537920355534714,0,-1,0,-1,2,8,-5,2
1537920355547680,4,-2,0,-1,-6,-10,42,6
1537920355547680,2,-1,-1,-4,0,0,2,2
1537920355553664,-6,-1,-1,-2,-6,-17,30,-5
1537920355553664,3,0,-1,0,5,31,-16,-2
1537920355570619,-5,-3,-1,-1,2,7,4,-5
1537920355570619,0,-1,0,-1,-2,-10,-9,-2
1537920355571618,1,0,-1,-2,-2,0,4,2
1537920355571618,-1,-3,-2,1,3,-3,7,1
1537920355592561,-4,-1,-3,-2,-8,-16,-24,-5
1537920355592561,-2,0,-1,0,1,0,2,3
1537920355594556,-2,-1,1,1,1,3,-12,-4
1537920355594556,0,-2,-1,-1,-3,9,33,5
1537920355607521,1,-1,-2,-1,-2,4,-8,3
1537920355607521,-1,0,0,0,-1,-14,-13,-4
1537920355614503,-1,-1,1,0,5,12,22,1
1537920355614503,-3,-1,0,2,0,-2,13,-10
1537920355630460,1,-2,-1,0,0,4,-31,14
1537920355630460,-1,-1,-1,0,0,1,15,-17
1537920355632454,0,-1,-1,-1,0,-1,6,2
1537920355632454,-1,-2,-2,-4,-6,-11,-2,2
1537920355653399,-1,0,2,2,3,-2,-19,-3
1537920355653399,-5,0,-2,-2,-1,3,-3,5
1537920355654395,3,-1,-2,-2,-1,0,-19,-3
1537920355654395,0,-2,-2,-1,-2,-3,4,3
1537920355667359,0,1,0,0,-3,2,13,-2
1537920355667359,-3,-1,-1,-2,-3,-7,-7,2
1537920355674341,-2,-2,-1,-1,-5,-6,-6,4
1537920355674341,-2,-2,-1,-1,1,0,-20,-6
1537920355690298,-2,-2,-1,-1,5,-1,4,-12
1537920355690298,3,0,0,1,-3,13,12,6
1537920355692293,-5,0,-3,-1,-4,-31,-8,-8
1537920355692293,2,2,0,0,-2,29,-7,1
1537920355713237,-3,-1,-2,-2,-1,-15,-44,-1
1537920355713237,-2,-3,-1,-1,4,14,44,-5
1537920355714234,0,-3,-1,-3,-6,1,6,1
1537920355714234,-3,-1,-2,-1,-3,-15,-28,6
1537920355726202,1,-1,1,0,1,5,20,-11
1537920355726202,-6,-2,-2,-2,3,-4,-31,0
1537920355735178,2,-1,0,0,-8,-6,-35,-3
1537920355735178,0,0,0,-1,-2,-2,89,4
1537920355750139,1,-1,0,-1,3,9,-54,0
1537920355750139,1,0,0,0,-2,-5,33,0
1537920355752134,-2,-1,-1,0,8,18,17,0
1537920355752134,-1,-1,0,-1,-8,-17,-39,-8
1537920355773079,1,-2,-1,1,-1,-1,37,6
1537920355773079,1,-1,-1,-1,4,-3,-43,-3
1537920355774077,2,-1,-1,-1,-2,0,29,7
1537920355774077,-2,-1,-1,-1,-4,1,3,-4
1537920355787041,-1,0,-1,-1,-1,-10,-41,-5
1537920355787041,0,-1,-3,-2,-10,0,28,-3
1537920355796016,-3,1,-1,0,-1,-1,-13,-1
1537920355796016,2,1,-2,2,6,9,25,1
1537920355809979,-4,-2,0,1,0,0,45,-2
1537920355809979,-1,0,-1,-1,-5,-16,-34,3
1537920355816960,-3,-2,-1,-2,0,8,24,-4
1537920355816960,-1,0,0,-1,-1,-21,-60,-8
1537920355832917,0,-1,0,0,3,27,39,3
1537920355832917,1,1,-3,-1,-6,-12,-1,0
1537920355834912,2,1,-2,0,-1,7,0,1
1537920355834912,2,-1,-2,0,-1,-12,-34,0
1537920355846880,-2,0,-3,-1,-3,-5,0,-2
1537920355846880,-2,-3,-1,-1,2,12,-11,-5
1537920355862837,0,0,1,2,6,4,-12,-1
1537920355862837,-1,-1,1,-1,-2,2,0,0
1537920355870816,-1,0,-3,-3,-4,-11,-10,-2
1537920355870816,0,0,1,1,7,7,47,-1
1537920355871814,-2,-2,-1,-1,-7,3,-11,-7
1537920355871814,0,0,-1,-2,-4,-15,37,2
1537920355892757,1,-2,-1,-3,-3,-8,-30,0
1537920355892757,-4,-1,-1,1,4,17,0,-1
1537920355894752,-2,-2,-2,-5,-9,-21,-24,-3
1537920355894752,1,-1,1,1,5,4,-14,0
1537920355906720,-2,-2,-1,-1,-4,6,50,-1
1537920355906720,7,0,-1,-1,0,-8,-28,6
1537920355915696,0,-1,1,1,6,12,36,11
1537920355915696,-3,-2,0,-1,0,10,0,-13
1537920355930656,0,0,-3,-3,-6,-31,-69,-11
1537920355930656,2,1,1,-1,4,16,85,16
1537920355931653,-4,-3,0,-2,-7,-9,-33,5
1537920355931653,6,1,-1,0,1,2,34,7
1537920355952597,0,-1,0,-1,2,4,-7,-4
1537920355952597,-2,-2,-1,-1,-4,-10,-33,-7
1537920355954592,0,-1,-1,-1,0,7,-14,-2
1537920355954592,-5,-2,-1,-1,-2,-7,-23,-4
1537920355966560,0,-2,-1,-1,3,13,7,0
1537920355966560,-7,-1,-2,0,0,4,13,-3
1537920355975538,2,3,0,0,3,-13,12,-4
1537920355975538,-1,-1,-1,-1,-9,4,-11,-1
1537920355990496,1,1,1,0,3,-3,-5,2
1537920355990496,-2,-2,-1,-3,-7,-9,-39,-4
1537920355991495,-1,-1,-2,-2,2,10,20,-2
1537920355991495,5,-1,-2,0,0,-2,-1,2
1537920356013435,0,0,-1,-1,-3,-5,-31,4
1537920356013435,-5,0,0,0,2,9,23,-8
1537920356014433,2,-1,-2,-1,4,5,39,6
1537920356014433,-2,0,-2,-1,-2,0,-3,-5
1537920356026400,-1,-1,0,-1,-1,-8,-56,0
1537920356026400,-1,-2,0,3,4,9,45,-6
1537920356035376,-2,-2,-1,-1,-9,-12,-18,-8
1537920356035376,-2,-2,-1,-4,-2,5,21,2
1537920356050337,-3,0,1,1,1,-13,-16,1
1537920356050337,1,-2,-2,0,-2,5,-27,2
1537920356052332,-2,-2,-2,1,2,-1,0,-7
1537920356052332,0,-2,-1,-1,4,4,-11,2
1537920356073277,-1,-1,-2,-1,-5,-1,31,-5
1537920356073277,1,-2,0,-1,-4,-14,-43,4
1537920356074273,-1,1,-1,1,1,-1,-20,-8
1537920356074273,1,1,-1,1,2,1,38,6
1537920356087237,0,-1,2,1,8,6,8,0
1537920356087237,-1,-1,-4,-5,-13,-13,-9,-5
1537920356095216,1,-2,-1,-3,-10,1,-17,1
1537920356095216,-3,-1,1,-2,2,7,0,-1
1537920356110176,-1,-1,0,0,-1,10,22,4
1537920356110176,-1,0,1,-2,2,-16,-15,-11
1537920356112171,-2,-1,1,0,2,-1,2,-2
1537920356112171,-5,0,0,2,1,-18,-42,-9
1537920356133115,1,0,-1,-1,-9,8,68,14
1537920356133115,-2,0,-2,-2,3,20,33,4
1537920356134112,-1,-1,-2,0,2,-2,-1,-4
1537920356134112,-3,0,-1,-2,-3,-7,1,-2
1537920356147077,-2,-2,-2,-1,0,-2,-40,-2
1537920356147077,1,1,0,2,1,-2,3,-6
1537920356155057,0,-2,-3,-1,-3,-1,16,3
1537920356155057,-4,-1,1,1,1,-1,3,-5
1537920356170016,-2,-1,-1,-3,-2,-2,-7,-5
1537920356170016,-2,0,0,-1,-1,7,8,0
1537920356172012,3,0,-2,0,2,-1,-12,1
1537920356172012,-2,2,1,-1,-4,-3,-21,10
1537920356192955,-13,-4,-2,0,-2,-7,-41,-25
1537920356192955,6,-6,-5,-2,2,8,80,16
1537920356193953,3,0,0,-1,-1,2,-9,-6
1537920356193953,0,-6,-3,1,0,-1,-13,-16
1537920356215894,1,3,1,2,0,0,22,-1
1537920356215894,-3,0,1,0,-1,-8,-24,5
1537920356216892,-4,-3,0,0,0,-2,-5,0
1537920356216892,2,-1,-2,-3,-3,-4,2,-1
