timestamp,emg1,emg2,emg3,emg4,emg5,emg6,emg7,emg8
1537905122851673,0,-11,-7,-12,-3,-1,-1,0
1537905122851673,0,9,25,-8,0,-1,0,0
1537905122856659,-4,-3,-33,-2,-1,0,-2,0
1537905122856659,-1,1,14,7,0,0,0,0
1537905122857657,-3,-7,-3,-1,-2,-2,-2,-3
1537905122857657,2,-2,-30,6,4,2,1,-2
1537905122858654,-2,-5,-11,-4,-3,-3,1,-2
1537905122858654,-1,13,34,1,-1,-1,-2,-2
1537905122862644,1,3,3,2,-2,0,0,5
1537905122862644,-2,-3,7,-2,-3,-2,-4,-6
1537905122863641,2,-1,-20,-3,0,-1,1,2
1537905122863641,-2,-11,-5,-4,-1,-2,-1,0
1537905122880596,1,5,2,0,1,1,-2,-4
1537905122880596,1,-3,-4,-1,-1,1,2,6
1537905122884585,-3,-2,31,1,-1,-3,-4,-9
1537905122884585,-1,-3,-31,-6,-3,-2,-1,-1
1537905122895556,-2,-8,-8,1,0,-1,-1,-3
1537905122895556,3,17,-5,-5,0,-1,1,3
1537905122918494,3,12,15,3,1,0,1,3
1537905122918494,0,0,28,0,-1,1,-1,0
1537905122919491,-2,-2,-11,1,1,-1,-1,0
1537905122919491,-2,-4,-5,-1,-1,-2,-1,0
1537905122931460,-1,3,-5,-1,-2,-2,0,-1
1537905122931460,1,5,4,1,-1,-2,-5,-11
1537905122955396,2,5,-4,1,0,2,5,10
1537905122955396,-1,-10,4,-3,-2,-1,-3,-1
1537905122956393,-2,1,4,-1,2,-1,-1,-5
1537905122956393,-1,-7,-17,-2,-2,1,-1,0
1537905122959385,-3,-3,-7,-4,-1,-2,-2,-6
1537905122959385,-1,2,-3,2,0,-1,0,4
1537905123007257,0,-1,-6,-4,-3,-1,-1,-1
1537905123007257,3,7,0,-2,0,1,1,2
1537905123008255,-2,-9,4,0,-2,0,0,-3
1537905123008255,-3,-11,-22,-2,-1,-2,2,1
1537905123009252,0,-26,-22,-6,1,-1,-2,-2
1537905123009252,1,17,0,1,0,-3,-3,1
1537905123021220,-3,-14,12,-4,-2,-2,-2,0
1537905123021220,1,8,27,4,-2,1,-1,-1
1537905123022217,-4,-4,-1,4,-1,1,1,0
1537905123022217,0,-1,-6,-3,-3,-1,0,-2
1537905123023214,1,5,-4,2,-1,0,-1,0
1537905123023214,-3,-3,0,1,-3,-1,-2,-1
1537905123035182,-2,5,-3,-8,-3,-3,-3,-1
1537905123035182,-4,0,2,0,0,-1,-1,-1
1537905123042164,2,8,-7,-3,0,0,-4,-13
1537905123042164,-5,-11,4,-1,0,-2,0,-4
1537905123049145,1,7,-2,4,0,-1,0,-1
1537905123049145,-2,-7,-3,-1,-1,-2,1,5
1537905123073081,0,-5,10,-2,-2,-3,-4,-8
1537905123073081,2,3,-31,-3,-2,0,-1,1
1537905123074079,0,10,21,5,2,0,0,-1
1537905123074079,-3,-6,-9,-1,1,-2,-1,-1
1537905123087044,-2,-3,-18,-1,2,1,3,5
1537905123087044,-1,1,41,-2,-2,1,-1,-1
1537905123095023,-1,3,-15,3,1,-1,1,1
1537905123095023,0,-5,13,-3,0,1,-1,-3
1537905123109983,0,6,-8,1,2,0,1,4
1537905123109983,0,0,10,-5,-2,-3,-2,-1
1537905123110980,1,1,-16,-4,0,0,-1,0
1537905123110980,1,-7,14,2,-2,0,-1,-2
1537905123132921,-1,18,-4,2,0,-1,1,2
1537905123132921,-1,-5,-1,-1,1,0,1,-1
1537905123133918,-2,0,15,1,-2,0,-2,1
1537905123133918,-1,-1,-19,-1,-2,-3,0,-3
1537905123155860,0,0,-1,-2,-2,-2,0,4
1537905123155860,2,-3,-8,1,1,-1,-1,-2
1537905123156858,0,-3,0,-4,-2,-1,0,-1
1537905123156858,1,6,0,0,-1,-1,1,6
1537905123177801,2,-1,-8,-3,-1,-2,-7,-20
1537905123177801,-4,3,24,-1,0,-2,1,1
1537905123178799,0,-2,-14,0,-1,-1,0,0
1537905123178799,-2,-8,0,0,-1,-1,-1,-1
1537905123192761,0,-4,5,0,-1,-1,1,2
1537905123192761,-2,2,-11,2,0,-2,-2,-1
1537905123193759,-2,2,13,-6,-2,-1,1,-3
1537905123193759,-2,-8,-12,4,4,0,1,-1
1537905123206724,0,4,4,-8,-2,1,1,5
1537905123206724,1,-2,-15,-1,0,-1,-2,-1
1537905123222681,-2,-1,20,1,0,-3,0,1
1537905123222681,1,1,2,-2,-1,0,-2,-1
1537905123229662,-1,-11,-4,1,0,2,2,3
1537905123229662,2,3,0,-1,-1,-1,0,0
1537905123230660,1,21,2,-1,0,-1,-2,-2
1537905123230660,-1,1,-1,-4,-2,1,0,-1
1537905123260580,-2,-4,-2,1,-1,0,1,2
1537905123260580,1,5,4,-4,-2,0,-1,-1
1537905123261578,2,-10,-11,3,0,-1,1,0
1537905123261578,-2,-9,0,-1,-1,-1,0,-2
1537905123266564,-2,8,37,5,0,-1,0,4
1537905123266564,-2,-4,-39,-9,-1,-1,-3,-1
1537905123274543,-1,-1,1,1,0,-1,-1,-1
1537905123274543,-2,3,-2,-4,-3,-2,-1,-2
1537905123298479,0,0,19,1,-2,-1,-2,-2
1537905123298479,-3,-3,-6,2,-2,-2,0,-1
1537905123298479,-3,-10,-16,-4,0,0,0,-1
1537905123298479,0,4,16,2,2,1,-1,-1
1537905123313439,-2,-6,-8,-1,1,-1,1,3
1537905123313439,-2,1,5,1,0,-3,-1,-7
1537905123313439,0,3,0,-3,-2,-1,-1,0
1537905123313439,-1,-4,-21,-3,-3,-2,-2,-3
1537905123335380,2,2,12,0,-3,0,-1,2
1537905123335380,2,-1,25,7,4,1,1,2
1537905123336377,0,-3,-38,-19,-6,0,-2,0
1537905123336377,2,4,18,4,1,0,0,0
1537905123350340,0,-17,-28,5,2,0,-2,0
1537905123350340,-2,5,11,-5,-4,-1,-1,0
1537905123350340,2,4,23,13,3,0,-1,-1
1537905123350340,-1,-1,-3,-2,0,0,-1,-1
1537905123373279,0,-3,-10,-7,-3,-1,0,0
1537905123373279,-1,0,-7,2,2,1,-1,0
1537905123374276,-3,0,16,1,0,-2,0,-2
1537905123374276,0,-3,-6,-1,-1,-2,0,0
1537905123395220,-1,3,-3,2,1,-1,1,0
1537905123395220,-2,0,-13,-7,-3,-1,-1,-1
1537905123402201,1,4,-2,2,-1,0,-1,0
1537905123402201,-2,3,13,4,0,0,0,1
1537905123410180,-2,1,-4,-3,-4,0,-2,-2
1537905123410180,0,-2,-12,-5,-1,1,-1,1
1537905123411178,-2,-10,-9,-1,-1,1,-1,0
1537905123411178,-1,5,6,0,0,-1,-2,-2
1537905123433119,-1,-1,-11,-3,0,-2,-1,-1
1537905123433119,0,-1,-1,0,-1,-2,-1,0
1537905123435113,-1,-5,8,7,2,0,-1,-2
1537905123435113,3,4,-14,-11,-5,-1,0,-1
1537905123456057,-2,-6,10,-3,-1,-3,0,-2
1537905123456057,1,-1,-15,2,2,1,0,0
1537905123457055,1,6,17,0,0,0,1,9
1537905123457055,-2,-2,-3,-1,-1,-2,-3,-9
1537905123469022,-3,-7,-9,-3,0,-2,-1,-2
1537905123469022,0,-13,-14,-2,0,0,0,-1
1537905123477999,-3,9,20,0,0,0,-2,-3
1537905123477999,-2,-12,-6,-4,-3,-2,0,1
1537905123507919,1,5,3,0,1,0,1,-1
1537905123507919,-2,-4,-2,0,-1,-1,-2,-1
1537905123509913,-3,-14,-18,-3,0,1,0,-2
1537905123509913,-2,5,22,-7,-2,-2,-2,1
1537905123515897,1,-1,-17,4,-1,-2,-1,-2
1537905123515897,-1,19,12,0,-3,-1,1,3
1537905123516895,-1,-7,0,-2,0,-1,0,-3
1537905123516895,-2,2,-5,3,2,-1,1,0
1537905123537838,-1,0,-3,-4,-2,0,-1,-1
1537905123537838,1,2,-1,1,1,1,2,1
1537905123539833,-3,-3,-6,-1,-1,-2,-1,-2
1537905123539833,0,0,-8,-2,1,-2,-2,2
1537905123560777,-1,5,3,-2,-1,1,-1,-1
1537905123560777,-1,-9,-2,-1,-1,0,-1,-1
1537905123561775,1,2,-2,-2,-1,-1,0,-2
1537905123561775,-2,-5,2,2,-2,0,0,0
1537905123575737,0,5,-3,-1,-2,0,-1,0
1537905123575737,0,0,-4,-7,-3,-1,-1,-1
1537905123576735,0,1,4,1,-1,-1,-2,-2
1537905123576735,1,1,-7,5,2,-3,0,1
1537905123589700,0,4,3,-1,1,1,0,-1
1537905123589700,-2,-14,11,4,3,0,0,-2
1537905123604660,0,0,-7,2,-4,-3,-2,-1
1537905123604660,-3,-6,-16,-18,-7,-2,-2,-2
1537905123613636,-2,5,-22,-4,-2,0,-1,-2
1537905123613636,1,8,49,10,2,0,-1,0
1537905123614634,1,-4,-33,-12,-5,0,-1,-2
1537905123614634,-1,-3,-5,23,12,2,0,0
1537905123643556,2,3,49,-21,-1,1,0,0
1537905123643556,0,13,-35,2,-10,-8,-2,1
1537905123644554,-3,-1,-13,-32,1,5,-1,-1
1537905123644554,-3,-13,13,18,2,-5,-6,-4
1537905123649540,3,0,-25,21,8,7,10,9
1537905123649540,-1,-12,-27,-20,3,0,3,0
1537905123656522,-1,7,17,-86,-36,-1,3,0
1537905123656522,-10,-13,15,-1,-43,-19,-11,-9
1537905123680457,12,19,55,34,62,38,25,15
1537905123680457,2,-6,-74,2,-12,-1,-3,0
1537905123682452,3,-15,-23,-33,-42,-35,-5,3
1537905123682452,-7,3,66,1,-13,-10,-2,-5
1537905123695417,-10,-17,-94,-25,-39,-16,-17,-10
1537905123695417,0,20,72,8,25,10,-4,-5
1537905123697412,4,3,10,47,39,20,4,4
1537905123697412,2,-14,-85,-27,-4,2,7,3
1537905123709380,-5,3,109,11,-26,-22,-8,-6
1537905123709380,3,9,-43,-13,10,10,2,2
1537905123718356,1,15,-26,118,33,-4,-6,-2
1537905123718356,4,16,-27,-13,33,18,9,4
1537905123733316,4,21,25,23,6,-2,-1,2
1537905123733316,-6,-6,-7,-24,4,8,5,0
1537905123734313,1,10,8,115,51,22,6,2
1537905123734313,3,11,-43,-76,-48,-16,-9,0
1537905123755257,0,2,-92,-43,41,18,6,0
1537905123755257,-5,-10,67,-79,-67,-14,-10,-5
1537905123757252,5,16,12,33,23,12,3,5
1537905123757252,3,-14,-92,-3,-1,-2,2,5
1537905123778196,-3,-19,61,21,-4,-1,-3,-3
1537905123778196,2,1,46,66,25,4,1,0
1537905123779194,-7,-21,-31,-71,0,0,-3,-5
1537905123779194,-2,-2,52,37,-5,-7,-2,-4
1537905123793156,-2,-3,72,28,21,6,0,-3
1537905123793156,5,-7,-112,-40,-37,-15,-4,1
1537905123794154,-3,-11,34,-11,-23,-13,-4,-4
1537905123794154,2,6,42,3,11,5,-1,-1
1537905123816095,-3,-10,-36,-12,-23,-10,-6,-3
1537905123816095,-2,-6,21,32,27,3,2,0
1537905123817092,-2,-1,7,-45,-21,-5,-2,-1
1537905123817092,2,-2,-5,17,11,8,1,0
1537905123829061,-2,-8,-35,-19,-2,-5,-3,-2
1537905123829061,-2,-5,23,32,-4,-7,-5,-2
1537905123838036,-3,-17,-7,-14,-8,-1,-1,-3
1537905123838036,0,-3,19,1,14,5,1,-1
1537905123852996,-3,-15,-16,-9,-20,-12,-4,-3
1537905123852996,-1,-9,-3,5,8,1,1,-1
1537905123854991,-1,-4,-2,-15,-15,-5,-4,-2
1537905123854991,2,2,6,11,7,4,1,1
1537905123875935,0,-2,-12,-6,-9,-5,-3,-1
1537905123875935,-1,-1,-5,4,2,-2,0,-2
1537905123876932,-2,2,5,-6,18,1,2,-1
1537905123876932,-3,6,17,0,-12,-5,-3,0
1537905123888900,-3,-1,-11,-11,-9,-3,-3,-2
1537905123888900,-3,11,-1,3,6,-4,-3,-1
1537905123897877,-1,5,6,-7,-10,-5,-1,-1
1537905123897877,0,10,12,14,13,5,1,-2
1537905123913834,1,8,-4,-5,4,-1,-1,0
1537905123913834,-2,2,0,-21,-15,-6,-2,-2
1537905123918821,-1,6,8,3,-2,-1,-1,-1
1537905123918821,0,2,-5,-4,3,1,-1,-3
1537905123935775,1,0,-5,5,2,-2,-1,-1
1537905123935775,-1,-3,10,3,2,-2,-2,-1
1537905123936772,-1,1,-4,-7,-10,-2,-1,-1
1537905123936772,-1,-2,1,-3,4,-1,0,0
1537905123949738,-1,0,0,-2,-9,-3,-2,-1
1537905123949738,0,1,2,7,3,1,2,0
1537905123957716,-1,-2,-5,2,0,1,0,-2
1537905123957716,0,0,4,0,6,1,-2,0
1537905123988634,0,1,0,-4,-9,-4,-1,0
1537905123988634,-2,-1,-26,5,-4,0,-1,-2
1537905123989631,-2,1,2,0,-2,-3,-1,-1
1537905123989631,-1,-3,4,3,4,3,1,-1
1537905123994619,-1,-2,-7,-5,-3,-1,1,-1
1537905123994619,2,3,4,4,6,1,-2,1
1537905124003595,-2,-5,19,-12,-9,-2,-2,-2
1537905124003595,0,-3,-19,2,-3,-2,-2,0
1537905124027531,-1,-5,-7,5,0,-1,-2,-1
1537905124027531,-1,-2,7,3,3,1,1,0
1537905124028529,1,-6,-4,-1,-2,-2,-1,-2
1537905124028529,-2,-2,5,-6,-1,-1,0,0
1537905124040497,-2,-2,-4,-2,-2,0,-1,-2
1537905124040497,-1,0,1,1,4,1,2,-1
1537905124042492,0,1,-3,0,-1,-1,0,-1
1537905124042492,-1,-2,1,-3,-1,-2,-1,-1
1537905124054459,0,0,-5,2,0,0,-1,-2
1537905124054459,0,-3,3,1,2,1,1,-1
1537905124063435,-2,-4,-19,-9,-7,-2,-2,-2
1537905124063435,-2,-1,24,8,6,0,-1,-2
1537905124078394,2,6,-35,-11,-10,-1,-2,0
1537905124078394,-1,3,16,10,4,-1,-1,0
1537905124079391,1,3,36,-19,3,3,4,3
1537905124079391,-6,-11,-62,32,-8,-4,-2,-2
1537905124100335,-1,-5,-17,2,-2,-3,-3,0
1537905124100335,0,-6,-49,-8,-4,-3,-3,-1
1537905124102330,2,3,89,58,65,17,5,1
1537905124102330,-7,-12,-9,-102,-29,-9,-2,-7
1537905124114298,7,13,-70,-11,12,6,3,5
1537905124114298,7,-12,20,35,18,4,7,8
1537905124139231,-10,-4,-59,-69,-64,-21,-9,-11
1537905124139231,17,31,127,51,52,25,12,12
1537905124139231,-4,7,61,-7,-46,-15,-10,-5
1537905124139231,-8,-21,-121,-118,-12,6,-5,-7
1537905124141226,3,-11,-76,37,39,8,6,7
1537905124141226,-12,25,74,30,-107,-36,-19,-17
1537905124161173,1,-8,-98,119,99,26,6,3
1537905124161173,3,16,92,-24,19,1,5,5
1537905124162170,-5,12,-119,-96,-80,-30,-15,-8
1537905124162170,-5,-15,-120,-42,32,10,6,2
1537905124183115,-1,44,123,90,4,-6,1,0
1537905124183115,-1,4,-22,6,7,3,-3,-1
1537905124185110,2,24,-2,21,35,8,4,2
1537905124185110,5,14,-28,-15,3,-6,0,4
1537905124198076,-7,6,33,-25,-26,-7,-5,-6
1537905124198076,-6,-8,1,-1,-12,-8,-2,-3
1537905124200071,3,-10,48,-5,-19,1,2,2
1537905124200071,3,-35,-24,14,34,9,2,1
1537905124221014,-4,-77,33,-29,-13,-4,0,-1
1537905124221014,1,-45,53,21,-14,-4,-2,-3
1537905124222012,0,-51,26,8,8,3,-1,-3
1537905124222012,-2,-27,18,7,12,5,1,-1
1537905124233980,-3,-4,-24,-53,-15,-5,-2,-2
1537905124233980,0,34,-26,8,-10,-4,-2,-3
1537905124242956,-2,29,32,38,14,7,-1,0
1537905124242956,-1,20,-25,-26,-4,-2,1,-1
1537905124265893,0,21,-22,-18,-7,1,0,-1
1537905124265893,-1,16,17,19,0,-1,-3,-1
1537905124266892,0,1,-4,-8,3,2,1,0
1537905124266892,0,-2,0,6,-6,-2,-2,2
1537905124287834,0,-15,-11,-27,-2,-2,-1,0
1537905124287834,-1,-10,6,6,3,-1,0,-1
1537905124289829,0,-18,-2,0,-4,-3,-5,0
1537905124289829,2,-6,-7,-3,-5,-4,0,-1
1537905124293818,-2,-4,13,-3,1,0,0,-1
1537905124293818,-2,6,-7,-6,-2,-1,-1,-1
1537905124302794,1,13,0,8,2,2,0,0
1537905124302794,1,10,8,1,-3,-2,-2,1
1537905124317754,0,7,-7,-18,-1,0,-2,-3
1537905124317754,1,12,0,4,-9,-4,-1,0
1537905124319748,-1,6,-2,0,-2,-1,0,-2
1537905124319748,-1,4,3,5,10,3,0,-1
1537905124340692,-1,1,-5,-20,-10,-6,-2,-1
1537905124340692,1,2,-3,7,4,3,0,-1
1537905124341690,-1,0,8,9,3,0,1,-1
1537905124341690,-2,-4,-2,-7,-7,-4,-3,-1
1537905124354655,-1,0,-2,-6,-4,0,1,0
1537905124354655,0,-4,4,-1,0,0,0,0
1537905124370614,0,-3,1,11,6,2,1,1
1537905124370614,-2,-3,-2,-1,-6,-1,-2,-2
1537905124378593,0,-3,-1,-4,2,0,0,2
1537905124378593,-1,-3,-1,1,0,-1,-1,0
1537905124380587,-1,-3,0,0,-2,-2,-1,-2
1537905124380587,-1,-3,-2,1,1,-1,0,0
1537905124399536,-1,1,3,-2,-1,0,-1,0
1537905124399536,-2,0,-3,0,2,2,-1,-2
1537905124416490,0,-3,-3,-8,-3,-4,-2,0
1537905124416490,0,-1,1,1,2,1,-1,-1
1537905124417488,-1,-2,-4,-7,-4,-2,1,-2
1537905124417488,0,0,2,4,1,0,-1,-1
1537905124423471,-1,2,1,-5,-5,-1,-1,0
1537905124423471,-3,3,2,0,0,-1,1,1
1537905124438431,0,3,-2,0,4,2,0,-2
1537905124438431,-1,3,-3,-3,-5,-2,-2,-1
1537905124439429,-3,1,1,13,3,0,-1,0
1537905124439429,-1,-1,-4,-17,-1,-2,-1,-2
1537905124460372,-1,-2,-2,-8,-7,-1,0,0
1537905124460372,-1,1,3,3,-2,-2,-2,0
1537905124462367,-1,-2,0,-5,-3,-1,-2,1
1537905124462367,0,-3,0,7,5,3,1,-1
1537905124474335,-1,-2,0,4,-1,-2,-2,-1
1537905124474335,-3,0,-2,-3,-5,-2,-1,0
1537905124483311,0,-3,0,-3,0,0,-1,0
1537905124483311,0,-3,-1,8,3,1,-2,1
1537905124497274,0,-3,-1,-7,-5,-2,-2,-2
1537905124497274,-2,-2,-1,3,1,0,2,0
1537905124521210,1,-3,-4,-5,-2,-1,-1,-2
1537905124521210,-1,-2,2,-2,-1,1,0,-2
1537905124522207,0,0,-2,4,1,-1,0,-1
1537905124522207,-2,0,-1,-5,-3,-3,-2,-2
1537905124523204,0,0,-1,-3,-3,0,1,-2
1537905124523204,1,2,0,-1,0,0,0,-1
1537905124543151,-1,1,-1,-1,0,-1,-2,-1
1537905124543151,-1,-4,-3,0,1,-3,-2,-1
1537905124544149,-2,0,0,-2,-5,-2,-1,1
1537905124544149,0,-1,0,1,-1,-1,0,0
1537905124566090,-3,-3,-1,0,3,2,1,-1
1537905124566090,2,0,-2,-4,-2,-1,-3,0
1537905124567088,-3,-3,-3,-2,0,-2,0,-1
1537905124567088,-1,-2,-1,2,0,1,-2,-1
1537905124581051,-1,-2,2,-1,-1,0,2,0
1537905124581051,-2,-1,1,2,2,0,-1,0
1537905124582048,-1,-2,1,1,-3,-4,-2,-2
1537905124582048,-1,-1,-3,-7,-8,-3,-3,-2
1537905124594017,-1,-1,-3,-2,-3,1,0,-1
1537905124594017,0,0,-3,-6,1,-4,-4,-1
1537905124602991,0,0,2,0,-10,-3,-1,-1
1537905124602991,-1,-1,-1,-2,-5,-2,1,0
1537905124625931,-1,-1,-1,-1,1,1,-2,-1
1537905124625931,0,1,1,3,3,3,1,-2
1537905124626929,0,0,-2,-1,5,2,1,-1
1537905124626929,0,1,2,2,4,0,0,1
1537905124639894,0,1,0,-1,-2,0,0,-1
1537905124639894,-2,-2,0,1,0,0,-1,0
1537905124647873,0,-2,-3,-2,1,0,-2,1
1537905124647873,0,0,-1,-1,-1,-1,-1,-3
1537905124654855,-1,-1,0,-2,0,-4,-2,-1
1537905124654855,-1,-3,-2,-1,-6,-1,-1,0
1537905124670811,0,-1,1,0,1,0,-1,-1
1537905124670811,-1,-3,-2,-1,-1,-2,0,-2
1537905124687765,-1,-3,-1,3,1,0,0,0
1537905124687765,-5,-5,-2,-6,-8,-3,-2,-3
1537905124689760,6,8,0,-7,-7,-4,-3,1
1537905124689760,-5,-6,2,4,3,1,-2,-3
1537905124693749,7,4,-3,-3,-2,-2,-1,2
1537905124693749,1,-2,-2,4,2,1,1,0
1537905124695744,-15,-9,8,3,9,2,-1,-7
1537905124695744,-6,-6,-8,-11,-11,-6,-5,-4
1537905124706714,-1,1,1,2,-2,-1,-1,-2
1537905124706714,-1,4,2,6,0,-2,-2,-3
1537905124715691,-1,-7,-1,0,-8,-4,-3,1
1537905124715691,1,7,1,5,7,4,1,1
1537905124729653,-6,-7,-7,-2,5,10,15,6
1537905124729653,18,20,5,4,4,-2,9,-5
1537905124736634,4,6,7,10,8,18,9,78
1537905124736634,-5,-2,-5,-3,6,49,10,-52
1537905124752591,4,4,3,4,-2,-38,12,23
1537905124752591,-1,-13,-6,-9,-9,-19,7,14
1537905124759573,31,18,-5,-1,5,21,45,68
1537905124759573,-17,-1,1,-3,-6,-46,-31,-34
1537905124766554,10,11,7,2,23,122,23,-8
1537905124766554,-4,-3,1,6,9,-4,44,-31
1537905124775530,-21,-13,-7,-8,-27,-110,-82,-80
1537905124775530,33,15,4,-2,0,10,-6,38
1537905124789493,-11,-10,-7,-10,-10,-6,-18,-1
1537905124789493,12,4,-1,-3,8,-9,9,16
1537905124796474,13,-6,-2,1,6,0,40,62
1537905124796474,-37,-12,-8,-5,-3,36,-18,-78
1537905124820410,-22,4,-3,-3,-14,-80,-14,-79
1537905124820410,-19,3,-4,-4,-3,20,-40,-111
1537905124822405,1,0,-3,-3,3,84,-10,61
1537905124822405,17,8,-1,0,-5,-89,-4,13
1537905124826394,3,8,2,3,-1,-12,20,27
1537905124826394,-11,-9,-4,-6,-6,5,9,4
1537905124835370,-5,-1,-4,-5,-3,0,-3,-45
1537905124835370,6,-2,9,7,8,36,11,17
1537905124858309,6,-3,-3,0,3,23,-13,4
1537905124858309,1,4,1,0,-4,-17,-10,19
1537905124859306,-4,2,-3,0,2,3,-11,-40
1537905124859306,0,1,0,1,1,12,18,36
1537905124872271,2,2,0,0,-2,-29,-6,-8
1537905124872271,1,-1,0,-3,-4,12,-16,23
1537905124879253,-7,-3,-1,-1,3,-2,7,-24
1537905124879253,1,-6,0,-1,-2,-6,6,10
1537905124895211,0,1,-1,-2,-3,0,-9,3
1537905124895211,-1,0,-5,-4,-5,3,-6,15
1537905124897205,-1,2,-2,-2,-1,7,6,-16
1537905124897205,0,2,0,0,-1,-11,3,9
1537905124910170,1,-6,-3,0,-2,4,-10,6
1537905124910170,-2,-2,0,-1,-1,4,-1,21
1537905124917151,-5,-1,-1,-1,0,-15,0,-22
1537905124917151,0,0,0,1,-1,6,-2,10
1537905124940090,-1,-1,1,-2,1,2,-1,5
1537905124940090,0,-1,1,15,2,0,-1,6
1537905124949066,-1,3,-6,-18,-3,-6,-3,-10
1537905124949066,-1,-1,-5,-13,-13,-2,0,4
1537905124950064,1,-3,-5,11,-1,6,0,5
1537905124950064,-1,-4,-3,-14,4,-2,-2,5
1537905124956048,-3,6,9,2,0,-2,-5,-10
1537905124956048,0,-2,-6,-20,4,4,5,8
1537905124970010,2,3,2,-6,-12,-10,-2,-1
1537905124970010,0,-3,-9,44,7,4,-3,5
1537905124976991,0,0,-3,-32,-8,3,4,-3
1537905124976991,-2,-1,2,-4,1,0,1,0
1537905124992949,-2,-4,0,26,13,1,-2,0
1537905124992949,-1,-1,-3,7,-2,1,-4,2
1537905124998933,-3,-4,-5,-20,5,1,0,-6
1537905124998933,1,-2,-4,-31,-13,-6,-2,1
1537905125015888,2,1,18,23,-7,-3,-4,1
1537905125015888,1,0,1,-4,-3,-2,0,6
1537905125016885,-2,-7,-2,30,7,-4,-1,-4
1537905125016885,-1,-4,-2,27,7,2,1,4
1537905125029851,-4,-5,-6,-2,7,2,0,0
1537905125029851,-1,-5,-3,-24,-5,-2,1,1
1537905125036832,-1,-3,4,15,-8,-1,0,-3
1537905125036832,0,1,2,-3,0,0,-1,4
1537905125052789,1,0,-2,-5,-2,1,-3,-2
1537905125052789,0,-1,-1,13,-5,-3,-1,1
1537905125066752,-1,1,-5,-49,-10,-3,-1,-3
1537905125066752,0,0,-1,10,0,0,0,2
1537905125076725,0,0,-4,-19,-2,-2,0,-1
1537905125076725,0,-1,1,7,1,1,-1,0
1537905125078720,-2,-2,2,19,4,2,1,-2
1537905125078720,-2,-3,-1,11,-1,-4,0,0
1537905125089690,-1,-3,-2,-21,-9,-2,0,0
1537905125089690,1,0,2,-15,-2,0,-1,-1
1537905125098666,-1,-1,3,22,2,0,1,-1
1537905125098666,-1,-2,1,15,6,1,-1,-1
1537905125112629,-1,0,-6,-31,-2,0,-2,1
1537905125112629,-1,1,1,-8,-2,-2,0,-2
1537905125119611,-1,-1,-3,-10,-3,0,-2,-2
1537905125119611,-1,1,4,10,-3,-1,-2,-2
1537905125135568,-2,-2,0,7,1,-1,0,-1
1537905125135568,-1,-1,0,-6,-3,-1,-1,-1
1537905125136565,0,0,-2,10,3,-2,-2,-1
1537905125136565,0,1,-2,-1,-1,0,1,-1
1537905125149530,0,-2,-1,0,1,1,0,0
1537905125149530,0,-1,-1,-10,-1,-1,-1,-1
1537905125165488,0,0,-1,8,0,-1,-2,-1
1537905125165488,1,-1,-2,-5,-2,-2,-1,1
1537905125172469,-1,-2,-1,-3,1,-1,-1,-2
1537905125172469,-1,-1,0,0,0,0,0,0
1537905125179450,-1,-1,0,2,-3,-2,0,-2
1537905125179450,0,1,1,-3,2,29,22,7
1537905125203386,-4,-4,-2,4,-1,-37,-21,9
1537905125203386,-4,-2,0,2,13,96,42,0
1537905125204384,5,3,-6,-5,-29,-98,-91,-28
1537905125204384,-43,-8,0,-1,7,61,72,23
1537905125209370,41,10,10,11,12,34,83,85
1537905125209370,-21,-8,-7,-15,-16,34,9,-20
1537905125225328,-9,9,4,4,8,36,-34,-98
1537905125225328,1,7,-1,-2,-7,-69,-14,-43
1537905125240288,3,0,-6,0,1,-1,-34,21
1537905125240288,10,13,3,-4,-13,-47,-6,-73
1537905125242282,-14,0,0,-2,3,-32,73,-5
1537905125242282,-20,-8,-6,-7,0,8,-78,-26
1537905125255248,-6,-8,0,1,10,90,79,31
1537905125255248,30,5,2,3,13,27,25,114
1537905125257243,-1,-2,-2,-1,-31,-73,-57,61
1537905125257243,-6,-8,-5,-6,-8,8,-43,-68
1537905125269210,20,8,4,2,6,26,25,79
1537905125269210,-8,4,0,0,5,-8,-29,-40
1537905125278187,3,-2,4,6,24,115,58,29
1537905125278187,15,-1,3,4,3,-31,10,39
1537905125292150,-12,-4,-6,-5,-9,2,-49,-56
1537905125292150,1,-4,0,-1,-4,-13,-10,12
1537905125307109,-4,-6,1,3,4,-8,13,17
1537905125307109,20,4,-2,-4,-7,0,6,8
1537905125316085,-11,-3,-4,0,-2,-20,-14,-57
1537905125316085,-12,-4,0,0,-3,-43,-13,10
1537905125317082,-1,-7,-4,-1,2,5,3,-8
1537905125317082,3,3,2,1,2,8,0,4
1537905125329050,-8,-1,1,0,-7,-26,-15,-25
1537905125329050,-6,-2,-1,-2,-4,-21,-6,-2
1537905125346005,1,1,-2,0,3,25,0,7
1537905125346005,8,0,0,1,1,2,10,15
1537905125351989,-8,-2,-3,-8,-8,-26,-16,-19
1537905125351989,1,-3,1,9,2,0,-6,-7
1537905125358970,1,0,-3,-8,5,17,13,3
1537905125358970,7,1,1,5,-5,-13,-1,15
1537905125375925,-8,-2,-5,-5,1,-10,-12,-25
1537905125375925,-3,-1,0,-24,-16,-6,-9,-7
1537905125376923,4,0,4,24,5,7,7,8
1537905125376923,0,-1,-4,-40,-3,-4,2,6
1537905125397868,-3,3,3,14,4,-1,-12,-13
1537905125397868,3,-2,0,56,7,2,2,3
1537905125399864,0,-4,-2,-25,-8,-1,1,4
1537905125399864,0,0,-12,-50,-14,0,-3,-1
1537905125412829,-4,2,15,24,2,-2,-6,-14
1537905125412829,0,-1,-5,-12,9,-4,-3,5
1537905125420807,2,-1,4,34,-3,0,-2,-3
1537905125420807,1,-2,-1,-4,11,6,4,2
1537905125451724,0,-1,-1,10,-7,-9,-5,-4
1537905125451724,-2,-5,-3,40,17,1,0,3
1537905125452723,0,-3,-4,-7,1,7,0,0
1537905125452723,1,7,12,-69,-36,-7,-3,1
1537905125453719,-3,0,-6,66,5,-8,-7,-6
1537905125453719,0,-1,-7,-85,-25,-7,-3,-1
1537905125458705,0,1,2,27,8,4,1,0
1537905125458705,2,-2,-5,45,16,1,3,5
1537905125480646,-3,-3,-3,-26,-3,-3,-3,-7
1537905125480646,0,-1,0,25,8,0,-3,-2
1537905125481643,2,0,-8,-25,0,0,2,1
1537905125481643,-3,-3,1,23,6,1,0,0
1537905125494608,-2,-3,-4,-10,-2,-1,-2,-4
1537905125494608,-1,-3,-3,9,-1,-1,-1,0
1537905125503584,-1,2,13,13,6,-1,0,1
1537905125503584,0,2,-4,-27,-12,-3,-2,-1
1537905125509568,-1,0,-3,-10,-3,-4,-2,-4
1537905125509568,0,0,3,3,1,-3,-1,-1
1537905125518544,0,-1,-6,-7,-3,1,1,1
1537905125518544,-1,-1,1,33,10,3,0,-1
1537905125532506,0,-3,-3,-33,-5,0,0,-1
1537905125532506,-2,-1,4,0,-3,-4,-1,-3
1537905125546469,-1,-1,-2,18,6,2,0,0
1537905125546469,-2,-3,-5,11,5,0,-1,1
1537905125555445,-2,-1,0,-8,-4,-1,-1,-3
1537905125555445,0,1,5,7,0,0,-1,0
1537905125557440,-1,-1,-3,-1,0,0,0,-1
1537905125557440,0,-1,1,16,-2,-4,-2,-2
1537905125585365,-1,1,-1,-17,0,-1,-1,0
1537905125585365,0,1,-4,-6,-5,-2,-1,-1
1537905125587360,0,0,0,7,4,0,-1,0
1537905125587360,1,0,2,-14,-11,-5,0,0
1537905125600325,-3,-4,-2,12,0,0,-1,-1
1537905125600325,-1,0,0,-11,-2,0,-2,0
1537905125606309,-2,-1,-5,-16,-4,-2,-1,0
1537905125606309,-1,-1,0,32,9,1,-1,1
1537905125623264,1,-1,1,-4,-2,0,-2,-1
1537905125623264,-1,0,-1,-13,-4,-1,-1,0
1537905125624262,1,-1,-3,-6,-5,0,-1,-2
1537905125624262,0,-2,-2,11,4,1,0,1
1537905125637227,-2,0,-1,-14,-4,-4,0,-3
1537905125637227,-1,0,-2,-4,-1,0,0,-1
1537905125652187,-1,-1,-1,-2,-1,-3,-2,-1
1537905125652187,0,-1,1,4,1,1,1,-1
1537905125660166,0,-2,-1,-4,0,9,16,18
1537905125660166,6,6,6,11,8,6,0,2
1537905125674129,11,-8,2,-2,23,113,20,10
1537905125674129,-15,-7,-6,-8,-39,-100,-6,-55
1537905125683104,-11,1,-8,-8,-4,92,44,-29
1537905125683104,23,8,6,7,9,-43,21,88
1537905125684101,-62,-15,-10,-25,-39,-31,-70,-99
1537905125684101,30,16,7,13,33,58,26,72
1537905125706043,26,14,8,14,24,52,63,-24
1537905125706043,-1,0,0,-6,-24,-77,-52,-62
1537905125707041,-31,5,-4,-14,-36,-54,49,0
1537905125707041,-20,-1,-7,1,-5,34,-31,-81
1537905125727984,0,-4,-6,-10,13,91,5,78
1537905125727984,-5,8,12,18,42,108,127,72
1537905125729979,26,6,2,4,-5,-101,-24,-59
1537905125729979,-16,-5,3,6,1,18,-27,-24
1537905125742944,36,6,-1,-5,-22,-128,-88,-40
1537905125742944,-27,-8,-1,-2,9,125,28,-25
1537905125744939,5,-3,-4,-1,2,10,-60,54
1537905125744939,-3,-7,-4,-2,1,32,-12,-21
1537905125765883,-28,-11,-4,-5,-13,-50,-14,-45
1537905125765883,-6,-5,-4,-2,-12,-43,-16,14
1537905125766880,23,6,3,-1,9,30,8,34
1537905125766880,0,-1,-1,0,6,-8,52,0
1537905125779845,-5,1,5,8,1,-9,-27,33
1537905125779845,-4,-2,-4,-8,-15,-39,-12,-32
1537905125793808,0,-2,-2,-4,7,28,-7,-7
1537905125793808,5,-1,-2,4,7,-8,-10,38
1537905125802785,-7,-7,-1,-1,-8,-24,9,7
1537905125802785,3,-4,-9,-11,-12,6,-52,-20
1537905125804780,2,-1,2,3,6,-2,63,-4
1537905125804780,6,-1,2,2,1,-8,7,29
1537905125825724,-5,-3,0,0,-4,-20,-12,-8
1537905125825724,0,-3,-5,-4,0,20,-15,-23
1537905125826722,6,0,-1,1,3,3,8,28
1537905125826722,-2,-4,-1,9,-1,-15,6,4
1537905125839687,-6,-2,1,0,3,8,18,-11
1537905125839687,0,-5,-1,5,-5,-10,-16,2
1537905125848664,2,0,-1,-11,-2,-5,15,10
1537905125848664,-1,-5,-4,-18,-12,-7,-2,-3
1537905125862625,-3,-3,-5,45,16,15,-1,1
1537905125862625,4,4,7,-66,-22,-14,-2,-2
1537905125864620,2,1,3,-21,-18,-10,-3,5
1537905125864620,1,1,2,4,10,20,-1,3
1537905125884566,0,-2,-1,33,1,0,-1,6
1537905125884566,0,-3,-10,27,3,-19,-5,-11
1537905125885563,-1,-3,-4,-31,5,14,2,0
1537905125885563,1,0,-2,33,-4,-4,0,8
1537905125909499,-3,0,6,-21,-16,-8,-3,1
1537905125909499,2,-1,1,-29,-8,-5,-4,-8
1537905125910496,1,-1,1,29,20,10,3,3
1537905125910496,1,2,6,-8,-4,-2,0,5
1537905125930443,-3,-1,-11,1,4,-7,-6,-4
1537905125930443,-2,-1,12,44,10,6,-4,-4
1537905125931440,0,1,-3,-42,-15,-3,0,2
1537905125931440,0,-3,-4,25,14,1,4,3
1537905125945403,0,-1,2,-22,3,5,0,-2
1537905125945403,-3,-2,-4,-52,-35,-14,-7,-2
1537905125945403,-1,-2,-6,28,13,2,0,4
1537905125945403,0,1,-3,-11,-13,-6,-2,-1
1537905125968341,-1,-3,-2,4,3,3,-1,-2
1537905125968341,0,-2,-7,26,13,2,1,0
1537905125968341,-1,-1,1,3,-3,-4,-1,0
1537905125968341,0,0,4,5,3,3,-1,-2
1537905125982304,-1,-1,-9,-31,-16,-2,-3,0
1537905125982304,0,-1,1,-11,-2,-5,-1,-3
1537905125983302,2,-3,-2,14,3,5,0,0
1537905125983302,-2,-2,-2,-13,3,-1,0,1
1537905126006240,-2,2,2,27,1,-5,-1,-2
1537905126006240,-1,-3,-7,-16,1,0,-1,-2
1537905126012224,-1,0,3,22,1,1,1,-1
1537905126012224,1,-5,-3,6,11,4,1,0
1537905126035163,-3,16,4,-34,-20,-7,-2,-2
1537905126035163,3,2,3,12,2,-1,-2,0
1537905126036160,0,-3,-1,-3,4,-1,1,1
1537905126036160,-1,2,5,16,-4,-4,0,0
1537905126042144,-2,-9,-8,-11,3,2,-2,1
1537905126042144,-1,1,-2,1,3,1,-1,-1
1537905126043142,-1,3,-2,4,-2,-4,-1,0
1537905126043142,0,-3,-5,-12,-2,0,1,0
1537905126073062,2,1,0,-5,0,-1,0,-1
1537905126073062,-2,-3,-3,-2,1,0,0,-1
1537905126074060,1,-3,0,16,0,0,-2,-1
1537905126074060,0,-1,-3,-14,-8,-3,-2,-2
1537905126088022,1,-2,2,-1,2,1,0,0
1537905126088022,0,0,5,40,14,3,1,-1
1537905126089020,0,0,-7,-10,-5,0,2,0
1537905126089020,-2,0,-3,-30,-4,0,1,-1
1537905126102983,0,-2,3,-2,-1,-1,0,-1
1537905126102983,-2,-4,-4,13,5,0,-1,-4
1537905126102983,1,2,2,7,0,0,-1,-1
1537905126102983,-1,2,0,5,1,-1,-3,0
1537905126124924,-2,-5,2,6,3,1,-1,-1
1537905126124924,-2,-1,-3,1,-1,-1,0,1
1537905126125923,-2,1,-2,-4,-5,-4,-2,-1
1537905126125923,0,0,2,-5,-1,0,1,-2
1537905126147863,1,-4,-2,-3,1,-1,1,-1
1537905126147863,-2,-1,-2,-7,-3,-3,-2,-1
1537905126148860,2,-3,1,-1,-1,7,12,11
1537905126148860,-3,-2,-2,-1,-1,-7,-10,-2
1537905126162823,5,-1,-1,2,16,95,11,11
1537905126162823,20,8,7,5,-12,-91,11,82
1537905126162823,-8,-10,-8,-7,0,63,-7,10
1537905126162823,25,7,10,13,13,-2,35,5
1537905126184763,-45,-19,-18,-26,-28,-10,-51,-90
1537905126184763,14,16,18,20,24,19,54,48
1537905126185761,23,6,-3,-10,-20,-46,-60,15
1537905126185761,-14,-7,0,-2,30,111,65,-47
1537905126199723,-23,6,15,17,-7,-123,-101,68
1537905126199723,-6,-16,-16,-15,-23,21,80,-128
1537905126207702,-33,0,-7,-12,-1,71,-50,-50
1537905126207702,8,17,1,1,2,-8,42,-9
1537905126222662,29,17,16,25,37,122,127,113
1537905126222662,22,15,-2,-8,-7,-54,-128,87
1537905126223660,41,23,-2,-9,2,48,-32,-24
1537905126223660,-18,-8,-6,-9,-13,-97,-7,43
1537905126244607,-30,-15,-8,-10,-7,-26,-74,-69
1537905126244607,-2,-3,4,7,1,16,16,35
1537905126245603,12,-3,6,11,7,8,25,4
1537905126245603,-4,-7,3,6,4,42,-36,40
1537905126284498,32,-2,-1,-2,-11,-50,19,-24
1537905126284498,-39,-20,-8,-4,-3,17,-14,-61
1537905126285496,-12,-4,0,2,4,-19,6,-15
1537905126285496,2,-4,-4,-3,-14,-23,-15,-6
1537905126286493,-13,1,-4,-7,-9,-23,10,-7
1537905126286493,-3,-1,-10,-9,2,40,-29,-43
1537905126290481,-10,-4,4,4,4,-30,22,35
1537905126290481,5,3,-1,-1,-10,-18,-24,-2
1537905126313422,11,0,-6,-5,-3,15,-2,-13
1537905126313422,-3,-4,-2,0,5,19,-8,8
1537905126314418,4,-5,3,4,-2,-35,11,-6
1537905126314418,-12,-10,-4,9,-2,1,-25,-19
1537905126328381,6,1,0,11,10,15,-2,-7
1537905126328381,-2,-7,-4,-48,-19,-1,2,-6
1537905126328381,-18,-5,2,51,12,-17,10,2
1537905126328381,3,-2,-7,-56,-10,13,-25,-11
1537905126350321,2,-3,1,12,-1,-2,2,16
1537905126350321,1,3,1,34,16,6,0,0
1537905126351318,0,-1,-4,6,-12,-3,5,-1
1537905126351318,-1,3,3,-46,-7,4,-12,7
1537905126365281,13,3,-8,-32,3,-4,6,-3
1537905126365281,-4,7,18,-37,-31,-3,-7,-11
1537905126365281,-1,-4,-1,36,10,-2,1,0
1537905126365281,3,3,10,51,14,1,-2,2
1537905126389216,-4,1,-4,32,5,0,3,1
1537905126389216,0,-5,-9,-18,7,14,-3,-7
1537905126390214,-2,2,-5,13,7,-4,6,8
1537905126390214,3,6,4,-20,-16,-7,-7,1
1537905126402182,1,0,0,-48,-6,1,-3,-5
1537905126402182,0,-2,-7,60,13,6,-1,3
1537905126403179,2,4,2,-73,-29,-13,-3,-4
1537905126403179,-4,0,-5,23,0,-1,-7,-6
1537905126425121,1,-2,-3,-18,0,1,-2,-2
1537905126425121,0,2,6,16,5,-1,-3,-3
1537905126426118,-6,-2,-3,50,17,-3,0,-1
1537905126426118,-1,1,-10,-83,-30,-1,-8,-6
1537905126439083,-2,-1,0,8,-2,-1,1,2
1537905126439083,-2,-2,-2,12,6,0,-2,-3
1537905126455040,-1,-1,-1,-23,1,-1,1,0
1537905126455040,-1,-2,8,62,13,2,-3,1
1537905126462022,3,-3,-3,-17,7,1,1,-1
1537905126462022,-1,1,4,18,-7,-1,-3,-4
1537905126463019,-1,0,3,-25,-4,-1,1,-2
1537905126463019,-3,-4,-12,1,4,0,-1,-2
1537905126484960,0,3,0,8,-6,0,-1,-1
1537905126484960,-1,0,-1,-5,-1,2,-1,-2
1537905126485958,-2,0,0,-10,-1,-3,0,2
1537905126485958,-1,-4,0,11,1,-2,-2,-1
1537905126509894,1,2,-1,8,3,4,-1,2
1537905126509894,-4,-8,-5,-12,-3,-1,-3,-1
1537905126509894,0,5,3,-14,-6,-5,1,-2
1537905126509894,-2,-4,-5,3,3,0,-1,-2
1537905126522859,0,-1,3,22,4,0,1,-1
1537905126522859,-1,1,-4,2,3,2,-2,-1
1537905126522859,-2,-6,-1,-17,-7,-5,-1,-1
1537905126522859,-1,9,3,38,2,0,-3,-1
1537905126544801,-4,-6,-4,-24,-7,-4,-2,-1
1537905126544801,-2,-4,-4,-17,2,1,-1,-2
1537905126545799,-1,1,-3,-12,-3,-1,-1,-1
1537905126545799,0,1,4,26,4,-1,-1,0
1537905126567739,-1,-4,0,0,-7,-1,0,-1
1537905126567739,-1,-3,-4,-9,-2,1,2,-1
1537905126568737,-1,-2,0,12,4,0,-1,-2
1537905126568737,-1,-1,-4,-19,-2,-1,-1,-1
1537905126582699,-2,-2,1,7,-1,-2,0,-1
1537905126582699,-4,-3,-1,-8,1,0,-1,0
1537905126582699,2,0,-3,-5,-1,-2,-2,0
1537905126582699,1,-1,-1,-4,0,-2,-1,-2
1537905126613616,-2,-2,0,-1,-4,-2,-7,-5
1537905126613616,7,4,1,6,3,1,3,3
1537905126613616,-8,-6,0,4,-1,-1,3,4
1537905126613616,19,1,1,-2,19,103,5,52
1537905126628577,-25,-8,2,9,-19,-96,15,-25
1537905126628577,-8,1,-8,-12,6,62,45,-10
1537905126628577,-3,-4,-1,1,-3,7,-107,40
1537905126628577,9,0,3,1,-16,-81,57,86
1537905126641542,0,12,-1,-4,3,127,-53,-82
1537905126641542,50,10,-10,-10,-2,60,59,87
1537905126649521,-40,2,0,-3,14,50,95,-97
1537905126649521,-9,-1,1,-1,-2,-13,-21,74
1537905126664480,36,8,2,10,14,84,103,39
1537905126664480,20,0,12,11,-2,-37,-84,84
1537905126665478,48,4,-9,-6,-10,-17,93,12
1537905126665478,-41,2,-15,-29,-19,-19,-128,-28
1537905126687419,4,20,8,7,4,-91,58,-82
1537905126687419,-42,-18,-7,-10,-1,39,-58,22
1537905126695398,40,1,7,9,3,-35,-39,75
1537905126695398,-12,-15,-2,1,1,13,14,-50
1537905126701382,-9,-11,-5,-4,4,28,-41,51
1537905126701382,11,3,4,10,10,7,43,-46
1537905126710358,-32,-4,1,1,-8,-27,-21,-6
1537905126710358,9,-6,-4,-5,-5,-7,13,-30
1537905126733297,-10,-1,-3,-2,4,31,-30,7
1537905126733297,-2,0,3,2,-8,-58,-7,-49
1537905126734294,-7,-4,-4,-5,-4,14,6,2
1537905126734294,-7,-3,-3,2,4,31,4,-35
1537905126748256,16,-1,0,-5,-3,-22,4,15
1537905126748256,-21,-3,0,-4,-9,-28,-4,-24
1537905126749254,-4,-2,-3,2,-3,2,-18,-6
1537905126749254,12,3,4,13,11,18,21,-22
1537905126762219,-9,-6,-4,-6,-6,-27,-19,22
1537905126762219,-2,0,-2,-21,-11,-12,-1,-19
1537905126770198,-7,-2,6,20,10,31,-8,-14
1537905126770198,9,-1,-3,8,1,-16,8,-15
1537905126785158,-2,-1,6,18,1,2,-3,20
1537905126785158,-9,-1,-17,-77,-16,9,-3,-16
1537905126785158,7,0,1,14,0,0,8,-6
1537905126785158,-2,2,12,43,-12,-13,0,-11
1537905126808096,-5,-4,-19,-73,-16,-7,-11,11
1537905126808096,0,-2,3,25,3,4,5,-12
1537905126809094,-5,-1,-14,14,19,-2,-2,0
1537905126809094,0,-2,15,-34,-17,-2,4,-5
1537905126831035,2,0,4,45,12,10,-6,3
1537905126831035,-3,2,-4,28,4,-9,-1,-6
1537905126831035,-2,-3,-3,-20,-1,6,1,0
1537905126831035,-2,-1,-8,-1,8,11,5,-6
1537905126845995,1,-1,2,17,1,-6,0,4
1537905126845995,-3,1,-5,-22,-3,-7,-2,-4
1537905126846993,-4,-1,-7,-21,-15,-2,-6,-3
1537905126846993,1,-1,-6,-45,-5,2,5,-4
1537905126867936,-2,-2,-3,-26,-13,-8,-6,5
1537905126867936,-2,-3,7,37,14,0,1,-7
1537905126868934,-3,2,6,7,1,7,-1,-3
1537905126868934,2,1,3,13,-3,-6,-1,-4
1537905126881899,0,-4,-7,18,9,3,-1,5
1537905126881899,-3,-1,4,-23,-11,0,-2,-5
1537905126889878,3,0,11,40,2,-2,-1,-2
1537905126889878,1,0,-7,-45,-4,0,3,-2
1537905126904838,-2,-6,-2,-2,-6,-3,-5,-1
1537905126904838,1,1,-2,8,3,1,0,-3
1537905126905835,-1,2,-6,-33,-10,-4,-3,-2
1537905126905835,-1,3,1,51,7,1,3,-2
1537905126927778,-2,-1,6,-34,0,2,-4,-1
1537905126927778,-1,-2,-8,-11,-8,-6,-2,-3
1537905126928775,2,-2,-3,-14,-5,-1,-1,1
1537905126928775,0,-6,-3,9,5,2,0,-3
1537905126941739,0,7,-2,22,9,0,1,1
1537905126941739,1,-1,13,10,2,0,-1,-2
1537905126949718,-3,-1,-1,3,-4,-3,-1,-2
1537905126949718,1,-1,-10,-32,-4,-2,0,-1
1537905126965676,-3,-2,10,29,0,-2,-3,-1
1537905126965676,-1,-3,1,45,6,1,-1,0
1537905126972657,-1,10,-7,-21,-4,0,1,-2
1537905126972657,0,-4,6,14,-7,0,0,0
1537905126988615,0,0,-10,-71,-5,-1,-1,-1
1537905126988615,-1,3,4,39,9,0,0,0
1537905126988615,0,-5,13,-5,-14,-6,-3,-3
1537905126988615,-1,3,-6,33,9,2,1,-2
1537905127002577,-1,0,-2,-19,-11,-3,-3,-1
1537905127002577,-3,-4,-4,1,6,2,-1,-2
1537905127003574,-1,-3,-2,-1,3,1,0,1
1537905127003574,0,1,-2,3,3,1,1,-2
1537905127024518,-1,-3,4,32,5,0,0,0
1537905127024518,-2,0,-7,-24,-5,-5,-1,0
1537905127025515,0,-2,-1,0,0,2,0,-2
1537905127025515,0,-1,-2,-6,1,-1,-1,0
1537905127048454,0,-1,-1,7,0,-2,0,0
1537905127048454,2,1,-1,-14,-7,0,5,2
1537905127048454,2,-1,1,4,3,5,4,43
1537905127048454,13,5,2,2,9,32,46,75
1537905127062417,-12,-10,-6,0,5,68,-61,-36
1537905127062417,-10,6,6,0,-17,-83,57,-40
1537905127063414,-13,-14,-11,-8,3,92,-62,-21
1537905127063414,24,15,8,-3,14,-29,60,-26
1537905127085355,-46,-14,-5,-4,-36,-113,-87,-36
1537905127085355,13,3,-6,-12,20,119,24,29
1537905127085355,-19,1,7,9,-3,-68,-48,21
1537905127085355,-8,-8,-14,-23,-17,41,-19,-40
1537905127115275,14,6,3,9,8,13,35,15
1537905127115275,27,17,5,2,5,6,-53,-24
1537905127116273,-30,-7,-3,-4,7,54,58,-12
1537905127116273,27,10,4,4,6,50,-6,26
1537905127122257,17,-4,-2,4,-10,-99,-17,16
1537905127122257,-16,-16,-5,-6,-2,5,-32,30
1537905127123254,14,16,5,6,5,-16,34,4
1537905127123254,-21,-12,-2,-2,-9,-52,-47,-44
1537905127145196,14,6,1,5,5,44,46,13
1537905127145196,0,-4,-3,-2,-3,-18,-7,10
1537905127145196,17,-3,-3,6,3,-6,2,-23
1537905127145196,-16,-7,-4,-12,-6,-30,4,7
1537905127168134,-2,1,4,7,2,33,21,12
1537905127168134,10,2,-3,-1,-3,-6,-2,1
1537905127169132,-2,-3,1,19,-1,-25,1,-3
1537905127169132,-5,-3,-6,-8,3,17,-13,0
1537905127182097,2,5,1,-10,-7,5,4,11
1537905127182097,-14,-5,7,2,1,3,-2,-15
1537905127191073,5,-2,-5,-41,-16,-6,3,-4
1537905127191073,3,-5,-6,30,11,-11,-16,7
1537905127213015,-10,-3,-9,-51,-23,13,9,-11
1537905127213015,-6,-3,4,10,-6,-17,5,2
1537905127215009,11,1,5,0,-3,-2,1,2
1537905127215009,-10,-3,5,35,8,1,-4,0
1537905127227975,0,-6,0,50,19,9,13,2
1537905127227975,2,0,-5,-32,-8,12,1,1
1537905127229969,-7,-6,-6,16,6,-7,-8,-5
1537905127229969,-7,-2,6,7,0,0,-6,-6
1537905127250913,6,8,1,-44,-10,4,5,0
1537905127250913,0,-3,-5,43,9,-5,-5,1
1537905127250913,7,4,4,7,-4,-4,-1,-3
1537905127250913,-12,-3,-2,-7,-5,-6,-1,0
1537905127264876,3,-13,-3,-48,-3,9,3,0
1537905127264876,-6,13,8,51,2,-1,-1,-2
1537905127265873,4,-5,-8,14,6,-3,3,2
1537905127265873,0,2,-3,-38,1,6,-1,2
1537905127287814,0,1,4,30,10,4,2,2
1537905127287814,-6,-8,-7,-1,-1,0,-2,-4
1537905127288811,5,2,4,-20,-15,-4,-2,-1
1537905127288811,-2,1,-1,-5,-3,-3,-3,1
1537905127301777,-1,0,-1,18,8,4,3,-2
1537905127301777,1,-2,1,-26,-9,-5,0,-1
1537905127317734,-2,1,-1,16,6,-1,2,2
1537905127317734,-1,-3,0,-17,-8,-3,0,-2
1537905127324715,1,2,0,21,7,2,3,2
1537905127324715,-1,-2,-4,-14,1,2,-2,-1
1537905127325713,-1,-1,0,-11,-4,0,-2,-1
1537905127325713,-1,-4,-2,-6,-6,-3,-4,-3
1537905127347654,2,1,1,18,3,3,3,1
1537905127347654,-3,-1,-2,-13,-4,-1,-2,0
1537905127348652,-2,-2,-3,-11,-1,-1,1,-2
1537905127348652,0,-2,-1,7,-3,-3,-2,0
1537905127361617,-1,3,1,4,4,4,0,-1
1537905127361617,-1,-3,-6,-5,5,1,0,-2
1537905127369596,1,-2,1,-24,-5,-1,0,-2
1537905127369596,-3,-1,-1,2,-8,-7,-5,-7
1537905127393531,1,1,0,2,1,-1,0,0
1537905127393531,0,-1,-1,-15,-5,0,0,-1
1537905127393531,-1,0,-4,3,7,3,0,-1
1537905127393531,2,-2,0,7,2,-1,1,0
1537905127408492,-1,2,2,4,-4,-3,-1,-2
1537905127408492,-1,-4,-4,1,0,-2,0,-2
1537905127408492,0,-2,0,6,3,-1,0,-2
1537905127408492,1,0,-1,0,-4,0,-1,1
1537905127421457,-1,0,-2,-1,-2,-3,-2,1
1537905127421457,1,-1,2,-2,1,1,0,1
1537905127430433,-1,0,0,3,-4,-1,-3,-1
1537905127430433,-1,1,0,-14,-2,0,0,-1
1537905127445393,1,-1,-5,-17,0,4,0,0
1537905127445393,0,-1,1,-1,-2,-5,-1,2
1537905127445393,1,-1,1,2,-3,-2,-2,-1
1537905127445393,-8,-3,-3,-2,2,2,1,-2
1537905127468332,-2,2,1,11,1,1,-1,1
1537905127468332,-2,2,0,-4,-1,0,0,-1
1537905127469329,0,-2,-1,2,2,0,0,1
1537905127469329,4,1,0,-2,-2,1,-1,0
1537905127481297,0,-1,0,-3,-3,-3,-2,-1
1537905127481297,-3,-3,0,1,-1,0,-2,-3
1537905127490273,0,-1,-4,-7,-3,-4,-1,-2
1537905127490273,1,-1,0,1,0,0,0,0
1537905127505233,-2,-4,3,10,8,3,1,-2
1537905127505233,2,0,-3,-3,-9,-8,-3,0
1537905127507228,-3,-2,-2,-10,5,0,1,-2
1537905127507228,2,1,-6,47,1,0,3,1
1537905127528172,1,1,11,1,-4,-3,-4,-1
1537905127528172,0,-2,-4,32,23,9,4,2
1537905127529169,-2,-1,2,36,-7,-6,-4,-3
1537905127529169,-4,-11,4,45,18,0,-2,-3
1537905127550113,1,26,46,-77,-28,-10,-3,-2
1537905127550113,-4,-23,-32,107,37,8,2,-1
1537905127552108,-2,-15,-38,-77,0,9,7,3
1537905127552108,3,32,73,-17,-44,-19,-11,-3
1537905127564076,0,-9,-71,21,-61,-14,-5,-4
1537905127564076,-5,-20,-28,-128,-72,-22,-8,-4
1537905127573052,2,11,-29,105,52,7,2,0
1537905127573052,-1,-12,-6,-24,45,25,11,5
1537905127588012,6,19,38,112,91,22,10,7
1537905127588012,-3,12,-10,-96,-60,-26,-13,-8
1537905127593996,1,-13,-8,-4,6,1,-2,-1
1537905127593996,0,0,8,-12,4,-1,-2,0
1537905127610951,2,-17,-5,11,56,22,11,6
1537905127610951,3,-13,8,55,20,2,-3,0
1537905127611948,-1,-11,17,27,28,4,-1,0
1537905127611948,-1,-12,-32,-55,-28,-5,-5,-3
1537905127632892,-14,-22,-11,-72,-73,-46,-24,-14
1537905127632892,2,5,3,6,21,9,3,-1
1537905127634887,-1,9,17,-93,-73,-13,-6,-2
1537905127634887,1,0,-16,34,51,11,3,1
1537905127647852,2,-1,-6,14,9,11,6,5
1537905127647852,-3,12,19,30,1,2,2,1
1537905127670791,-2,14,14,15,16,2,1,0
1537905127670791,-4,5,-21,-30,-23,-4,0,1
1537905127671788,-1,17,-2,-2,-6,-2,0,0
1537905127671788,1,28,17,18,8,4,2,0
1537905127673783,0,17,-3,-4,7,4,4,2
1537905127673783,-2,13,0,2,-36,-15,-4,-2
1537905127683757,2,4,-3,-21,-5,2,-1,-2
1537905127683757,3,-6,6,33,27,11,5,2
1537905127700711,0,-18,3,1,-9,-6,-2,-3
1537905127700711,5,-19,-4,10,24,2,1,2
1537905127707692,-4,-36,-1,20,3,0,-1,-4
1537905127707692,0,-35,0,-28,16,6,1,1
1537905127709686,0,-27,-6,-57,-63,-19,-8,-4
1537905127709686,-1,-18,0,18,11,2,0,-2
1537905127737612,0,-1,5,24,19,10,5,0
1537905127737612,-3,9,-8,-68,-29,-8,-4,-4
1537905127739607,-3,10,3,29,16,3,-1,1
1537905127739607,-3,13,-5,0,-2,0,0,-3
1537905127744593,-1,14,-6,-27,-13,-5,-2,0
1537905127744593,0,14,9,28,9,2,1,-1
1537905127753569,0,12,0,-14,0,1,-1,-2
1537905127753569,-2,5,-7,-19,-16,-5,-1,-2
1537905127768530,-1,5,-1,9,4,2,-1,-1
1537905127768530,1,5,3,18,5,1,1,-1
1537905127769527,2,1,1,-1,3,1,0,0
1537905127769527,0,-1,-2,-5,-4,-2,-1,0
1537905127790470,0,-3,-2,-1,-5,-2,-1,0
1537905127790470,-1,-1,0,0,-1,3,0,0
1537905127792465,-2,0,5,8,1,-1,-2,0
1537905127792465,0,-4,-3,-12,-10,-4,-2,-3
1537905127804433,-1,-3,-1,-2,4,1,-1,-2
1537905127804433,-2,-5,-1,0,-6,-1,-2,-1
1537905127813409,1,-1,4,11,4,0,0,-2
1537905127813409,-1,-2,1,10,3,0,-1,-1
1537905127828369,1,-3,-4,-12,-4,-3,-2,-2
1537905127828369,0,0,1,4,-3,-1,-1,-1
1537905127829367,-2,-1,2,8,4,1,-1,-2
1537905127829367,0,-3,-3,-4,-3,-1,-2,-1
1537905127850311,-2,-1,-2,-7,-3,-2,-1,-1
1537905127850311,0,2,0,0,-1,-1,-1,0
1537905127852305,-1,-2,3,9,1,0,-1,0
1537905127852305,-2,0,-1,-3,-5,-1,0,-2
1537905127873249,0,-2,-2,0,-1,0,-1,2
1537905127873249,0,-1,1,2,0,-2,-1,0
1537905127874247,-1,-2,-1,0,2,2,1,-1
1537905127874247,0,2,0,-1,0,-2,-1,-1
1537905127888209,-1,0,0,0,2,3,1,-1
1537905127888209,0,0,-1,-3,-2,-1,-2,-1
1537905127889207,-1,1,2,-2,-1,-1,-1,0
1537905127889207,-2,0,1,5,4,2,0,0
1537905127910150,-1,-1,-2,-2,-4,-3,-3,-1
1537905127910150,0,1,-1,-2,-1,0,-2,-2
1537905127912146,0,1,2,4,2,1,-1,-1
1537905127912146,-2,-2,-5,-4,-1,-2,-2,1
1537905127924113,-1,-1,-3,-6,-4,-2,-3,-1
1537905127924113,-1,0,1,2,1,-2,0,0
1537905127933090,0,-1,0,0,1,1,0,-1
1537905127933090,-1,-2,-2,-2,-4,-2,-2,0
1537905127948049,0,-2,2,3,4,1,1,-1
1537905127948049,-2,-2,-1,-5,9,2,0,-1
1537905127949047,1,2,3,17,-8,-4,-1,-1
1537905127949047,-2,-4,0,22,7,-1,-1,-2
1537905127970988,-1,-1,-15,-85,-23,-7,-2,-2
1537905127970988,-1,2,7,53,18,3,-1,-1
1537905127976973,-2,-15,-14,-18,-14,-3,-2,-2
1537905127976973,7,44,18,29,6,3,3,2
1537905127983954,-6,-43,-19,29,59,15,2,-2
1537905127983954,-6,8,16,-69,-104,-38,-15,-9
1537905127992929,0,-22,-11,51,45,8,3,5
1537905127992929,0,16,-13,-70,4,1,-3,-1
1537905128015868,4,-10,-4,83,67,20,9,7
1537905128015868,-5,19,-14,-117,-96,-34,-15,-7
1537905128016865,2,-5,12,127,77,22,7,4
1537905128016865,-7,-18,-4,-69,-52,-13,-7,-4
1537905128030828,4,23,14,-59,-12,2,2,1
1537905128030828,4,-15,1,64,75,25,8,6
1537905128031826,-5,15,0,-108,-107,-29,-11,-9
1537905128031826,0,-6,-1,74,63,22,8,1
1537905128043793,-4,6,1,-40,-70,-22,-9,-6
1537905128043793,1,4,-2,52,29,9,5,2
1537905128052769,-1,12,-4,-36,-2,-2,-1,-3
1537905128052769,0,1,6,4,-5,-1,-2,-1
1537905128067729,-2,0,11,42,10,2,-1,0
1537905128067729,-1,-4,-9,-34,4,-2,1,0
1537905128069724,3,1,10,60,40,8,3,4
1537905128069724,-4,-21,-2,-35,-64,-18,-7,-4
1537905128090668,1,-1,1,2,-10,-5,-1,1
1537905128090668,1,-23,-6,21,22,7,0,-1
1537905128091666,-2,-31,0,-28,-10,-1,-1,0
1537905128091666,1,-36,1,34,20,2,2,1
1537905128104631,-1,-21,4,0,-11,-5,-3,-2
1537905128104631,0,-8,2,5,6,2,0,0
1537905128120588,-4,8,1,-20,2,1,-1,0
1537905128120588,-2,13,-4,-14,-7,-4,0,-2
1537905128127570,-2,24,-1,12,-10,-3,-2,-4
1537905128127570,0,13,-1,-4,9,4,2,1
1537905128129564,0,21,-4,-9,-9,-6,-2,0
1537905128129564,-1,9,0,2,7,2,0,-1
1537905128150508,-2,13,0,-2,-2,1,-2,1
1537905128150508,1,4,0,17,17,5,0,0
1537905128151505,-3,3,-3,-21,-16,-8,-6,-3
1537905128151505,1,2,0,1,10,2,1,0
1537905128164471,0,1,-1,12,4,-1,1,0
1537905128164471,-1,-5,-1,-16,-8,-2,-1,1
1537905128173447,-1,1,-1,-7,2,1,1,-1
1537905128173447,0,-5,0,6,14,2,1,2
1537905128188407,-1,2,0,-6,-23,-8,-4,-2
1537905128188407,1,-2,-4,-4,4,2,0,2
1537905128189404,-1,-2,-2,-4,9,3,0,-1
1537905128189404,-4,-6,-3,-13,-23,-6,-6,-3
1537905128218327,-1,-1,-2,5,1,0,1,0
1537905128218327,0,-2,-1,5,4,2,1,1
1537905128219324,1,0,-2,-12,-8,-2,-2,-1
1537905128219324,-2,-3,1,3,12,2,2,-1
1537905128224311,0,1,0,10,8,1,0,2
1537905128224311,-4,-2,-1,-4,-6,-3,-3,-4
1537905128233287,-2,0,0,-7,-3,-2,0,-1
1537905128233287,-1,-1,-6,-1,0,-1,0,-1
1537905128255228,0,0,0,-3,-1,-1,0,0
1537905128255228,-1,-1,1,12,12,6,2,1
1537905128257223,0,0,-6,-25,-10,-5,-1,2
1537905128257223,-2,-2,-4,-5,-12,-6,-3,0
1537905128278167,-2,0,-2,11,5,2,0,-1
1537905128278167,0,1,0,12,2,-1,-1,-2
1537905128279164,-2,-2,-1,-9,0,0,0,-1
1537905128279164,1,2,-1,-3,-4,-2,-1,1
1537905128293127,1,-2,-1,-7,5,1,-1,-1
1537905128293127,-1,-3,-1,-3,-1,-1,-2,0
1537905128294125,-1,0,1,11,-3,-2,-1,-2
1537905128294125,1,-1,1,4,2,2,0,-1
1537905128307089,-3,-3,-3,-2,0,0,-3,-1
1537905128307089,1,-1,-3,-4,-5,-1,0,0
1537905128322049,-1,0,-2,0,-5,-4,-1,-1
1537905128322049,-1,-2,0,4,4,0,0,-1
1537905128331025,-2,-2,0,-5,-2,-3,-2,-2
1537905128331025,-2,-1,-1,1,2,2,2,-2
1537905128332023,-2,-1,1,0,-10,-3,-1,-1
1537905128332023,-2,1,-1,-1,-1,-1,-2,-1
1537905128343991,0,2,-1,-4,-1,-1,2,0
1537905128343991,-1,-2,-3,-4,-6,-4,-2,0
1537905128352967,0,-1,-1,3,4,2,-1,-2
1537905128352967,0,-3,0,7,1,1,-1,0
1537905128367927,-2,-2,-1,-2,-2,-2,-2,-1
1537905128367927,0,-2,-3,-3,-2,1,1,-1
1537905128369922,-2,-2,0,3,6,1,-1,-1
1537905128369922,1,1,1,-6,-2,-1,-2,-1
1537905128397847,1,2,-1,-3,1,-2,0,0
1537905128397847,-1,0,-1,1,-2,-1,-1,-3
1537905128399842,0,0,-2,0,-2,1,-1,0
1537905128399842,-2,-1,-1,0,-2,-2,-1,-2
1537905128403831,-2,-3,0,-3,2,2,1,0
1537905128403831,0,-2,-1,-1,2,-1,0,-1
1537905128412807,1,-2,-1,-1,0,-1,-2,0
1537905128412807,0,1,-1,-2,-3,-1,-1,0
1537905128427767,1,-1,-1,-3,-1,-2,-1,-1
1537905128427767,-1,-2,0,-1,-4,-2,-1,1
1537905128433751,-1,0,-1,9,5,3,1,-2
1537905128433751,0,-2,-1,-3,1,-1,-1,1
1537905128450705,-1,-3,-5,-12,-11,-4,-2,-2
1537905128450705,-1,0,-2,5,2,0,-2,-1
1537905128451703,-1,-1,-1,-5,-4,-1,-1,-1
1537905128451703,-2,-2,1,5,1,1,-1,-1
1537905128472647,-1,1,3,12,5,-1,-2,-2
1537905128472647,-2,-2,-3,-8,-2,-1,-1,-1
1537905128474641,0,2,-3,-3,-3,-3,-1,0
1537905128474641,0,-1,-1,3,3,-1,-1,0
1537905128502567,-1,-1,-1,1,0,0,0,-1
1537905128502567,1,-2,1,-1,-2,-2,0,1
1537905128504562,0,0,-2,-2,-1,-1,0,-2
1537905128504562,1,-1,1,-1,1,0,0,-1
1537905128510545,-2,-2,-1,-2,-4,-3,-3,0
1537905128510545,1,1,-1,-2,-1,-2,-1,-2
1537905128511544,-1,-2,-2,3,-3,-1,-1,0
1537905128511544,-1,-3,-1,-3,-2,-1,0,-1
1537905128533484,0,0,-1,-3,-3,0,-1,0
1537905128533484,-2,0,1,-1,-1,0,-1,-1
1537905128534482,-1,-1,0,-1,0,0,0,0
1537905128534482,0,1,-2,2,3,1,-2,-2
1537905128547447,-1,-1,-1,-2,-5,-3,-1,-1
1537905128547447,-1,-1,1,-3,-1,0,1,-1
1537905128554428,-1,0,-1,-1,0,0,-1,-1
1537905128554428,-2,-2,-2,4,0,-1,-1,-1
1537905128570386,-1,-2,-3,-3,-1,-1,0,-1
1537905128570386,-2,-1,1,3,2,0,-2,0
1537905128572380,-1,-2,-2,-4,-4,-2,-1,0
1537905128572380,0,0,-2,-4,-3,-2,-2,-1
1537905128600306,-1,0,-1,1,2,1,-1,-2
1537905128600306,-2,0,-1,2,0,-3,-1,-1
1537905128602301,0,-1,1,-2,1,1,-1,-1
1537905128602301,-1,-1,0,-2,-2,-1,-1,-1
1537905128607287,-2,-3,-1,-2,-1,0,1,-2
1537905128607287,0,0,0,1,2,1,0,2
1537905128614268,-1,-2,-1,-2,-1,-3,-1,1
1537905128614268,-3,-4,-1,-1,-2,-3,-2,-2
1537905128638204,-2,2,4,7,3,0,1,-2
1537905128638204,-1,-3,-4,-18,16,6,1,0
1537905128639202,-1,3,2,17,-23,-10,-5,-3
1537905128639202,1,-6,-2,5,5,4,-2,-1
1537905128653164,-1,6,1,5,4,0,-1,0
1537905128653164,0,-4,8,67,15,4,0,-1
1537905128654162,7,26,6,-28,26,12,5,6
1537905128654162,-11,-24,-21,-44,-46,-22,-10,-8
1537905128675106,8,31,17,36,47,18,6,4
1537905128675106,-7,-16,-9,-42,-47,-21,-9,-6
1537905128677101,2,18,1,-21,-8,3,0,0
1537905128677101,3,-7,3,13,12,6,4,3
1537905128690066,-4,-6,-15,-44,1,0,-2,-3
1537905128690066,5,9,-1,31,33,9,3,4
1537905128692061,-6,-21,14,25,-1,-4,-2,-4
1537905128692061,0,11,-10,22,21,1,-1,-1
1537905128713005,-4,-4,24,-48,-53,-16,-8,-5
1537905128713005,0,3,-27,4,-7,2,1,-1
1537905128715000,-4,-9,-7,-27,-7,-3,-4,-4
1537905128715000,2,11,11,17,25,10,5,2
1537905128726967,2,-8,8,40,30,7,2,3
1537905128726967,-3,1,-4,-22,-8,-6,-4,-3
1537905128742925,-1,-7,-9,-3,-16,-6,-2,-1
1537905128742925,1,2,5,-17,-2,1,2,0
1537905128750903,-3,-8,-14,1,-19,-8,-4,-3
1537905128750903,1,4,8,-21,-10,-2,-1,0
1537905128751901,0,-5,-8,4,14,4,1,0
1537905128751901,-2,-2,8,3,-4,1,0,-2
1537905128780824,-1,-8,-10,-16,-10,-3,-2,0
1537905128780824,0,0,3,1,6,3,1,1
1537905128781821,-1,-9,4,19,10,1,0,-2
1537905128781821,-1,-1,-4,-5,-8,-1,-1,-1
1537905128786808,-2,-11,-9,-1,-11,-5,-1,0
1537905128786808,-1,-14,3,-3,-1,0,0,-1
1537905128795783,-2,-9,-5,1,-4,-3,0,0
1537905128795783,-2,-5,2,-6,-4,0,0,0
1537905128810744,1,-2,-7,-4,-6,-4,0,1
1537905128810744,0,8,5,0,-1,-1,1,-2
1537905128811742,-1,5,-4,-6,-2,1,-1,0
1537905128811742,-3,9,0,3,3,0,-1,-1
1537905128832685,0,2,0,8,4,1,-2,0
1537905128832685,0,3,-1,-4,-3,-1,-1,-1
1537905128834679,-1,0,-3,0,-2,0,0,0
1537905128834679,1,4,-2,-3,-4,-2,-1,0
1537905128846647,0,1,-3,7,-4,-2,-1,-2
1537905128846647,0,-1,1,-5,-3,1,-1,0
1537905128861608,1,1,0,-1,3,2,-1,0
1537905128861608,0,1,2,1,0,0,0,1
1537905128870583,-2,-3,-2,-4,-7,-6,-3,-4
1537905128870583,-1,0,1,1,7,2,1,0
1537905128871581,-2,-3,-3,-8,-9,-5,-2,-1
1537905128871581,0,-2,-2,-2,-6,-3,0,-2
1537905128893522,1,-1,-2,3,4,2,0,-3
1537905128893522,0,-2,2,2,1,-1,1,-2
1537905128894520,1,0,-1,2,1,0,-1,-1
1537905128894520,2,0,-1,-5,-2,-1,0,2
1537905128915463,-1,-1,-2,-3,1,0,2,0
1537905128915463,-2,0,0,-2,-4,-2,-2,-2
1537905128917458,0,1,1,1,1,1,-1,-1
1537905128917458,-1,-1,-1,-1,-2,-1,-1,-2
1537905128930423,-1,-1,0,-1,0,-1,-1,1
1537905128930423,-1,2,0,3,-1,0,0,-1
1537905128932418,-1,-1,0,3,3,0,0,-1
1537905128932418,-2,2,0,1,-1,-3,-3,-2
1537905128953362,-1,-1,-2,-4,-3,0,0,-1
1537905128953362,-1,0,-1,0,2,0,-2,-1
1537905128954359,-2,-1,-2,1,-3,-4,-2,-1
1537905128954359,0,1,1,0,-1,-1,0,-1
1537905128966327,-1,-2,0,-1,0,0,-1,-1
1537905128966327,0,-2,-1,-1,-3,0,-1,0
1537905128983282,0,-1,-2,-1,0,-1,-2,-2
1537905128983282,0,-3,-1,-2,-2,0,-1,0
1537905128990263,0,0,-1,-1,0,2,1,-1
1537905128990263,0,-2,0,-1,-3,-2,-2,-1
1537905128992258,0,-3,0,4,3,-1,-1,-1
1537905128992258,-1,-1,-2,-3,-3,-2,-2,-1
1537905129012205,-1,-1,-1,2,1,0,0,1
1537905129012205,0,2,-3,-3,-4,0,1,2
1537905129020183,-3,-1,-1,0,1,-1,-3,-6
1537905129020183,-1,0,0,1,-1,-1,-1,-2
1537905129027164,0,-2,-2,-1,-1,-4,-2,-1
1537905129027164,2,1,-1,-6,-5,-3,-1,1
1537905129035143,0,-2,0,-1,1,0,1,2
1537905129035143,-2,-2,-2,-3,0,-1,-1,-1
1537905129058082,-1,0,1,0,0,-1,-2,0
1537905129058082,0,0,0,-3,-2,-1,-2,-1
1537905129059079,-1,-2,-3,-1,-1,0,-1,2
1537905129059079,0,-1,-1,-1,-1,-2,-2,-1
1537905129073042,-1,-1,-2,-2,-1,0,0,1
1537905129073042,-2,-4,0,-2,-2,-1,0,-2
1537905129074040,0,0,1,3,0,2,0,0
1537905129074040,0,-1,1,5,8,1,0,1
1537905129087005,-1,-3,-2,-8,-11,-3,-3,-3
1537905129087005,-2,-1,2,13,-2,-1,0,-3
1537905129095981,0,0,-4,-23,-4,-1,0,0
1537905129095981,0,-2,-3,-5,1,0,0,0
1537905129110941,-1,-1,2,-2,-5,-2,-1,-1
1537905129110941,-2,-4,0,-13,7,4,0,-2
1537905129111938,0,-3,-1,63,6,-1,0,-1
1537905129111938,-2,1,-6,-38,-4,0,-1,-2
1537905129132882,-2,-5,-6,-42,-24,-10,-5,-3
1537905129132882,0,15,2,-12,2,-1,-1,-1
1537905129134877,-1,-10,1,6,-6,2,2,2
1537905129134877,0,-3,-3,32,25,7,2,-1
1537905129155821,5,13,-1,-4,28,8,6,4
1537905129155821,-5,-12,-3,9,-54,-19,-10,-6
1537905129156818,-2,-2,13,-17,23,6,1,0
1537905129156818,2,11,9,22,-17,-6,-2,1
1537905129169784,-1,-7,-4,36,21,7,2,-1
1537905129169784,3,0,3,-25,50,18,7,5
1537905129176765,-6,-13,-16,-23,-76,-26,-13,-9
1537905129176765,-1,3,8,-10,6,2,0,-1
1537905129192722,-1,6,-8,14,-4,-3,-4,-2
1537905129192722,-4,-6,-6,12,-15,-9,-5,-5
1537905129194717,2,5,-23,2,13,3,1,1
1537905129194717,1,-2,30,-3,19,6,3,3
1537905129206685,2,0,-2,-10,-5,-5,-1,-1
1537905129206685,-4,-6,-10,14,-19,-4,-3,-3
1537905129215661,1,6,4,-22,8,3,1,1
1537905129215661,-3,-2,-10,3,-10,-4,-1,-3
1537905129229624,-3,-3,3,13,16,8,4,-1
1537905129229624,1,-5,5,12,7,1,1,1
1537905129236605,2,7,5,-6,5,0,0,0
1537905129236605,-2,-7,-11,-8,-7,-3,-2,-1
1537905129260541,-2,-7,4,0,-10,-4,-2,-2
1537905129260541,3,5,-3,-8,3,0,1,0
1537905129267522,-2,-3,3,0,3,1,0,-1
1537905129267522,-2,-3,-8,-5,-8,-3,-3,-2
1537905129268520,0,-3,-2,5,-5,0,-1,-1
1537905129268520,0,-1,-3,-1,0,-2,0,1
1537905129275501,-1,-1,0,3,10,1,1,0
1537905129275501,0,-9,-2,5,-6,0,0,-1
1537905129298439,-1,-4,0,-7,-2,-1,-2,0
1537905129298439,1,-4,-1,-6,5,3,-1,-1
1537905129299437,0,-6,2,1,2,1,0,-2
1537905129299437,-1,1,-6,-3,-6,-3,0,-2
1537905129313399,-2,1,1,0,-4,-2,-1,-2
1537905129313399,2,5,-1,-6,-2,1,0,-1
1537905129314397,-1,3,1,5,1,1,-1,-1
1537905129314397,0,1,-4,1,-2,0,-1,-1
1537905129335341,0,2,0,0,-1,-1,0,1
1537905129335341,-1,1,-1,4,4,-1,0,0
1537905129337336,1,2,-1,-4,-1,0,-2,0
1537905129337336,-2,0,-3,2,0,0,0,-2
1537905129350301,-3,-2,-1,-2,-3,-2,-1,-2
1537905129350301,0,2,-3,-3,-1,-1,0,-1
1537905129364264,-1,0,-1,0,0,-3,-2,-1
1537905129364264,0,0,-3,-2,-4,-1,-1,0
1537905129373239,-2,0,1,4,2,0,-1,-1
1537905129373239,-2,-1,0,-5,-5,-3,0,-1
1537905129374237,0,0,1,4,3,0,0,-1
1537905129374237,0,-2,-2,4,0,-2,-1,0
1537905129387202,-1,0,-1,-5,-4,-4,-2,0
1537905129387202,0,-1,0,-6,-1,0,-1,2
1537905129403160,-2,-1,3,6,1,0,1,-1
1537905129403160,-1,-3,-3,-2,-1,-2,0,-1
1537905129410141,-2,-3,-1,-5,-1,2,0,-2
1537905129410141,1,1,-3,-3,-3,-3,-1,-1
1537905129417122,0,1,0,-4,0,0,-1,0
1537905129417122,-1,-1,1,5,-1,-2,-2,-3
1537905129433080,0,-1,0,-1,1,0,-2,-1
1537905129433080,-3,-1,-1,0,3,0,0,-1
1537905129434077,-1,0,0,-2,-6,-3,-1,-1
1537905129434077,0,1,-2,-1,1,1,0,0
1537905129456018,-1,-1,-2,-3,-5,-4,-2,-2
1537905129456018,-1,0,0,3,3,1,-1,-1
1537905129457016,-1,0,-2,1,1,-1,-1,0
1537905129457016,-1,-1,1,-7,-2,-2,-1,0
1537905129469981,0,0,-2,-1,0,-1,0,-1
1537905129469981,1,-1,1,9,6,0,-1,1
1537905129476962,-1,-1,-5,-8,-12,-5,-2,-2
1537905129476962,-2,0,-1,-7,-5,-3,-1,-2
1537905129492920,-1,-2,1,2,3,-1,-2,-2
1537905129492920,-1,-3,1,2,8,4,1,-1
1537905129494915,-1,-4,-1,-7,-5,-4,-2,0
1537905129494915,-1,-2,-3,1,-2,-2,-3,-2
1537905129515860,0,-3,1,1,-4,1,0,0
1537905129515860,0,-2,0,-4,-4,0,-2,-2
1537905129516857,-1,-1,-1,2,3,2,1,0
1537905129516857,-2,-1,-2,-2,1,2,-1,-2
1537905129537801,1,1,-1,-1,-4,-3,-1,0
1537905129537801,-2,-1,-1,1,-1,-1,-1,0
1537905129539797,0,-1,-1,-1,2,0,0,-1
1537905129539797,-1,-2,0,-2,-1,0,-1,0
1537905129552761,0,1,0,0,3,-1,0,-1
1537905129552761,-1,0,-3,-2,-4,-2,-3,-2
1537905129554758,-1,-2,-4,-1,2,0,-1,-1
1537905129554758,-1,0,19,1,-3,-2,-1,-2
1537905129575700,0,0,-13,3,0,-1,0,0
1537905129575700,-2,-3,-10,-2,-1,-1,-1,-1
1537905129576698,-2,1,15,-1,0,0,-2,0
1537905129576698,-1,-8,-56,-5,-2,-1,-1,-3
1537905129589662,2,1,36,17,8,1,2,1
1537905129589662,0,6,-10,-7,-6,-1,-2,-1
1537905129615595,-1,-3,15,-23,13,7,3,-1
1537905129615595,-1,1,1,15,8,0,-1,-2
1537905129615595,-3,-6,-23,-35,-58,-16,-7,-4
1537905129615595,0,-11,24,3,-8,-4,-1,0
1537905129619583,2,24,26,24,29,7,1,1
1537905129619583,-2,-33,-10,11,4,1,1,2
1537905129643518,-2,20,-13,68,10,1,0,0
1537905129643518,2,6,5,-71,-7,-2,-1,0
1537905129644516,1,-1,-29,-3,-34,-11,-4,-2
1537905129644516,0,-4,13,36,22,7,1,0
1537905129649502,1,-6,-24,8,13,3,1,-1
1537905129649502,-3,-2,9,6,2,0,-2,-3
1537905129658478,0,8,2,19,13,2,1,-1
1537905129658478,2,12,-4,-9,-1,-2,0,1
1537905129680418,-1,-14,-13,-32,0,0,-1,-1
1537905129680418,0,5,5,18,5,2,-1,1
1537905129682413,-1,-7,-8,-29,-10,-1,-3,-3
1537905129682413,-2,6,-4,-8,-11,-4,-3,0
1537905129695378,-2,-3,26,-15,10,6,1,-1
1537905129695378,-1,4,-13,12,-2,-4,-1,-1
1537905129697373,-1,-4,-7,12,-2,-1,-3,0
1537905129697373,-2,-2,13,-13,-6,-3,-2,0
1537905129709341,1,2,-1,-8,2,-2,0,-1
1537905129709341,-2,-3,-5,11,3,0,0,0
1537905129718317,-2,-10,-7,-6,-10,-5,-1,-3
1537905129718317,0,2,10,-6,-3,0,0,-1
1537905129733277,0,-4,0,-9,4,1,0,0
1537905129733277,0,-8,-8,3,-2,-3,-1,0
1537905129734275,-1,-13,4,5,5,2,1,0
1537905129734275,2,-4,-3,-16,-10,-3,-5,-1
1537905129755218,-2,-7,1,5,3,0,1,-1
1537905129755218,-2,-5,-1,3,2,0,1,-3
1537905129757213,0,3,-5,1,0,1,1,-1
1537905129757213,0,10,3,-4,-9,-4,-1,0
1537905129769181,-1,5,2,-5,-1,1,-1,-1
1537905129769181,0,5,0,7,4,0,-2,-2
1537905129785139,-1,2,-5,-7,-4,-1,-2,0
1537905129785139,-1,3,1,-3,-1,0,-2,-1
1537905129793117,-2,-1,4,-1,0,-2,-1,0
1537905129793117,0,3,-3,3,1,2,-1,0
1537905129794115,-1,-2,-4,-3,-6,-3,0,-1
1537905129794115,-3,0,0,-3,-3,-1,-2,-2
1537905129816057,-2,1,1,-9,4,1,-1,0
1537905129816057,-1,-3,1,15,0,-2,-2,-1
1537905129817056,0,-3,-4,3,-1,-2,-1,-1
1537905129817056,-1,1,-1,-13,-6,-2,-1,-2
1537905129829026,2,-1,2,-3,2,1,0,0
1537905129829026,-2,-1,-7,-4,-15,-5,-2,-2
1537905129837999,-1,-2,2,4,6,1,0,0
1537905129837999,0,1,-1,6,3,-2,-1,-1
1537905129852958,-2,-1,0,1,1,1,-1,-1
1537905129852958,-1,-2,1,-5,5,1,3,0
1537905129854952,-1,-1,-2,-5,-3,-2,0,-1
1537905129854952,-2,-2,1,0,1,0,2,0
1537905129890856,-2,0,1,0,-4,-3,-1,-1
1537905129890856,0,-1,-1,6,3,2,1,0
1537905129892851,0,-1,-2,-10,-6,-2,-1,-2
1537905129892851,-1,-1,1,-2,-1,-2,-1,0
1537905129893848,0,0,-1,1,1,-2,-1,1
1537905129893848,-3,-2,-1,4,-3,1,-1,-3
1537905129897837,-2,0,-1,-9,-6,-1,-2,0
1537905129897837,0,1,3,12,1,-1,-1,2
1537905129920777,-1,-1,-1,-6,-7,-4,-1,-2
1537905129920777,0,0,-3,-7,-4,1,-3,1
1537905129921774,-1,0,0,8,7,3,0,0
1537905129921774,1,0,-3,-12,-6,-2,0,-1
1537905129934740,-1,0,0,6,7,1,1,0
1537905129934740,0,-1,-2,-5,-4,-4,-2,-2
1537905129942719,0,-2,-2,3,-3,-1,0,0
1537905129942719,-2,-4,0,2,2,1,1,-1
1537905129949700,1,1,-2,3,-2,-1,-2,0
1537905129949700,-2,-4,-2,-3,3,2,0,-1
1537905129957678,-2,1,-2,0,-3,-3,-2,-1
1537905129957678,-2,0,-1,2,2,0,-1,-2
1537905129972638,-1,-3,0,-3,-5,-1,-1,-1
1537905129972638,0,1,0,-3,2,1,0,0
1537905129986600,0,0,-1,1,-2,-2,-1,0
1537905129986600,-1,-1,-1,-2,0,1,-2,-1
1537905129995576,0,-1,-1,-3,-1,-1,-1,-1
1537905129995576,1,0,-1,4,0,-1,-1,2
1537905129996574,-1,-2,-2,-6,0,-1,-1,-1
1537905129996574,-1,-2,-1,-2,-4,0,1,0
1537905130009539,-1,-2,-1,2,0,-1,-2,1
1537905130009539,-1,-2,-1,-5,-2,0,2,0
1537905130024499,-1,-2,-1,1,0,-1,0,-2
1537905130024499,-1,-2,0,-1,1,0,-1,0
1537905130033476,-1,-2,-1,0,0,0,0,-2
1537905130033476,0,1,-1,-2,-1,-1,1,-1
1537905130034474,1,-1,0,9,4,0,-1,1
1537905130034474,-2,0,-1,-8,-3,-2,-2,-1
1537905130054419,-3,-1,0,-2,-3,-2,0,-2
1537905130054419,-1,0,-1,-4,-3,-3,-3,-1
1537905130063395,0,0,0,-1,1,3,1,-1
1537905130063395,2,2,-2,0,-4,-3,-2,-1
1537905130069379,0,-1,0,0,-1,-1,0,0
1537905130069379,-1,-2,-1,-1,4,1,0,-1
1537905130078355,0,1,-1,-1,-2,-2,-2,-2
1537905130078355,0,1,0,0,-1,0,-1,-1
1537905130093315,-2,0,-1,-2,0,1,0,-1
1537905130093315,0,0,-1,3,1,-2,-1,-1
1537905130094313,-1,-1,-1,4,-2,-1,0,-2
1537905130094313,-1,-1,-1,4,2,1,0,0
1537905130115256,-2,-2,-6,-19,-6,-3,-2,-2
1537905130115256,-1,-1,2,2,-3,-2,-2,0
1537905130117251,-1,-2,1,0,1,1,-1,-1
1537905130117251,1,1,1,-2,-2,-1,0,0
1537905130129219,2,2,0,7,0,-3,-1,-2
1537905130129219,0,0,-3,-4,-2,-1,-2,-1
1537905130138195,-2,-1,2,0,0,-1,-1,-1
1537905130138195,1,-1,0,10,11,3,2,1
1537905130154152,0,-2,-4,-12,-18,-6,-4,-3
1537905130154152,-2,-2,-2,-1,1,0,0,-2
1537905130155149,-1,-1,-1,-2,0,-2,1,0
1537905130155149,-1,-2,-2,-2,1,-1,-1,-3
1537905130175096,-2,1,2,5,3,0,-1,-1
1537905130175096,-3,-1,-1,0,-4,-1,-1,0
1537905130177091,-2,0,-3,-4,-1,-1,-1,0
1537905130177091,-1,-2,1,0,-3,-1,-1,-1
1537905130198035,0,-1,-1,-10,16,5,3,2
1537905130198035,0,0,-1,27,-14,-8,-4,-1
1537905130199032,-1,3,-1,4,3,0,0,0
1537905130199032,-2,-3,-2,-10,1,-2,0,0
1537905130212995,1,-6,11,12,11,5,2,2
1537905130212995,-3,2,-13,-16,-21,-10,-5,-4
1537905130214990,-2,0,-6,-6,14,6,-1,-2
1537905130214990,0,1,-10,9,-46,-13,-5,-1
1537905130235934,-3,-6,19,-32,33,11,1,0
1537905130235934,0,-8,-12,-1,-57,-16,-3,0
1537905130236931,2,7,38,-37,7,2,1,0
1537905130236931,-5,-21,-34,-24,2,-1,0,-2
1537905130248900,1,16,-14,13,-2,-1,0,0
1537905130248900,-1,-3,14,-31,36,13,4,2
1537905130265855,2,10,4,101,-12,-6,-1,-1
1537905130265855,2,0,-3,-12,7,2,2,0
1537905130272836,-1,-1,55,15,-2,-4,0,0
1537905130272836,1,-3,-46,-17,8,4,-2,-1
1537905130278820,1,-5,-9,-4,7,3,0,0
1537905130278820,1,5,11,-6,13,4,-1,-1
1537905130302755,-3,-5,-29,39,-2,-4,-2,-3
1537905130302755,-2,2,22,-13,4,2,1,0
1537905130304750,-1,-4,-5,-19,-1,-1,-2,-1
1537905130304750,1,4,3,17,-5,-2,-2,0
1537905130308739,0,-4,-10,-21,-12,-4,-4,-2
1537905130308739,2,1,8,15,12,2,2,0
1537905130317715,-1,-6,-10,-15,-7,-4,1,-1
1537905130317715,-2,-2,1,1,2,-2,-1,-3
1537905130331678,-1,-2,-5,3,-10,-3,-1,1
1537905130331678,-1,0,3,2,11,1,2,-2
1537905130340653,0,-7,-9,-1,-10,-3,-2,0
1537905130340653,-1,0,11,0,3,-1,0,1
1537905130355614,-1,-3,-6,-6,-7,-2,-3,0
1537905130355614,0,-3,2,11,1,-2,0,-1
1537905130356611,-3,-7,-3,-17,-2,-1,-4,-1
1537905130356611,-2,-1,4,4,2,1,1,-2
1537905130377555,0,1,-7,-2,-7,-3,-1,-1
1537905130377555,-3,1,1,5,7,1,-1,-1
1537905130379550,0,2,-5,-6,-7,-5,-2,1
1537905130379550,1,4,1,-2,-1,0,-2,1
1537905130392516,-2,-1,-5,5,-1,0,-1,-3
1537905130392516,-1,1,5,0,0,0,2,-1
1537905130406478,0,0,0,-6,-3,0,0,-3
1537905130406478,0,2,-1,3,0,-1,-1,0
1537905130415454,-2,-2,-3,-3,-6,-5,-3,-1
1537905130415454,-3,2,0,-4,-2,0,-1,0
1537905130417449,-2,-3,-1,2,3,1,0,-1
1537905130417449,0,1,-1,-10,8,3,0,2
1537905130445374,-2,-1,-4,-1,-25,-9,-3,-4
1537905130445374,2,-1,-2,-11,3,1,0,0
1537905130447368,-2,-1,-4,-15,-16,-4,-3,-2
1537905130447368,-1,-1,-4,10,6,2,1,-2
1537905130452355,1,0,14,-5,3,2,0,0
1537905130452355,-1,-1,-6,6,2,0,0,0
1537905130459336,-1,-4,-2,3,1,0,-1,-2
1537905130459336,-1,-1,0,-8,-2,-2,-1,0
1537905130475294,0,1,-8,-6,-2,0,0,1
1537905130475294,-3,-2,4,9,-1,-3,0,-1
1537905130477288,0,1,2,5,10,2,2,3
1537905130477288,-4,-1,-5,-9,-13,-4,-3,-3
1537905130498232,1,1,-4,3,0,1,-1,0
1537905130498232,1,0,3,-1,3,1,-1,-2
1537905130500227,-2,0,-3,-3,-3,0,-2,-3
1537905130500227,0,1,6,14,12,3,-1,-1
1537905130512195,-2,-1,-6,0,-9,-5,-1,-1
1537905130512195,0,1,0,-4,1,0,-1,-1
1537905130527155,-2,-3,-3,-1,1,-1,-1,-1
1537905130527155,-1,0,1,19,1,-1,-1,-1
1537905130543112,-1,-2,1,2,11,3,1,0
1537905130543112,0,0,3,5,-1,0,-2,0
1537905130544109,-1,-2,-3,-7,-4,-4,-1,-1
1537905130544109,-1,1,3,-5,-3,-1,-2,-3
1537905130558072,0,-2,-2,1,3,1,0,-2
1537905130558072,-1,-3,-2,-5,-4,-1,-3,1
1537905130559070,2,0,0,-4,-3,-3,-2,-1
1537905130559070,0,-1,-1,0,-4,0,-1,0
1537905130581011,-2,-1,-2,-1,0,2,1,-1
1537905130581011,-1,-2,1,1,-1,-1,-1,-2
1537905130582008,0,-1,-2,2,2,0,-1,-1
1537905130582008,-1,-2,-1,-2,-4,-2,-1,-2
1537905130595971,0,1,0,1,1,-1,-1,0
1537905130595971,0,-1,-2,-2,2,-1,0,-1
1537905130596968,0,1,-2,-1,-4,-3,-1,1
1537905130596968,-4,-3,-3,-4,-3,1,-1,-2
1537905130617912,0,-1,-1,-3,0,-1,0,-1
1537905130617912,0,2,3,1,-2,-1,-1,0
1537905130619907,0,-3,-3,0,-1,0,0,-2
1537905130619907,0,-1,8,-1,-2,-2,-1,-1
1537905130631875,0,-2,-4,0,1,2,-1,1
1537905130631875,0,-2,-8,-1,-1,-1,-1,-2
1537905130647832,-2,0,51,2,0,-1,-1,0
1537905130647832,-3,-9,-51,-2,3,0,1,-1
1537905130655811,3,10,-12,1,-4,-3,-1,0
1537905130655811,-1,-17,3,-24,18,7,1,2
1537905130656809,-5,-1,-7,10,-30,-12,-6,-4
1537905130656809,2,-10,4,20,-3,-2,-1,2
1537905130685731,6,22,45,-17,12,4,1,4
1537905130685731,-7,-24,-29,-50,-13,-7,-4,-4
1537905130686729,-3,-19,-32,11,24,9,2,-2
1537905130686729,-6,20,20,-65,-66,-20,-7,-3
1537905130692712,1,-37,-83,19,73,20,8,4
1537905130692712,9,34,59,24,-62,-17,-2,2
1537905130698696,-5,-5,-8,-74,-16,-7,-3,-3
1537905130698696,-1,-13,42,28,12,3,1,0
1537905130722633,-8,27,47,-14,-19,-5,-4,-6
1537905130722633,0,-10,19,112,23,9,3,2
1537905130724627,1,-3,-39,-64,-17,-6,-2,0
1537905130724627,0,15,-4,-9,-14,-5,-2,0
1537905130737592,-1,-1,12,-4,-3,0,1,-2
1537905130737592,-2,-6,-7,-10,15,3,0,-2
1537905130739587,1,17,26,39,1,0,-1,0
1537905130739587,1,3,-6,8,24,6,2,0
1537905130751555,-2,-11,-11,-6,-16,-6,-3,-2
1537905130751555,-1,13,-6,-23,-2,-1,-2,-2
1537905130760531,0,7,-9,19,6,3,1,0
1537905130760531,-1,2,-8,-11,8,0,0,-2
1537905130776488,-2,-4,-1,5,-12,-5,-1,0
1537905130776488,1,3,-7,-1,1,-2,-1,1
1537905130777486,1,-1,4,12,9,2,3,1
1537905130777486,2,-11,-3,4,5,0,0,0
1537905130797432,-1,-3,3,3,-16,-7,-3,0
1537905130797432,-1,-9,-11,-8,8,2,0,0
1537905130798430,0,-16,0,7,6,0,0,-1
1537905130798430,0,-15,1,-4,0,-1,-2,0
1537905130819374,-1,-25,-7,1,-4,-2,-2,-3
1537905130819374,-1,-20,-8,-15,-1,-2,-2,0
1537905130820372,-1,-9,3,12,7,3,-1,-1
1537905130820372,-1,9,0,7,1,-1,0,-2
1537905130834334,-2,16,0,-1,-2,0,0,-1
1537905130834334,-1,15,-6,-1,3,1,-1,-1
1537905130835332,0,17,3,7,-2,-2,0,-2
1537905130835332,0,10,-2,2,6,1,-1,1
1537905130857273,-2,4,0,-3,-3,-2,-2,0
1537905130857273,-2,7,-3,-5,0,-1,0,-2
1537905130858270,-1,-1,11,0,0,0,0,0
1537905130858270,-1,6,-13,-2,4,0,-1,-2
1537905130880211,1,-6,-21,0,-4,0,0,0
1537905130880211,1,14,-12,-4,2,0,-1,-1
1537905130880211,-2,-15,51,4,-2,-2,-2,-1
1537905130880211,-1,-1,-22,0,2,3,1,-1
1537905130895172,-2,-2,16,0,-5,-4,-2,-1
1537905130895172,2,-5,-29,-3,-2,-2,0,-3
1537905130895172,0,21,-33,-1,3,2,1,2
1537905130895172,-3,-23,16,0,0,-2,-1,0
1537905130925093,-2,-3,-13,-2,-1,-1,-2,-3
1537905130925093,-1,-10,34,3,6,1,1,-1
1537905130926090,-1,-16,-20,-4,1,-2,0,-2
1537905130926090,-2,32,-1,-6,-10,-4,-2,-2
1537905130940052,5,9,-13,1,-2,1,-1,1
1537905130940052,-5,-10,20,3,-1,-1,-2,-2
1537905130940052,3,6,0,10,4,3,2,1
1537905130940052,-3,-25,-21,-7,2,0,-1,-1
1537905130962992,-4,26,-17,-1,-4,-1,-1,-3
1537905130962992,0,15,29,-1,-1,0,-1,-1
1537905130963989,3,2,-8,-1,-5,-3,-2,-1
1537905130963989,1,5,5,4,3,1,0,-1
1537905130976953,0,-27,-4,-7,-4,-3,-2,-1
1537905130976953,-2,-1,-22,-3,-3,-1,-1,-1
1537905130977951,0,30,28,-3,-2,-2,-3,-2
1537905130977951,-5,-42,-15,2,0,-2,-3,-3
1537905131000889,2,-5,-7,0,-1,-1,0,-1
1537905131000889,2,40,1,1,1,0,1,0
1537905131001886,-2,-19,25,9,0,0,1,-2
1537905131001886,0,2,0,1,-1,0,-1,0
1537905131014852,-1,28,1,-2,-1,0,-1,0
1537905131014852,-1,-32,-13,2,0,-1,-2,-2
1537905131015849,-4,-29,-33,-14,-5,-1,-2,-4
1537905131015849,4,50,29,7,2,1,0,2
1537905131037791,-2,-45,8,-4,-3,-2,-1,1
1537905131037791,2,33,7,9,6,1,-1,0
1537905131037791,-3,-6,-15,-12,-8,-4,-3,-1
1537905131037791,-2,-18,-1,3,7,1,1,-1
1537905131076686,-2,-16,10,-1,-7,-5,-2,-3
1537905131076686,-1,-4,-6,-5,0,-2,-1,-1
1537905131077684,0,3,1,10,1,0,0,0
1537905131077684,1,-8,-4,-3,-1,-1,-1,-2
1537905131078681,-1,22,11,4,6,3,0,1
1537905131078681,-4,-22,-10,-5,-4,-3,0,0
1537905131082670,0,10,-3,10,6,3,0,0
1537905131082670,1,11,0,-18,-9,-4,-1,-2
1537905131097630,-3,-8,17,3,2,1,1,-1
1537905131097630,-3,-5,-17,0,0,1,0,-1
1537905131097630,-3,-9,-9,2,0,-2,-1,-1
1537905131097630,0,-11,-12,-9,-4,-2,-1,-2
1537905131119571,2,24,32,4,0,1,0,-1
1537905131119571,-2,-28,-25,-13,0,-1,0,-1
1537905131120569,-2,2,60,4,-8,-3,-1,-1
1537905131120569,-3,-15,-52,18,5,-1,-2,-1
1537905131136526,4,13,6,7,4,1,0,1
1537905131136526,-4,-34,-42,-7,-2,2,0,-2
1537905131136526,-3,18,12,10,7,0,-2,-2
1537905131136526,0,4,3,-28,-21,-4,-2,-2
1537905131181406,-5,-12,-13,-19,8,0,-2,-3
1537905131181406,0,9,20,-9,-10,-7,-5,0
1537905131182403,2,5,15,12,0,0,-1,1
1537905131182403,-3,16,-4,18,10,3,1,-1
1537905131184398,-6,-11,-5,-15,0,-3,-1,-3
1537905131184398,3,16,18,4,0,1,1,0
1537905131187390,-3,-15,-40,-16,-3,-2,0,-2
1537905131187390,2,28,32,0,0,-1,-2,1
1537905131203347,0,-6,-40,-5,-5,-1,-2,0
1537905131203347,0,5,75,8,4,2,-1,0
1537905131203347,3,28,-48,5,-6,-2,-2,-3
1537905131203347,-3,-22,36,2,3,1,1,-1
1537905131217310,0,7,-19,2,-5,-3,-2,-1
1537905131217310,-1,-5,-36,2,-2,0,0,1
1537905131218307,4,-11,-28,-2,4,4,1,3
1537905131218307,-1,-6,15,-11,-3,-2,-2,-1
1537905131248227,-1,-1,-3,7,-3,-1,-2,-2
1537905131248227,1,3,-10,2,-1,0,0,0
1537905131248227,-1,11,-7,-3,2,1,0,2
1537905131248227,0,2,0,3,2,0,-2,-1
1537905131255209,0,-13,13,13,1,0,0,1
1537905131255209,-4,-17,-40,-1,3,1,1,-2
1537905131255209,-1,-9,25,3,-2,-2,-1,0
1537905131255209,0,-4,3,6,-1,1,0,1
1537905131285130,0,1,17,-6,1,0,-1,-1
1537905131285130,3,6,1,13,1,2,1,2
1537905131286127,-2,-5,14,-5,-2,-2,-1,-2
1537905131286127,-3,-6,-20,14,8,1,-1,-2
1537905131308067,-2,-5,-7,10,3,3,3,0
1537905131308067,1,1,-13,-43,-12,-4,1,1
1537905131309065,-2,-1,21,-1,-1,-2,0,-3
1537905131309065,3,18,-13,-14,-5,0,-1,1
1537905131315049,-2,-20,23,9,0,-1,0,-1
1537905131315049,-3,2,-3,15,1,-2,-2,-3
1537905131315049,3,23,35,-6,4,1,0,3
1537905131315049,1,-24,-5,-13,-8,-4,0,-2
1537905131351950,3,34,18,10,1,0,1,1
1537905131351950,-2,-8,4,-3,7,-1,-2,0
1537905131361924,-1,1,-33,-10,-8,-2,-1,-2
1537905131361924,-5,-23,21,12,3,-2,-1,0
1537905131362921,-4,7,35,7,-3,0,-3,-4
1537905131362921,-1,1,-11,-1,0,-1,-2,-1
1537905131363918,-1,-1,-42,-7,-1,-1,-2,-1
1537905131363918,2,12,80,21,3,0,-1,1
1537905131375886,-2,-9,-26,-18,-10,-1,-3,-2
1537905131375886,-4,-7,7,-18,-5,-2,-3,-3
1537905131376884,-2,25,-9,4,-1,-4,-3,-2
1537905131376884,-1,-10,-12,-6,-2,0,1,1
1537905131396830,-3,-13,-36,2,-4,-4,-2,0
1537905131396830,6,17,-7,18,0,0,1,2
1537905131397828,-4,-28,-30,-21,-11,-3,-2,-1
1537905131397828,-2,21,-11,-21,2,0,-1,-3
1537905131420766,-2,3,12,13,2,-2,-2,-1
1537905131420766,-5,-17,-7,-5,-2,-2,-1,-1
1537905131420766,0,3,-16,24,6,2,0,-1
1537905131420766,1,15,36,3,7,1,0,-1
1537905131434729,-2,-16,-35,-29,-7,-3,-3,-2
1537905131434729,0,22,49,12,-2,-2,-1,-2
1537905131435726,-2,-24,-10,-10,-4,-2,0,-1
1537905131435726,-2,-10,-33,8,0,0,1,0
1537905131457668,5,8,-16,-22,0,0,2,2
1537905131457668,-5,-23,31,8,-7,-3,-2,-3
1537905131457668,-2,-14,-28,-2,4,2,-1,-2
1537905131457668,-4,10,54,13,-3,-2,-1,-2
1537905131480607,3,-6,-57,8,0,0,0,1
1537905131480607,0,-19,28,-13,-4,1,0,0
1537905131481604,-2,-16,-7,-2,4,1,2,-1
1537905131481604,0,-6,-37,-9,-1,1,-2,1
1537905131494569,-1,8,19,3,-1,0,-1,-1
1537905131494569,-3,-8,-44,-9,-4,0,0,-1
1537905131495567,0,7,47,-6,-8,-2,-1,0
1537905131495567,-1,8,-57,-13,-3,-3,-2,-2
1537905131517507,-3,-2,59,6,2,0,1,-2
1537905131517507,1,5,-39,-3,0,-4,-2,-1
1537905131518505,-2,2,28,-1,-1,0,-1,0
1537905131518505,0,4,14,10,-3,-1,0,0
1537905131556404,-1,-11,0,-8,-1,0,1,0
1537905131556404,-3,0,7,4,2,0,-1,-8
1537905131557402,5,14,24,8,3,-1,0,3
1537905131557402,-3,-29,-64,-8,2,2,1,6
1537905131559397,1,25,-2,0,1,0,-1,0
1537905131559397,-1,1,-8,-1,-2,2,0,1
1537905131562389,5,22,5,-7,1,2,4,-4
1537905131562389,-17,-14,0,5,-7,-3,-6,-17
1537905131585327,3,-10,0,4,1,-1,2,11
1537905131585327,0,-3,-12,1,0,-3,-2,-3
1537905131586326,-7,-42,-2,-6,-2,-3,-2,6
1537905131586326,6,4,44,4,3,-1,1,7
1537905131608266,-3,-9,-29,-5,0,-2,-3,-8
1537905131608266,2,1,33,5,0,-2,0,2
1537905131609264,2,-11,-12,-4,0,1,0,-1
1537905131609264,2,-11,-12,-2,-3,0,0,-3
1537905131623226,-3,10,2,0,-4,1,-3,-4
1537905131623226,1,5,7,-4,-2,3,-1,0
1537905131623226,-3,3,-28,1,-1,0,1,-1
1537905131623226,3,16,-22,0,0,-1,-2,-3
1537905131637188,3,18,10,0,-1,-1,0,1
1537905131637188,-3,3,34,5,2,0,-1,-1
1537905131638186,-4,-15,-12,10,4,0,-2,-6
1537905131638186,-3,-6,-26,-18,-9,-2,0,-1
1537905131660128,-4,-1,13,-7,1,0,1,0
1537905131660128,2,-3,-13,-1,2,-2,1,0
1537905131661126,-1,-1,13,-13,5,2,-1,-1
1537905131661126,5,3,7,20,-4,-2,0,2
1537905131675087,-2,2,9,-14,-9,-2,-3,0
1537905131675087,-3,-10,-6,2,-1,-1,-2,-1
1537905131675087,-2,10,-8,-2,-3,-2,-2,-1
1537905131675087,5,20,51,7,10,3,1,4
1537905131697028,-3,-6,-9,1,-1,-3,-2,-6
1537905131697028,2,14,3,-4,-1,0,-1,-1
1537905131698026,-5,-18,-9,2,-1,0,1,0
1537905131698026,-1,6,-7,-7,-2,0,-1,-1
1537905131727945,-1,-16,-2,4,0,-1,-1,-1
1537905131727945,0,24,10,-5,0,-1,-1,0
1537905131728943,-2,5,-27,6,-3,-3,-2,-2
1537905131728943,0,-27,-5,-2,0,-2,0,0
1537905131734927,1,15,46,22,5,1,1,2
1537905131734927,-2,-20,-57,-30,-1,0,0,-1
1537905131735924,2,20,24,7,-5,-3,-1,-1
1537905131735924,-5,2,8,-9,-4,-1,0,-2
1537905131756868,-2,-23,-9,5,0,0,-1,0
1537905131756868,3,41,-36,9,1,0,0,0
1537905131757865,2,0,37,0,2,0,-1,0
1537905131757865,-2,8,-2,-7,-1,-1,-1,0
1537905131780805,-2,-14,-25,-2,1,0,0,-1
1537905131780805,-2,-8,-3,4,-2,-2,-2,-1
1537905131780805,-1,4,-4,-6,-3,-1,0,-1
1537905131780805,3,16,1,1,0,2,0,1
1537905131794769,-3,-11,3,-3,-3,-1,-2,-1
1537905131794769,2,27,7,1,-2,1,-1,-1
1537905131795766,1,-13,-3,4,-1,0,-1,1
1537905131795766,-2,16,-10,4,3,0,1,-1
1537905131825685,0,1,3,-17,-5,-1,-1,-1
1537905131825685,-1,-7,18,3,-1,-3,0,0
1537905131825685,-1,4,14,-1,0,-2,-2,-2
1537905131825685,-2,-14,-37,8,-5,-2,-3,-3
1537905131840645,3,27,34,-10,-3,0,2,1
1537905131840645,0,1,-12,4,0,1,0,1
1537905131841643,-3,-10,-4,-10,-2,-1,-2,-1
1537905131841643,-3,-18,-7,-5,0,-1,-2,0
1537905131862587,2,13,12,5,4,2,1,-2
1537905131862587,-2,-14,-8,-1,1,-2,-1,-2
1537905131863584,-1,10,2,1,-2,0,0,1
1537905131863584,1,-6,15,-4,-1,-4,-1,-2
1537905131885524,-2,-3,-22,0,-1,-1,0,7
1537905131885524,-3,-16,0,0,-2,1,-3,-8
1537905131886522,2,2,25,0,-1,0,0,0
1537905131886522,0,-1,-8,-3,-2,0,-1,1
1537905131900484,0,-1,-4,0,-1,0,-1,-2
1537905131900484,-1,-11,39,6,-2,-2,0,2
1537905131901481,-1,-6,-50,-3,-1,-1,0,-1
1537905131901481,-1,-3,6,-4,1,-2,0,-2
