timestamp,emg1,emg2,emg3,emg4,emg5,emg6,emg7,emg8
1537919519012644,-2,0,-3,-11,-34,-7,8,-2
1537919519012644,-1,0,-2,-3,-1,-10,-11,-7
1537919519021620,-3,-3,-1,-2,10,36,-25,0
1537919519021620,3,2,-1,-5,-28,-41,27,1
1537919519022618,1,1,0,4,6,4,-4,3
1537919519022618,0,-3,0,2,-3,-9,-11,-10
1537919519023615,-2,-2,0,3,18,-13,-2,1
1537919519023615,-3,-2,-3,-1,-5,19,-3,-7
1537919519025610,0,-1,1,-2,-5,7,20,1
1537919519025610,-1,-3,-3,-4,-1,-13,3,0
1537919519034586,1,1,1,3,-4,14,7,-2
1537919519034586,0,-1,-2,-2,2,-1,-8,1
1537919519049545,-4,-3,2,6,9,-2,-3,-3
1537919519049545,-3,-1,-2,0,11,-13,-18,0
1537919519055529,2,1,-2,-13,-46,-8,26,4
1537919519055529,-2,-2,-2,-1,-3,3,-10,4
1537919519066500,-1,0,-1,1,11,12,4,-3
1537919519066500,0,0,1,1,3,0,4,4
1537919519086447,-2,-1,0,1,10,-3,-13,-4
1537919519086447,-1,-2,0,1,3,-4,6,1
1537919519088442,1,2,-1,-2,7,-2,-2,6
1537919519088442,0,2,3,4,-13,-21,4,-19
1537919519134319,-2,0,1,2,5,17,-25,-1
1537919519134319,-2,0,-1,-6,-6,-4,-4,4
1537919519135316,1,-2,0,2,3,-13,19,3
1537919519135316,-1,-1,-1,5,4,0,-9,-11
1537919519138308,-1,-1,-3,-9,-29,-19,14,-1
1537919519138308,-1,-1,-2,-1,0,-2,1,0
1537919519139306,-3,-1,1,0,5,20,-12,-5
1537919519139306,0,-1,-3,-4,10,-1,-4,0
1537919519145289,-1,-2,-2,-3,-12,-16,11,-3
1537919519145289,-2,-1,0,2,12,12,-7,-4
1537919519152271,0,1,-2,-4,-24,-21,-4,1
1537919519152271,0,0,-1,1,6,7,2,1
1537919519161247,-1,0,0,2,13,11,-5,-5
1537919519161247,-1,-1,0,-1,-11,-12,-3,-4
1537919519175210,0,-2,-3,-2,5,34,2,-1
1537919519175210,-1,-1,1,-1,-2,3,-3,0
1537919519184186,-1,-1,-1,3,11,4,-2,7
1537919519184186,-1,-1,0,1,-8,-41,-11,-5
1537919519206127,-1,-1,-3,-6,3,13,-1,-1
1537919519206127,0,-1,0,-3,-13,-11,14,-1
1537919519208122,-2,-2,0,0,9,2,3,-9
1537919519208122,-1,-1,-1,2,10,15,13,3
1537919519220090,-2,-2,1,-4,-9,-39,-45,-9
1537919519220090,-2,0,-2,-2,-10,2,-22,-4
1537919519229066,-1,-3,-3,1,20,13,-3,-3
1537919519229066,-1,0,0,-3,-17,-6,11,0
1537919519244026,-1,0,1,-2,-8,-8,17,1
1537919519244026,-1,-2,1,-2,1,2,8,3
1537919519245023,0,1,-1,2,-1,-7,-3,1
1537919519245023,2,0,1,5,27,10,-5,-4
1537919519265967,0,-1,1,1,-8,19,7,1
1537919519265967,-1,-1,-2,-7,-25,-39,-8,1
1537919519267962,-1,0,-2,-2,-6,-3,4,2
1537919519267962,-2,0,-4,-3,1,14,-11,0
1537919519279930,-2,-1,0,5,20,10,1,0
1537919519279930,0,-1,1,3,6,7,10,1
1537919519288906,-1,-1,-1,-3,-8,0,-16,1
1537919519288906,0,-2,-2,-2,-5,-5,19,1
1537919519303866,-1,-1,2,4,6,19,26,0
1537919519303866,-1,-2,-2,2,0,4,-2,-1
1537919519304863,1,0,-3,-3,1,-2,3,0
1537919519304863,0,-1,1,1,7,-12,-13,-1
1537919519325807,1,1,0,2,1,26,10,1
1537919519325807,-1,-2,0,0,12,-5,4,-2
1537919519327802,0,1,0,-5,-25,31,3,-2
1537919519327802,0,1,-1,-2,-8,-11,-9,-2
1537919519340767,-1,-3,-2,0,2,-13,-9,0
1537919519340767,-1,1,0,0,2,4,13,0
1537919519348746,-1,-1,0,5,9,-15,-11,1
1537919519348746,-2,-1,0,0,0,23,21,0
1537919519363706,0,0,-1,-1,1,-12,-7,-1
1537919519363706,0,-1,-1,-2,-3,-2,2,-1
1537919519364704,-1,0,0,-1,0,-9,-5,-1
1537919519364704,-1,-2,-1,-1,-8,5,-2,-2
1537919519386648,-1,0,-3,-2,-2,-16,-3,-1
1537919519386648,0,-2,0,1,-1,8,-7,-2
1537919519387645,-1,-2,-1,-4,-4,-2,6,-1
1537919519387645,0,0,-1,-2,-6,-3,-5,-1
1537919519399610,-1,0,0,-2,-1,-7,-5,0
1537919519399610,-3,0,-3,-3,-4,3,-5,-2
1537919519408586,2,-1,-1,-1,1,-6,3,2
1537919519408586,2,0,1,0,3,4,1,0
1537919519423546,0,-1,0,-2,-1,0,-3,-1
1537919519423546,-2,-3,-4,-5,-6,-1,1,0
1537919519425541,-3,-1,0,3,4,-1,2,-5
1537919519425541,-2,-2,-3,-3,-2,-1,-3,2
1537919519446484,-1,2,1,4,10,-6,2,0
1537919519446484,0,-1,2,5,38,37,-7,-4
1537919519447482,-2,-3,-1,-7,-51,-60,-28,2
1537919519447482,-2,-3,-2,-4,20,35,31,0
1537919519460447,-3,-1,0,-4,-13,-76,-19,-4
1537919519460447,0,-1,-1,2,-10,63,35,6
1537919519468426,-1,-1,0,4,27,-5,-11,-5
1537919519468426,-1,0,-1,3,1,15,-9,-2
1537919519483386,3,0,-3,-2,-7,4,-2,0
1537919519483386,-3,-1,3,7,25,-9,-9,-3
1537919519485381,-5,-2,-2,0,19,-5,-10,2
1537919519485381,1,-2,-5,-16,-68,-27,13,2
1537919519506325,-3,-1,-2,-1,30,60,-2,-13
1537919519506325,0,1,3,5,9,-26,-16,-8
1537919519507322,3,0,-2,-7,-39,39,3,-2
1537919519507322,-17,0,4,21,96,10,20,11
1537919519520288,8,-4,-6,-21,-115,-88,-15,-21
1537919519520288,7,0,-1,4,38,52,-17,-80
1537919519535248,-8,7,8,23,92,34,18,5
1537919519535248,20,5,4,-3,-51,23,53,5
1537919519544224,-34,-14,-10,-14,41,-23,-19,-18
1537919519544224,-13,-3,0,15,1,-50,-87,-66
1537919519545221,4,4,-8,-19,-69,-69,54,63
1537919519545221,25,0,-8,-37,-52,117,23,3
1537919519566165,13,2,9,21,-70,-107,65,29
1537919519566165,8,-8,-15,-39,23,92,-22,30
1537919519568160,-49,14,16,57,127,108,4,-43
1537919519568160,20,7,6,6,-71,-63,-21,28
1537919519580128,-18,-3,-5,-2,-24,127,-45,-4
1537919519580128,32,-12,0,-20,-16,64,63,47
1537919519589104,32,-2,4,35,-54,-11,39,18
1537919519589104,-40,-8,-18,-31,-19,-64,-96,-24
1537919519604065,-5,-7,10,34,127,127,7,-30
1537919519604065,14,16,8,-6,-128,-9,45,31
1537919519612044,3,-8,-3,-62,-92,-24,-90,-2
1537919519612044,-21,20,17,48,116,44,65,-19
1537919519620022,13,8,-4,-20,-54,39,-59,-24
1537919519620022,-7,-17,-21,-18,-52,-74,88,84
1537919519625008,1,-6,-10,-5,31,96,-24,-59
1537919519625008,-6,-14,-10,-13,-54,-128,-71,-13
1537919519631989,14,0,-2,2,36,123,93,51
1537919519631989,-7,3,7,27,73,-108,-88,-18
1537919519646949,27,6,5,15,22,42,6,6
1537919519646949,-12,-12,-9,-32,-40,81,-8,1
1537919519654927,-14,1,7,14,30,-10,-11,-7
1537919519654927,7,7,6,0,-73,27,15,-2
1537919519663904,-7,3,17,43,42,24,-1,18
1537919519663904,23,-10,-26,-57,-63,-11,7,-10
1537919519677866,8,-1,-4,-18,-18,-108,-67,9
1537919519677866,-27,-1,3,19,116,39,-29,-12
1537919519684848,-14,-15,-10,-23,-27,11,-17,-23
1537919519684848,0,10,20,64,109,38,-24,-28
1537919519692826,-5,-5,-25,-59,-128,36,53,43
1537919519692826,-3,1,-4,-18,-46,-128,-19,21
1537919519707787,0,0,-8,-22,20,82,37,4
1537919519707787,-2,-4,-5,-10,0,4,-19,9
1537919519714768,8,3,9,27,86,17,67,-1
1537919519714768,-8,8,12,23,41,68,7,-34
1537919519723744,21,-2,-9,-20,-75,-48,9,4
1537919519723744,-3,-5,3,5,-6,-63,8,18
1537919519737707,4,6,7,21,82,23,-48,-26
1537919519737707,8,-1,-3,-7,-46,6,20,8
1537919519744688,-14,-5,-2,-9,32,10,-5,-9
1537919519744688,6,1,4,14,33,22,0,-5
1537919519752667,-9,1,4,10,16,0,-9,0
1537919519752667,-3,-3,-6,-10,-13,-8,3,-2
1537919519767627,1,-3,-4,-3,-2,-53,0,5
1537919519767627,-5,2,6,17,28,35,-3,1
1537919519774609,4,-1,-2,-5,-16,-40,-11,-12
1537919519774609,-5,-2,-6,-11,-6,22,9,0
1537919519783585,-6,-1,2,-2,-13,-40,-10,-7
1537919519783585,0,-1,1,5,2,14,5,-4
1537919519798544,0,-2,-2,-6,-15,-38,-1,4
1537919519798544,-5,0,-2,3,8,-15,-10,-8
1537919519804532,4,2,-4,-3,3,-4,16,-1
1537919519804532,-20,-2,1,-1,-5,-7,-9,-6
1537919519812509,15,1,-3,-4,-1,-17,-2,11
1537919519812509,-2,-1,1,6,13,23,-5,-6
1537919519827467,-4,-1,-3,-3,-11,-13,-4,-25
1537919519827467,2,-2,-2,-4,-1,15,20,41
1537919519834448,-5,0,1,1,-4,-15,-20,-23
1537919519834448,0,0,1,1,7,12,3,1
1537919519843424,0,-2,-2,-8,-9,-21,-13,-6
1537919519843424,4,0,2,1,5,-7,10,-4
1537919519858384,0,-1,0,3,6,3,6,-1
1537919519858384,-4,-2,-3,-3,-5,-3,-7,-1
1537919519865365,-4,-4,-2,-3,-1,-10,-9,2
1537919519865365,6,2,1,3,2,9,13,5
1537919519872346,1,-2,-2,-4,-7,-7,-4,-2
1537919519872346,-18,-2,1,-2,1,6,0,-4
1537919519887306,7,3,3,6,5,-11,2,8
1537919519887306,3,0,-3,-3,-3,11,-12,-8
1537919519895285,-2,-2,0,-5,-7,-7,-1,-8
1537919519895285,-3,-1,0,-2,1,-5,-4,-6
1537919519904261,-2,-1,-2,3,12,17,8,4
1537919519904261,0,-1,-2,-6,-19,-23,-10,-5
1537919519918224,-3,-2,0,-1,-1,-6,3,5
1537919519918224,1,0,-1,-3,-1,5,2,-9
1537919519925205,0,0,3,1,8,10,-2,5
1537919519925205,0,0,2,3,-9,-10,-8,-11
1537919519932186,-2,-2,-1,2,6,16,-3,1
1537919519932186,1,0,0,-2,-3,-18,1,-2
1537919519947147,1,0,-3,-2,-13,-6,-2,1
1537919519947147,-4,-2,-2,0,9,12,1,-3
1537919519955126,-4,-1,0,-1,-3,-13,1,2
1537919519955126,3,2,1,2,10,15,-3,0
1537919519964102,-5,-3,-1,-5,-2,-8,2,7
1537919519964102,1,0,0,2,1,-5,-10,-11
1537919519978064,-1,-2,-2,0,0,3,-2,1
1537919519978064,0,-1,-1,4,-1,-2,2,-4
1537919519985047,-2,-2,-5,-7,-13,-16,-4,-2
1537919519985047,0,-2,-1,-2,1,10,1,2
1537919520002001,-1,-1,-1,1,-2,-6,0,1
1537919520002001,0,0,-1,0,-3,4,-4,-2
1537919520015963,-3,-2,-2,-2,-3,-7,2,-2
1537919520015963,0,-1,0,0,5,8,0,-1
1537919520015963,-1,0,-1,-2,-2,-5,-1,1
1537919520015963,0,-3,-1,1,-2,-2,-3,-1
1537919520023941,0,0,1,0,0,1,2,3
1537919520023941,3,-1,1,-1,3,-1,-2,-3
1537919520037904,-2,2,-2,1,-4,-4,-5,-3
1537919520037904,0,-1,-1,-2,1,5,-1,0
1537919520044885,0,-2,-2,-2,0,-7,0,-1
1537919520044885,-2,-1,-1,0,-5,-1,-6,1
1537919520051866,1,-1,-1,-1,1,-8,4,-1
1537919520051866,3,-2,-3,-6,-16,-5,-8,1
1537919520067824,1,-2,0,-2,3,5,10,16
1537919520067824,0,1,0,2,22,28,2,6
1537919520074805,2,1,3,8,26,-10,2,0
1537919520074805,-2,-1,-3,-11,-45,-33,-5,-1
1537919520083781,-3,-4,-5,-9,-27,6,0,-6
1537919520083781,0,-2,-2,-3,-9,-8,-3,8
1537919520097743,-3,0,-1,2,11,4,-6,-10
1537919520097743,-3,-1,2,12,41,37,-7,-33
1537919520106720,2,2,3,12,49,86,8,2
1537919520106720,-4,-2,2,9,23,-90,-30,-15
1537919520120682,-1,-4,-9,-30,-88,21,23,3
1537919520120682,-3,-2,-4,-16,-77,-23,2,-12
1537919520127664,4,3,-2,-16,-118,-123,-9,18
1537919520127664,-3,0,5,20,60,103,-2,-4
1537919520143622,3,1,5,16,68,88,14,-4
1537919520143622,-5,-5,-6,1,72,41,-14,-3
1537919520145617,4,6,15,39,67,-72,7,-8
1537919520145617,2,-6,-18,-52,-112,-13,16,10
1537919520157585,-12,-1,-4,-7,-38,37,-3,-9
1537919520157585,17,7,11,25,63,33,-1,18
1537919520166562,-1,-3,-7,-29,-84,61,14,-3
1537919520166562,-12,-4,6,40,113,6,-58,-35
1537919520180524,23,13,13,6,-120,-78,70,42
1537919520180524,-11,-10,-16,-26,20,-40,-10,2
1537919520187505,-12,-8,-7,-1,62,-81,-57,-23
1537919520187505,4,1,-10,-31,-60,50,13,-5
1537919520203463,-1,-7,7,32,127,69,-33,-11
1537919520203463,-2,16,0,-30,-102,-76,31,8
1537919520205458,6,-5,-8,-14,18,55,6,15
1537919520205458,7,0,7,5,-27,74,20,47
1537919520217425,-15,-1,10,47,127,54,-30,-19
1537919520217425,0,-1,5,4,-29,-91,25,0
1537919520226403,-25,-11,-13,-23,2,-27,-9,-27
1537919520226403,25,12,10,30,53,71,33,27
1537919520240363,-5,-9,-19,-47,-104,-28,-12,-12
1537919520240363,0,-2,2,7,-12,38,2,11
1537919520247344,6,16,24,57,109,89,12,-12
1537919520247344,-22,-17,-26,-62,-87,-128,12,-52
1537919520263301,-2,-2,-2,0,86,28,-28,11
1537919520263301,-3,-2,2,4,32,107,12,-24
1537919520265296,23,15,19,50,4,-59,-22,36
1537919520265296,-10,-5,-3,-9,-21,76,33,-44
1537919520277264,13,5,0,2,6,-62,15,32
1537919520277264,-9,-12,-13,-29,-52,79,8,8
1537919520286240,5,2,6,19,101,127,21,3
1537919520286240,-3,5,12,25,70,41,1,16
1537919520300202,-9,-9,-17,-51,-128,-88,-22,-26
1537919520300202,-1,4,16,49,53,-35,6,5
1537919520307184,1,2,-3,-12,-33,-105,5,2
1537919520307184,2,-1,-8,-13,-36,0,0,16
1537919520324139,-6,-4,-2,-7,13,127,19,13
1537919520324139,13,8,8,19,54,2,-32,23
1537919520325136,-9,-12,-21,-49,-98,-48,11,-23
1537919520325136,-1,2,9,23,70,18,-1,-16
1537919520337104,0,4,8,20,16,-18,3,34
1537919520337104,-3,-5,-8,-14,-15,-39,-13,-35
1537919520346080,0,-2,-1,-6,-22,30,4,10
1537919520346080,3,5,12,35,96,-11,-9,15
1537919520369018,-9,-6,-13,-38,-117,35,-15,-36
1537919520369018,-2,-4,-8,-13,-57,-27,-4,11
1537919520370016,-3,-3,-1,0,6,35,-15,-11
1537919520370016,1,-1,-4,-12,-32,-51,-8,-6
1537919520383978,2,-1,3,6,31,-14,-2,-9
1537919520383978,-1,2,3,11,49,96,-8,1
1537919520384976,0,-2,-8,-14,-45,-49,3,7
1537919520384976,-1,-5,-7,-14,-42,-39,-14,-5
1537919520396944,3,3,3,9,37,-37,-6,-3
1537919520396944,1,-3,0,4,30,42,5,11
1537919520405920,-3,-1,1,-1,3,7,1,-3
1537919520405920,0,1,1,-2,-6,-17,-7,4
1537919520420880,-1,0,-1,1,7,-32,-7,-5
1537919520420880,1,0,-2,-5,-3,-12,6,1
1537919520427861,-3,-1,-2,-4,1,35,-6,-5
1537919520427861,-3,-2,-1,-6,-21,-33,-5,-3
1537919520442821,1,-1,4,8,27,4,4,-3
1537919520442821,0,-1,-1,1,-2,-18,-3,7
1537919520449802,-1,-3,-7,-11,1,7,-1,-3
1537919520449802,0,0,2,2,-1,16,-4,2
1537919520457781,-1,1,0,2,7,-22,2,-5
1537919520457781,1,-1,-1,1,12,0,-2,1
1537919520466757,-5,-2,-2,-3,-2,16,-3,-5
1537919520466757,-2,-1,-1,-4,-10,-6,0,1
1537919520480720,-2,-1,0,1,5,-4,-8,-7
1537919520480720,0,-2,-2,-3,-1,-13,-2,-2
1537919520487701,0,0,1,1,9,21,-1,-2
1537919520487701,-1,1,-1,0,-8,-12,2,3
1537919520511637,1,0,-3,-5,4,-12,1,0
1537919520511637,-1,-1,-2,0,4,8,-3,0
1537919520512635,-1,0,0,-1,-1,3,-3,-2
1537919520512635,1,-1,1,0,0,-2,0,2
1537919520533579,-2,0,-3,-1,2,-12,-2,-2
1537919520533579,-1,-1,1,0,-4,5,3,-2
1537919520535573,-1,-3,-2,-5,-1,8,-2,-2
1537919520535573,-2,-3,0,2,-4,-3,-6,-1
1537919520556517,0,0,1,3,6,-3,3,1
1537919520556517,-1,-1,1,1,0,-10,-5,-1
1537919520557515,-3,-1,-1,-1,5,3,-1,-1
1537919520557515,0,-1,-5,-5,-7,1,-3,0
1537919520571477,2,0,2,2,3,-3,-2,-1
1537919520571477,0,0,1,2,8,-1,-2,-1
1537919520572475,-2,-3,-1,-1,-10,9,3,0
1537919520572475,-2,1,0,0,-3,-8,-1,-1
1537919520593418,-1,0,-2,0,2,0,-1,0
1537919520593418,-1,-3,-7,-8,-8,-4,-4,0
1537919520593418,-1,0,1,1,7,6,0,-1
1537919520593418,0,-1,-1,-3,-4,-3,-2,0
1537919520616357,-1,-2,0,2,1,0,2,0
1537919520616357,1,2,2,-1,5,2,-1,0
1537919520617355,-1,1,-1,1,0,0,1,-1
1537919520617355,0,-2,-2,-4,-4,0,-3,-2
1537919520630320,-1,-2,-1,1,1,0,-2,-1
1537919520630320,-1,0,0,1,-1,2,-1,-2
1537919520631317,0,-1,-2,-2,-3,-1,-2,-1
1537919520631317,-1,0,1,0,-1,-2,-1,0
1537919520653259,0,-1,0,-1,2,-3,-1,-2
1537919520653259,-1,0,-1,-3,0,3,0,-1
1537919520654256,-1,-2,-1,-3,-1,-3,-2,-2
1537919520654256,1,0,-1,1,0,-1,-1,-2
1537919520676197,-1,-1,-2,-2,-1,-2,1,-1
1537919520676197,-2,0,0,2,1,-2,-2,-1
1537919520677195,-1,-2,0,2,1,-3,-1,0
1537919520677195,0,-1,-1,0,-1,0,-1,-2
1537919520690160,1,-1,0,0,0,-2,-1,-1
1537919520690160,-1,0,1,1,-1,-2,0,-2
1537919520691157,-1,-1,-3,-2,0,1,0,-1
1537919520691157,0,-1,-2,-2,-2,-2,-2,0
1537919520713099,-1,1,0,0,0,1,-1,-1
1537919520713099,-1,-1,0,0,0,-2,-2,0
1537919520714096,-2,-1,2,1,0,-1,-1,0
1537919520714096,-1,-1,-2,-2,-1,-1,-2,0
1537919520727061,-3,-1,0,1,3,-1,1,-2
1537919520727061,-1,-1,-9,-9,-8,-4,-1,0
1537919520736037,-1,-2,-1,-1,0,0,1,0
1537919520736037,-1,0,0,3,1,0,0,-1
1537919520750997,-1,-2,0,-1,-1,1,0,0
1537919520750997,-1,-1,2,3,4,-2,-2,-1
1537919520750997,-2,-1,-1,-1,-2,-2,-2,-1
1537919520750997,0,-1,0,-3,-1,0,-1,0
1537919520772938,0,-1,-1,-3,-2,0,-2,0
1537919520772938,-2,-1,-1,0,-2,0,1,-1
1537919520773936,0,1,1,3,5,3,2,-2
1537919520773936,-2,-2,2,7,36,19,-1,-2
1537919520786901,2,2,3,10,11,11,2,4
1537919520786901,1,-1,-4,-6,-15,-15,0,-1
1537919520795877,-5,-1,7,30,88,21,-15,-9
1537919520795877,-6,-6,-9,-16,-47,-39,-5,-7
1537919520810837,1,-1,-1,1,102,25,-31,-3
1537919520810837,-5,-5,-11,-29,-7,-70,-20,-15
1537919520810837,-2,-11,-26,-68,-95,-103,12,14
1537919520810837,-6,-1,7,11,99,126,15,-12
1537919520832779,-14,-16,-32,-86,-128,-115,11,-8
1537919520832779,-15,5,14,22,93,127,4,-41
1537919520833777,22,15,9,3,-87,-83,28,23
1537919520833777,-3,-2,4,17,20,47,0,-1
1537919520847739,12,10,22,68,108,81,3,8
1537919520847739,14,14,23,62,97,101,44,27
1537919520855718,-8,-16,-18,-24,-65,-59,-19,-11
1537919520855718,-2,-10,3,14,43,-102,-15,-5
1537919520870678,2,25,20,32,79,29,6,3
1537919520870678,-10,-11,-17,-31,-62,-46,-18,-1
1537919520871675,-6,-2,-4,-8,-4,114,-2,-3
1537919520871675,7,-2,-7,-8,28,-9,-15,11
1537919520892619,1,-13,-10,-13,-1,-9,0,8
1537919520892619,-3,-6,-2,-4,-22,57,3,5
1537919520893616,1,8,22,62,127,109,-1,-4
1537919520893616,-14,-15,-25,-54,-128,49,-47,-16
1537919520907579,-7,-4,-2,-4,-7,-10,12,-13
1537919520907579,11,9,9,19,54,-33,15,11
1537919520915557,-6,-8,-6,-19,-27,51,-27,-22
1537919520915557,15,14,14,37,109,61,2,1
1537919520930517,1,-2,-7,-18,-104,13,-4,7
1537919520930517,-4,-11,-20,-43,-100,-120,-6,9
1537919520931515,-4,0,6,12,51,49,7,-4
1537919520931515,0,7,6,6,-36,1,19,6
1537919520953456,-3,0,-3,-5,-23,109,4,-3
1537919520953456,-5,-8,-2,1,10,-29,-25,-11
1537919520953456,-2,-4,-13,-39,-122,-48,11,7
1537919520953456,5,8,6,18,41,35,21,10
1537919520967419,-3,-6,-6,-6,-2,-14,-8,-6
1537919520967419,-4,-6,-9,-21,-66,-38,7,2
1537919520975398,2,6,13,32,91,-4,-12,-5
1537919520975398,-1,-3,-10,-27,-79,5,-9,-1
1537919520992353,-1,-1,7,26,104,21,-20,-8
1537919520992353,1,1,-2,-6,-60,-45,-2,-2
1537919520992353,-4,-3,-6,-3,-10,114,4,-5
1537919520992353,-3,-5,-5,-10,-17,-49,15,-1
1537919521013298,1,1,1,-3,-23,53,0,2
1537919521013298,3,4,8,14,25,72,5,2
1537919521013298,12,8,6,29,71,-128,9,15
1537919521013298,-6,-7,-10,-32,-23,127,8,-1
1537919521027261,2,1,4,10,28,56,12,3
1537919521027261,-2,-5,-14,-33,-84,-20,-6,-2
1537919521036237,-1,2,8,13,26,59,4,-3
1537919521036237,3,4,7,17,45,-107,-2,4
1537919521050198,-4,-4,-7,-12,-8,-56,-15,-8
1537919521050198,5,9,17,50,127,109,-27,2
1537919521051196,-5,-6,-12,-25,-23,57,0,-1
1537919521051196,1,1,1,0,4,41,1,2
1537919521073136,-2,-2,3,1,-2,-39,0,-1
1537919521073136,1,-1,1,6,18,-16,8,2
1537919521074134,0,2,-2,1,-2,-1,3,1
1537919521074134,-3,-2,4,13,21,-15,-1,-4
1537919521087099,-5,-4,-6,-10,-20,48,-10,-10
1537919521087099,1,0,-2,-5,-21,-66,-6,-1
1537919521095077,-4,-4,-2,-9,-5,-92,-9,-7
1537919521095077,-4,1,0,2,-31,60,-1,-6
1537919521111035,4,3,3,13,34,10,10,4
1537919521111035,-5,-6,-13,-29,-84,-33,0,-4
1537919521111035,-3,-1,0,-3,-8,1,-3,-4
1537919521111035,4,2,1,4,0,-73,0,2
1537919521132976,1,1,-1,-3,-20,-41,6,2
1537919521132976,0,1,-1,-2,10,9,1,1
1537919521133974,-2,0,3,8,10,63,1,-2
1537919521133974,1,1,2,11,38,-43,-2,3
1537919521146939,-1,-2,-1,-2,-11,-21,-2,-1
1537919521146939,-3,-7,-7,-8,-27,30,0,-6
1537919521155915,-1,-2,-4,-9,5,-16,-8,-1
1537919521155915,-2,-3,-5,-17,-43,-32,0,-1
1537919521170875,0,-4,-5,-12,-25,-9,7,2
1537919521170875,1,3,7,13,45,46,-1,1
1537919521170875,1,1,1,7,7,-3,-1,1
1537919521170875,1,1,-2,-2,-8,-8,2,1
1537919521192817,-2,-2,2,3,-6,-9,-4,-3
1537919521192817,0,-1,-1,3,12,17,3,-1
1537919521193815,0,0,-3,-5,-3,-2,-3,-1
1537919521193815,-3,-2,-3,-10,-20,-9,2,-2
1537919521207777,0,0,1,3,-11,-16,-1,2
1537919521207777,-1,-1,0,4,17,-2,-2,2
1537919521215756,0,-2,-3,-8,-14,-11,3,0
1537919521215756,1,0,2,5,13,7,-2,-1
1537919521230716,1,1,0,1,-7,-10,0,-1
1537919521230716,-1,-2,-1,-6,2,-2,1,-2
1537919521231713,-3,0,1,2,5,2,-1,0
1537919521231713,-2,-2,-1,2,-4,1,0,-1
1537919521252658,1,-2,-4,-6,-10,-5,-2,0
1537919521252658,-1,1,0,-1,2,1,-1,0
1537919521253655,-1,-2,3,6,4,-3,0,0
1537919521253655,2,-3,-5,-5,-6,-7,-1,-2
1537919521267617,-1,-1,-2,-4,-11,-6,1,-1
1537919521267617,-2,-1,2,5,13,8,0,0
1537919521275596,1,-2,-2,-5,-3,-4,1,1
1537919521275596,-1,1,-2,-3,-5,-3,0,-1
1537919521290555,-1,1,0,0,-5,-3,-1,1
1537919521290555,0,0,2,2,3,5,-1,0
1537919521291553,-1,-2,0,-3,-4,-1,-2,-2
1537919521291553,-1,-1,0,-1,-2,1,0,-1
1537919521313494,0,-1,0,0,0,-2,2,0
1537919521313494,-1,-2,-2,-4,-1,-2,0,0
1537919521313494,-1,-2,-3,-1,-6,-3,0,-2
1537919521313494,-1,0,0,1,3,3,1,0
1537919521337431,-2,-1,0,2,1,-2,2,2
1537919521337431,0,0,-4,-4,-2,0,1,-1
1537919521338429,-1,-1,2,-1,2,-1,-1,2
1537919521338429,0,0,0,-1,0,0,-1,7
1537919521350396,-2,-1,0,0,-3,1,0,0
1537919521350396,-2,0,0,0,0,-1,0,-5
1537919521351394,1,0,-4,-3,-2,-2,-2,-4
1537919521351394,1,-1,-1,1,0,-2,-1,-6
1537919521373335,0,-1,-1,-1,-3,-2,-2,-1
1537919521373335,-1,-1,-2,1,0,-1,0,1
1537919521373335,-1,-1,-1,-2,-2,-3,0,0
1537919521373335,-2,-1,-1,0,-1,-1,0,1
1537919521396274,0,-1,-3,-4,-6,-3,-2,1
1537919521396274,-1,-1,0,1,0,0,0,-1
1537919521397271,-2,0,0,1,1,-1,-1,0
1537919521397271,-2,-1,-1,-1,-2,0,-3,-3
1537919521410236,-2,0,-2,-2,-2,-3,-1,-4
1537919521410236,0,0,0,0,0,1,0,0
1537919521411234,0,-2,-1,-1,-3,-1,0,1
1537919521411234,0,0,1,0,2,1,-1,-1
1537919521433174,-2,-3,-2,-2,-2,-2,-1,-2
1537919521433174,0,2,2,-3,0,-2,-2,0
1537919521434172,-3,1,0,3,2,-1,0,0
1537919521434172,-1,-2,-2,-1,-3,-2,-1,-1
1537919521456112,0,0,0,-2,-2,1,-2,0
1537919521456112,0,-2,-2,-1,-3,0,0,0
1537919521457110,0,-1,-2,-3,-3,2,-1,0
1537919521457110,0,1,3,6,25,10,-3,1
1537919521470075,-1,-1,-4,-5,-15,9,3,1
1537919521470075,2,1,1,3,9,-25,1,4
1537919521471072,-4,0,0,2,19,-18,-10,-7
1537919521471072,-2,0,0,-1,-29,39,6,1
1537919521493014,2,0,-3,-4,-11,-18,6,1
1537919521493014,-3,-1,6,19,78,94,-1,-2
1537919521494011,1,0,-3,-8,-31,-107,-11,4
1537919521494011,-8,-4,-3,-7,23,71,7,-7
1537919521515952,10,6,4,2,-2,-60,3,12
1537919521515952,-6,-8,-19,-48,-128,-81,15,-4
1537919521516950,-6,0,7,13,77,-20,-24,-11
1537919521516950,7,12,26,59,88,36,-15,3
1537919521530913,-11,-11,-20,-44,-69,-72,8,-14
1537919521530913,-3,-2,-5,0,35,95,22,-2
1537919521530913,13,3,-8,-24,-118,-59,25,14
1537919521530913,-7,-5,-6,4,110,94,-18,-11
1537919521560832,-3,-1,-2,-17,-79,-26,9,5
1537919521560832,2,6,11,27,55,-113,-41,-9
1537919521561830,3,3,5,14,83,127,55,7
1537919521561830,1,-2,-5,-9,-23,-128,2,1
1537919521575793,-4,-2,-6,-16,-52,-56,-2,-4
1537919521575793,10,6,11,27,78,71,-17,12
1537919521576790,-5,-14,-20,-29,-51,0,-21,4
1537919521576790,0,3,12,27,92,47,-19,-4
1537919521590752,1,-4,-6,-13,-36,-92,7,11
1537919521590752,-10,-5,-3,-5,-6,103,-10,-11
1537919521590752,3,5,11,24,66,127,0,-2
1537919521590752,-5,-5,-16,-37,-77,-128,30,-1
1537919521612694,7,-3,1,8,77,125,-21,12
1537919521612694,0,8,11,22,72,65,-1,-5
1537919521613691,-7,-10,-13,-27,-83,-65,-23,-10
1537919521613691,-4,-4,-7,-29,-126,-97,25,-3
1537919521636630,-2,9,20,50,127,118,-11,-13
1537919521636630,-2,0,2,11,64,31,-16,-4
1537919521636630,-8,-10,-16,-37,-50,-43,-5,-2
1537919521636630,2,2,0,2,32,42,-11,3
1537919521650592,1,2,9,27,98,-20,-18,-3
1537919521650592,2,-7,-17,-40,-128,-56,12,5
1537919521651590,-5,4,10,21,53,27,-9,-8
1537919521651590,-1,-5,-10,-24,-81,-42,25,4
1537919521681510,-3,0,-3,-1,12,10,5,-4
1537919521681510,-2,-4,-3,-8,-55,9,7,-5
1537919521681510,-1,-1,1,5,32,46,4,0
1537919521681510,-1,-1,-2,2,-10,83,-10,-2
1537919521697467,-3,-5,-14,-31,-83,-72,1,-3
1537919521697467,-2,-5,-6,-13,-12,-39,-1,0
1537919521698465,0,2,5,14,49,89,20,-3
1537919521698465,-3,-3,-4,-10,-40,65,5,-1
1537919521710433,-2,2,7,16,26,47,-10,-5
1537919521710433,3,2,-1,1,2,29,0,6
1537919521711430,-2,-1,-2,-4,10,-74,6,1
1537919521711430,1,1,3,9,43,-20,-20,-5
1537919521733371,-2,-4,-9,-18,-75,127,11,-1
1537919521733371,-3,-4,-4,-13,-10,52,-2,-2
1537919521733371,2,3,5,12,-11,-39,-11,1
1537919521733371,2,1,-1,4,19,-16,-2,-1
1537919521756310,-2,-2,4,13,34,-95,-4,0
1537919521756310,4,2,0,6,26,-45,9,5
1537919521757308,1,0,1,4,35,41,-14,0
1537919521757308,-2,0,3,6,16,24,-6,-2
1537919521770273,6,2,-4,-23,-72,-38,18,5
1537919521770273,-3,1,-2,-4,2,-39,4,-3
1537919521778251,4,1,2,6,3,7,-1,2
1537919521778251,-1,-2,-3,-6,2,-25,-2,-2
1537919521793211,-1,3,5,18,49,33,-3,1
1537919521793211,1,-1,1,1,-6,-44,0,2
1537919521793211,0,-1,-2,-4,-32,-20,5,0
1537919521793211,1,1,2,2,5,40,-2,2
1537919521816150,-3,0,-1,4,29,8,-3,-5
1537919521816150,1,-1,-2,-10,-20,-54,2,4
1537919521817147,-1,-1,-1,2,0,7,-6,-5
1537919521817147,1,0,0,-4,-3,-1,1,1
1537919521830113,1,0,1,5,15,6,-6,-2
1537919521830113,-2,-3,-2,-3,-13,-4,-2,-2
1537919521831110,-1,0,2,5,-3,-21,1,0
1537919521831110,2,-1,-3,2,1,4,0,2
1537919521853051,-3,-5,-2,-4,-1,12,-3,-2
1537919521853051,0,-1,-1,2,1,31,5,-2
1537919521854049,1,0,-2,-4,-4,-6,1,0
1537919521854049,-2,-3,-2,-6,-13,-22,0,0
1537919521875990,-2,-2,2,9,18,19,-4,-1
1537919521875990,-1,2,-2,1,7,-12,-2,-1
1537919521876987,0,0,0,0,3,-14,0,-1
1537919521876987,-2,-3,-4,-6,-15,2,-1,-1
1537919521889953,0,0,0,4,12,11,-1,-2
1537919521889953,-1,0,1,2,1,-22,-2,-2
1537919521897931,0,-1,0,-3,-12,2,2,1
1537919521897931,0,-1,-1,0,3,-6,-3,-1
1537919521912891,-2,-2,0,0,4,6,-1,-1
1537919521912891,-1,0,1,3,0,-16,-1,-2
1537919521913889,-2,-2,-1,0,-2,1,-2,0
1537919521913889,2,-1,-2,-3,-2,-5,-3,0
1537919521935830,-1,-1,1,1,4,-3,-2,-1
1537919521935830,-3,-2,-2,-1,-5,-3,0,-2
1537919521936827,-2,-1,0,-1,0,0,1,0
1537919521936827,0,-1,-1,-1,-2,-5,-1,0
1537919521949793,-1,1,0,1,1,5,2,0
1537919521949793,-1,-1,0,2,4,-6,-1,-1
1537919521957771,-2,-1,-3,-4,-2,-1,1,0
1537919521957771,-1,0,-2,-1,-2,-6,0,0
1537919521974727,-2,-1,0,-1,3,5,-2,0
1537919521974727,1,-1,0,0,0,-3,-2,0
1537919521974727,0,0,-1,2,4,-1,-2,-4
1537919521974727,-1,0,-1,-5,-7,-2,-2,-3
1537919521996668,-2,-2,-1,-1,3,2,1,-3
1537919521996668,-1,-1,2,1,-2,-5,-2,-2
1537919521996668,-1,0,-1,-1,-1,1,0,0
1537919521996668,1,-1,1,0,2,0,0,-1
1537919522009633,-1,-1,-2,0,-2,0,-1,-1
1537919522009633,-2,0,-2,-1,0,-4,-1,2
1537919522017611,-1,-1,0,2,-2,-1,-2,-1
1537919522017611,-2,0,0,1,-2,-1,-2,3
1537919522032571,0,-1,-1,-1,1,-3,-2,0
1537919522032571,0,-1,-2,-4,-3,-2,0,3
1537919522041548,-1,-1,0,-1,-2,0,-2,-2
1537919522041548,1,-2,-3,-3,-4,-3,0,-1
1537919522056507,0,0,1,-2,1,1,-1,-2
1537919522056507,0,-1,-1,0,0,-3,0,-2
1537919522057505,-1,-2,-1,-2,-3,-1,-1,-2
1537919522057505,-2,-2,-2,-1,-2,-2,0,-2
1537919522069473,-2,0,0,0,0,-1,0,0
1537919522069473,-1,0,0,-1,-1,-1,-1,-3
1537919522078449,-1,1,-1,-1,-1,-1,-1,0
1537919522078449,-2,-1,-1,0,1,2,-1,1
1537919522092412,0,-1,-2,0,0,0,-1,0
1537919522092412,0,0,0,-1,1,-1,-1,-1
1537919522101388,-1,-1,1,-1,0,-1,-1,-1
1537919522101388,0,-1,-2,-1,-1,-2,-3,-2
1537919522116347,0,-1,0,-3,-2,1,0,-1
1537919522116347,0,-1,-1,1,0,0,0,-1
1537919522117345,0,-2,0,-1,-3,-1,-2,0
1537919522117345,0,0,-1,1,0,0,1,-2
1537919522138289,-1,-1,-1,0,-2,-2,0,-2
1537919522138289,-1,-2,-1,0,0,-1,1,-1
1537919522140284,-1,-1,-3,-1,-1,0,0,-1
1537919522140284,-2,0,2,0,0,0,0,0
1537919522152252,0,0,-2,-1,-1,-4,-1,-2
1537919522152252,-1,0,-1,-2,-2,0,0,0
1537919522161228,-2,-1,0,-1,-1,-1,-1,-2
1537919522161228,0,-1,0,-1,0,1,0,-1
1537919522176187,-2,-1,-2,0,-1,1,-1,-1
1537919522176187,0,-2,-1,-2,-2,-3,0,-1
1537919522177185,0,-1,-2,-1,-1,0,1,0
1537919522177185,-1,-1,-1,-1,0,-1,-2,0
1537919522199126,0,1,-1,-1,-1,1,0,1
1537919522199126,-2,1,-2,-2,-1,-2,-2,-1
1537919522200124,1,-3,-1,-2,-5,-2,0,-2
1537919522200124,-2,-1,-1,0,-1,-1,-2,-1
1537919522214086,-3,1,-1,-1,0,-1,0,-2
1537919522214086,-1,0,-1,0,0,-1,-2,0
1537919522215084,-1,-1,-1,0,0,1,-1,-1
1537919522215084,-1,-1,-1,2,0,-2,0,0
1537919522236028,-1,-2,2,1,-1,0,-2,-1
1537919522236028,0,-1,-2,-4,-3,-1,-1,-1
1537919522238022,-2,-1,2,3,3,-1,-2,-1
1537919522238022,-1,-2,0,-2,-1,-2,-1,-2
1537919522258966,-1,-3,-4,-2,-4,-1,-2,-1
1537919522258966,-2,0,0,2,0,0,0,0
1537919522259964,0,0,-1,-2,-1,-1,-1,1
1537919522259964,-2,2,3,4,2,0,-1,-1
1537919522271932,-1,-2,-2,-3,-2,-2,0,-1
1537919522271932,-1,-1,-1,-3,-2,-2,-1,-1
1537919522280908,0,-1,-1,-3,-2,-2,1,0
1537919522280908,0,0,1,-1,1,1,0,-1
1537919522295868,-1,0,-1,0,-1,-1,0,-2
1537919522295868,0,-1,1,2,0,0,0,0
1537919522297862,-2,0,-2,0,0,1,1,0
1537919522297862,0,-2,-2,-1,-1,0,-1,0
1537919522318807,-1,0,-2,-4,-5,-1,-3,0
1537919522318807,-2,-2,1,0,1,1,-1,-1
1537919522319804,1,-1,0,0,-3,-2,-1,-2
1537919522319804,-1,0,0,-1,-2,-1,1,-1
1537919522332769,-2,-3,4,3,3,0,-2,0
1537919522332769,3,4,-2,-3,-2,0,-3,-2
1537919522341745,-2,-2,-4,-2,-6,-3,-3,-1
1537919522341745,-1,-1,-2,-2,-4,-2,1,0
1537919522356705,1,-2,-3,1,2,1,0,-2
1537919522356705,0,3,6,6,6,8,3,0
1537919522357702,0,-3,-5,-6,-3,-4,-1,-1
1537919522357702,3,0,-3,-5,-3,0,0,0
1537919522378647,-2,-4,-5,-4,-5,-7,-5,-4
1537919522378647,-1,-2,1,0,-1,-1,-1,-1
1537919522380641,0,0,4,5,6,6,1,-2
1537919522380641,-2,1,0,-3,-4,-6,-4,-4
1537919522392609,2,4,6,8,11,10,6,4
1537919522392609,-3,-2,-1,-3,-5,-5,-3,-7
1537919522401585,2,2,-3,-2,4,3,1,-3
1537919522401585,-3,-5,-3,1,28,8,-4,-1
1537919522416545,-2,-5,-4,-9,-31,0,-2,3
1537919522416545,0,2,9,13,45,18,6,10
1537919522417543,-6,-5,-10,-20,-44,-40,-7,4
1537919522417543,-1,0,7,6,29,48,-1,-3
1537919522438486,2,7,2,19,88,34,-5,3
1537919522438486,-9,-10,-11,-15,-77,-94,1,-1
1537919522440481,3,2,1,-8,-37,20,10,-2
1537919522440481,-2,-2,-7,-12,-42,-35,0,-11
1537919522452449,-3,-1,8,14,35,67,-10,-19
1537919522452449,14,7,9,18,41,20,13,8
1537919522461425,-8,-8,-13,-31,-59,-85,-16,-10
1537919522461425,-3,-2,4,11,34,22,-16,-3
1537919522476386,16,13,17,31,59,24,31,30
1537919522476386,-11,-12,-21,-37,-62,-22,-23,-3
1537919522477383,-6,-2,7,20,73,34,12,2
1537919522477383,22,13,5,1,6,-33,28,35
1537919522498327,-15,-19,-26,-69,-97,-67,-17,-16
1537919522498327,2,8,30,88,113,113,-9,-10
1537919522500321,8,-7,-24,-65,-106,-124,33,13
1537919522500321,-19,-17,-15,-14,56,108,-21,-22
1537919522512289,14,17,22,62,98,24,-1,9
1537919522512289,-9,-14,-28,-73,-128,-83,13,-9
1537919522521265,-3,11,30,77,127,16,-7,-3
1537919522521265,10,6,0,-13,-50,-101,25,10
1537919522536225,-12,-10,-13,-25,-15,-32,-6,-15
1537919522536225,-1,5,7,16,68,127,7,-4
1537919522537223,12,10,16,53,107,115,-15,8
1537919522537223,-10,-8,-10,-27,-17,-93,-1,-3
1537919522558167,-17,-14,-21,-53,-39,63,-17,-20
1537919522558167,-10,4,15,43,98,93,16,-17
1537919522560161,4,-3,-9,-38,-85,-19,-7,1
1537919522560161,-1,-1,1,22,82,-37,-12,-1
1537919522572129,4,2,-2,-4,-54,-111,5,7
1537919522572129,0,-7,-9,-17,3,45,-18,-4
1537919522581105,-5,-1,3,12,11,-5,-1,3
1537919522581105,13,4,11,37,78,103,-1,12
1537919522596065,-6,-9,-18,-55,-99,80,0,-5
1537919522596065,1,-2,-5,-8,43,2,4,5
1537919522598060,7,7,23,76,104,-7,0,1
1537919522598060,-13,-14,-28,-81,-109,-88,-19,-17
1537919522619004,2,4,10,32,124,23,10,4
1537919522619004,10,5,1,-3,51,24,-3,11
1537919522620001,-11,-9,-12,-26,-51,78,-10,-12
1537919522620001,-1,7,13,35,39,4,3,-3
1537919522631969,-1,2,4,11,-9,-115,-1,2
1537919522631969,-4,-4,-11,-31,-113,-90,3,-2
1537919522640945,0,0,-4,-3,44,34,0,-3
1537919522640945,-6,-1,-1,-3,-84,-1,0,-7
1537919522655905,0,-3,-5,-11,-52,-92,-8,-1
1537919522655905,1,1,3,10,32,-9,-5,1
1537919522657900,-3,-2,-6,-17,-17,-14,0,-1
1537919522657900,-1,-1,-1,-3,-9,15,-2,-1
1537919522678844,1,1,4,17,-7,68,3,0
1537919522678844,3,4,12,38,94,13,4,4
1537919522679842,-5,-10,-17,-53,-121,-5,-9,-4
1537919522679842,-4,-1,0,-5,-29,97,-1,-5
1537919522692806,3,0,1,5,-20,-24,-1,2
1537919522692806,-1,-3,-6,-19,-51,-40,-4,-1
1537919522700785,-1,-1,-2,-9,3,14,2,-2
1537919522700785,2,1,4,15,25,18,3,3
1537919522717740,-1,1,2,8,36,33,3,1
1537919522717740,2,0,-5,-12,-23,-25,-5,2
1537919522718737,0,0,2,6,40,-9,1,0
1537919522718737,1,-1,2,3,-1,-23,-1,-2
1537919522738684,-3,-3,-1,-3,0,4,-2,-1
1537919522738684,-3,-2,-3,-2,-3,-13,-3,-1
1537919522740679,-2,0,-2,3,4,-18,1,-1
1537919522740679,-1,0,0,3,9,10,1,1
1537919522752646,0,-2,-2,-2,-2,14,0,-2
1537919522752646,1,-1,-2,-4,-14,-13,-3,0
1537919522761623,-2,-3,0,1,16,6,-1,-2
1537919522761623,0,0,-3,-5,-6,-5,-1,1
1537919522776582,-2,1,3,7,20,10,-1,-1
1537919522776582,-2,-1,-3,-7,-14,-30,-3,-2
1537919522777580,1,0,1,1,2,2,-3,-1
1537919522777580,0,0,1,4,9,3,0,-1
1537919522798524,1,1,1,1,2,-3,0,-1
1537919522798524,-1,-1,-4,-4,-7,-3,-3,0
1537919522800519,-2,-1,-1,-3,-1,2,0,-1
1537919522800519,-3,0,-2,1,0,1,-5,-1
1537919522812487,1,-2,-1,1,6,3,-5,-3
1537919522812487,8,4,0,-1,-4,0,8,11
1537919522821463,1,0,0,3,9,1,-2,-3
1537919522821463,1,-1,0,3,-1,-7,2,-15
1537919522836423,-8,-4,-5,-5,-2,-2,-35,14
1537919522836423,6,-1,1,-1,-1,-3,22,15
1537919522837420,-2,0,2,7,5,-1,8,-1
1537919522837420,-2,-1,-3,-6,-4,-4,-16,-16
1537919522858364,2,0,0,0,-2,5,15,-9
1537919522858364,-3,-1,-2,-3,-3,-5,-1,14
1537919522860359,-2,-2,0,1,5,1,5,12
1537919522860359,-3,-2,-2,-3,-3,-4,-3,1
1537919522873325,0,0,3,6,10,5,6,4
1537919522873325,-5,-3,-7,-8,-13,-13,-3,-25
1537919522881303,0,0,1,2,-1,-1,-9,-19
1537919522881303,1,-1,-2,-2,1,-2,-2,9
1537919522896263,-1,-1,2,0,3,1,14,-1
1537919522896263,-1,0,4,6,1,1,17,6
1537919522897260,-4,-3,-5,-8,-7,-5,-18,-36
1537919522897260,1,-1,-1,-3,-3,-1,-8,13
1537919522918204,0,-1,0,-1,2,2,12,-6
1537919522918204,-3,-1,-2,-3,-3,-3,-19,-9
1537919522920199,0,-1,-1,-1,3,0,8,8
1537919522920199,-5,0,3,5,4,-1,-19,-52
1537919522932166,4,2,-1,0,-3,-1,-8,15
1537919522932166,-4,-2,-3,-2,-4,-4,-13,-8
1537919522941143,-6,-2,-1,-2,-2,-2,2,-33
1537919522941143,4,-2,0,1,4,3,10,26
1537919522956102,-1,1,-1,-2,-3,0,-1,4
1537919522956102,1,0,-1,-3,-3,-2,1,-4
1537919522958098,-2,-1,-2,-2,0,0,3,14
1537919522958098,-4,-1,-1,0,1,2,3,10
1537919522979041,-3,-1,-3,1,-1,0,-10,-19
1537919522979041,-2,-2,-2,0,-3,-4,-12,-4
1537919522980039,4,2,-3,-3,-3,-1,8,14
1537919522980039,-2,-2,-1,0,-1,-1,1,-13
1537919522992007,3,1,2,1,2,0,1,9
1537919522992007,-3,-3,-3,-4,-3,-3,-15,-20
1537919523000982,2,-1,0,0,-2,0,11,41
1537919523000982,-2,0,3,3,4,2,-4,-6
1537919523015943,-4,-2,-2,-3,-2,1,-5,-11
1537919523015943,1,0,1,1,1,2,5,13
1537919523021927,-2,-3,-3,-3,-2,0,-8,-14
1537919523021927,4,0,-1,-1,0,0,14,19
1537919523037884,-3,-1,-1,0,0,1,0,-32
1537919523037884,0,-1,0,-1,0,0,2,22
1537919523045863,0,-1,-2,0,-1,-1,-4,9
1537919523045863,-1,0,2,6,3,0,5,6
1537919523051847,-3,-2,-7,-9,-7,-4,-8,-15
1537919523051847,-3,0,0,-1,-2,-2,-3,-17
1537919523060822,1,2,0,-1,0,0,-3,-1
1537919523060822,0,0,1,0,1,1,2,3
1537919523075783,1,0,2,3,2,0,5,11
1537919523075783,0,-1,-1,-2,-1,0,10,5
1537919523082764,0,-1,0,-1,-1,-2,-6,7
1537919523082764,1,0,0,0,-4,-3,2,0
1537919523098721,-3,0,-1,-3,0,4,2,7
1537919523098721,-1,-2,-2,-2,0,-4,-7,-6
1537919523099719,-3,-1,1,3,3,10,-2,-8
1537919523099719,0,-1,0,-3,-1,-2,1,-3
1537919523112684,1,0,-1,0,-1,1,-1,2
1537919523112684,-2,-2,-3,-1,-3,-8,-3,-2
1537919523121660,-2,0,1,-1,-1,-2,-1,-2
1537919523121660,1,-2,-3,-3,2,9,1,3
1537919523143601,-1,-1,-2,-4,-12,-11,4,6
1537919523143601,0,1,2,2,5,6,-4,-9
1537919523145596,0,-1,-2,-2,-5,-4,-3,-8
1537919523145596,-2,-2,-2,0,6,1,4,2
1537919523158562,1,-3,1,0,5,8,0,-1
1537919523158562,-3,-1,-1,-3,2,6,-10,-17
1537919523160556,3,0,0,3,-2,-9,-2,46
1537919523160556,-3,-1,0,0,-15,-28,-2,-5
1537919523181500,-1,-2,-3,-6,-3,2,-4,1
1537919523181500,-2,-2,-2,-2,1,-2,-1,4
1537919523182498,-1,-1,2,2,11,19,2,-8
1537919523182498,-1,1,-2,1,-1,0,0,-1
1537919523195463,1,1,0,0,1,-2,1,9
1537919523195463,-2,-1,0,-2,-3,-7,-1,-5
1537919523202444,-1,0,-2,-3,-3,0,-1,-9
1537919523202444,0,0,-2,0,7,16,2,2
1537919523218402,0,1,0,0,-2,-13,0,-8
1537919523218402,-1,-1,1,1,-7,3,-5,-4
1537919523224386,0,-3,-3,-4,-4,-11,5,-4
1537919523224386,0,-1,0,-1,3,9,1,6
1537919523241340,-1,0,2,2,13,18,-2,-9
1537919523241340,0,1,-1,-5,-27,-30,4,3
1537919523242337,-1,0,-1,0,0,-6,-3,-2
1537919523242337,0,-1,-1,-3,-5,-9,-6,-6
1537919523256300,-2,-1,1,4,5,4,1,3
1537919523256300,1,0,0,1,8,14,2,4
1537919523257297,-2,-2,-2,-2,0,-2,-1,-10
1537919523257297,0,-2,-2,-3,-12,-8,3,5
1537919523278241,0,-1,0,-3,1,0,1,0
1537919523278241,-1,-1,0,1,4,0,0,4
1537919523280236,-1,-1,0,-1,1,2,-3,-5
1537919523280236,-1,0,0,3,10,7,-2,-2
1537919523301181,0,-1,-1,-1,-16,-10,2,3
1537919523301181,-2,-3,-3,-2,-4,-9,-3,0
1537919523302178,-1,0,1,0,2,8,-2,-2
1537919523302178,-2,-1,2,1,0,4,-1,-2
1537919523315143,0,-1,0,1,2,-18,-1,-1
1537919523315143,1,-1,1,-1,5,8,0,2
1537919523322125,0,-1,-1,0,9,36,3,-2
1537919523322125,-2,-1,-2,-4,-10,-17,-1,-4
1537919523339079,1,0,-3,-3,-17,-14,-3,2
1537919523339079,-1,-2,-1,-5,-3,-1,-3,-1
1537919523340076,-1,-1,0,-1,-7,-27,1,0
1537919523340076,-1,-2,0,0,8,14,0,-2
1537919523361020,0,0,-3,-1,10,9,-2,-1
1537919523361020,2,0,0,3,7,-2,0,0
1537919523363015,-1,-2,-1,-2,-4,3,-5,-5
1537919523363015,1,0,-2,-1,5,-16,-5,0
1537919523375980,-2,0,-1,1,-4,6,10,-6
1537919523375980,-3,-3,-5,-8,-4,26,-6,6
1537919523381964,1,1,-1,1,7,-4,-6,0
1537919523381964,0,1,-1,2,-8,-10,-1,-2
1537919523398919,-1,-2,-1,0,6,1,-14,-2
1537919523398919,0,-1,2,4,19,13,27,-4
1537919523399917,1,0,-2,-3,-30,-23,-20,-2
1537919523399917,-1,-1,-2,-4,-12,-6,44,7
1537919523420860,-2,-2,-2,-3,1,0,-7,-2
1537919523420860,-3,-2,0,2,5,4,-2,-2
1537919523422855,0,-1,-2,0,12,3,-2,0
1537919523422855,0,-1,2,0,1,9,-17,-4
1537919523435820,0,0,1,0,1,1,5,4
1537919523435820,-3,-2,-2,-1,1,-2,-9,-2
1537919523441804,-2,0,1,-1,-9,-10,2,-1
1537919523441804,0,0,0,-1,0,3,-4,0
1537919523458759,2,1,-2,-1,11,9,2,-1
1537919523458759,5,0,1,0,-11,-33,-10,0
1537919523459756,-7,-2,-3,-3,-14,-25,3,0
1537919523459756,-7,-5,-4,-4,5,23,-40,-8
1537919523481697,3,2,0,-2,-15,-26,24,-4
1537919523481697,1,0,-2,-2,7,41,-10,2
1537919523482695,-9,-2,-8,-1,22,-7,20,-1
1537919523482695,-4,-2,6,1,-20,-5,-14,-3
1537919523503639,0,-11,0,6,27,-50,-34,5
1537919523503639,1,9,-1,-12,-53,32,-61,-9
1537919523504637,-15,-5,-7,-10,29,32,71,-10
1537919523504637,-8,7,-11,-5,18,66,-23,-2
1537919523518600,26,-22,-19,8,-1,-50,53,6
1537919523518600,-56,-10,12,-2,0,89,53,-6
1537919523520594,73,-23,-19,0,65,-72,-65,2
1537919523520594,36,39,21,-4,-46,-34,88,23
1537919523541538,-66,12,-3,9,75,42,-92,-51
1537919523541538,-5,-29,9,-6,-69,-128,36,-7
1537919523542535,29,0,-54,-81,-88,100,-27,-6
1537919523542535,-55,-43,-43,35,121,27,22,-38
1537919523554503,79,63,84,-56,-128,12,-34,60
1537919523554503,20,2,-8,26,110,48,-8,-33
1537919523563479,9,22,44,83,98,-39,10,68
1537919523563479,-81,-97,-123,-61,-76,-52,-39,-61
1537919523578439,10,87,69,24,-68,19,18,22
1537919523578439,-14,-35,-7,-6,54,7,-40,-6
1537919523580434,-45,19,16,-13,-111,81,57,-23
1537919523580434,11,-4,24,12,21,25,-19,8
1537919523601377,-31,45,18,40,117,53,19,-13
1537919523601377,25,-96,-78,-66,-113,-111,-54,-3
1537919523602375,-59,26,-37,10,69,51,52,-21
1537919523602375,48,-38,16,6,-22,-48,-25,-10
1537919523623319,-9,25,-7,-27,-94,-62,8,7
1537919523623319,-4,-15,46,32,49,13,28,38
1537919523625314,25,55,12,13,-1,-13,-32,10
1537919523625314,-7,-19,2,-7,-5,21,-4,4
1537919523638279,3,-66,-46,-12,25,-4,-5,-7
1537919523638279,7,44,9,17,14,13,13,-3
1537919523640274,-17,-75,-10,-9,-41,-73,-23,-17
1537919523640274,23,39,33,6,-4,1,15,35
1537919523661218,-4,-15,-13,10,15,2,8,-11
1537919523661218,-8,5,-17,-3,-15,-19,13,1
1537919523662215,-1,-10,17,0,-7,8,-8,-4
1537919523662215,11,48,14,1,2,-23,-13,2
1537919523675181,-4,-39,-15,0,11,17,6,-7
1537919523675181,-1,16,8,3,-4,14,2,-2
1537919523684156,11,4,6,-6,-10,-29,-11,5
1537919523684156,7,23,11,4,9,14,31,9
1537919523699116,-12,-44,-22,-3,-1,-13,-20,-12
1537919523699116,9,28,3,3,0,15,27,16
1537919523700114,-1,3,12,1,-7,-16,-7,-3
1537919523700114,-3,-7,-3,-1,-6,-10,-1,0
1537919523721058,-3,-17,-14,3,9,15,16,3
1537919523721058,0,29,16,6,1,-3,-28,-3
1537919523723053,-2,-16,-17,-9,-6,-16,-17,-8
1537919523723053,17,12,12,-6,-6,2,1,2
1537919523735021,0,-14,-13,-3,4,-6,-29,-3
1537919523735021,1,11,-3,-3,1,0,42,7
1537919523743997,3,-12,-1,5,-5,12,2,-5
1537919523743997,-2,6,0,-1,0,-14,-5,12
1537919523758956,0,9,1,-1,5,26,1,-2
1537919523758956,-2,-16,-6,0,-2,3,-14,1
1537919523759954,-16,1,7,5,1,-36,-41,-7
1537919523759954,7,5,11,2,-1,1,-2,0
1537919523780898,5,-8,-10,4,-2,-10,-8,-10
1537919523780898,-2,6,10,0,1,24,45,8
1537919523782892,1,2,4,-9,-9,-2,-24,-5
1537919523782892,4,-1,-2,-1,0,28,40,8
1537919523794860,-1,-14,-9,-2,3,-23,-2,7
1537919523794860,5,11,0,-2,-4,-16,-70,-9
1537919523803836,8,3,5,7,3,8,94,10
1537919523803836,-27,-9,1,-4,-3,-14,-19,-2
1537919523817799,9,-8,-15,-5,-2,16,12,1
1537919523817799,7,9,0,-1,0,-1,21,-4
1537919523824780,4,-2,1,2,-3,-4,-72,-9
1537919523824780,-5,-2,-3,-4,-2,16,24,1
1537919523840738,-11,-5,-2,-1,4,-5,23,-1
1537919523840738,-24,-2,-3,-1,-4,-6,-71,-17
1537919523842733,25,1,6,1,6,8,84,24
1537919523842733,17,30,2,10,14,7,37,14
1537919523854700,-21,-21,-17,-1,43,8,22,-12
1537919523854700,48,-45,-22,8,14,-72,-63,10
1537919523863677,-33,39,1,-21,-30,6,-1,-20
1537919523863677,16,5,48,17,-10,6,40,38
1537919523878637,-29,-19,-2,22,20,44,14,-23
1537919523878637,5,-10,-63,-32,21,63,31,-25
1537919523879634,13,-76,-23,4,-3,55,9,-28
1537919523879634,31,67,-20,-49,-114,-109,-71,-36
1537919523901575,-89,-73,43,27,96,-115,12,34
1537919523901575,13,106,37,-30,-64,90,-5,-32
1537919523902573,-1,-72,27,40,127,77,-13,-4
1537919523902573,1,-46,35,39,49,-49,-44,-80
1537919523914540,-10,55,-39,-2,66,127,57,74
1537919523914540,-36,79,-3,19,8,-97,3,-4
1537919523923517,72,-28,-32,-50,-124,-89,-23,42
1537919523923517,69,62,2,7,-2,119,6,22
1537919523938476,-66,-102,-17,-26,-36,-14,-56,-45
1537919523938476,-30,37,21,31,73,68,32,37
1537919523944461,-32,77,19,6,-47,-83,1,20
1537919523944461,-45,-29,23,1,-51,-32,-18,11
1537919523961415,-2,-20,-57,-38,-70,-63,-16,-39
1537919523961415,50,-8,39,16,52,44,14,64
1537919523962413,-85,-60,-11,-1,12,-18,-17,-58
1537919523962413,-53,14,-28,1,41,22,-12,4
1537919523974381,44,33,12,0,-33,7,-10,18
1537919523974381,0,-62,-21,-9,-31,-42,24,6
1537919523983356,0,27,17,6,21,17,-11,-6
1537919523983356,-13,-30,-17,-14,5,-22,-2,-1
1537919523998317,37,17,6,10,-1,24,4,-12
1537919523998317,-12,-22,13,8,-28,-36,5,-11
1537919524004300,11,30,-5,5,12,4,-11,-2
1537919524004300,-20,-34,-38,-23,21,25,-5,-6
1537919524021255,37,28,16,0,-30,-21,-8,9
1537919524021255,-5,-3,7,-7,-2,1,-2,-17
1537919524022253,-13,0,-1,10,6,8,-3,6
1537919524022253,7,-18,-5,4,12,-5,7,15
1537919524035218,15,22,10,-2,-7,8,-5,-10
1537919524035218,-10,-21,-3,-4,-16,-24,-7,-9
1537919524044194,5,0,-6,2,18,15,-3,3
1537919524044194,-2,-3,0,1,2,-7,1,1
1537919524058157,17,19,5,-5,-11,0,-8,-7
1537919524058157,-14,-21,-7,3,3,8,3,-10
1537919524065138,5,7,-4,-10,-8,-4,5,11
1537919524065138,-2,3,0,3,14,-1,-17,-1
1537919524081096,3,5,2,-3,-10,0,-3,2
1537919524081096,-1,-14,-8,-6,-7,-12,3,-1
1537919524082093,-1,7,3,1,6,6,-2,-2
1537919524082093,-1,-6,-2,2,3,-8,9,3
1537919524095058,4,4,4,3,4,10,3,-2
1537919524095058,-3,-6,-5,-5,-4,8,-2,-4
1537919524104034,4,9,-2,-2,-8,-10,-15,-2
1537919524104034,-6,-8,-3,4,10,9,-3,-3
1537919524117997,10,6,5,-3,-13,-13,-1,3
1537919524117997,-3,-3,-6,-3,3,4,5,-3
1537919524124978,-3,-2,-1,1,13,-7,-1,0
1537919524124978,1,-4,-1,-4,-11,4,8,3
1537919524140936,3,5,2,0,-4,7,13,-2
1537919524140936,-2,-5,-4,-1,-15,-33,-2,-3
1537919524142930,0,-1,-2,-1,2,19,-1,-2
1537919524142930,-3,-3,1,1,5,-9,-16,-2
1537919524163874,5,5,1,1,3,-1,-28,-5
1537919524163874,-5,-6,-5,0,2,12,22,0
1537919524164872,-2,2,2,0,-1,-4,-9,2
1537919524164872,-1,0,2,1,7,1,2,0
1537919524177837,-1,-2,-4,-4,-6,5,11,2
1537919524177837,1,-4,-2,-4,-3,-2,14,-1
1537919524184818,1,0,0,2,0,-5,-13,-2
1537919524184818,-1,-2,-1,1,4,2,-4,-2
1537919524200775,1,1,1,1,0,-1,-2,-2
1537919524200775,0,-2,-1,-1,-3,-18,-30,-3
1537919524202770,1,-1,-1,-1,-3,14,31,1
1537919524202770,0,-3,-1,-1,1,4,-6,-3
1537919524223714,2,-2,2,-1,-3,-1,2,0
1537919524223714,-2,-3,-1,-1,2,1,19,-2
1537919524224712,-2,0,-3,-1,0,2,-11,0
1537919524224712,0,0,-1,-1,0,-14,-24,1
1537919524238674,-1,0,-1,-3,-4,4,14,0
1537919524238674,-3,-2,-2,0,-2,-4,-17,-1
1537919524239671,-1,-2,0,2,3,-2,7,0
1537919524239671,-2,-2,0,4,3,5,3,-3
1537919524261613,1,0,-4,-5,-2,-2,-13,-3
1537919524261613,-1,-1,-2,-1,-4,3,4,-2
1537919524262610,-3,-2,-3,-4,-1,-9,9,1
1537919524262610,-1,0,0,2,1,0,-2,-1
1537919524283554,0,1,1,1,2,7,-3,-2
1537919524283554,-1,0,-1,2,0,-3,-8,-2
1537919524285549,0,0,0,-2,-3,3,10,1
1537919524285549,0,0,-3,-5,1,-3,8,1
1537919524297517,1,-1,2,0,0,0,-3,-2
1537919524297517,-2,-1,0,-2,0,-8,-11,-1
1537919524304498,-1,0,0,1,1,9,12,-2
1537919524304498,-1,-2,-4,-4,-3,16,18,0
1537919524321453,0,2,3,2,-1,-24,-26,-3
1537919524321453,-1,-1,0,1,0,-1,-2,-2
1537919524322451,0,0,-2,-6,-5,-5,-20,-3
1537919524322451,-3,-2,0,-3,-2,2,19,1
1537919524343394,-2,0,-4,3,1,-3,-17,-1
1537919524343394,2,1,-2,-3,0,-2,8,0
1537919524345389,-4,-1,-2,2,-5,-9,-43,-8
1537919524345389,2,0,-3,-2,2,12,27,7
1537919524358354,0,-2,0,-2,-1,5,18,1
1537919524358354,2,1,1,1,-1,-15,-55,-7
1537919524364338,1,-3,-1,-3,-2,7,23,2
1537919524364338,-9,-3,-2,-1,-2,-8,-38,-7
1537919524381293,7,1,-3,-2,0,-12,-10,-2
1537919524381293,-20,-1,2,4,4,6,23,-1
1537919524382290,38,7,0,0,-1,3,-30,1
1537919524382290,4,7,-2,0,5,10,14,-10
1537919524406226,-30,13,-1,3,53,40,78,19
1537919524406226,34,-59,-30,-5,-48,-45,-26,-4
1537919524408221,-25,21,18,-27,-59,63,33,-1
1537919524408221,-2,41,22,31,95,54,-27,-3
1537919524411213,93,4,13,-4,-112,26,-7,25
1537919524411213,-73,-49,-37,-20,76,-21,-4,-24
1537919524419192,-20,31,-10,5,49,-47,-60,-31
1537919524419192,87,31,19,-16,-44,97,55,79
1537919524433154,-19,23,-24,-26,-63,-127,-33,-75
1537919524433154,-23,-57,0,24,77,120,-40,39
1537919524440136,-27,58,2,-49,-103,-2,12,53
1537919524440136,3,10,48,72,108,-39,26,26
1537919524456093,84,2,61,27,-54,72,-8,-10
1537919524456093,11,-40,-90,-9,65,81,5,-9
1537919524457090,54,55,-18,-21,-12,-85,-25,-20
1537919524457090,-85,74,23,-14,-40,79,-2,-17
1537919524470055,-128,-17,15,-9,71,-31,-15,5
1537919524470055,-55,-24,39,26,42,74,41,-66
1537919524477037,-23,-112,-34,21,52,43,24,-31
1537919524477037,-33,32,12,-10,-13,-80,0,-47
1537919524492994,100,-35,-31,0,0,-49,-26,48
1537919524492994,4,89,45,-8,-73,-36,4,-13
1537919524499976,-20,-57,-9,27,40,-3,0,1
1537919524499976,0,-70,-50,-27,-68,-35,-16,-5
1537919524515933,-83,-4,-13,-2,40,30,9,-27
1537919524515933,37,52,18,-6,-29,-42,12,25
1537919524517927,28,-25,-7,5,-11,8,17,19
1537919524517927,-10,-36,-16,-10,-13,-44,-34,-21
1537919524529896,6,29,1,3,16,19,5,6
1537919524529896,16,-8,24,10,-24,-22,25,14
1537919524538872,12,17,15,21,12,-11,-16,-1
1537919524538872,-10,-17,-25,-26,-15,-11,8,-15
1537919524552834,-25,-22,1,13,19,5,-3,-3
1537919524552834,32,25,8,-6,-33,-24,-5,14
1537919524559816,-31,2,16,-4,20,12,-4,-7
1537919524559816,13,-15,-25,-10,0,-13,-12,7
1537919524575773,8,-12,-16,-7,0,8,4,8
1537919524575773,-3,15,17,10,-8,-15,6,0
1537919524577768,4,7,16,8,8,5,23,2
1537919524577768,7,-30,-12,2,0,-11,-13,-7
1537919524589736,-3,2,3,0,0,5,11,-8
1537919524589736,-2,16,0,-11,-11,-16,-11,-3
1537919524598712,-8,-12,-11,-3,5,-9,-17,1
1537919524598712,9,-12,-7,-1,-8,-2,-16,1
1537919524612675,-15,1,-5,1,15,13,25,4
1537919524612675,5,9,-3,-6,-11,-5,-6,8
1537919524619656,9,-5,-4,1,1,2,-14,8
1537919524619656,-2,-7,3,2,-4,-17,7,0
1537919524636611,-1,3,0,-4,3,1,-7,0
1537919524636611,2,-5,-10,-6,-8,-1,33,5
1537919524637609,0,0,3,1,-7,-18,-15,-5
1537919524637609,-1,-2,2,-1,-1,-5,-53,-3
1537919524649576,-6,-5,-6,-1,8,4,36,1
1537919524649576,6,2,-7,-6,-11,-4,9,0
1537919524658553,-7,-1,4,2,6,6,-13,-4
1537919524658553,3,-3,1,0,0,1,-30,-1
1537919524672515,-1,-5,-7,-1,-3,13,77,3
1537919524672515,-4,1,0,-4,-6,-22,-42,-4
1537919524679496,5,4,-3,4,8,8,7,5
1537919524679496,3,-7,3,-1,0,4,41,0
1537919524696451,-1,-1,1,-2,0,-7,-57,-5
1537919524696451,1,5,2,5,0,5,43,1
1537919524697448,-8,-7,-15,-13,-5,-16,-71,-13
1537919524697448,-1,-5,-5,-2,-4,6,70,3
1537919524709416,0,2,-6,1,7,8,39,7
1537919524709416,5,4,3,-4,-1,-7,3,-1
1537919524718392,0,-1,2,1,-2,7,16,-4
1537919524718392,8,-1,0,-2,-5,-14,-14,-2
1537919524733352,-4,4,1,-5,-3,-1,-46,-10
1537919524733352,-44,10,-23,3,62,42,-65,-21
1537919524739336,51,-24,15,9,-64,-52,100,28
1537919524739336,1,-19,-10,18,107,-18,-40,-16
1537919524756290,-64,2,-27,-33,-104,0,7,8
1537919524756290,85,40,70,5,-10,35,20,31
1537919524757288,-78,-46,-28,37,102,127,-66,-75
1537919524757288,-15,90,-1,-54,-125,-119,55,41
1537919524770253,31,-80,26,29,95,95,-20,67
1537919524770253,-21,-85,-122,-2,54,-15,-35,-27
1537919524778232,79,61,115,-32,-105,33,53,58
1537919524778232,2,-43,-58,-10,19,61,-4,-55
1537919524794189,-125,79,99,57,66,-12,-54,-64
1537919524794189,56,27,18,-9,-38,40,13,22
1537919524800173,66,-56,-91,54,127,93,1,56
1537919524800173,-73,24,0,-37,-128,-49,19,-39
1537919524816130,77,32,-22,-38,-49,-75,11,11
1537919524816130,-115,-52,-76,-19,23,-34,-12,-39
1537919524818125,77,80,44,22,-19,21,6,19
1537919524818125,-5,-89,-10,10,23,52,-35,-3
1537919524830093,-2,24,43,13,15,-67,-3,-28
1537919524830093,0,21,31,-18,-77,-6,14,61
1537919524839069,-54,-7,-59,-30,1,-39,-1,-53
1537919524839069,23,-15,-16,13,70,40,9,62
1537919524853032,62,-121,-14,-7,-65,-28,-21,9
1537919524853032,-9,-9,12,7,-11,-37,-1,2
1537919524860013,-26,17,20,-10,-29,-22,12,-3
1537919524860013,-20,-34,-15,11,42,28,-14,-2
1537919524875970,0,37,-35,-12,2,22,1,-16
1537919524875970,14,26,31,8,-16,-11,-1,-2
1537919524877965,-54,-51,-18,-10,4,-9,2,-17
1537919524877965,35,36,24,8,-12,8,4,-7
1537919524889933,-1,-7,-20,-12,-3,-1,-8,6
1537919524889933,7,-12,0,3,2,9,5,-10
1537919524898909,-21,-2,-5,-10,-13,-42,-6,2
1537919524898909,3,3,29,17,11,-6,-8,5
1537919524912872,14,8,-8,-4,-5,16,7,7
1537919524912872,-9,-19,-5,12,15,-4,-39,-6
1537919524919853,-15,9,8,-13,-15,-16,45,-6
1537919524919853,9,10,14,0,-18,1,1,7
1537919524935811,-12,-25,-26,3,21,14,-18,-9
1537919524935811,13,19,6,-10,-10,0,-3,-9
1537919524937806,-14,-5,-9,-8,-10,-28,-22,-2
1537919524937806,5,-7,3,5,8,7,0,-10
1537919524949773,1,3,-9,1,0,7,17,-4
1537919524949773,-1,2,9,8,-1,-4,4,-3
1537919524958749,-4,2,7,0,-8,-4,-11,4
1537919524958749,-5,-8,-5,-1,5,6,0,6
1537919524972712,-1,7,-5,-1,4,0,-9,5
1537919524972712,2,3,9,-2,-4,-4,11,5
1537919524979693,-13,-16,-8,-8,-8,-11,7,1
1537919524979693,8,6,6,2,-3,14,5,1
1537919524995651,-2,-3,-8,-2,1,-4,-5,3
1537919524995651,-1,-5,-2,-4,-3,-9,27,0
1537919524997645,-5,2,2,-1,1,19,-12,-3
1537919524997645,1,2,2,5,2,-24,-30,-3
1537919525009613,2,2,-5,-2,0,6,2,-2
1537919525009613,-3,-7,0,0,4,13,22,-2
1537919525018590,-5,0,-4,-3,-10,-16,6,-2
1537919525018590,3,3,12,2,3,-4,-17,-2
1537919525032552,-1,-6,-7,-1,5,-2,4,-1
1537919525032552,2,1,1,-3,-6,-13,-11,-3
1537919525039533,-2,1,1,2,-3,-7,3,-2
1537919525039533,0,-4,-4,-1,-2,10,20,-1
1537919525056488,0,-3,-3,-1,0,4,-5,-2
1537919525056488,0,-1,3,1,0,7,5,-2
1537919525057485,-1,-1,4,-2,-4,2,10,0
1537919525057485,-2,-5,0,-1,2,-8,-11,-2
1537919525069453,1,1,-6,-3,-2,-8,-26,-5
1537919525069453,-1,0,0,-1,1,9,7,1
1537919525078429,-3,-2,-1,1,-1,-1,9,-6
1537919525078429,0,3,-4,1,0,7,17,1
1537919525093390,0,-2,-4,-2,-1,3,-15,0
1537919525093390,1,2,2,2,0,0,20,-4
1537919525099373,-3,-1,0,1,-1,-10,-2,-1
1537919525099373,-2,0,0,0,0,0,-13,-1
1537919525115330,0,-1,-1,0,-1,6,4,3
1537919525115330,-2,-2,-2,-2,-3,-13,-12,-2
1537919525122312,1,-1,0,0,0,11,0,-2
1537919525122312,0,-1,-7,1,0,-1,-2,0
1537919525129293,-1,0,2,-4,3,3,5,0
1537919525129293,0,0,-2,-5,-7,-10,-13,0
1537919525138269,-1,-2,0,-3,-1,3,4,1
1537919525138269,-1,-2,-5,-2,-2,-5,-2,-2
1537919525153229,0,0,-2,1,1,12,12,1
1537919525153229,1,1,4,3,4,-12,-16,-2
1537919525160211,-1,-1,0,2,1,-9,-8,-1
1537919525160211,-1,-1,2,-1,-1,-2,-4,-3
1537919525176168,-1,0,-3,-3,-1,6,13,-2
1537919525176168,-2,-1,-1,-2,-1,8,0,-2
1537919525182152,0,0,-1,-3,-3,-22,-16,-2
1537919525182152,0,0,2,0,-1,8,7,1
1537919525190130,-2,0,0,2,3,11,10,0
1537919525190130,0,-2,-2,-1,1,7,0,-1
1537919525199107,0,0,-3,-1,0,-12,-7,0
1537919525199107,-2,-2,1,-1,-5,-9,-3,0
1537919525213069,-1,-3,-3,-5,-7,-15,-4,-3
1537919525213069,-2,-3,0,2,3,19,1,2
1537919525220051,0,-1,-3,-5,-9,-3,0,-2
1537919525220051,-1,-2,1,-1,0,0,1,-1
1537919525235011,-3,-1,1,1,3,-2,-6,-2
1537919525235011,-1,0,-2,-2,-2,-8,-5,-1
1537919525241992,0,-1,-1,-2,-1,5,3,-1
1537919525241992,-2,-2,-2,-1,0,3,-2,-2
1537919525249971,1,1,-1,1,-1,-7,-7,-2
1537919525249971,-3,-2,-1,1,-2,9,19,2
1537919525258947,-2,0,-1,1,3,-11,-20,-4
1537919525258947,0,1,0,1,1,-10,-15,-1
1537919525272909,-2,-1,0,0,-1,11,13,1
1537919525272909,-1,-1,-4,-4,-4,-15,-8,-1
1537919525279891,-1,-3,-1,0,1,28,14,1
1537919525279891,-1,-1,-1,0,1,-4,-5,1
1537919525303827,-1,-1,1,-1,-4,-13,1,1
1537919525303827,0,0,-2,-1,-3,-2,-8,0
1537919525304824,-2,-1,-2,-3,-5,-11,3,0
1537919525304824,-1,0,2,3,2,-8,-5,-4
1537919525325768,0,0,-1,-2,2,22,-2,-1
1537919525325768,-1,-1,-3,-6,-5,-6,-2,-1
1537919525327763,-2,-1,1,0,-1,-3,-1,-3
1537919525327763,1,-1,0,-1,-2,2,0,0
1537919525340728,-1,-2,-1,-2,-3,-8,3,0
1537919525340728,-1,-1,1,2,2,0,-5,-4
1537919525347710,-1,-2,-1,0,0,2,3,1
1537919525347710,-1,-3,-4,-4,-2,1,-5,-2
1537919525363667,-1,-1,-1,1,1,-4,4,0
1537919525363667,-1,-1,0,1,-1,3,2,0
1537919525364664,-1,1,-1,1,0,-13,-41,-5
1537919525364664,1,1,-1,-2,-1,11,48,3
1537919525386605,-1,-2,-1,0,3,-2,-5,-2
1537919525386605,2,-1,-1,-4,-2,-2,-29,0
1537919525387603,0,1,1,1,3,3,9,-1
1537919525387603,-1,0,-1,-2,-2,2,7,0
1537919525400568,-1,-1,-4,-4,-4,-2,28,1
1537919525400568,0,2,2,4,0,-7,9,1
1537919525407549,-1,-1,-2,-1,1,21,16,0
1537919525407549,0,-2,-1,-1,-3,-7,-27,-3
1537919525423507,-1,-1,-2,-5,-2,-1,-3,-2
1537919525423507,0,-1,0,2,2,-3,6,1
1537919525425502,0,1,-4,-5,-5,-12,-6,-2
1537919525425502,0,-1,0,-1,-1,4,-3,-1
1537919525446446,-5,-5,-2,-2,-1,0,1,-5
1537919525446446,-5,-5,-2,-5,-2,-16,-60,-8
1537919525447444,-4,3,4,6,9,18,-6,6
1537919525447444,-5,-3,-1,4,25,46,79,-12
1537919525459411,14,26,6,7,10,-39,26,8
1537919525459411,-29,-10,-16,-10,-6,-16,35,1
1537919525467389,24,-55,-38,-16,3,32,-61,-40
1537919525467389,7,-16,19,23,9,-61,28,22
1537919525483347,68,53,24,-9,-30,-32,-58,56
1537919525483347,-30,0,6,10,84,80,33,-83
1537919525483347,15,1,9,-25,-101,-128,-37,-4
1537919525483347,-113,-26,-28,21,65,44,-52,-88
1537919525505288,42,-13,17,-59,-99,-112,-35,21
1537919525505288,-33,-33,-65,-10,93,42,-47,-11
1537919525506286,18,89,63,42,55,88,43,25
1537919525506286,12,-42,-40,-27,-88,72,-44,-33
1537919525528227,-92,-37,20,55,127,3,-4,-75
1537919525528227,42,107,84,-26,-128,-95,9,24
1537919525528227,2,2,-28,10,99,16,0,-33
1537919525528227,106,33,64,16,3,26,36,57
1537919525543188,1,-104,-84,-22,-22,27,5,23
1537919525543188,-65,43,-14,2,49,-3,26,-4
1537919525543188,28,4,6,4,-18,-31,26,31
1537919525543188,-26,-5,-19,-17,-19,-31,-44,-31
1537919525565129,-16,-28,-8,4,-1,28,31,-12
1537919525565129,20,-38,-9,11,4,20,0,14
1537919525566127,-30,-8,-7,-11,-42,-3,14,13
1537919525566127,-1,19,6,-8,0,-27,-17,8
1537919525588068,0,-12,-3,12,17,45,-1,-7
1537919525588068,9,-8,10,9,-26,-22,10,21
1537919525589066,-2,3,-4,-8,3,-7,-8,-6
1537919525589066,1,-17,-3,-11,2,-22,-16,16
1537919525603028,-23,29,-10,5,2,15,36,-7
1537919525603028,27,-7,7,8,-17,0,-9,10
1537919525604025,-20,-16,-4,-7,-3,-9,8,-1
1537919525604025,-6,4,-20,-4,9,-10,-6,7
1537919525624968,-3,33,27,2,-14,12,-41,3
1537919525624968,11,-10,-1,0,-4,3,30,8
1537919525625966,-11,-25,-4,9,8,15,3,3
1537919525625966,-2,21,1,2,-2,-24,22,16
1537919525647907,5,17,-1,-6,-2,7,-5,-9
1537919525647907,6,-27,-6,0,2,2,-9,2
1537919525648904,-21,-4,1,-2,-8,-36,2,-7
1537919525648904,5,8,3,-2,0,26,-10,-4
1537919525662867,-5,5,1,4,7,33,-2,-7
1537919525662867,5,-11,-4,2,2,-5,-6,4
1537919525663864,-6,2,-4,-2,-11,-10,-23,10
1537919525663864,1,8,2,-4,-6,-43,-7,14
1537919525685806,-2,-2,-1,3,2,5,12,5
1537919525685806,-1,-4,2,-2,-9,3,6,8
1537919525685806,-2,-2,-4,-4,-3,0,-11,1
1537919525685806,0,-6,-2,-3,4,-10,6,3
1537919525708745,-3,6,0,1,2,21,25,-1
1537919525708745,5,-4,-2,-4,-5,-1,4,3
1537919525709743,-5,-2,-1,1,3,-17,-22,-8
1537919525709743,-1,1,-1,0,5,12,11,1
1537919525723707,-1,6,-8,-1,-3,6,-16,-1
1537919525723707,3,-2,1,0,-3,-7,0,-1
1537919525723707,-4,-8,-3,-2,4,12,15,0
1537919525723707,-2,3,1,-3,-6,-8,-3,4
1537919525745647,1,2,-2,-3,-6,-20,-9,-4
1537919525745647,1,-8,-5,-1,-1,7,-3,-3
1537919525745647,-4,-2,-1,0,0,12,18,-3
1537919525745647,-1,1,-1,-3,-3,-5,-9,2
1537919525768586,-1,3,4,2,-2,-9,-5,-1
1537919525768586,0,-2,-1,-1,3,-13,-18,0
1537919525769584,-2,-2,0,-2,0,15,11,0
1537919525769584,0,1,1,1,2,21,20,2
1537919525782549,-1,-1,-2,-3,-3,-13,1,-1
1537919525782549,1,-2,-3,0,3,6,-14,0
1537919525783545,0,0,0,0,-1,-12,0,-1
1537919525783545,-1,-3,-4,-4,-4,4,5,0
1537919525805486,-1,3,4,2,1,-19,-16,-3
1537919525805486,1,0,-1,2,0,8,11,0
1537919525806484,-4,-4,-2,-6,-4,2,-21,-2
1537919525806484,0,-2,-1,-1,1,6,57,1
1537919525819449,0,0,1,2,0,-3,-21,2
1537919525819449,0,-2,-2,-1,-2,-10,6,-1
1537919525827427,-2,-1,-3,-2,2,8,0,0
1537919525827427,-5,-3,-4,-5,-7,-7,-24,-7
1537919525843385,0,3,0,-1,1,-2,16,3
1537919525843385,4,2,4,7,5,-1,11,4
1537919525844382,0,-1,0,-2,-2,0,-5,-3
1537919525844382,-1,-1,-1,-1,-4,-7,-17,-2
1537919525865327,-5,-2,-2,-2,-3,11,41,-3
1537919525865327,-2,-2,-1,-2,-1,-10,-36,-3
1537919525866325,4,2,1,1,3,11,19,3
1537919525866325,4,2,1,-1,-1,-20,-10,-4
1537919525888267,-18,-1,-6,-4,15,21,2,-7
1537919525888267,-12,15,-9,8,32,25,11,-9
1537919525889264,-40,-64,0,13,-10,-16,9,5
1537919525889264,64,7,-11,19,105,71,-5,5
1537919525903226,-64,40,33,-30,-112,-79,-8,-11
1537919525903226,67,-12,5,23,83,-25,-19,20
1537919525903226,20,-56,-72,1,35,-78,0,-8
1537919525903226,-76,72,86,-30,-108,48,28,26
1537919525925166,67,-103,-107,-39,9,65,-18,-4
1537919525925166,-118,7,88,67,6,-33,53,21
1537919525926163,127,114,64,-72,-88,-95,-85,0
1537919525926163,-97,13,-45,13,127,108,-38,-53
1537919525948104,-61,-9,-13,2,-34,-69,48,69
1537919525948104,-59,-88,-64,-4,-46,-20,-23,-64
1537919525949102,34,75,25,30,72,111,5,-14
1537919525949102,-26,-110,-39,3,4,19,15,76
1537919525963064,12,87,98,13,-34,-27,-54,-53
1537919525963064,-126,-128,-119,-25,65,99,16,-10
1537919525964062,60,93,51,1,-87,-60,75,66
1537919525964062,34,-22,-19,-20,-2,-20,-36,-27
1537919525985006,-32,-57,-57,11,36,50,0,-37
1537919525985006,109,88,68,-8,-65,17,20,68
1537919525986003,-45,-33,-21,-4,22,11,-15,-23
1537919525986003,14,14,0,15,-9,-26,6,2
1537919526015923,42,-32,0,11,17,-14,-6,12
1537919526015923,3,28,2,-31,-37,-51,-18,-20
1537919526016921,-44,-35,-21,2,23,68,3,-14
1537919526016921,21,3,7,13,-18,-97,-7,-15
1537919526022905,-16,-8,26,0,5,2,7,0
1537919526022905,39,38,11,-14,-11,8,-16,-5
1537919526023902,-40,-24,5,23,18,3,3,2
1537919526023902,-1,-25,-9,-10,-43,-23,2,-5
1537919526045844,11,33,-7,-5,18,4,-10,2
1537919526045844,16,14,-3,-3,1,13,-11,1
1537919526045844,-27,-32,-9,4,-6,5,0,-8
1537919526045844,2,15,27,5,-25,-39,-1,-1
1537919526068783,9,3,-33,-18,23,37,-2,4
1537919526068783,13,7,7,-2,-3,-46,-1,-5
1537919526069781,-35,-26,-16,-1,-1,12,-10,-5
1537919526069781,13,13,11,1,-8,-9,-8,2
1537919526082747,5,7,15,16,15,-7,1,3
1537919526082747,-2,-11,-8,-10,-19,-4,-11,-14
1537919526083744,-19,-1,-1,-2,7,25,-7,-16
1537919526083744,6,2,-3,0,0,-1,33,-1
1537919526105685,5,-1,12,10,6,-23,-27,-5
1537919526105685,0,10,1,-7,-8,0,12,0
1537919526106683,-9,-6,-3,1,3,9,-11,7
1537919526106683,4,-1,-2,-1,-8,-21,-10,5
1537919526128622,-6,-3,1,1,3,11,15,8
1537919526128622,9,8,4,-1,2,9,-2,4
1537919526129620,-9,-8,-6,-1,-10,-6,11,4
1537919526129620,-1,-6,-5,-2,-9,-3,1,-1
1537919526142585,1,7,7,4,9,-3,0,1
1537919526142585,2,3,-3,-2,-6,8,-3,-1
1537919526143582,-7,-8,-3,0,1,1,13,-3
1537919526143582,-1,4,-3,-5,-6,-12,-12,-5
1537919526165523,3,3,7,5,5,-2,-13,-1
1537919526165523,3,3,2,-2,2,0,1,-3
1537919526166521,-10,-7,-6,-4,1,6,19,-2
1537919526166521,1,1,-2,-3,-4,-2,-7,-2
1537919526188462,1,1,3,4,0,1,9,2
1537919526188462,1,-4,-2,-3,-4,-14,-24,-4
1537919526189459,-3,2,0,2,2,1,-2,-2
1537919526189459,-2,0,-3,-1,-1,3,-4,-3
1537919526202425,1,-1,2,-1,-1,2,11,-1
1537919526202425,-1,0,0,-2,-4,1,9,0
1537919526203422,-2,-5,-1,-1,-1,-18,-13,-1
1537919526203422,1,-1,-1,-3,3,11,3,-1
1537919526225363,0,-2,0,1,0,6,4,0
1537919526225363,1,1,0,-2,-2,-12,-9,-2
1537919526226361,-3,0,-1,0,2,-2,-2,-2
1537919526226361,0,-2,-3,-2,-4,-7,1,-2
1537919526248302,-1,0,1,-2,-5,0,3,-1
1537919526248302,0,1,-1,1,4,3,-3,-2
1537919526249299,-2,-4,-2,-3,-5,-3,3,-2
1537919526249299,0,0,1,-1,-1,-7,-6,-1
1537919526263262,1,1,1,0,0,9,-1,-1
1537919526263262,-1,-2,0,-1,-1,-9,-1,-1
1537919526263262,-1,1,0,0,1,9,0,2
1537919526263262,0,0,-2,-1,-2,-11,-7,0
1537919526285204,-4,-1,1,5,6,16,10,-2
1537919526285204,1,0,-6,-9,-9,-1,8,1
1537919526286201,0,-1,0,-1,1,-4,-11,-1
1537919526286201,-1,0,1,0,-2,-3,0,-2
1537919526308142,-1,-3,0,0,-1,-1,-6,-2
1537919526308142,0,-1,-1,-2,-4,-5,-3,-1
1537919526309140,-1,-1,-8,0,3,10,14,-3
1537919526309140,-2,-1,1,-3,-3,0,-3,-1
1537919526323102,-2,-1,-3,-4,-4,-4,0,-1
1537919526323102,0,0,3,3,1,4,2,0
1537919526323102,-1,-4,-4,0,-2,-10,-6,0
1537919526323102,1,-2,-4,-3,-1,0,-1,-1
1537919526345043,0,2,1,1,2,-2,0,2
1537919526345043,-2,-1,-3,0,-1,0,-16,-2
1537919526346041,-1,-1,-1,-4,0,7,25,0
1537919526346041,-1,-2,-1,0,-2,-11,-26,-5
1537919526368980,2,0,1,0,3,-2,22,6
1537919526368980,-1,-2,0,0,-3,0,-46,-3
1537919526368980,-2,-1,1,-2,-3,-2,72,0
1537919526368980,-1,1,1,1,0,9,35,1
1537919526382942,-3,-2,-5,-3,-4,-8,-46,-6
1537919526382942,1,1,3,3,6,16,63,9
1537919526383939,2,1,0,-1,-1,-12,-46,-4
1537919526383939,2,0,-1,-2,-2,-2,-22,-1
1537919526405881,-11,-4,-2,-5,0,-15,-65,-16
1537919526405881,21,7,1,0,26,38,67,-1
1537919526405881,-31,10,3,5,5,2,63,8
1537919526405881,27,-7,-26,3,75,27,-27,-11
1537919526428821,8,-49,13,-5,-71,18,22,3
1537919526428821,-18,20,-19,-2,59,-79,-56,4
1537919526428821,-17,47,83,31,16,85,-17,-4
1537919526428821,-106,-85,-14,1,60,-98,-44,-71
1537919526441785,86,56,-6,13,68,74,78,73
1537919526441785,15,-8,33,-31,-111,-96,72,52
1537919526450761,16,-50,-79,-34,26,3,-83,-62
1537919526450761,-85,15,67,15,-12,-65,37,-35
1537919526465721,74,75,100,47,98,57,52,35
1537919526465721,-115,-116,-14,82,127,91,-40,-11
1537919526465721,92,-20,14,-77,-113,-128,-10,-21
1537919526465721,88,-25,-75,-16,63,127,10,91
1537919526488659,-81,3,-72,-19,77,61,-18,-25
1537919526488659,-85,69,-26,-16,-7,-72,-36,-64
1537919526489657,-11,-6,-48,33,127,127,-14,15
1537919526489657,-4,15,48,-15,-127,-110,-11,-30
1537919526502622,-35,-16,-7,-25,-94,-43,-10,-4
1537919526502622,-4,-25,3,-5,-26,59,-14,-13
1537919526510601,-6,-22,-26,8,-4,8,2,10
1537919526510601,18,25,-21,-7,-3,11,32,10
1537919526525561,-14,-16,-4,7,-10,-36,-14,-23
1537919526525561,39,-9,-3,-12,-33,0,-16,6
1537919526526558,-13,-1,14,12,-18,-43,-5,9
1537919526526558,23,34,16,8,-3,41,43,27
1537919526556478,-41,-40,-13,-8,-27,-46,-29,-30
1537919526556478,50,6,4,1,5,25,-1,4
1537919526556478,-1,23,-5,-13,-22,-27,22,21
1537919526556478,-13,-3,17,15,-12,11,-34,-9
1537919526562463,9,-15,-25,-17,1,-13,-6,-8
1537919526562463,22,12,-23,-1,0,4,-5,-2
1537919526570441,-9,6,7,-5,2,-3,17,3
1537919526570441,-9,-21,-48,-9,-13,7,-45,-2
1537919526585402,6,-5,25,-3,2,-3,49,3
1537919526585402,9,12,22,-3,0,7,24,6
1537919526586399,-8,16,-5,16,-8,-10,-15,-7
1537919526586399,24,-20,-5,-16,-5,17,-5,-4
1537919526608340,-9,9,-10,5,1,-4,-16,-13
1537919526608340,6,-2,7,-1,-7,19,25,-11
1537919526609337,-13,-14,8,7,-2,-24,-58,6
1537919526609337,6,17,9,4,2,-28,-1,8
1537919526622302,0,-8,-8,-2,-1,10,-54,0
1537919526622302,9,-2,-4,-10,-6,20,56,12
1537919526630281,-11,-16,1,-4,-4,23,5,4
1537919526630281,6,13,0,2,0,-4,-17,9
1537919526645241,-13,-10,8,7,-7,-26,2,-6
1537919526645241,6,4,1,-3,5,-1,-53,-4
1537919526646238,4,3,1,-1,2,-9,16,10
1537919526646238,-3,0,10,4,-5,19,18,-4
1537919526669177,1,3,-19,-6,11,9,91,11
1537919526669177,11,8,11,1,-2,-21,-37,-1
1537919526669177,3,0,5,7,-2,5,1,-2
1537919526669177,-8,-2,-1,-4,-4,-4,-39,-6
1537919526682142,-3,-4,-15,-1,-5,-1,22,-10
1537919526682142,-1,-2,-2,-2,1,15,-11,1
1537919526690121,-6,-7,4,2,-2,-6,0,-3
1537919526690121,4,4,-1,1,2,8,38,1
1537919526705081,-3,1,8,-2,-5,-14,-47,-10
1537919526705081,-8,-10,-9,-8,-6,-12,-29,-8
1537919526706079,-22,10,2,-5,-8,-9,-51,-16
1537919526706079,0,-47,-52,-5,51,32,44,5
1537919526729017,42,45,32,13,11,-2,-92,12
1537919526729017,4,-22,-3,-10,11,79,80,6
1537919526729017,-31,33,28,28,33,-3,5,22
1537919526729017,25,-60,-32,-46,-85,46,-15,-6
1537919526750959,-84,35,-30,38,118,-72,-52,-56
1537919526750959,37,20,65,-45,-107,-5,8,55
1537919526751958,-16,-72,-109,-23,111,-49,25,-11
1537919526751958,27,126,110,21,-36,45,14,55
1537919526764922,9,-128,-69,-48,-116,-82,-59,-107
1537919526764922,-62,-59,-95,10,127,76,-57,-44
1537919526765919,114,71,126,4,-128,-120,100,59
1537919526765919,14,-17,-45,0,122,49,-47,-27
1537919526788859,-100,-49,-23,22,105,32,32,-22
1537919526788859,90,85,-10,-16,-53,-70,26,32
1537919526788859,-70,-128,-124,-9,23,36,-25,-37
1537919526788859,-21,5,21,19,19,-90,1,-68
1537919526812794,-35,127,113,27,-7,51,3,31
1537919526812794,-49,-52,-5,14,-3,96,-15,-40
1537919526812794,16,19,-8,-18,-85,-70,-25,-36
1537919526812794,6,-18,5,10,-30,-34,16,39
1537919526825759,9,-75,-40,-25,-26,44,15,18
1537919526825759,-18,0,1,12,34,-27,-10,-9
1537919526825759,14,43,29,2,-1,46,-10,24
1537919526825759,-20,-18,-15,-8,-20,17,-7,-21
1537919526848697,34,3,21,3,-4,-16,23,33
1537919526848697,9,16,16,15,7,-26,-18,2
1537919526849695,-1,7,16,0,6,15,-16,-13
1537919526849695,-13,-2,-12,6,9,-17,-30,6
1537919526862660,25,3,-30,-24,-13,13,79,21
1537919526862660,12,18,13,13,-8,-62,-7,11
1537919526870639,-31,-22,20,19,20,63,9,-21
1537919526870639,-7,8,-33,-57,-6,-46,-96,-3
1537919526885601,42,17,25,2,-27,1,2,25
1537919526885601,-13,-9,-11,-15,0,0,64,-20
1537919526886597,-3,2,-15,10,27,56,26,1
1537919526886597,-3,14,11,23,-2,-27,3,-4
1537919526908539,11,-12,-5,-9,-16,-3,-40,2
1537919526908539,-4,-6,-14,-4,6,-29,-19,-5
1537919526909537,-4,14,7,8,12,2,-23,1
1537919526909537,-2,5,8,6,-6,-2,46,17
1537919526922501,4,-5,-10,-9,-4,29,-21,6
1537919526922501,-12,-7,10,15,4,-17,-10,-5
1537919526930480,8,17,3,-9,6,9,-40,4
1537919526930480,-15,-5,2,0,-6,-2,30,0
1537919526945440,5,0,-4,0,-5,-13,-21,0
1537919526945440,3,2,2,1,7,-3,-6,3
1537919526946438,-1,2,-2,-8,1,2,-2,-1
1537919526946438,-3,-9,-9,5,0,5,-6,-4
1537919526968378,6,1,0,1,-6,1,20,1
1537919526968378,-2,1,1,-4,-6,-2,-3,-2
1537919526969375,-5,-3,-1,-6,4,-3,-28,-6
1537919526969375,-2,-2,-1,10,5,30,33,-1
1537919526991316,2,3,6,1,-1,-10,5,3
1537919526991316,0,-5,-1,-9,-10,-12,-4,-1
1537919526991316,-3,1,-1,0,9,1,10,-2
1537919526991316,-2,-1,3,2,-2,11,6,0
1537919527005278,2,-3,-5,-3,-5,-11,22,2
1537919527005278,-1,-1,-2,4,6,-3,-22,-5
1537919527006276,1,3,0,-3,8,20,4,-1
1537919527006276,-1,-1,-3,-3,-15,-2,15,1
1537919527028217,1,-3,-2,-1,-5,-27,-13,-1
1537919527028217,-2,0,0,0,1,22,3,-2
1537919527030212,-2,2,1,2,1,-16,-12,-2
1537919527030212,-1,-1,0,0,6,8,9,-2
1537919527051156,2,-1,-1,0,2,12,2,1
1537919527051156,2,-1,3,1,-2,-10,-5,-2
1537919527052153,0,0,-4,-6,0,2,4,2
1537919527052153,-2,-2,-2,-1,-3,-6,-7,-1
1537919527066116,1,1,-1,3,0,-2,-10,-1
1537919527066116,-2,-1,-2,-1,-2,2,26,2
1537919527074095,-2,-2,1,-2,-1,13,9,-1
1537919527074095,0,1,0,3,1,-4,-5,-1
1537919527089055,0,-1,-1,-2,-4,4,1,2
1537919527089055,0,-1,-1,-1,-1,-5,-9,-2
1537919527090053,0,0,1,3,-1,-11,3,0
1537919527090053,-3,-2,0,0,0,9,7,-2
1537919527110998,-1,-1,-6,0,-1,-15,3,-3
1537919527110998,-1,-2,1,-2,0,10,-9,-3
1537919527112992,0,0,0,2,2,-23,-15,-2
1537919527112992,-1,-2,0,1,2,32,5,0
1537919527124960,-1,0,-3,-1,0,-12,-15,0
1537919527124960,-2,-3,-3,-4,-8,3,22,0
1537919527131941,-1,0,0,1,1,-31,-21,-3
1537919527131941,1,1,2,2,3,4,9,4
1537919527148896,-3,-1,0,-1,-2,5,6,1
1537919527148896,1,0,3,-1,-1,1,-3,1
1537919527149895,-1,-2,-3,-4,-1,5,-1,0
1537919527149895,0,-2,-2,-1,-4,-14,1,-1
1537919527170838,0,-1,5,1,0,9,-2,0
1537919527170838,-1,-1,-5,-2,-2,-11,8,-3
1537919527172833,-1,-2,-7,-4,-4,13,14,-1
1537919527172833,0,0,2,-1,0,-12,-17,-5
1537919527185798,-1,-2,-2,0,0,8,9,1
1537919527185798,-1,0,-1,1,-2,-4,-16,-1
1537919527191782,1,-1,4,3,1,-1,5,-1
1537919527191782,-3,-3,-10,-8,1,-2,-4,-1
1537919527208735,0,-1,2,-3,-2,6,0,-2
1537919527208735,1,0,-4,-2,-1,0,-11,-1
1537919527209732,-1,0,2,0,-2,14,20,4
1537919527209732,1,-1,2,0,-4,-3,-4,1
1537919527230676,0,-1,-3,-1,1,-25,-2,-1
1537919527230676,0,1,1,2,4,-3,-6,2
1537919527232671,-1,-1,0,-1,-5,1,-13,-2
1537919527232671,-2,-1,-1,-2,-3,-4,3,0
1537919527245636,-1,-2,-2,-1,1,17,0,-1
1537919527245636,-1,-2,0,0,1,-3,-1,-1
1537919527252617,-4,-2,-1,1,1,0,8,0
1537919527252617,0,-2,-3,-6,-8,-3,-2,1
1537919527268575,0,0,1,-1,2,3,-1,-4
1537919527268575,-2,0,3,2,1,-5,0,0
1537919527269573,0,-2,-3,-1,0,4,0,-1
1537919527269573,1,-1,1,1,-1,-7,-8,-1
1537919527291514,-2,-1,-1,1,-3,-8,11,1
1537919527291514,-1,-2,-8,-4,-5,11,1,1
1537919527292512,-1,0,1,-1,2,4,-1,-3
1537919527292512,1,-2,0,0,1,-2,0,1
1537919527305476,-2,-1,-1,-3,-5,-3,-7,1
1537919527305476,0,-1,-5,2,-1,-15,-7,-1
1537919527312458,0,-1,3,0,-2,0,1,-1
1537919527312458,-4,-2,1,2,-1,3,-28,-5
1537919527328415,3,-1,1,1,4,9,56,3
1537919527328415,1,0,-4,-3,-2,-8,-4,-1
1537919527330410,-2,1,-4,-2,-3,10,7,1
1537919527330410,-1,-1,1,2,0,-25,-19,-4
1537919527351354,-3,-1,0,1,5,30,-19,-2
1537919527351354,0,-2,-1,-3,-1,12,2,-2
1537919527352353,2,0,-1,0,0,-6,2,-1
1537919527352353,-1,1,0,0,-5,0,15,-1
1537919527365317,-2,0,-3,-1,-2,-14,-21,-3
1537919527365317,-1,-2,1,-1,2,-6,3,-2
1537919527372299,-3,-3,-5,-2,-1,0,-4,-5
1537919527372299,0,0,1,1,2,5,16,5
1537919527388258,-2,-2,-7,-3,-3,-3,-7,-2
1537919527388258,-1,0,11,1,0,-3,-15,-1
1537919527390253,2,9,-5,-2,-1,-5,25,1
1537919527390253,-3,-14,-3,0,2,-5,-1,-3
1537919527411195,-2,-2,10,1,0,8,1,-2
1537919527411195,-2,-2,-8,-3,-4,-5,-12,-1
1537919527412194,-2,0,0,-2,-3,-20,-10,-2
1537919527412194,0,3,0,1,1,24,-2,-2
1537919527425157,1,2,-2,1,2,-4,-30,-4
1537919527425157,-2,0,-1,-1,-1,-2,8,-2
1537919527432138,1,-2,0,0,0,4,-13,0
1537919527432138,-1,1,-3,-3,0,-1,21,2
1537919527448095,-1,-3,-5,-3,-5,4,0,2
1537919527448095,-1,2,3,3,0,-1,-4,0
1537919527450090,-3,-4,-4,-1,-1,-8,-23,-3
1537919527450090,0,2,-1,-1,1,1,7,1
1537919527471034,0,1,0,1,0,-8,2,1
1537919527471034,1,0,-2,-3,-2,1,7,3
1537919527472031,-1,-2,-2,-1,0,7,4,2
1537919527472031,-4,-1,1,-1,-2,-10,-58,-9
1537919527484996,-2,-2,-2,-5,-1,9,61,2
1537919527484996,3,1,0,3,1,0,43,9
1537919527493972,-1,-4,2,1,0,-5,-2,-2
1537919527493972,-1,2,-6,-4,-5,9,2,-4
1537919527508932,-1,-1,0,-2,-2,-9,-24,-2
1537919527508932,-2,-5,-3,-2,-4,-4,-36,-4
1537919527509930,1,1,7,4,1,-25,-7,1
1537919527509930,-2,-1,-7,-1,5,53,-30,-9
1537919527530873,-1,0,-7,-7,-3,3,5,-4
1537919527530873,3,3,-2,0,0,-7,5,3
1537919527532868,-2,-5,-2,-5,-2,6,-11,-2
1537919527532868,-2,11,3,1,7,-14,56,2
1537919527544836,-8,-9,-19,4,17,17,-128,-17
1537919527544836,45,3,18,5,7,-84,95,19
1537919527553812,-60,-38,-16,5,0,47,-27,-6
1537919527553812,51,18,8,-19,-70,2,-3,22
1537919527568772,26,3,-25,6,36,-34,5,17
1537919527568772,-101,20,29,24,59,7,-32,-54
1537919527569769,119,-88,-67,-26,-31,-104,2,46
1537919527569769,63,-40,-9,5,-69,104,11,13
1537919527590714,-63,94,87,-16,-75,-109,48,-11
1537919527590714,-70,-113,-116,-28,47,-80,-33,-35
1537919527592708,-47,127,127,52,-76,-47,-71,-101
1537919527592708,74,-103,-36,37,127,-69,72,29
1537919527604676,-25,-111,-58,-28,-112,-48,103,58
1537919527604676,70,-37,-34,-34,66,35,-67,-57
1537919527613652,44,63,72,23,-65,70,1,63
1537919527613652,-90,-25,-36,-21,31,-1,-47,16
1537919527628612,2,34,-18,13,50,112,-9,-59
1537919527628612,-30,-101,-29,-25,-70,-113,-36,-45
1537919527629610,-19,47,-49,-22,39,-16,21,26
1537919527629610,14,49,52,10,4,-56,30,10
1537919527650553,62,0,-3,-2,-5,-37,-12,-3
1537919527650553,-60,57,28,20,-18,92,14,24
1537919527652548,-19,-35,-14,-4,13,4,25,-18
1537919527652548,-22,-10,-20,-8,-5,-1,-12,-7
1537919527665514,-13,-43,-17,10,51,-6,-19,-23
1537919527665514,30,50,28,6,-41,6,-6,35
1537919527673492,3,-31,-7,-5,9,28,41,3
1537919527673492,-35,12,6,0,2,-36,-42,-30
1537919527687455,8,-1,16,-1,-5,24,-6,12
1537919527687455,43,41,37,20,-27,47,73,31
1537919527694436,-10,-31,-41,-10,28,13,13,4
1537919527694436,-20,3,22,29,-4,-6,-32,-30
1537919527711391,5,15,-35,-16,-18,-11,-2,-4
1537919527711391,17,6,8,-21,-12,11,-38,23
1537919527712388,-10,-33,-5,7,25,11,40,-13
1537919527712388,-6,23,-11,-29,-21,-22,4,-1
1537919527724356,-3,1,3,29,13,15,13,8
1537919527724356,-10,-21,11,-9,-8,10,1,4
1537919527733332,35,5,2,-6,4,-16,-10,1
1537919527733332,-12,12,37,18,-15,5,-9,-17
1537919527748292,-3,-5,-11,6,19,68,38,4
1537919527748292,-2,6,1,-9,-12,-18,-21,-10
1537919527754276,-14,-34,-11,-4,1,-2,-66,-10
1537919527754276,-3,12,-12,-8,-7,-20,63,11
1537919527771231,3,-7,9,1,7,-23,-36,4
1537919527771231,12,21,-1,6,-12,18,-6,12
1537919527772228,-10,-14,-5,4,5,-28,45,2
1537919527772228,0,4,-4,-13,-3,30,-25,-5
1537919527785193,-4,-5,10,3,9,13,-9,0
1537919527785193,8,4,16,11,-10,25,39,5
1537919527793172,-9,-3,-17,-8,3,-8,-16,-4
1537919527793172,-16,-9,-10,-3,-4,-21,-56,-14
1537919527808132,19,12,21,1,-6,-6,-16,3
1537919527808132,1,11,-8,-3,0,-16,-11,4
1537919527815114,0,-6,-15,-8,8,15,14,-2
1537919527815114,-1,0,3,-1,-6,5,-4,-1
1537919527831071,-6,-10,7,0,-2,2,19,0
1537919527831071,11,10,5,9,1,5,-27,-3
1537919527832068,-18,-20,-12,-8,0,12,77,2
1537919527832068,-5,8,5,0,-5,-9,5,-3
1537919527845033,1,-9,-16,-11,-2,3,-18,2
1537919527845033,5,5,-5,6,2,-6,18,1
1537919527854010,0,5,8,-2,-2,10,-9,-5
1537919527854010,0,-7,-4,3,0,-8,-9,-2
1537919527867972,-7,-3,9,4,1,-8,-44,-5
1537919527867972,6,1,-3,-4,0,21,70,9
1537919527874954,-1,4,5,4,2,-15,-59,-2
1537919527874954,-2,-5,-4,-2,-3,6,13,-6
1537919527890911,0,5,1,-6,-1,-9,-48,-2
1537919527890911,-4,-7,2,4,-3,3,-20,-4
1537919527892906,2,2,-3,1,2,-2,2,4
1537919527892906,-1,2,-3,-3,-3,-7,-15,1
1537919527913850,-1,-5,6,0,-1,2,47,-1
1537919527913850,-1,-4,-2,3,-2,8,-20,-2
1537919527914847,-3,2,1,-2,0,-3,-28,-7
1537919527914847,3,-1,0,-1,-1,6,26,0
1537919527927812,-3,-4,5,2,0,-10,-72,-4
1537919527927812,3,0,-6,-2,2,8,43,7
1537919527934793,12,11,-2,-5,-5,-4,8,-6
1537919527934793,-32,-16,-12,-7,-1,1,-1,-2
1537919527950751,37,12,4,-3,-6,-34,-93,-8
1537919527950751,-36,-12,-20,3,30,51,76,7
1537919527952746,21,-15,35,20,51,-12,-72,-8
1537919527952746,10,47,-15,-11,34,-85,-60,1
1537919527973690,-46,-27,-11,-17,-68,57,123,16
1537919527973690,40,-15,-32,8,26,-99,-65,9
1537919527974687,-46,14,-14,-8,-34,106,26,-24
1537919527974687,-29,44,100,-13,-80,-42,13,64
1537919527987652,-24,31,-4,39,119,27,-28,-42
1537919527987652,20,-27,92,-6,-121,-103,91,98
1537919527994634,-57,-15,-99,-13,77,-27,-63,-62
1537919527994634,-35,-22,-66,-8,66,117,14,-48
1537919528010591,108,25,63,-15,-84,-110,-20,7
1537919528010591,-37,-71,-32,15,75,58,-67,16
1537919528012586,15,-12,-19,21,41,0,29,46
1537919528012586,-77,42,-13,-5,91,42,-30,-7
1537919528033530,-8,-67,-53,-38,-26,-59,63,-26
1537919528033530,115,108,17,5,63,32,-29,7
1537919528035524,-40,72,101,8,-16,37,-7,-1
1537919528035524,-21,-67,-15,4,-19,-53,-17,-48
1537919528047492,-54,2,-13,23,12,28,27,27
1537919528047492,-50,-71,-42,-25,-124,-77,-36,-60
1537919528056468,33,-10,-39,-14,2,22,30,33
1537919528056468,35,-10,12,20,-4,23,26,3
1537919528071428,-20,14,18,-2,-8,-24,-24,-17
1537919528071428,-31,-15,-15,-2,20,41,12,-7
1537919528072426,23,13,5,-3,-10,-23,5,6
1537919528072426,47,-45,5,1,-46,-41,7,4
1537919528093370,-24,-16,3,-9,7,2,-5,9
1537919528093370,-19,37,-29,-5,41,33,-23,-18
1537919528095365,11,-16,20,3,-39,-25,8,-4
1537919528095365,14,0,-12,-4,-15,-5,-2,11
1537919528107333,-8,-3,-9,13,26,29,-25,11
1537919528107333,0,35,20,-12,8,17,9,-19
1537919528116310,4,-24,1,7,-21,-43,61,11
1537919528116310,7,-16,-38,-27,-4,-6,10,8
1537919528131269,7,21,13,2,22,14,10,7
1537919528131269,0,-8,31,0,-16,-12,-18,-9
1537919528132267,-12,-15,-7,-13,-12,-29,-39,-6
1537919528132267,10,16,13,22,16,4,-8,3
1537919528153211,-1,-8,0,6,-2,18,29,-4
1537919528153211,-17,0,-1,0,0,1,-25,-16
1537919528155206,6,-3,-8,-7,-6,0,12,1
1537919528155206,14,15,11,7,-2,-18,-7,-2
1537919528167174,-9,-15,-2,1,6,30,-2,2
1537919528167174,-9,6,-2,5,2,-18,-10,3
1537919528176150,12,8,-3,3,4,6,-23,4
1537919528176150,7,-7,9,4,-11,-12,14,2
1537919528191110,-14,-10,-35,-11,-2,5,0,2
1537919528191110,-6,19,2,7,15,8,-28,-5
1537919528192108,-2,-6,0,-8,-10,-5,6,0
1537919528192108,4,1,-4,-3,-8,-15,-16,-3
1537919528213051,-2,-2,0,2,7,4,-4,5
1537919528213051,-1,2,2,6,-3,0,29,-5
1537919528221030,7,5,3,0,4,36,50,0
1537919528221030,-5,-12,-7,-2,-2,-1,2,-2
1537919528227014,6,11,14,1,4,8,-11,-1
1537919528227014,3,-8,2,5,-5,-15,-20,-2
1537919528235991,-7,-3,-6,-8,-8,-21,-18,-7
1537919528235991,5,5,-2,2,1,5,23,2
1537919528250950,2,0,-2,-2,-4,-27,-20,2
1537919528250950,-1,0,7,6,8,44,16,-3
1537919528252945,-4,-4,-7,-6,-6,-9,3,0
1537919528252945,0,-3,-1,-2,-5,14,3,-1
1537919528273888,-1,-4,0,-3,-3,-30,5,1
1537919528273888,0,-2,-10,-8,-3,12,4,-5
1537919528274886,-1,-4,3,4,5,-3,-8,1
1537919528274886,1,-3,1,3,-1,0,0,0
1537919528286853,2,3,-1,-4,0,-3,5,-2
1537919528286853,-3,0,-2,0,0,1,2,-2
1537919528295829,-3,-4,3,0,-4,-11,-14,-2
1537919528295829,-2,-1,2,0,-2,3,-10,-1
1537919528310789,1,1,-6,-1,3,7,18,-1
1537919528310789,-3,-2,-8,-3,-4,-6,-9,-3
1537919528312785,-6,-3,4,2,-3,-18,-8,0
1537919528312785,1,0,-1,0,0,24,15,2
1537919528340710,1,-1,-5,-6,-4,0,6,-1
1537919528340710,1,-2,-2,0,0,-8,1,1
1537919528342707,-3,-1,3,0,0,1,-12,-3
1537919528342707,-1,1,-1,0,3,-2,-34,-4
1537919528347691,1,1,-1,1,1,-7,24,1
1537919528347691,-1,-2,-2,-5,-3,-19,-17,-2
1537919528354673,-3,-2,-5,-3,-4,3,28,0
1537919528354673,0,-1,-1,3,3,22,7,-3
1537919528370630,0,-1,-5,-8,-3,-14,-61,-5
1537919528370630,-3,-1,13,5,-5,-5,12,-6
1537919528372626,5,5,-3,9,10,10,17,14
1537919528372626,1,-2,-11,-4,-2,-6,8,-1
1537919528393569,-2,0,3,4,1,0,12,3
1537919528393569,-2,-1,-6,-5,-3,-3,-60,-5
1537919528394567,-2,-3,7,0,-2,1,4,-4
1537919528394567,0,2,2,2,-1,-4,12,1
1537919528416507,-2,-7,-6,-6,-5,-2,0,-2
1537919528416507,-7,-2,1,2,-1,-2,-25,-6
1537919528417505,0,-3,2,-1,-3,-16,-37,-4
1537919528417505,1,0,3,-1,0,-3,-32,2
1537919528431467,-2,3,0,-1,-3,-2,-19,-10
1537919528431467,4,-6,0,3,7,30,27,19
1537919528432465,-1,0,0,-3,-2,-24,-30,-2
1537919528432465,-1,-3,-2,0,0,17,22,-2
1537919528453408,-3,-2,-2,-1,-2,-29,-49,-5
1537919528453408,1,0,-4,-3,-3,28,29,-5
1537919528455403,-2,0,1,-1,1,8,-8,-2
1537919528455403,1,0,1,-2,-5,-31,-2,2
1537919528467370,-1,-1,-5,-2,1,23,40,0
1537919528467370,1,1,-2,-6,2,2,1,-1
1537919528476346,2,-1,-6,-1,-1,-10,25,-1
1537919528476346,-3,-2,1,-4,-5,-9,-15,-3
1537919528498287,-1,-1,2,3,2,10,-1,0
1537919528498287,0,0,-3,-3,-3,-20,-46,-5
1537919528500282,-10,-7,-4,-8,-8,1,-11,-26
1537919528500282,9,4,7,5,11,11,78,38
1537919528513247,3,2,3,4,4,15,26,8
1537919528513247,0,3,3,3,-3,-11,-19,3
1537919528515242,-5,-4,-3,-3,-6,1,-45,-9
1537919528515242,-8,-7,-7,-7,-5,-10,10,-18
1537919528527210,2,-1,2,0,1,5,-15,6
1537919528527210,-3,-1,-1,2,1,-9,15,-7
1537919528536186,3,1,1,1,5,29,85,21
1537919528536186,-1,1,-2,0,-2,-3,1,-4
1537919528551146,-2,0,2,2,-1,1,-6,2
1537919528551146,-3,-2,-2,-2,-4,-12,-19,-8
1537919528552143,-3,-2,-3,-3,-2,-24,-30,-4
1537919528552143,-1,-3,1,-1,0,38,3,0
1537919528573087,-3,-2,1,-1,-3,-9,-13,-5
1537919528573087,5,1,-2,0,2,-1,89,17
1537919528581066,1,1,-2,1,1,0,-24,0
1537919528581066,-3,-1,1,2,-1,-10,-41,-5
1537919528599018,-8,-5,-7,-6,-8,-11,-80,-30
1537919528599018,3,1,-1,-1,2,5,61,18
1537919528600016,5,1,2,2,3,5,-17,9
1537919528600016,1,1,1,0,-1,-3,-10,-3
1537919528603008,0,0,0,1,0,0,-4,2
1537919528603008,-7,-2,-4,-2,-3,-24,-59,-17
1537919528611984,0,0,-1,-2,-1,-1,18,5
1537919528611984,-2,-3,-3,0,-3,8,1,-3
1537919528625947,1,-1,3,3,-2,-30,-12,-6
1537919528625947,-1,-2,-8,-5,0,49,-16,-4
1537919528627942,-4,-2,-1,-1,-1,-2,34,-2
1537919528627942,0,-2,-1,-3,-3,2,-59,-2
1537919528639909,-1,0,3,2,1,-8,58,8
1537919528639909,0,2,3,2,0,-5,11,1
1537919528648885,-3,-2,-2,0,-4,-2,-33,-6
1537919528648885,-9,-5,-3,-3,-6,-15,-2,-10
1537919528662847,5,2,0,0,1,5,14,11
1537919528662847,-2,-2,-3,-1,-4,-3,-25,-4
1537919528669829,-2,-2,0,0,1,3,9,-3
1537919528669829,-4,0,0,-2,-1,-16,-39,-9
1537919528685786,0,-2,-2,-1,0,8,8,1
1537919528685786,-1,-3,-1,0,-1,-6,12,-1
1537919528687781,-1,-1,-1,-1,-2,3,-21,-2
1537919528687781,-1,-3,1,0,0,-8,-33,-4
1537919528699749,0,0,-3,-3,0,12,63,8
1537919528699749,2,1,1,2,1,-12,35,6
1537919528708725,-2,-1,-1,-3,-2,17,-5,-6
1537919528708725,4,2,-2,1,0,-1,8,5
1537919528722688,-3,1,-2,-1,-2,-6,-19,-4
1537919528722688,-3,-4,-1,0,-1,-6,-46,-7
1537919528729670,0,-1,-2,-2,-2,-1,68,8
1537919528729670,0,-1,-1,2,2,1,32,4
1537919528753607,-2,-2,1,0,-1,4,-10,-2
1537919528753607,1,3,2,1,2,-6,-2,0
1537919528754604,1,2,1,1,2,15,-34,-2
1537919528754604,0,1,-1,-3,-3,-4,6,1
1537919528759589,4,0,-3,-3,0,2,26,7
1537919528759589,-2,1,-3,-3,-1,-9,-10,0
1537919528768567,0,0,0,0,0,7,0,0
1537919528768567,0,0,1,1,2,-4,0,-1
1537919528782529,-2,0,2,1,1,5,-15,-2
1537919528782529,-2,-3,-2,-4,-5,-4,3,-5
1537919528791506,0,0,-1,-4,-5,-19,-15,-1
1537919528791506,0,0,-2,1,2,10,8,2
1537919528806465,1,-2,5,0,1,3,-4,-3
1537919528806465,1,-1,0,-1,0,3,-12,-2
1537919528807464,0,0,0,1,2,-8,7,1
1537919528807464,0,2,-1,-2,-1,2,22,1
1537919528819431,-2,1,-3,1,-1,3,6,-2
1537919528819431,-2,-1,-1,1,-2,-14,0,-1
1537919528828406,-2,-2,1,-1,-4,1,-11,-3
1537919528828406,0,-1,1,2,6,10,-2,3
1537919528842370,-2,0,1,-3,-2,-3,-8,0
1537919528842370,-2,-1,-5,0,3,4,-6,-4
1537919528851346,0,-1,-2,-1,-3,-14,-12,1
1537919528851346,0,-2,-3,-5,-6,-5,2,-2
1537919528865307,-1,-1,0,0,-1,1,-3,-1
1537919528865307,-3,-2,1,-2,-1,5,-4,-1
1537919528872288,-1,0,0,2,1,-4,-3,0
1537919528872288,-2,2,0,0,-2,-7,-17,-4
1537919528879269,1,-4,0,2,2,19,35,3
1537919528879269,-1,-1,-5,-2,1,-1,-1,-1
1537919528888245,-1,-4,-2,-2,-1,1,3,1
1537919528888245,-1,0,1,-1,-4,0,-4,-2
1537919528902209,0,1,-2,-2,-1,-14,-14,-1
1537919528902209,1,-3,2,4,2,6,5,0
1537919528911184,-5,6,1,-1,1,2,0,-4
1537919528911184,11,4,2,-1,-3,-15,-9,1
1537919528925147,-3,-3,-3,-4,-3,3,-8,-4
1537919528925147,-1,-2,2,-1,-2,4,-22,-4
1537919528932128,1,-9,-1,2,1,2,1,2
1537919528932128,-4,10,2,4,3,23,48,4
1537919528940107,1,-1,0,1,-2,-11,-8,0
1537919528940107,3,1,-3,-6,-5,-24,-3,1
1537919528949084,-3,-2,2,-4,-5,-12,-34,-5
1537919528949084,-4,-7,-1,-2,0,-6,0,0
1537919528962049,-5,-4,-3,-3,-1,25,22,-3
1537919528962049,0,4,4,5,4,-16,-47,2
1537919528971026,1,2,-7,-2,-2,-6,-3,-1
1537919528971026,-3,-3,7,-2,-2,-3,-29,-6
1537919528994965,11,30,-1,0,0,3,12,-1
1537919528994965,5,-37,3,-1,-1,13,15,6
1537919528995960,-16,-6,-2,-1,-1,-5,16,-4
1537919528995960,0,-3,-6,-2,-4,-18,-19,-1
1537919528999947,-7,-2,-1,-4,-4,22,-43,-11
1537919528999947,8,9,-2,-5,-3,18,95,5
1537919529008923,9,3,5,7,7,-30,-10,5
1537919529008923,-23,-13,-4,-3,-7,-7,-106,-16
1537919529021888,19,-5,0,3,1,-13,99,22
1537919529021888,-8,5,-5,-3,-1,18,-58,-10
1537919529030864,22,1,2,-6,-3,36,-5,-26
1537919529030864,-8,9,5,7,12,-9,117,31
1537919529044826,23,-13,-13,-9,6,-11,-94,-11
1537919529044826,-77,10,-11,5,57,27,-40,-7
1537919529053802,64,7,-5,8,-7,-15,-18,5
1537919529053802,34,-22,0,-8,-9,-47,-124,6
1537919529068763,-20,-29,-8,24,79,101,96,-9
1537919529068763,16,5,-25,-27,-108,-66,55,40
1537919529069760,-24,-41,-14,-18,89,18,11,-41
1537919529069760,-113,33,6,-30,-109,-80,34,-13
1537919529081728,54,-22,-6,37,88,24,-89,-2
1537919529081728,74,-24,-22,-25,-80,-108,5,-22
1537919529090704,15,69,-4,-19,-20,-107,49,21
1537919529090704,5,-58,-97,26,94,114,25,31
1537919529105664,-128,-52,92,-21,-117,-8,7,-63
1537919529105664,67,-11,4,38,127,90,-14,-7
1537919529112645,-79,-76,37,49,0,75,28,47
1537919529112645,38,114,98,-11,-40,-87,-23,-12
1537919529128602,-47,-72,-128,-35,97,88,-21,-66
1537919529128602,6,107,80,25,18,-107,-12,45
1537919529129600,-16,-28,7,-24,-91,46,-27,-49
1537919529129600,1,-128,-99,-5,46,54,-10,-25
1537919529142565,-22,127,50,23,7,-88,11,57
1537919529142565,82,-128,-71,-58,-90,-25,-24,-44
1537919529151541,66,127,-15,8,73,-36,-22,12
1537919529151541,-80,-19,66,-8,-112,4,32,1
1537919529165504,70,15,26,7,-59,-81,-26,-35
1537919529165504,-54,19,11,25,53,49,25,45
1537919529172485,-17,-51,-35,2,-20,-12,-4,5
1537919529172485,21,-24,-15,-8,2,33,21,-2
1537919529188442,18,-8,-10,-15,-12,-9,-15,12
1537919529188442,-78,-5,12,13,0,14,-9,-35
1537919529190437,-10,-18,11,1,-27,7,0,1
1537919529190437,34,27,-13,-7,48,6,-4,-4
1537919529202405,-5,-5,-36,21,-17,-29,-2,22
1537919529202405,2,18,-29,-50,-8,11,4,-14
1537919529211381,-11,0,32,23,-7,2,-20,11
1537919529211381,12,13,3,14,33,13,39,1
1537919529225344,11,10,53,7,-30,-24,-10,10
1537919529225344,-23,-14,-30,-19,-17,24,11,6
1537919529232325,-2,-4,-4,-14,7,8,-2,3
1537919529232325,13,6,-5,10,6,1,4,-2
1537919529248282,9,-4,19,11,-21,-14,1,19
1537919529248282,-4,14,22,16,13,2,-31,-7
1537919529250277,-25,-23,-4,-7,4,-15,-13,-8
1537919529250277,30,28,17,9,6,15,60,0
1537919529262245,12,29,-21,-21,-5,15,-4,16
1537919529262245,-30,-21,12,6,11,15,-16,2
1537919529271222,2,-6,-28,-5,-14,-14,-9,-3
1537919529271222,-10,-25,9,-1,-3,-1,-30,5
1537919529285184,-9,40,15,-10,-5,-5,8,11
1537919529285184,-5,17,-51,11,1,-11,-5,-11
1537919529292165,-10,1,6,-7,-4,14,0,1
1537919529292165,42,35,45,0,10,-6,5,-4
1537919529308123,3,-37,12,-11,-8,-9,3,-1
1537919529308123,-15,-4,2,4,-6,-5,12,-7
1537919529310117,-22,-13,-10,-1,4,16,18,2
1537919529310117,4,4,-11,-2,8,15,7,3
1537919529322085,14,18,-11,-5,-13,-24,-34,-2
1537919529322085,-1,-12,27,12,1,12,33,3
1537919529331061,-5,0,-5,-4,0,1,-18,-4
1537919529331061,-4,-4,-6,-3,-2,-6,-24,-4
1537919529345024,-35,-34,-11,2,-2,-12,12,10
1537919529345024,17,21,13,3,1,13,-27,-6
1537919529352005,24,13,3,-1,2,-7,38,10
1537919529352005,-26,-9,-6,0,-4,-2,-34,-8
1537919529368960,-6,-25,-9,-1,-5,-2,-24,-8
1537919529368960,7,24,9,-2,0,-7,-38,-7
1537919529369957,7,15,1,-1,0,-5,16,4
1537919529369957,0,-31,-6,8,0,6,24,3
1537919529381925,-6,3,-19,-23,-1,5,22,5
1537919529381925,-3,2,29,8,3,10,22,-1
1537919529390901,13,4,-2,-1,-4,-16,-57,-2
1537919529390901,-3,2,-10,-2,-1,-16,-43,-7
1537919529404864,11,-9,0,4,3,18,69,15
1537919529404864,0,-2,5,8,-1,15,19,-1
1537919529411845,-1,4,3,-4,0,1,-9,4
1537919529411845,-4,-5,-2,-4,-2,-11,-57,-9
1537919529428800,1,-5,-13,-5,-4,6,35,-7
1537919529428800,2,0,1,-8,-3,-23,-44,2
1537919529429798,-9,-10,1,3,1,11,-57,-15
1537919529429798,4,0,0,2,3,2,69,21
1537919529442762,15,6,1,-4,-3,-4,-60,1
1537919529442762,1,2,-5,-4,-3,-9,-24,-3
1537919529449744,23,24,5,-4,8,2,-8,2
1537919529449744,48,-22,-23,0,42,1,6,-12
1537919529465701,-39,-16,-6,-2,-47,8,-21,-13
1537919529465701,-35,-35,-30,-1,42,52,24,-12
1537919529472683,105,86,59,-19,-5,-95,22,20
1537919529472683,-81,-81,-36,-30,-85,-78,40,3
1537919529495621,0,65,-39,23,108,-54,-49,-39
1537919529495621,-13,83,76,-51,-119,81,98,52
1537919529497616,53,-113,-120,16,122,-45,-26,55
1537919529497616,-17,127,118,13,-109,-45,43,8
1537919529509584,-82,-18,1,-19,-2,-3,-6,-27
1537919529509584,73,-45,-90,-6,85,70,-76,-8
1537919529518560,-101,-13,-12,34,91,60,53,45
1537919529518560,116,-107,-67,-17,-33,9,-11,50
1537919529533520,-107,31,-59,21,82,-36,-38,-87
1537919529533520,106,127,122,40,-73,-59,60,20
1537919529534517,7,-101,-46,-69,-93,-39,-22,50
1537919529534517,-58,-30,-98,24,127,108,-56,-48
1537919529556458,-50,54,44,-28,30,-2,9,22
1537919529556458,-82,-8,18,-15,-41,-93,5,-48
1537919529557456,-27,-58,47,40,-26,-11,23,-36
1537919529557456,-92,60,44,10,-4,5,0,21
1537919529569424,87,-117,-57,-9,-18,36,1,36
1537919529569424,-128,16,24,22,50,-24,-15,-51
1537919529578400,84,51,12,-11,-66,1,-13,7
1537919529578400,-16,24,1,-9,4,-2,-11,-9
1537919529592363,46,10,23,12,-4,19,11,29
1537919529592363,26,-83,-15,14,8,-24,-12,7
1537919529599344,-73,-3,-17,-19,-39,34,14,-58
1537919529599344,42,33,23,29,35,1,-8,-6
1537919529616299,35,-28,-31,-59,-33,-2,9,11
1537919529616299,-6,-32,-37,-12,-19,-4,0,4
1537919529617297,-26,28,-15,5,12,13,-1,-24
1537919529617297,10,7,23,-8,10,-6,-13,-1
1537919529629266,16,-9,19,35,-43,-17,-8,19
1537919529629266,-17,-33,-55,-30,20,-1,19,-4
1537919529638242,0,42,53,6,13,37,29,-9
1537919529638242,-3,-21,8,4,-10,-34,-34,-9
1537919529653202,28,5,-9,-4,-33,-2,-13,2
1537919529653202,27,16,-26,18,37,7,-58,16
1537919529659184,6,25,31,13,12,20,26,-11
1537919529659184,-13,-28,3,-6,-21,5,29,-7
1537919529676140,2,-8,4,6,-4,-6,-12,4
1537919529676140,-6,-33,-7,-1,8,-9,-7,11
1537919529677137,-10,44,-15,-5,-6,-4,-41,-1
1537919529677137,0,11,-6,-13,-3,1,45,-10
1537919529690101,3,5,2,3,1,1,-29,4
1537919529690101,-4,-24,7,22,6,-12,23,-5
1537919529699078,5,7,4,4,-10,6,-5,-18
1537919529699078,9,8,-28,-23,5,-8,-4,0
1537919529713040,-19,0,42,9,-7,7,46,5
1537919529713040,37,-21,1,-2,-1,0,-52,8
1537919529727003,-15,27,-5,-12,-1,0,73,-3
1537919529727003,-3,-38,-12,9,8,-24,-77,-3
1537919529735980,0,-10,15,-1,-13,-8,15,0
1537919529735980,-11,-5,2,1,5,25,-1,-6
1537919529736977,-17,-10,-18,1,-2,-4,-31,-11
1537919529736977,24,9,1,-5,-2,9,80,13
1537919529758919,-1,5,-2,-2,-8,2,59,5
1537919529758919,2,5,-4,1,7,-1,-11,1
1537919529759917,-10,-10,-3,-3,-5,-6,-21,-6
1537919529759917,-2,6,0,-4,-8,2,-24,-6
1537919529772881,12,-6,12,3,1,3,-18,0
1537919529772881,-10,6,-12,-3,1,8,36,1
1537919529779863,-6,-17,2,-1,-2,-2,0,-5
1537919529779863,-1,6,5,2,2,-2,-32,-6
1537919529795820,5,3,-3,-1,-1,3,14,3
1537919529795820,6,4,-2,-2,-2,-10,-6,-2
1537919529797816,-13,-15,-2,0,-1,-2,-13,-2
1537919529797816,1,6,-4,-1,5,20,12,0
1537919529818759,6,3,2,2,-2,8,-4,-1
1537919529818759,-6,-2,-4,-4,-5,-13,6,-1
1537919529819757,-6,-8,8,7,1,-13,-15,-4
1537919529819757,-2,9,-4,-1,0,23,21,-2
1537919529833720,9,0,2,-1,-1,-6,-33,4
1537919529833720,-2,-1,1,3,1,-2,0,-4
1537919529834716,-5,-6,-7,-6,-4,-3,8,-1
1537919529834716,4,3,-4,-3,-5,-10,-7,0
1537919529855660,-3,-4,-3,-4,-4,3,-7,-2
1537919529855660,0,0,3,3,1,4,12,1
1537919529857656,-2,-1,0,3,3,-7,-16,-3
1537919529857656,0,2,1,1,0,0,7,-2
1537919529877602,2,-2,5,4,0,-2,1,-4
1537919529877602,0,1,-5,-11,1,4,8,1
1537919529886578,-4,-5,1,-3,-5,1,2,-3
1537919529886578,-1,2,-3,2,-2,0,-8,0
1537919529892561,-1,-2,-5,-8,0,7,11,-1
1537919529892561,0,4,0,1,-1,-7,-15,-3
1537919529899543,-5,-7,-3,1,2,1,4,2
1537919529899543,3,3,8,4,1,-15,-11,4
1537919529916496,1,0,-6,-3,-4,-7,-9,0
1537919529916496,-1,-3,-9,-7,0,23,37,0
1537919529917494,-2,2,14,6,5,10,-14,-4
1537919529917494,-4,-2,1,3,-3,17,17,-2
1537919529938438,-1,-1,-4,-4,-4,-15,-13,-2
1537919529938438,0,-1,-3,-1,-2,-17,-22,0
1537919529940433,-1,-2,-11,-6,-3,-10,0,-1
1537919529940433,-1,2,7,2,-2,-13,-12,-2
1537919529952401,-8,-1,11,9,4,14,16,1
1537919529952401,11,0,-9,-7,-1,2,-2,0
1537919529959382,0,-1,7,7,1,-11,-1,1
1537919529959382,10,10,-12,-10,-3,12,-4,-2
1537919529976337,-3,-2,-1,-2,-2,-13,-5,1
1537919529976337,-8,-4,-3,4,-2,0,5,0
1537919529977335,2,6,13,-3,0,4,1,1
1537919529977335,-5,-13,8,6,-1,-14,-14,-1
1537919529997282,3,-1,-14,-9,-3,13,-2,-1
1537919529997282,-3,-1,-2,0,-1,-4,14,-1
1537919530006258,-5,-2,-4,-4,-5,-7,-22,-6
1537919530006258,-2,1,2,1,4,2,27,4
1537919530013241,4,3,9,8,5,13,19,4
1537919530013241,-2,-1,2,2,-1,-3,-4,-2
1537919530019224,-5,-4,-10,-8,-9,-10,-2,0
1537919530019224,-1,0,-1,0,0,13,15,-4
1537919530036177,2,0,-1,1,1,-6,-7,-3
1537919530036177,-3,0,1,-1,-2,-7,-26,-2
1537919530037174,-2,-3,-4,-3,-1,4,8,-3
1537919530037174,0,1,-3,-2,-3,-7,-4,2
1537919530058118,-1,-1,-2,1,0,0,3,0
1537919530058118,-2,-2,6,4,0,1,3,-1
1537919530060112,0,-3,-13,-2,1,0,-8,-1
1537919530060112,-2,-1,1,1,0,-4,-10,-1
1537919530072080,-2,-1,0,-3,-1,-4,5,-1
1537919530072080,-1,-2,2,2,1,-3,-10,1
1537919530081056,0,0,4,-2,0,16,16,3
1537919530081056,-2,-1,1,-1,0,-15,-12,-3
1537919530095019,2,0,-6,-2,-1,-14,-9,-2
1537919530095019,0,-1,-2,0,0,6,3,-1
1537919530103995,0,-2,0,6,1,3,4,1
1537919530103995,0,0,-3,-4,-1,-5,-9,-2
1537919530118956,-3,-2,3,2,-2,5,-21,-4
1537919530118956,-1,1,0,0,1,-2,-22,0
1537919530119953,1,2,-3,0,5,-3,99,14
1537919530119953,-2,-2,1,1,-1,11,-27,-1
1537919530132918,3,1,0,3,3,-6,-16,3
1537919530132918,-3,0,-2,-2,-1,-2,-10,-3
1537919530139899,-1,-2,-3,0,-2,-1,-36,-6
1537919530139899,-1,-2,-3,-5,-5,-13,0,-3
1537919530154859,-1,-2,1,3,-1,2,15,0
1537919530154859,-3,-3,-1,-5,-2,0,3,-2
1537919530163836,2,-1,1,1,1,-2,-12,-2
1537919530163836,0,0,-4,-2,1,0,8,-1
1537919530178796,0,-3,-9,-3,0,-2,-26,-4
1537919530178796,-1,0,4,-1,-1,9,26,1
1537919530179794,0,-3,0,0,0,-6,-20,0
1537919530179794,-2,1,-3,-3,-2,11,11,-1
1537919530192758,2,2,0,0,0,-22,7,3
1537919530192758,-3,-1,-2,3,-1,-13,-34,-3
1537919530199740,-1,0,-6,-7,-4,13,14,-4
1537919530199740,-3,-2,-1,-1,0,-1,-20,-3
1537919530215698,0,0,0,-4,0,4,9,2
1537919530215698,2,0,1,1,-1,-1,9,1
1537919530217694,-1,0,6,2,0,15,-13,-3
1537919530217694,-2,0,2,2,0,-10,-27,-3
1537919530238637,-2,-1,0,-2,-2,1,-3,-2
1537919530238637,0,-2,0,-3,0,-1,25,1
1537919530244620,0,0,-4,-3,-6,-4,-15,-1
1537919530244620,0,-1,-3,-2,1,-7,1,2
1537919530252599,-1,-2,1,0,-2,-3,-7,-1
1537919530252599,3,1,-2,-1,1,8,26,3
1537919530260578,-17,-4,-2,-1,0,6,5,-7
1537919530260578,14,1,0,-1,-1,-12,-28,4
1537919530283517,1,1,2,1,1,7,-4,0
1537919530283517,-1,-2,-3,-3,-5,-6,-32,-3
1537919530285512,-4,-3,-4,-7,-4,3,-27,-5
1537919530285512,7,2,2,1,1,-3,47,7
1537919530298477,6,-1,0,4,3,-2,-17,-2
1537919530298477,12,0,0,-4,-5,-19,-53,-5
1537919530300471,-6,-1,3,10,27,9,-42,-4
1537919530300471,4,8,3,4,20,29,-36,-8
1537919530320417,10,15,1,-4,18,-77,94,5
1537919530320417,-7,-5,-3,10,-15,114,55,18
1537919530321415,-16,-25,-28,4,45,-106,-38,-27
1537919530321415,17,8,17,-32,-92,106,22,40
1537919530335377,14,-23,-28,-3,78,27,-78,-48
1537919530335377,-45,13,49,35,-12,73,3,-4
1537919530336374,22,31,-11,-67,-79,105,87,43
1537919530336374,7,-26,-40,22,123,-76,-89,-2
1537919530357318,19,0,25,-22,-128,60,33,60
1537919530357318,-59,28,-27,-34,-5,-28,-5,-48
1537919530358315,-1,-24,36,91,100,127,-26,-9
1537919530358315,1,52,18,0,-56,-58,85,-74
1537919530380257,-1,-69,-51,-28,32,91,-75,24
1537919530380257,-54,82,34,38,93,17,-31,-55
1537919530381255,35,-38,-20,-58,-128,-128,-12,-29
1537919530381255,-43,-92,-33,10,127,127,49,13
1537919530395217,-64,57,-44,52,111,-68,33,89
1537919530395217,127,94,99,-2,-107,-98,2,73
1537919530396215,-76,-26,-24,-35,11,-30,-28,22
1537919530396215,2,-8,26,8,-18,-85,2,-15
1537919530418156,-30,-49,-11,49,102,-33,18,-69
1537919530418156,-15,-56,-69,-91,-57,-96,-41,-22
1537919530418156,64,59,16,21,70,60,14,63
1537919530418156,51,-10,-13,-12,24,71,20,49
1537919530440098,-11,21,22,1,-20,87,13,-24
1537919530440098,24,-44,-21,20,38,-19,15,12
1537919530441096,-6,-16,16,13,-14,-31,-3,-33
1537919530441096,-57,-14,1,-5,-23,-40,-28,-36
1537919530455058,13,37,24,-17,-56,-40,-11,-20
1537919530455058,0,-45,-15,4,-11,11,7,-1
1537919530456057,-16,21,6,-10,-32,9,8,-20
1537919530456057,0,10,1,17,0,-5,-8,9
1537919530477996,4,0,21,-2,-38,-20,9,-1
1537919530477996,0,-18,-21,-8,3,9,13,9
1537919530477996,-5,-3,-8,3,25,-8,8,4
1537919530477996,-6,16,1,-4,-23,-24,-6,5
1537919530499937,14,-5,9,-15,-22,2,-8,-10
1537919530499937,-15,-11,-9,3,34,23,4,-5
1537919530500934,4,2,0,14,21,9,0,-2
1537919530500934,0,7,4,-4,-24,-4,-11,1
1537919530514896,-4,9,1,-16,-20,8,-4,-10
1537919530514896,3,-16,-10,10,36,21,6,9
1537919530515894,-3,0,1,4,-3,-7,12,1
1537919530515894,0,10,-3,-10,-23,-16,-10,4
1537919530537835,-2,-5,4,-3,12,-3,-22,10
1537919530537835,-2,-11,-8,0,0,-2,-15,18
1537919530538833,2,-1,1,1,1,2,-1,-6
1537919530538833,-11,7,1,-2,-5,-4,-5,-19
1537919530559776,3,-1,1,-2,-3,1,9,-31
1537919530559776,-1,-9,-4,1,4,2,4,-27
1537919530560774,-3,5,-2,1,5,10,1,-13
1537919530560774,-1,1,3,1,-2,-4,-11,4
1537919530575734,2,0,3,-3,-11,-5,25,13
1537919530575734,-1,-3,-4,0,5,1,7,16
1537919530575734,0,1,5,6,5,1,14,13
1537919530575734,-4,2,1,1,-6,0,8,6
1537919530597675,1,-2,10,0,-9,-12,-16,3
1537919530597675,-3,0,-18,-8,11,11,-32,-5
1537919530598673,-1,-3,-5,1,2,-8,-18,-9
1537919530598673,0,-1,-11,-1,-1,13,66,10
1537919530620614,2,4,17,1,-6,7,35,-1
1537919530620614,0,-5,6,7,5,2,15,1
1537919530620614,-8,3,7,-1,-5,-7,-17,-7
1537919530620614,6,2,-14,-7,-4,-4,-54,-3
1537919530635574,0,2,3,5,1,3,4,1
1537919530635574,-1,-4,-18,-11,2,1,6,-3
1537919530635574,-3,-1,2,0,-2,-10,-13,-3
1537919530635574,-6,0,8,0,-3,-2,3,-9
1537919530657515,1,-2,-5,-2,-1,-1,-37,-6
1537919530657515,-5,-4,5,-1,0,-3,-19,-3
1537919530658513,19,-1,-6,-2,4,7,15,3
1537919530658513,-14,-3,1,8,51,17,-68,-8
1537919530680454,-9,-6,-31,-4,23,-75,8,-11
1537919530680454,7,-26,29,-5,-85,28,-47,5
1537919530681451,-27,14,26,46,108,85,66,9
1537919530681451,-12,18,-26,-40,-73,-87,-14,-44
1537919530695414,-4,10,25,2,-41,99,102,102
1537919530695414,-29,-13,8,14,118,29,-77,-63
1537919530696412,-85,-105,-104,-65,-106,-27,-39,-109
1537919530696412,77,90,108,41,-34,-35,-2,21
1537919530717355,30,-20,-13,-24,23,58,14,7
1537919530717355,-29,28,-19,39,96,-10,-36,-22
1537919530718353,-37,-2,-15,-45,-128,-44,85,9
1537919530718353,-23,-117,-69,-4,127,42,-7,-33
1537919530740294,2,62,3,80,43,33,-104,-124
1537919530740294,-6,18,19,-68,-99,23,24,56
1537919530741291,28,-24,27,21,127,-32,-28,51
1537919530741291,-97,-86,-63,-24,28,-16,37,-11
1537919530755254,78,79,116,1,-59,-24,-4,-40
1537919530755254,-67,-102,-63,37,121,8,15,8
1537919530756251,73,127,40,55,66,16,-17,81
1537919530756251,42,-41,-29,-58,-28,87,-3,44
1537919530778193,-110,-45,-15,17,127,110,-17,-6
1537919530778193,-5,-14,-4,4,31,101,44,-3
1537919530778193,46,5,24,9,8,48,14,36
1537919530778193,12,11,9,23,-10,-14,3,-11
1537919530800134,-6,2,-32,-23,-45,-62,-13,1
1537919530800134,24,11,14,-10,-76,-75,34,-5
1537919530801131,-2,-27,-3,-3,-30,-32,-29,-32
1537919530801131,4,49,13,9,-55,12,10,-4
1537919530815094,-10,-48,-30,-24,-43,-89,-11,7
1537919530815094,29,17,16,6,3,-30,20,9
1537919530816091,4,1,-9,-13,-25,-1,-7,-20
1537919530816091,-10,18,5,-3,-8,-17,-11,10
1537919530838033,7,-8,-3,-9,-6,4,9,27
1537919530838033,25,11,-3,2,-3,-12,10,0
1537919530838033,-10,12,-3,-3,-3,9,-17,-15
1537919530838033,-4,5,15,13,16,16,4,1
1537919530859974,2,-24,-20,-13,11,-2,-4,5
1537919530859974,12,18,-3,-8,-21,0,15,-1
1537919530860972,-11,-19,-7,-10,-8,-2,-3,-11
1537919530860972,1,7,11,10,16,4,6,6
1537919530874934,7,-8,-12,0,11,-4,-45,3
1537919530874934,2,8,-2,-4,-12,-16,-47,2
1537919530875931,-2,0,6,-2,-4,5,-17,-3
1537919530875931,2,4,4,8,8,1,13,-15
1537919530897873,-3,-1,-10,-11,-6,-6,16,-13
1537919530897873,5,2,6,-3,-7,-2,24,-9
1537919530898870,-1,-8,-2,4,12,4,-3,-5
1537919530898870,-1,8,2,2,-8,4,1,13
1537919530919814,-3,-9,-7,-6,-3,-6,11,16
1537919530919814,6,2,1,1,4,-4,11,12
1537919530920812,0,-1,0,0,-1,1,6,0
1537919530920812,-4,3,0,0,-1,-2,-1,3
1537919530934774,1,-4,-2,-2,-3,2,6,4
1537919530934774,4,1,-3,2,3,-2,10,-2
1537919530935772,-3,2,-2,-3,1,5,-5,-6
1537919530935772,-1,2,3,0,-15,-6,-2,-3
1537919530957713,-1,-6,-4,-2,6,1,0,0
1537919530957713,3,3,-2,-1,-4,0,10,-3
1537919530958710,-4,-4,1,0,0,-6,-5,-4
1537919530958710,0,0,0,0,4,10,-8,0
1537919530980651,0,-2,-2,1,10,-6,4,-2
1537919530980651,0,0,0,-2,-14,9,3,-5
1537919530981649,-1,-1,-1,-1,0,7,-1,-4
1537919530981649,-1,0,0,2,7,1,-3,0
1537919530995612,-3,-4,-6,-6,-16,-12,-1,0
1537919530995612,0,0,1,6,24,14,1,2
1537919530995612,1,-1,-1,-4,-12,-25,-6,-6
1537919530995612,1,1,-1,-1,-4,16,-1,-3
1537919531017553,-2,-4,-2,-2,2,10,1,0
1537919531017553,-6,0,-1,-3,-15,-22,0,-4
1537919531018551,9,0,-2,-1,5,-4,0,6
1537919531018551,-1,0,1,0,6,-21,-11,-1
1537919531041490,1,-3,0,-1,-2,30,6,0
1537919531041490,-3,-3,0,0,12,16,3,-2
1537919531041490,-5,1,-1,1,2,3,-2,-4
1537919531041490,0,-1,-1,-1,-9,-13,-2,1
1537919531055452,1,-2,-3,-2,1,-10,-9,1
1537919531055452,2,0,-2,-3,-7,-3,12,1
1537919531056449,-3,0,1,1,0,6,2,0
1537919531056449,0,0,0,-1,-4,6,8,0
1537919531077393,-1,0,0,2,2,-6,-17,-3
1537919531077393,1,1,0,3,-4,-6,-10,2
1537919531078390,-2,-1,-1,-2,-5,-15,-12,-3
1537919531078390,-4,-1,-2,-2,2,20,8,-2
1537919531101329,1,-1,-1,-1,3,3,9,0
1537919531101329,1,-1,-1,-4,-13,-13,3,1
1537919531101329,-3,-3,-2,-4,-5,7,4,-1
1537919531101329,-2,-1,-2,0,-2,3,12,0
1537919531115292,-3,-3,-2,-2,-3,-2,-8,-1
1537919531115292,2,-1,2,3,4,-10,-24,-3
1537919531116289,0,-1,0,3,8,19,3,-2
1537919531116289,1,0,-1,-3,-2,-6,4,-1
1537919531138231,-1,-2,-1,-2,-3,-4,5,-1
1537919531138231,-1,-1,1,1,3,-4,3,1
1537919531138231,-2,-2,-2,-4,-6,11,15,-1
1537919531138231,0,-2,-3,-4,-2,5,-9,-1
1537919531161169,2,4,2,4,4,-18,-30,-2
1537919531161169,-1,0,-1,0,4,5,0,-1
1537919531161169,-1,-1,-2,-2,-3,-3,2,-1
1537919531161169,0,0,1,2,1,1,5,-1
1537919531175132,-1,-1,-2,-4,-4,1,13,1
1537919531175132,0,-1,-1,-2,-3,0,-5,0
1537919531176130,1,-4,-7,-1,-1,5,26,0
1537919531176130,-2,2,11,0,1,-24,-36,-1
1537919531198071,-2,-2,3,1,-3,18,14,-2
1537919531198071,0,0,-3,-1,-2,-1,-5,-1
1537919531198071,-1,0,0,0,2,3,-9,-2
1537919531198071,0,-2,-7,1,1,-6,-3,-2
1537919531221011,-1,-2,-3,-1,-2,-12,-15,-3
1537919531221011,-1,1,3,2,1,14,24,2
1537919531222008,-3,-2,-2,-6,-3,-9,-2,-1
1537919531222008,0,-1,2,3,-1,-7,-36,-3
1537919531234972,-2,-2,-9,-6,-2,-13,-2,0
1537919531234972,0,-2,-10,-2,1,32,36,0
1537919531235971,-1,1,5,1,3,-1,6,0
1537919531235971,-2,-1,-8,-3,1,7,33,-1
1537919531257911,1,0,2,3,2,-7,-17,1
1537919531257911,-1,-2,-3,-5,-5,-17,-22,-3
1537919531258909,0,-1,3,0,-3,-3,-19,-2
1537919531258909,-2,0,6,-1,0,10,-10,-2
1537919531280850,-2,-2,-4,-2,-3,5,54,2
1537919531280850,1,1,-2,1,4,-18,-23,1
1537919531281848,-1,-1,-1,0,0,12,19,2
1537919531281848,-2,-2,-4,-4,-3,-11,-17,-2
1537919531294813,-1,0,10,5,5,4,-30,-4
1537919531294813,0,1,0,-1,-2,-8,-4,-1
1537919531302792,-2,1,-4,-4,-4,-33,-14,0
1537919531302792,-1,-5,-1,2,-1,16,-16,0
1537919531317752,-1,0,-1,-1,2,13,52,2
1537919531317752,-1,-1,4,-1,-1,10,-22,-4
1537919531318751,1,2,0,2,5,6,15,-1
1537919531318751,1,1,-2,0,1,-25,-5,1
1537919531340691,0,0,3,0,-4,-6,7,2
1537919531340691,-2,-1,0,-1,0,4,-1,-1
1537919531341689,-2,-2,-2,-1,-4,-15,-2,-3
1537919531341689,-1,-2,0,0,2,9,4,-2
1537919531354654,-3,-1,-4,-4,-3,5,-5,-4
1537919531354654,-4,-3,-5,-3,-1,1,32,-3
1537919531362634,2,-2,0,-4,-1,-4,-32,-1
1537919531362634,0,-1,1,3,2,1,17,1
1537919531377591,0,0,-1,-3,-5,-21,-13,-2
1537919531377591,-3,-2,-5,-2,0,34,11,0
1537919531378588,-2,-1,0,1,0,7,-7,-3
1537919531378588,1,1,3,-1,-1,7,12,1
1537919531400529,-3,-2,-10,-5,-5,-24,-10,-3
1537919531400529,1,1,2,2,-1,-2,-10,0
1537919531401527,-1,-1,-3,1,-1,-9,-17,0
1537919531401527,-1,-2,1,-3,-3,20,-8,-3
1537919531414492,2,1,3,6,4,5,5,0
1537919531414492,2,-1,2,-1,-2,-20,1,3
1537919531422471,0,-1,0,0,-2,0,-5,-1
1537919531422471,-1,-1,-4,-3,-4,-26,-10,-2
1537919531437431,-2,-3,1,-1,2,13,-10,-3
1537919531437431,-1,-2,1,-2,-2,7,9,0
1537919531438428,-3,-2,-1,0,-3,4,2,-2
1537919531438428,-1,1,0,0,-2,-11,-2,-2
1537919531461367,2,-2,-4,0,-1,-5,-17,0
1537919531461367,0,2,3,1,-2,-8,30,2
1537919531461367,0,-3,0,-2,-1,3,-4,0
1537919531461367,3,0,-3,-2,0,-1,7,1
1537919531474333,-1,0,1,-1,-1,8,-7,1
1537919531474333,-1,-1,-6,0,0,-26,-37,-2
1537919531482312,-4,0,0,-3,-2,6,8,-3
1537919531482312,-1,0,-3,-2,0,-5,-14,-3
1537919531497271,-2,1,2,-1,-1,17,9,1
1537919531497271,2,-2,-6,-2,-1,-9,7,3
1537919531498268,1,-1,-3,0,-1,4,29,0
1537919531498268,0,0,-1,0,1,-19,-32,-3
1537919531521207,-2,0,-3,-2,-5,0,19,0
1537919531521207,-2,-2,8,-1,-2,-6,-30,-4
1537919531521207,-7,-4,-3,0,-1,25,-55,-13
1537919531521207,6,3,-1,-2,3,25,83,25
1537919531534172,6,1,2,2,0,-3,1,13
1537919531534172,1,1,2,1,3,0,70,8
1537919531550129,-1,1,0,0,-1,-8,-34,-5
1537919531550129,-5,-5,-7,-2,-3,-10,-36,-12
1537919531558108,-5,-4,-2,-4,-5,-7,-64,-13
1537919531558108,-3,-3,-3,-5,-4,-7,36,-3
1537919531558108,2,1,4,1,2,8,13,9
1537919531558108,0,0,-5,-1,0,14,12,2
1537919531581047,0,-2,-5,-5,-2,-10,7,2
1537919531581047,-3,-3,1,-4,-4,-2,-56,-10
1537919531582044,-3,-2,1,-1,-3,-22,-44,-6
1537919531582044,0,2,3,2,2,-2,-9,1
1537919531595009,-1,-2,1,-2,-1,16,11,-3
1537919531595009,1,1,-1,-1,-2,-24,-31,2
1537919531602988,4,3,6,5,6,9,44,12
1537919531602988,-2,-4,-3,-7,-3,12,3,-4
1537919531617948,-4,-3,-3,-2,-4,-6,-12,-5
1537919531617948,-5,-3,-6,-1,-4,-2,-19,-9
1537919531618947,0,0,1,-3,-2,-18,-58,0
1537919531618947,2,6,0,3,5,20,34,-12
1537919531648867,0,-1,1,3,2,-4,53,6
1537919531648867,1,0,-10,-1,-1,-7,-7,0
1537919531648867,-4,-4,1,0,-1,8,16,-1
1537919531648867,-4,-3,0,-3,-4,-16,-23,-5
1537919531663828,-1,2,0,-2,-2,-1,-6,-3
1537919531663828,-4,-1,-1,-1,-2,6,-17,-5
1537919531663828,-2,-4,-7,-3,-4,-23,-25,-7
1537919531663828,5,3,3,1,3,3,20,14
1537919531677789,-2,-2,-3,-3,-4,-13,-10,-5
1537919531677789,1,0,3,1,3,15,26,10
1537919531678786,2,2,-1,5,7,26,-17,-3
1537919531678786,-2,-2,2,1,-3,-22,-14,-7
1537919531700727,-1,-2,-7,-6,-1,23,34,-6
1537919531700727,-1,-1,1,-3,-5,-9,-12,-2
1537919531701724,-1,-2,2,-2,-1,-14,-11,-1
1537919531701724,-2,0,3,-2,-5,-16,-43,3
1537919531723666,4,5,-2,7,3,-2,-19,1
1537919531723666,-2,-5,-7,-4,-3,-11,-18,-4
1537919531724663,-2,-3,-4,-1,0,41,36,-1
1537919531724663,-4,-2,1,-2,-5,-16,12,-4
1537919531737628,0,3,8,1,1,0,-27,5
1537919531737628,4,2,1,3,6,23,33,8
1537919531738626,-7,-2,-2,-3,-7,-23,-33,-14
1537919531738626,-1,-1,0,-2,0,11,37,-1
1537919531760568,1,1,0,0,-2,-22,-12,-5
1537919531760568,1,-1,-2,0,2,5,12,2
1537919531761565,1,6,2,-3,-9,-45,-20,-10
1537919531761565,-20,-8,0,-3,-2,29,46,-1
1537919531783506,27,5,9,-2,-4,6,-71,4
1537919531783506,8,-12,-20,-1,6,35,60,12
1537919531784503,8,2,2,4,3,-9,22,10
1537919531784503,-10,2,0,0,0,-25,-17,-9
1537919531797468,-16,-4,-2,-3,-4,-4,-22,-4
1537919531797468,10,5,3,2,-4,-4,-56,0
1537919531798466,-11,-5,9,-9,-7,20,75,-15
1537919531798466,-17,15,-4,3,1,-33,-52,18
1537919531828387,52,-1,-2,-4,-4,-4,12,9
1537919531828387,-17,-8,-8,1,-2,-17,-29,-7
1537919531829385,-14,-6,-4,4,4,43,60,8
1537919531829385,10,0,-5,-4,21,17,-39,-24
1537919531843347,-69,0,1,5,22,-30,12,-12
1537919531843347,35,10,-3,-15,-15,-30,-4,5
1537919531844346,30,-21,1,7,-5,43,-22,22
1537919531844346,24,-5,6,15,44,19,9,23
1537919531857310,61,-6,-2,-4,1,30,-2,-10
1537919531857310,-75,-17,-14,-22,19,-31,-14,-13
1537919531858307,-80,11,21,-1,-114,83,-7,34
1537919531858307,40,-2,-26,25,112,-72,-46,-44
1537919531881246,-17,-12,19,-18,-86,79,103,15
1537919531881246,-58,-52,0,10,62,-71,-46,-18
1537919531881246,125,86,18,0,66,59,-4,-34
1537919531881246,58,-25,-1,-22,-128,-91,31,42
1537919531903188,-102,24,4,32,101,98,-3,-17
1537919531903188,-23,-103,-70,-27,-76,72,20,44
1537919531905183,32,66,3,3,89,53,-17,18
1537919531905183,-117,-44,74,10,-78,-40,-16,-34
1537919531917149,12,113,54,3,-25,-74,-41,-54
1537919531917149,-30,18,-11,12,39,28,16,-12
1537919531926125,-44,-68,-54,5,42,-49,20,61
1537919531926125,12,72,-41,-26,-11,86,-9,-29
1537919531941085,26,-81,-26,-6,-16,-65,8,78
1537919531941085,0,30,37,8,6,-24,-7,-47
1537919531948066,-61,-75,-40,-20,-61,-33,14,-41
1537919531948066,-1,-19,2,0,10,11,13,11
1537919531963026,-25,-20,-7,-4,-13,-19,-10,-22
1537919531963026,42,27,15,16,17,18,-2,5
1537919531965020,15,2,13,-10,-24,-53,1,-12
1537919531965020,-10,-9,-11,2,17,28,9,10
1537919531976988,11,8,-8,-3,21,11,-8,4
1537919531976988,18,13,20,0,-38,8,-15,0
1537919531985965,-1,-5,-3,2,8,-39,2,-2
1537919531985965,-4,15,10,1,6,37,33,4
1537919532000924,6,-21,-28,3,1,-3,-13,5
1537919532000924,25,23,13,-2,-11,-6,10,10
1537919532001922,-18,-4,-4,0,-7,-31,-21,-17
1537919532001922,4,-3,5,7,18,16,-11,6
1537919532023863,4,-9,-33,-29,-19,-12,4,-2
1537919532023863,6,11,14,2,-5,-2,-9,-1
1537919532024860,2,4,3,1,10,0,6,-4
1537919532024860,-3,-10,-8,-4,-10,11,2,0
1537919532036828,-1,-6,9,1,-2,-12,-21,2
1537919532036828,4,16,10,3,-7,-9,-22,-6
1537919532045804,3,-7,-8,-2,0,-10,61,-1
1537919532045804,5,-1,1,3,8,36,8,8
1537919532060764,-14,-2,-4,-2,-1,6,-5,-4
1537919532060764,18,6,1,5,5,-11,-17,12
1537919532062759,6,-2,15,5,-9,-26,-21,-4
1537919532062759,-24,-7,-11,-12,-14,-30,-55,-8
1537919532083703,20,7,6,4,25,71,118,3
1537919532083703,-5,-5,-35,-22,-18,-10,-23,-8
1537919532084700,-2,-1,6,-2,-5,-37,-78,-17
1537919532084700,9,9,-1,0,9,46,98,24
1537919532096668,-9,-22,-5,4,-8,-24,-36,-5
1537919532096668,13,7,20,13,9,-1,24,13
1537919532105644,-9,-12,-5,-6,-3,6,11,-12
1537919532105644,-4,2,-8,-4,-1,-20,-56,-5
1537919532120604,-9,4,2,-1,-8,6,3,-9
1537919532120604,1,-13,6,0,2,2,-57,6
1537919532122599,-2,13,1,3,9,-26,54,10
1537919532122599,1,-1,3,4,-1,11,-45,-10
1537919532143543,3,1,-4,-3,3,-8,25,0
1537919532143543,-8,1,4,-2,-7,5,14,-11
1537919532145538,-5,-10,-11,-5,-7,13,-16,-10
1537919532145538,6,1,-1,-4,-1,12,36,7
1537919532157506,-6,-10,-8,-4,-5,-47,-119,-10
1537919532157506,9,9,9,5,8,26,119,21
1537919532166482,-1,5,8,10,-2,8,-24,2
1537919532166482,5,0,-15,-17,4,-18,-19,-1
1537919532181442,3,1,-1,-4,-6,-6,-15,-5
1537919532181442,-10,11,-1,0,-1,7,-12,-14
1537919532182439,13,10,-8,-7,8,5,2,5
1537919532182439,-44,-53,-4,19,69,25,-4,-10
1537919532203383,30,9,-15,-3,2,11,-18,-9
1537919532203383,-5,0,51,16,40,79,49,39
1537919532205378,-70,28,-24,-1,87,8,-42,-49
1537919532205378,20,9,30,-9,-105,26,87,33
1537919532226322,-35,-73,-37,-3,60,-75,24,18
1537919532226322,71,-88,-74,12,-14,-74,-34,-4
1537919532227319,-92,57,96,-35,-128,8,-18,-33
1537919532227319,77,-51,17,-18,-42,-113,-6,36
1537919532241282,-57,127,32,20,46,33,-32,-9
1537919532241282,5,-103,19,45,-14,-52,-38,20
1537919532242279,95,28,35,-15,-25,73,5,11
1537919532242279,-72,-32,-105,-33,85,24,12,20
1537919532263223,2,54,103,33,39,114,58,62
1537919532263223,-106,-14,-26,-15,16,-68,-57,-24
1537919532265218,37,34,-47,20,11,-11,2,-11
1537919532265218,-82,-36,24,-2,-31,23,6,-67
1537919532277186,1,-48,-41,-13,-20,-18,-33,-27
1537919532277186,6,-19,-20,-5,38,32,21,-32
1537919532286162,10,16,12,-11,-70,-4,10,-10
1537919532286162,-6,-3,-24,1,-7,-11,-15,30
1537919532300124,39,6,-26,-2,-20,-37,-7,-21
1537919532300124,32,59,33,-15,-51,3,7,1
1537919532307105,6,-70,-28,-4,26,-29,1,21
1537919532307105,6,18,-5,19,33,2,-27,-7
1537919532323063,19,-17,13,2,-37,-6,3,-7
1537919532323063,-4,42,16,-12,-18,22,14,7
1537919532325058,-14,-43,-13,14,45,-10,-11,20
1537919532325058,11,35,7,2,-2,7,-14,-31
1537919532337026,1,-13,8,0,-27,-12,24,13
1537919532337026,-15,12,-46,15,5,7,13,-14
1537919532346002,-22,-20,36,-23,36,-14,9,14
1537919532346002,28,26,34,-2,-24,-6,-1,-2
1537919532359964,0,-26,-18,-10,-13,-20,-10,0
1537919532359964,-9,16,7,-10,0,16,-13,-5
1537919532366946,14,-8,-9,31,6,-21,-31,12
1537919532366946,12,13,0,-8,-1,-2,-23,-5
1537919532383900,-14,-27,-8,-7,-2,-18,10,-2
1537919532383900,-1,24,12,4,1,41,-28,-12
1537919532384898,-8,-18,-8,2,-3,-16,-1,7
1537919532384898,12,12,4,3,4,0,68,0
1537919532396865,-8,-13,-11,6,-1,-37,-21,3
1537919532396865,4,11,2,-18,-16,13,67,-1
1537919532405842,-3,-14,-21,-3,2,0,-10,-3
1537919532405842,1,4,1,11,10,0,-62,-8
1537919532419805,-8,-1,2,-2,-10,11,8,-3
1537919532419805,5,10,10,-10,-5,-37,12,4
1537919532426786,-2,-10,-11,0,10,26,46,6
1537919532426786,2,7,5,8,1,-14,-8,-7
1537919532443740,-4,-7,-4,-9,-12,0,-43,-4
1537919532443740,-12,1,4,-9,0,-4,11,-1
1537919532444738,-11,-11,-14,4,4,-3,23,1
1537919532444738,4,4,11,4,-2,0,-57,-3
1537919532456706,8,-4,-2,-4,-2,-16,30,-1
1537919532456706,-3,2,-5,-3,2,34,5,0
1537919532465682,6,0,3,9,7,2,-36,-3
1537919532465682,0,7,7,-4,-6,2,9,-1
1537919532480642,3,-9,-14,-2,-1,-15,17,3
1537919532480642,-4,1,-5,-1,1,-11,-16,-5
1537919532486627,-1,-4,-2,-1,-4,16,32,4
1537919532486627,-2,-3,0,0,1,0,-14,-5
1537919532503583,-4,1,1,1,1,5,-8,0
1537919532503583,1,3,4,-4,-4,-6,4,-1
1537919532504580,1,-5,-5,0,-1,-23,-14,2
1537919532504580,-2,0,0,5,2,3,5,-1
1537919532517543,5,0,-1,-5,-7,6,10,2
1537919532517543,0,2,-3,-4,-2,14,9,0
1537919532525522,0,-1,0,-1,0,-23,-22,-1
1537919532525522,1,1,-7,2,4,5,4,2
1537919532540482,-4,-2,2,0,-2,33,15,-2
1537919532540482,0,1,1,0,6,-23,-37,-4
1537919532547463,-2,-2,-5,2,0,1,20,1
1537919532547463,-1,0,9,1,-1,-3,23,-2
1537919532563420,1,-1,2,0,0,4,-14,-1
1537919532563420,-4,0,-1,-4,-3,-4,-9,-1
1537919532564418,2,-3,-4,-1,-5,-8,11,1
1537919532564418,-1,-2,-5,-1,0,-8,-2,-4
1537919532586360,-2,-2,0,-3,-1,-3,-6,-2
1537919532586360,0,3,4,3,1,1,-6,-2
1537919532587357,1,-2,-4,0,3,-1,-8,0
1537919532587357,-2,-6,-8,-3,-4,10,-19,-3
1537919532601319,-4,-3,13,1,-6,-32,17,-8
1537919532601319,6,1,-9,-10,0,-19,-8,10
1537919532602318,2,2,-4,4,10,35,11,1
1537919532602318,-1,0,0,3,-1,2,0,0
1537919532623261,-1,-2,-5,-1,-2,-3,-19,-5
1537919532623261,-4,-2,3,-1,-4,-5,-8,-7
1537919532625256,-1,-1,3,-2,-3,-5,3,1
1537919532625256,0,-2,-3,-3,0,-5,-4,-1
1537919532646200,-1,0,-1,2,1,11,2,-1
1537919532646200,0,-1,-2,0,-2,3,6,-1
1537919532647197,0,-2,-4,-5,-2,-6,-15,-1
1537919532647197,1,4,-1,-1,-2,-1,13,-1
1537919532661160,1,-6,4,0,1,7,-7,1
1537919532661160,-10,-2,-4,-1,2,5,4,-2
1537919532662159,3,-1,-1,0,-2,-6,-5,5
1537919532662159,-1,-1,0,0,-3,-11,-2,-3
1537919532683103,3,1,-6,-6,-2,-16,2,0
1537919532683103,3,-1,-1,0,0,17,-13,-2
1537919532685098,-3,-3,3,0,-2,2,4,-3
1537919532685098,-2,-2,-1,0,1,-3,4,0
1537919532706040,-1,0,-3,-1,-1,5,-4,-1
1537919532706040,0,-1,1,2,1,-10,3,0
1537919532707037,-1,1,-2,-3,-4,-7,0,-1
1537919532707037,0,1,-3,-1,-1,-4,2,2
1537919532730973,-3,-2,-3,-2,-3,9,4,0
1537919532730973,0,-1,2,-3,-6,-2,-8,-6
1537919532732968,1,-1,0,-1,-2,-13,15,2
1537919532732968,-2,-4,-10,-5,8,46,-49,4
1537919532734962,4,3,2,6,6,-5,31,0
1537919532734962,2,2,0,0,-3,-6,17,8
1537919532744935,-1,0,1,2,-1,-3,2,-3
1537919532744935,-3,-2,9,-1,-5,-10,7,-5
1537919532758898,-2,-4,-2,-2,-1,8,-20,-4
1537919532758898,1,-1,-1,-1,1,-3,-2,0
1537919532759896,-2,-4,-3,-4,-2,0,-8,-6
1537919532759896,-2,-1,-3,-1,-5,-6,-1,-1
1537919532780840,-1,-1,-1,-1,2,7,-27,-1
1537919532780840,0,2,3,3,2,3,29,-2
1537919532782835,-2,-1,-2,1,0,7,-2,0
1537919532782835,0,-3,-3,-1,0,-9,12,-3
1537919532794803,-1,-3,-1,-2,-3,-55,-28,0
1537919532794803,-2,-1,-4,-3,-3,44,-22,-5
1537919532803779,2,2,3,1,4,10,56,4
1537919532803779,1,2,0,-1,-3,-9,14,-1
1537919532809763,-2,-2,0,-1,-1,14,8,-3
1537919532809763,-1,0,0,2,0,-26,-16,2
1537919532818739,-2,-3,-1,-4,-3,3,-15,-4
1537919532818739,-2,-1,1,-1,-4,-9,3,-2
1537919532831703,-1,0,-4,1,-1,0,6,2
1537919532831703,0,-1,-1,0,0,1,-7,-3
1537919532840679,-2,-1,-2,-1,-2,-10,-14,-2
1537919532840679,-1,-1,-1,0,2,-9,6,1
1537919532854642,-1,-3,-3,-4,0,15,-5,-4
1537919532854642,-1,-2,-2,0,-3,-9,6,2
1537919532863618,-2,-2,-2,2,-1,5,-5,-3
1537919532863618,-1,-1,-4,-4,1,-4,-5,0
1537919532878578,0,3,0,0,4,11,10,4
1537919532878578,-2,-1,10,1,1,-3,-2,-1
1537919532879576,1,1,2,2,-4,-21,-26,-1
1537919532879576,2,0,2,2,-2,6,30,1
1537919532892541,1,-1,-2,-6,-7,11,11,-3
1537919532892541,4,-2,-5,0,4,2,29,4
1537919532900520,-1,-1,-1,-2,-3,-42,-34,-5
1537919532900520,-1,0,2,5,5,38,-4,-1
1537919532914483,-1,0,-2,-2,-1,-8,-20,0
1537919532914483,0,-1,-1,-3,-3,1,15,-3
1537919532923459,-2,-1,-1,-2,0,11,11,1
1537919532923459,0,1,-2,-2,-2,-22,-7,0
1537919532938419,-2,-2,-1,-1,0,-10,-8,-3
1537919532938419,-2,1,-2,0,0,3,-20,-3
1537919532940415,2,-2,-3,1,3,1,3,3
1537919532940415,-2,-2,0,0,-1,-4,3,-1
1537919532952382,-3,-1,-1,-2,-6,3,-1,-2
1537919532952382,0,-1,-1,0,0,1,3,0
1537919532961358,0,-1,-2,-3,-2,7,-6,-2
1537919532961358,0,1,0,-1,0,6,14,2
1537919532974324,-1,-1,-1,0,1,7,10,-1
1537919532974324,-2,-2,0,0,0,-2,-6,0
1537919532983299,-3,-1,-2,-1,-3,-1,-3,0
1537919532983299,1,-1,0,-1,-2,-11,-33,-4
1537919532998260,1,-1,-1,3,4,16,42,0
1537919532998260,1,0,-2,0,-3,-34,-41,-4
1537919533000254,0,-1,-1,-1,2,16,9,-2
1537919533000254,-2,-2,-3,-3,-3,-5,2,-2
1537919533012221,-1,1,0,0,1,1,-4,2
1537919533012221,0,-1,1,-3,-1,17,15,1
1537919533021197,0,0,-1,-2,1,-10,23,3
1537919533021197,-1,-1,0,-1,-3,-12,-3,-1
1537919533034162,-2,-2,-1,1,-1,6,-8,-1
1537919533034162,-4,0,-4,0,1,-3,-1,-2
1537919533043139,-1,1,-1,-1,-1,-8,-15,-2
1537919533043139,-1,-1,0,-1,0,5,7,-1
1537919533058098,0,1,0,-2,-1,6,0,2
1537919533058098,-2,0,1,1,-1,-6,-6,-1
1537919533060093,0,0,-1,-2,-2,8,0,-1
1537919533060093,0,1,1,3,0,-4,-1,-1
1537919533072061,0,-2,0,-1,-2,-8,-5,1
1537919533072061,1,-1,-2,-2,0,2,1,-2
1537919533081037,-2,-2,2,2,1,-1,-11,-3
1537919533081037,0,-2,-3,-4,-2,0,-1,2
1537919533094999,-1,0,4,-3,-2,-4,6,0
1537919533094999,0,-2,-2,-3,-4,-3,-5,-2
1537919533110957,0,-1,-2,1,0,12,-7,-1
1537919533110957,-3,-1,-1,-3,-1,7,-21,-7
1537919533119934,1,-1,-2,0,-2,-8,1,0
1537919533119934,-1,-1,-1,-1,-3,13,8,2
1537919533120931,-2,-3,0,1,-3,-18,-5,0
1537919533120931,-1,0,-1,-3,-3,8,3,-2
1537919533131901,-3,-1,-1,0,-2,-18,-5,-1
1537919533131901,-1,-1,-2,0,-1,25,-38,-4
1537919533140878,0,-1,1,0,-1,0,70,1
1537919533140878,3,1,-8,0,0,-1,-4,1
1537919533154840,-2,-1,0,0,0,-6,-1,-3
1537919533154840,-4,-3,0,0,-2,-4,4,1
1537919533163818,2,2,-6,-4,-1,-5,-59,-7
1537919533163818,1,-1,-2,-5,-4,-45,-32,-5
1537919533178778,-19,1,-2,0,2,29,32,-3
1537919533178778,17,2,-13,1,19,3,-5,-3
1537919533179776,-36,-7,-3,9,56,13,-17,3
1537919533179776,8,8,7,3,-24,-30,17,11
1537919533191742,57,10,1,9,45,49,-51,3
1537919533191742,-41,-97,-44,-7,37,-44,0,6
1537919533200717,61,89,56,-11,-70,-21,22,13
1537919533200717,-29,-43,-20,3,87,91,12,-14
1537919533214680,-11,-43,-65,11,89,-128,-49,-28
1537919533214680,-15,95,91,-21,-66,94,82,67
1537919533223656,-27,-128,-113,-45,36,-75,-42,-23
1537919533223656,-43,127,40,1,27,-17,14,-17
1537919533238616,-38,-58,-16,8,15,-2,-15,-25
1537919533238616,98,69,81,42,127,102,-7,54
1537919533239613,-56,-1,43,4,-103,-109,-16,-36
1537919533239613,34,-128,-98,-35,-72,1,0,4
1537919533252578,-32,88,38,-1,-55,88,31,15
1537919533252578,-45,-62,-60,-10,-31,-61,-30,-57
1537919533260557,-11,11,-5,0,19,51,22,55
1537919533260557,7,-16,-10,12,50,1,0,7
1537919533274520,16,-9,3,-10,-28,-11,11,5
1537919533274520,-10,0,-3,-6,-43,-45,-5,-25
1537919533283497,17,7,6,9,23,33,8,-8
1537919533283497,-2,8,18,7,-14,-19,1,3
1537919533298457,5,-7,12,-7,-22,-10,0,5
1537919533298457,-14,-1,-9,-2,-19,-22,-7,-16
1537919533299455,11,-2,-6,14,36,34,19,4
1537919533299455,12,4,8,3,-13,-7,-6,5
1537919533312420,-3,5,14,-11,-15,0,5,2
1537919533312420,5,-13,-11,7,13,-14,-29,-8
1537919533321396,10,1,-16,4,10,24,-3,-4
1537919533321396,1,8,13,5,-5,9,83,11
1537919533334361,10,-1,-2,-1,7,-2,10,11
1537919533334361,-5,-9,-18,-1,-6,-14,23,-3
1537919533343337,6,3,18,7,1,8,-28,-3
1537919533343337,-10,1,15,-8,-9,-2,-40,-9
1537919533358297,-5,-2,25,14,0,-20,9,-1
1537919533358297,7,-10,-32,-10,0,6,-10,-2
1537919533360292,30,16,12,0,2,35,33,-5
1537919533360292,-5,-7,-20,-5,13,-37,-29,15
1537919533372260,4,-7,-16,-5,0,21,18,4
1537919533372260,-10,0,10,2,-13,-29,56,-6
1537919533387219,-5,-3,1,2,4,-9,-26,-2
1537919533387219,0,-2,10,3,-3,2,-40,-6
1537919533394200,-3,-3,-1,0,-7,5,43,-3
1537919533394200,1,3,-8,-4,-4,-16,-19,3
1537919533403176,-4,-10,-13,-4,6,21,65,1
1537919533403176,5,10,12,3,-4,5,-25,-4
1537919533418135,-12,0,-6,-2,2,-28,30,2
1537919533418135,0,-39,5,3,0,21,7,-6
1537919533420131,5,43,16,-4,-4,-30,-102,-5
1537919533420131,2,22,-5,-3,-1,21,29,5
1537919533432098,6,-24,-28,-4,-3,-10,-43,-5
1537919533432098,-20,-7,-17,-22,-10,-1,18,-2
1537919533441075,12,15,-2,10,9,20,1,4
1537919533441075,-21,-19,7,5,0,-8,-44,-7
1537919533455037,15,11,-2,-2,7,32,60,11
1537919533455037,2,9,-1,8,-2,-20,-52,-5
1537919533463016,-8,-15,0,-7,-6,-32,-58,-8
1537919533463016,9,5,-4,0,9,66,85,13
1537919533477976,0,3,6,-5,-8,-14,-37,-5
1537919533477976,-4,18,-1,2,2,0,-2,-13
1537919533479970,0,-19,-21,-6,12,-7,0,10
1537919533479970,3,-54,-15,8,55,14,-53,-30
1537919533491938,4,24,9,3,-10,-3,59,4
1537919533491938,-49,11,35,11,32,-5,-30,-4
1537919533500914,72,-47,1,9,19,-71,17,1
1537919533500914,-66,60,23,-32,-117,74,12,-9
1537919533514877,-19,-79,-11,7,103,83,-50,-34
1537919533514877,-2,-79,-61,17,88,-74,7,-45
1537919533523853,-64,80,76,-43,-89,125,59,61
1537919533523853,32,-76,-48,-1,52,-127,2,-18
1537919533537816,-71,71,92,35,66,-38,-53,1
1537919533537816,5,-69,-25,-23,-107,2,-2,6
1537919533544797,6,32,-57,36,127,25,-25,-57
1537919533544797,-51,45,30,5,18,75,1,-7
1537919533551778,94,-65,-34,-28,-106,34,28,55
1537919533551778,-13,15,15,4,37,1,0,-7
1537919533560754,-93,-122,-90,-21,-32,-49,22,-6
1537919533560754,-5,93,78,21,46,53,-7,1
1537919533574717,-59,-77,-2,11,18,-52,-21,-18
1537919533574717,-7,98,34,-3,-55,46,10,2
1537919533583693,69,-7,13,-5,-33,17,2,2
1537919533583693,1,-35,-45,-1,11,-56,2,18
1537919533597656,-10,1,-26,-14,-28,5,1,-10
1537919533597656,46,6,26,2,-25,-26,-60,8
1537919533604637,-40,-1,-13,7,12,-4,39,-15
1537919533604637,20,-23,1,5,-7,-18,64,9
1537919533628573,19,36,34,6,-24,-15,2,13
1537919533628573,12,-2,-22,-12,-2,-1,-82,-12
1537919533629571,0,-12,-26,-10,17,39,97,22
1537919533629571,16,18,38,18,-17,-47,-127,7
1537919533642536,37,18,-65,-29,-10,11,89,8
1537919533642536,-30,42,-16,-25,9,-30,-96,-12
1537919533650514,18,-42,2,-2,0,39,-55,0
1537919533650514,-11,-9,23,11,-29,-57,-22,-10
1537919533665474,-10,-8,-94,-16,8,-29,-124,-17
1537919533665474,14,33,56,10,5,48,115,9
1537919533667469,-11,2,26,6,-21,-68,-53,-4
1537919533667469,11,-39,-17,4,5,47,31,6
1537919533687416,-6,3,2,10,8,-33,-50,2
1537919533687416,-14,-33,-24,-5,-7,-22,-20,-12
1537919533696392,26,23,14,0,-12,27,66,1
1537919533696392,14,-6,-17,-10,2,-19,3,22
1537919533702376,-21,7,26,-3,-9,7,34,-18
1537919533702376,28,-1,0,3,1,4,-20,7
1537919533711352,-21,7,16,12,7,-19,27,-4
1537919533711352,8,-8,-16,-10,-5,-15,-37,-3
1537919533726312,0,9,10,-6,-8,24,14,-4
1537919533726312,2,-18,-9,2,7,16,19,14
1537919533727309,1,5,12,7,2,-48,-44,-3
1537919533727309,-1,-4,-16,-7,-12,7,16,-1
1537919533748253,1,0,17,5,23,42,-2,0
1537919533748253,4,-7,-3,0,0,3,23,8
1537919533750248,-8,3,3,-1,-5,-19,-24,-1
1537919533750248,0,-3,-5,-12,-9,-6,14,-8
1537919533762216,1,7,12,4,1,-4,-22,2
1537919533762216,2,-7,-3,3,9,6,17,12
1537919533771192,0,6,1,1,-1,-4,-12,-1
1537919533771192,3,-4,-5,0,4,-3,4,-5
1537919533786152,5,3,7,0,-5,1,-19,-8
1537919533786152,-5,-5,-9,-1,3,3,27,0
1537919533787150,-3,-2,5,4,-3,-16,-29,0
1537919533787150,1,-3,-9,-5,2,27,35,10
1537919533808093,-1,4,15,-4,-8,-27,42,4
1537919533808093,5,-2,-2,3,0,-3,14,11
1537919533810088,0,3,3,1,6,25,-13,-4
1537919533810088,2,-5,0,3,-1,-11,-5,-5
1537919533822056,1,2,0,1,-7,-21,-4,-7
1537919533822056,-8,-9,-12,-10,0,8,16,-3
1537919533831032,-6,12,5,1,-2,2,-12,0
1537919533831032,-3,-4,-6,-3,-1,-7,-7,0
1537919533845992,0,-1,2,-2,-8,-12,-13,-1
1537919533845992,4,-7,3,3,-1,17,15,4
1537919533846989,-4,-5,-5,0,7,14,-14,-3
1537919533846989,-6,1,2,-3,-8,3,7,-7
1537919533867933,1,-1,0,1,2,-10,-21,2
1537919533867933,0,0,2,2,1,-8,2,0
1537919533869928,0,0,-2,-2,-3,-9,15,-2
1537919533869928,0,-2,-5,-3,-2,5,64,-4
1537919533881896,4,2,3,0,-1,5,-14,7
1537919533881896,-2,0,-1,2,2,19,-6,0
1537919533890872,1,-2,4,-4,-8,-3,-10,-2
1537919533890872,0,-1,0,1,1,-12,-20,-7
1537919533905833,-2,-2,-7,-4,-2,6,-15,1
1537919533905833,0,0,-1,0,-2,-25,13,4
1537919533907827,-1,-2,-3,-1,-4,-21,8,-2
1537919533907827,-2,-1,1,1,8,59,-45,-4
1537919533928772,-2,-1,8,6,-1,-10,19,-3
1537919533928772,3,2,-11,-8,-3,6,-2,3
1537919533929771,2,-1,-2,-4,1,-7,-1,2
1537919533929771,2,-1,-4,-6,-12,-28,-10,-2
1537919533941738,-4,-1,2,-1,-3,11,-7,-5
1537919533941738,-11,-13,2,4,1,-7,-4,-5
1537919533950713,8,4,-3,-1,-1,13,0,0
1537919533950713,2,2,-5,0,0,-7,-1,0
1537919533965673,-1,1,4,2,0,-6,-8,-7
1537919533965673,-3,-3,-3,0,-2,-15,-16,2
1537919533967670,-3,-3,-7,-4,5,42,-21,1
1537919533967670,1,-2,1,1,2,-10,20,0
1537919533988613,1,1,-5,-3,-3,-9,-10,0
1537919533988613,1,1,-1,0,-4,-12,0,-4
1537919533989609,-3,-2,-1,-1,-4,2,-5,-6
1537919533989609,2,1,1,-1,0,-2,-4,-1
1537919534002575,-2,-1,-4,-5,-3,-1,8,3
1537919534002575,0,0,-1,2,0,10,-40,-5
1537919534010555,1,3,10,2,3,-18,50,3
1537919534010555,-1,-3,-10,-3,2,10,0,9
1537919534025513,-1,-2,-2,-2,-4,-1,-1,-1
1537919534025513,3,0,-3,1,1,7,-15,1
1537919534027508,-3,-3,1,-1,-3,-4,-1,-7
1537919534027508,-2,-1,1,3,-2,-10,-5,-5
1537919534049448,0,-2,-3,-1,-2,7,-6,0
1537919534049448,2,1,1,-1,1,-2,16,-1
1537919534051443,-2,-4,-3,-2,-1,2,15,-3
