timestamp,emg1,emg2,emg3,emg4,emg5,emg6,emg7,emg8
1537907170065962,-7,-31,15,1,-1,-2,-2,-2
1537907170065962,-6,-11,-25,-13,-2,-2,0,-2
1537907170066960,5,25,-10,2,1,1,1,2
1537907170066960,1,-4,-5,5,4,2,-1,-1
1537907170071947,-5,1,10,-4,-5,-1,0,-1
1537907170071947,1,-2,-5,7,1,1,-3,0
1537907170072943,-2,-3,23,2,-3,-2,-1,-4
1537907170072943,0,6,-5,-10,-2,-3,-2,-2
1537907170079925,1,-5,-12,-5,3,1,0,-1
1537907170079925,-1,5,13,21,3,-1,0,0
1537907170087904,-3,1,4,-15,3,-1,-2,2
1537907170087904,-1,-10,-1,19,-8,-3,-1,-3
1537907170094885,2,8,-16,-32,-5,-2,-1,2
1537907170094885,-1,-10,22,-6,0,0,-1,-2
1537907170108848,3,-7,-27,16,4,1,-5,-21
1537907170108848,-5,0,29,-4,-4,-1,4,23
1537907170119818,3,3,-35,8,1,0,0,1
1537907170119818,1,-4,-21,-3,-2,0,0,0
1537907170132783,0,18,40,-12,-4,-1,-3,-4
1537907170132783,-2,-17,-4,4,5,1,-2,-6
1537907170139764,1,6,10,6,0,-1,-1,-2
1537907170139764,-1,1,-4,-5,-4,-2,-2,2
1537907170153727,-3,-26,-23,-15,-6,-1,1,7
1537907170153727,2,29,-13,-19,-1,-1,-4,-9
1537907170194618,-1,-5,1,8,-2,0,-1,0
1537907170194618,-1,-10,20,3,1,-1,-1,-1
1537907170200602,-3,5,-20,-4,-5,-2,-3,0
1537907170200602,1,-1,-22,1,1,-2,-1,1
1537907170200602,-3,-3,25,-2,0,-1,0,-2
1537907170200602,1,-6,-58,-17,0,-1,1,1
1537907170202597,0,0,28,12,1,-1,0,-2
1537907170202597,-3,-8,1,-6,-1,0,0,0
1537907170205588,-1,2,6,-4,-6,-2,-1,-2
1537907170205588,0,11,19,8,0,0,0,2
1537907170214565,-1,-7,-11,-6,3,0,-1,-1
1537907170214565,-1,-4,-2,-2,-4,-1,0,-2
1537907170220549,1,5,-4,5,2,0,0,0
1537907170220549,-1,4,2,-7,-8,-2,-7,-20
1537907170237504,0,7,-6,6,1,-1,-3,-1
1537907170237504,-1,-1,15,0,-1,0,-1,-4
1537907170243488,1,-8,-33,5,1,0,-1,9
1537907170243488,-1,23,43,-6,-3,-2,-3,-9
1537907170266426,-3,-20,-63,-14,-3,0,1,0
1537907170266426,1,4,19,-1,-1,0,0,1
1537907170267424,-2,-4,-33,-4,3,-1,-3,-6
1537907170267424,0,0,3,11,1,0,0,5
1537907170281386,0,-3,9,-5,-2,0,1,1
1537907170281386,-1,3,12,-2,-2,0,0,3
1537907170282384,0,-5,-2,-2,-2,-1,0,-2
1537907170282384,1,-4,-8,5,3,-1,0,4
1537907170304325,-2,3,23,0,-1,0,-2,1
1537907170304325,0,2,-19,14,5,-2,-1,-2
1537907170304325,-3,-1,10,-11,1,-1,-1,-2
1537907170304325,-4,-13,-8,-4,-2,1,1,3
1537907170326266,3,5,39,13,2,-2,-1,-3
1537907170326266,-2,1,-37,-23,-8,-2,-1,-2
1537907170327264,-2,-2,-19,0,2,3,-1,0
1537907170327264,0,-1,5,-2,0,-1,0,3
1537907170341227,0,3,8,-1,-4,-1,-1,0
1537907170341227,-5,-9,20,8,5,0,-1,-3
1537907170342224,2,14,17,2,-7,-2,0,-1
1537907170342224,-1,-12,-26,-4,-4,-2,0,1
1537907170364165,-1,13,18,7,0,-1,1,6
1537907170364165,-1,3,-7,-7,-1,-2,-4,-9
1537907170365163,-4,-21,-2,4,0,0,0,-3
1537907170365163,2,4,9,3,3,0,-1,0
1537907170395083,0,0,-18,-5,-1,-1,-1,-1
1537907170395083,0,-6,-2,4,-3,-1,-2,1
1537907170395083,1,5,2,2,0,-2,-1,1
1537907170395083,-2,3,17,-31,-11,-3,-1,0
1537907170401068,-2,-8,2,-6,0,0,0,-3
1537907170401068,1,-3,-53,-8,0,1,2,2
1537907170402065,-1,-4,20,2,-1,0,-2,-2
1537907170402065,1,-6,-2,9,0,0,0,1
1537907170424005,0,-2,20,0,2,0,-2,-1
1537907170424005,-3,5,7,2,-4,0,1,1
1537907170431984,0,3,2,5,-1,-2,-1,0
1537907170431984,-2,2,2,3,2,0,0,-1
1537907170446943,-1,-9,-28,-3,-1,-1,-2,-2
1537907170446943,-1,12,27,9,0,-1,-1,-1
1537907170446943,-3,-22,-20,-8,-2,-1,-1,-1
1537907170446943,-3,-3,-16,7,-1,-1,-3,-2
1537907170460906,2,7,7,-1,-1,2,1,1
1537907170460906,1,-4,16,1,-2,-3,-3,-1
1537907170461903,-1,6,9,-12,-2,0,0,-1
1537907170461903,-3,-6,-19,4,1,2,-1,-1
1537907170483844,-1,5,-7,-2,-2,-2,-2,-3
1537907170483844,1,-19,21,-2,1,-1,0,2
1537907170484842,0,11,-15,1,-2,-2,-2,-1
1537907170484842,3,2,17,4,2,-1,0,1
1537907170506783,-5,-13,1,9,-1,1,-2,0
1537907170506783,0,1,-10,-7,-3,-2,-1,0
1537907170506783,0,6,4,4,2,-1,-1,-1
1537907170506783,-1,-3,-8,-6,-2,-2,1,0
1537907170520746,0,0,3,-4,0,-1,-1,-2
1537907170520746,0,7,6,5,0,0,-1,-3
1537907170528724,1,2,0,-8,-5,-2,-2,-2
1537907170528724,-1,-11,-7,1,2,0,0,-1
1537907170543685,2,1,-1,-1,-1,-1,-1,1
1537907170543685,-1,0,-4,3,0,0,2,0
1537907170544682,-1,3,10,1,-1,0,-2,-1
1537907170544682,-1,7,-1,-9,-2,-2,-2,-1
1537907170566624,-2,1,-2,-7,-3,-1,-1,0
1537907170566624,-1,3,-11,-2,0,0,-1,-1
1537907170567621,0,-6,1,1,-5,-2,0,-1
1537907170567621,-2,-3,6,10,2,1,-1,-1
1537907170580587,0,-1,-10,-4,-1,0,-1,-2
1537907170580587,0,-2,4,-3,-1,-1,0,0
1537907170588565,2,9,1,1,1,0,0,0
1537907170588565,-3,-22,2,-2,-3,-2,-2,-3
1537907170603525,1,-1,-2,-1,0,-1,0,0
1537907170603525,-1,-2,3,0,1,1,-1,0
1537907170604522,-2,-7,-10,-11,2,1,0,-1
1537907170604522,1,17,0,14,-4,-1,0,0
1537907170626463,-2,-2,0,-3,-1,-1,-1,-2
1537907170626463,0,-19,4,-4,-4,-3,-3,0
1537907170627461,-3,12,-15,2,1,-1,0,1
1537907170627461,0,5,-4,-4,0,-1,-1,2
1537907170640426,-4,-23,-5,1,-1,-1,1,-3
1537907170640426,-3,8,13,-1,0,-2,2,0
1537907170656383,-3,-16,-24,-5,-2,-1,-2,-3
1537907170656383,2,-3,26,6,3,3,1,1
1537907170664362,-3,15,-13,12,1,-1,-3,-3
1537907170664362,9,20,-14,-2,-1,0,1,2
1537907170664362,-5,1,-4,12,10,4,1,-2
1537907170664362,0,-22,68,39,4,1,3,0
1537907170686303,-5,-4,-81,-50,-17,-12,-11,-6
1537907170686303,4,9,101,45,10,5,4,5
1537907170687301,1,19,-25,86,30,8,3,-1
1537907170687301,8,11,-12,-34,18,9,6,7
1537907170700266,-10,-15,25,-6,-22,-15,-11,-12
1537907170700266,1,32,20,-55,-40,-9,3,1
1537907170708245,1,-25,-90,10,-8,-3,1,0
1537907170708245,4,17,100,74,41,6,3,2
1537907170724203,-2,29,-19,-107,-56,-12,-6,-4
1537907170724203,1,-43,-86,41,43,12,6,5
1537907170725202,-7,-29,66,-112,-63,-12,-4,2
1537907170725202,6,45,-61,46,-9,-8,-2,4
1537907170746145,5,10,-24,3,25,16,8,8
1537907170746145,-11,-28,-17,16,5,0,-5,-7
1537907170747142,-2,-6,1,0,35,10,3,0
1537907170747142,-6,-32,-14,-18,7,1,-2,-4
1537907170761106,8,45,76,117,36,14,9,4
1537907170761106,-15,10,-44,-26,-55,-37,-18,-16
1537907170768086,10,5,-65,-3,21,9,6,8
1537907170768086,-12,13,94,-57,-66,-23,-13,-11
1537907170784043,2,-30,-89,-38,20,15,6,3
1537907170784043,-5,-23,93,22,17,12,8,1
1537907170785041,9,54,-57,-6,-5,0,-3,1
1537907170785041,0,-25,-73,74,40,2,2,1
1537907170805985,-3,-19,44,-66,-29,-12,0,3
1537907170805985,4,-8,-36,2,2,9,6,3
1537907170806982,-4,40,113,-12,-48,-28,-11,-8
1537907170806982,1,-18,-41,-40,30,20,5,6
1537907170828924,-2,-3,35,4,-15,-10,-3,-4
1537907170828924,2,-11,-52,-4,-8,-6,-3,1
1537907170829921,8,62,74,46,31,9,0,0
1537907170829921,-4,-2,-47,-37,-18,-2,-5,-4
1537907170843884,1,-14,-7,43,17,1,0,-1
1537907170843884,-1,22,50,14,1,3,0,0
1537907170844882,-3,-38,-49,0,6,-1,-2,-4
1537907170844882,-6,7,83,48,-12,-6,-2,-3
1537907170866821,4,0,-67,6,6,-2,-1,5
1537907170866821,-3,-31,-48,9,9,4,-1,0
1537907170866821,-5,-21,12,-21,-8,-5,-4,-1
1537907170866821,-6,1,-4,-26,-3,-3,-2,-5
1537907170888762,2,15,9,19,16,5,2,-1
1537907170888762,-3,-1,26,-8,0,-5,-4,-4
1537907170889759,-2,-23,84,18,3,-1,0,-2
1537907170889759,-1,-1,-128,-94,-43,-11,-4,-3
1537907170905717,-6,-19,78,48,11,5,0,-2
1537907170905717,5,18,-26,-16,-2,-4,-4,0
1537907170905717,-6,-23,-5,-28,-7,-2,-2,-1
1537907170905717,1,6,-11,13,2,1,-1,-1
1537907170926661,-3,-13,-2,-7,-6,-4,-1,-1
1537907170926661,0,15,-14,-27,2,-1,-1,-2
1537907170926661,-3,-7,-1,11,3,1,1,1
1537907170926661,-1,-9,-5,-2,-2,-1,-1,-1
1537907170948602,-1,17,3,10,7,3,1,-1
1537907170948602,0,0,20,-1,7,3,-1,-1
1537907170949599,1,5,-3,-1,-4,-1,0,0
1537907170949599,-1,-9,40,-1,-1,-3,-1,0
1537907170963562,-1,-8,-89,-20,-5,-1,-1,0
1537907170963562,-2,-19,27,1,1,1,-1,-1
1537907170964559,0,3,-8,-3,-5,-4,-1,-2
1537907170964559,-2,-17,-15,-9,-1,-2,-1,-2
1537907170986501,-3,-13,38,13,2,-2,-3,-3
1537907170986501,-5,-18,-5,-6,-3,0,0,-1
1537907170987498,5,11,-14,-1,2,2,1,0
1537907170987498,1,10,14,1,0,0,1,0
1537907171008442,-1,3,9,2,-3,-2,-1,5
1537907171008442,0,2,-24,-4,0,-1,-3,0
1537907171009440,-5,-8,8,-6,-2,-1,-1,-3
1537907171009440,4,12,-16,1,-2,-1,1,6
1537907171023402,0,-4,9,4,1,0,-1,-5
1537907171023402,2,23,4,-3,-2,-1,0,-2
1537907171024400,-2,-6,-4,-2,1,1,-1,0
1537907171024400,-2,3,-14,-13,-7,-3,-3,-3
1537907171046341,3,17,16,8,2,2,0,1
1537907171046341,2,30,19,0,1,0,0,2
1537907171047339,-5,-43,-22,-2,-1,-1,-2,-1
1537907171047339,-5,-24,-4,-4,2,1,-3,-9
1537907171069280,-2,-13,74,8,-2,-1,-1,-1
1537907171069280,4,46,-100,-11,-9,-2,-2,-3
1537907171069280,4,-15,6,1,2,0,0,6
1537907171069280,-1,-1,1,-4,0,0,0,2
1537907171084240,-1,9,19,2,2,0,1,0
1537907171084240,-6,-17,21,11,11,2,-1,-2
1537907171084240,-4,-19,-7,-23,-26,-11,-4,-4
1537907171084240,4,57,-16,8,5,1,1,3
1537907171106181,-1,-16,7,0,3,1,-1,-1
1537907171106181,2,-10,3,0,0,0,1,6
1537907171107179,-2,16,39,9,4,0,-1,-2
1537907171107179,-3,-11,-27,-11,-5,-2,-1,-3
1537907171129121,-5,-7,-26,-6,-7,-3,-1,-3
1537907171129121,-1,-7,-7,-2,4,0,-2,0
1537907171130120,0,-2,0,7,4,2,2,4
1537907171130120,-3,-12,17,4,-1,-2,-5,-8
1537907171144082,0,18,-15,1,-1,0,-1,-5
1537907171144082,3,-16,14,-2,-3,-2,-9,-18
1537907171145079,-6,10,-12,-1,1,-1,-2,-6
1537907171145079,6,3,-1,5,1,2,10,33
1537907171166021,-12,-11,-21,-13,-9,-8,-14,-23
1537907171166021,3,5,25,0,-1,0,-1,-3
1537907171174000,1,-9,-1,7,1,0,1,-3
1537907171174000,2,3,-11,2,2,1,4,4
1537907171188960,3,0,-13,1,0,0,1,0
1537907171188960,-3,-11,10,-6,-5,-5,1,5
1537907171189957,-3,0,7,0,2,-1,-1,-1
1537907171189957,-5,-14,-16,-9,-1,-2,-5,-11
1537907171211898,3,2,7,3,-4,1,3,6
1537907171211898,-1,4,-10,-1,0,2,1,-1
1537907171212895,-1,-10,-6,3,2,2,2,11
1537907171212895,-1,-28,8,12,6,-1,-9,-20
1537907171225861,-3,-5,0,-9,-12,-5,-1,2
1537907171225861,-3,2,1,-4,-2,-2,0,6
1537907171233839,7,27,7,0,0,-3,-3,-5
1537907171233839,-3,-7,7,1,-1,-1,0,3
1537907171248799,-2,-23,-16,-1,5,0,0,4
1537907171248799,3,-2,25,2,0,-2,1,3
1537907171249797,-3,-8,-27,-6,-2,-2,-1,-2
1537907171249797,1,27,-11,-3,-1,0,0,-3
1537907171271738,1,-5,-4,-1,3,1,0,3
1537907171271738,-5,-9,9,-1,-4,1,-1,-4
1537907171272736,-1,-6,-7,-1,-1,1,-1,-4
1537907171272736,-5,-6,5,-1,-4,0,-1,0
1537907171285701,7,16,48,7,2,3,1,2
1537907171285701,-5,-18,-70,-11,-2,-1,-1,-1
1537907171293680,0,-3,-8,-2,0,-1,-1,-1
1537907171293680,-3,1,0,-1,-4,0,0,-1
1537907171316618,-1,16,8,-2,-2,-4,-1,1
1537907171316618,-1,-12,17,4,-1,-1,0,-1
1537907171317616,1,8,-8,0,0,0,0,1
1537907171317616,-1,3,7,-3,-1,-2,-3,-1
1537907171332576,2,13,-8,0,2,1,0,2
1537907171332576,1,26,6,9,6,1,0,2
1537907171332576,-2,-14,8,5,0,-1,-2,0
1537907171332576,0,4,-11,-11,1,-2,-2,0
1537907171345541,-5,-32,1,-13,-11,-3,-2,-2
1537907171345541,0,-4,-7,3,-1,-2,0,0
1537907171353520,0,1,-46,-10,4,1,0,1
1537907171353520,-1,-5,16,13,-1,-2,-1,-2
1537907171368481,1,4,-20,-5,2,2,2,3
1537907171368481,-1,3,32,-3,-3,2,0,0
1537907171369479,-6,-2,7,4,-1,-2,0,2
1537907171369479,-3,-21,2,-1,1,-1,-2,-9
1537907171392417,0,7,-7,2,2,-2,0,-1
1537907171392417,-2,0,12,3,0,-1,-2,-1
1537907171392417,0,15,5,-3,0,-1,0,0
1537907171392417,-2,-8,-9,-6,-4,-1,-2,0
1537907171405382,-2,-13,25,1,0,2,0,-1
1537907171405382,1,-3,-61,-6,3,-1,2,1
1537907171414358,0,0,4,1,-2,-3,-1,0
1537907171414358,2,-4,8,1,-2,-1,-1,1
1537907171429318,-1,7,5,9,1,0,-1,-2
1537907171429318,2,10,3,-11,-5,-3,-1,1
1537907171429318,-5,-13,6,-4,-2,1,-2,-2
1537907171429318,2,4,18,-2,-4,1,2,2
1537907171459238,0,0,-27,1,2,-2,0,0
1537907171459238,-3,-6,0,7,3,0,0,-1
1537907171460235,-1,6,11,2,2,-1,-1,-3
1537907171460235,-4,3,12,-10,-12,-4,-1,-2
1537907171474197,1,-7,-39,-1,0,0,-1,1
1537907171474197,1,4,15,2,-1,0,0,1
1537907171475195,0,0,15,-3,-1,-1,-1,-2
1537907171475195,2,-10,-17,7,5,2,1,1
1537907171489157,-1,0,5,0,-5,-1,-1,0
1537907171489157,-1,-8,-21,-6,-4,-3,-3,-3
1537907171490154,0,5,17,6,2,1,-1,1
1537907171490154,2,13,-13,2,1,-1,-1,-2
1537907171512096,-6,-47,-6,-9,-2,-3,-1,-1
1537907171512096,1,27,15,4,4,0,-1,-1
1537907171513093,3,4,3,-2,-6,-1,-1,-1
1537907171513093,-3,10,9,6,2,-1,-1,-1
1537907171535034,3,10,-14,1,0,0,0,2
1537907171535034,-2,-14,7,7,3,0,-1,0
1537907171535034,-1,-3,-8,-16,-7,-3,-2,-3
1537907171535034,1,3,6,2,1,0,1,4
1537907171548000,0,6,-1,-2,0,-1,-4,-8
1537907171548000,-2,4,6,-3,-1,-2,0,-1
1537907171556976,-2,-6,3,6,2,-2,-1,-2
1537907171556976,1,-3,-18,-3,1,2,0,-1
1537907171571936,0,20,18,1,0,0,0,3
1537907171571936,-2,-1,2,5,-3,-2,-2,-2
1537907171573931,-2,5,-24,2,0,-1,-1,-4
1537907171573931,0,-2,0,-4,-1,0,0,0
1537907171594876,-1,5,8,1,1,1,0,-2
1537907171594876,0,-4,43,2,-2,-1,-1,-3
1537907171595874,-3,-3,-69,0,-1,0,0,0
1537907171595874,-1,-16,1,-8,-3,-1,-1,-1
1537907171618813,0,24,0,-7,-2,0,-1,1
1537907171618813,-1,-11,5,-4,-3,-2,-1,-1
1537907171620807,3,5,22,1,-2,1,1,-2
1537907171620807,-2,3,-10,5,1,-2,-2,-1
1537907171632776,-2,-9,0,0,-1,0,0,-1
1537907171632776,-5,3,-9,-4,-1,-2,1,0
1537907171632776,-1,-15,5,-1,1,0,0,0
1537907171632776,0,2,-2,1,1,-1,0,-1
1537907171646738,2,3,3,5,0,-1,0,0
1537907171646738,-2,-10,-12,-6,-1,-1,0,2
1537907171648733,0,-1,7,0,1,-1,-1,-2
1537907171648733,-3,3,-2,-4,-2,-2,-2,-2
1537907171660700,1,3,3,0,-1,0,-2,0
1537907171660700,1,-1,-35,-1,-2,1,-1,-1
1537907171668679,-2,-8,17,-1,0,-1,1,0
1537907171668679,-4,-11,3,1,-1,0,-1,-2
1537907171683639,-1,36,-1,0,-2,-1,-1,-1
1537907171683639,-2,-8,-4,-5,-2,-1,-3,-3
1537907171691618,-3,2,7,-1,-4,0,0,-2
1537907171691618,1,11,17,0,-2,-2,0,-1
1537907171706577,-5,-18,-33,-4,-4,0,0,-2
1537907171706577,-3,-5,9,1,0,0,0,2
1537907171707574,1,4,-12,1,1,-1,1,1
1537907171707574,-1,-3,1,3,3,2,0,2
1537907171720539,-1,9,14,0,3,1,1,1
1537907171720539,1,-2,3,2,0,0,-1,-4
1537907171728517,3,-3,-1,-11,-4,0,2,1
1537907171728517,2,-2,2,-1,-2,-1,-1,-1
1537907171743477,-1,3,7,12,4,0,0,-1
1537907171743477,-2,-18,29,-10,-3,-1,0,-2
1537907171751456,-3,10,-72,0,2,-1,-1,-1
1537907171751456,3,-9,14,-1,-11,-3,-1,1
1537907171766416,0,-8,-16,-15,-8,-4,-3,-1
1537907171766416,-3,5,35,35,16,5,2,-1
1537907171767414,2,18,34,56,11,3,2,1
1537907171767414,-6,-34,-73,-67,-12,-5,-3,-1
1537907171780379,-2,-14,38,18,8,3,0,1
1537907171780379,3,30,-35,-20,-17,-4,-2,2
1537907171788357,-2,-11,51,10,-4,6,0,-1
1537907171788357,2,-6,-8,42,23,7,6,4
1537907171803318,3,-14,-35,31,15,8,5,3
1537907171803318,3,11,5,-93,-35,-7,-1,0
1537907171811297,-4,-7,-91,34,13,-1,-5,-5
1537907171811297,7,21,95,42,24,12,8,7
1537907171826257,2,-4,-15,34,-15,-21,-7,-5
1537907171826257,-14,-5,-46,-13,-28,-17,-10,-9
1537907171827255,-3,5,103,67,9,4,-2,-4
1537907171827255,28,59,-99,-104,-8,1,5,15
1537907171841217,-13,-47,106,127,9,-4,-10,-7
1537907171841217,9,23,5,-65,-15,-7,-1,6
1537907171848199,-7,-23,39,-86,-49,-17,-11,-6
1537907171848199,-14,-17,18,80,26,5,-3,-10
1537907171863159,10,57,-46,-33,12,12,5,2
1537907171863159,-2,-21,22,82,27,3,-1,-1
1537907171871138,3,4,-18,14,21,8,2,2
1537907171871138,-5,5,-22,-29,-28,-7,-4,-7
1537907171886098,0,-20,-43,-62,5,3,1,2
1537907171886098,-7,-23,-16,9,8,4,4,-4
1537907171887095,9,18,3,19,19,2,3,5
1537907171887095,-14,-12,7,-42,-64,-25,-14,-10
1537907171901058,5,17,6,-16,-17,-5,-1,3
1537907171901058,-6,-28,-19,-3,11,3,-1,-3
1537907171908040,6,30,58,-59,-7,-2,0,2
1537907171908040,-5,5,121,28,5,0,-2,-6
1537907171922999,0,-23,-75,-37,13,9,3,4
1537907171922999,11,31,64,6,8,6,2,6
1537907171930977,3,12,-24,3,-10,-6,0,0
1537907171930977,-7,-33,20,26,13,-1,-6,-6
1537907171945936,-1,6,16,-15,-8,-4,-2,-4
1537907171945936,2,-9,-32,20,0,1,0,-2
1537907171946934,-6,-23,-21,-6,-11,-5,-2,-2
1537907171946934,5,16,-14,18,11,2,1,0
1537907171960896,-7,0,1,-22,-10,-5,-2,-3
1537907171960896,-1,-10,-12,15,-4,1,-2,-1
1537907171967877,-3,-4,9,-6,3,2,-1,-3
1537907171967877,-5,-19,-32,-8,-3,-1,-1,-3
1537907171982837,2,12,13,-2,-10,-5,0,5
1537907171982837,-5,-14,10,14,5,0,-5,-12
1537907171991813,-1,-15,-14,-10,-1,0,0,3
1537907171991813,-1,-2,-18,6,4,0,1,-1
1537907172014752,-4,-7,12,-1,-5,-3,-2,-4
1537907172014752,8,8,3,10,6,3,3,8
1537907172015750,2,20,-16,-12,-4,-2,-2,-4
1537907172015750,-4,-21,-15,3,-3,-3,-7,-26
1537907172020736,3,10,21,-1,-1,2,11,44
1537907172020736,-3,19,9,4,4,1,-14,-23
1537907172028715,-2,-15,-14,-2,-4,-3,3,13
1537907172028715,0,8,8,4,-3,-3,-4,-4
1537907172043676,1,5,-10,-4,2,1,-2,-11
1537907172043676,4,2,-6,3,0,-2,6,10
1537907172051655,-2,-20,-2,-1,-1,-3,-4,-8
1537907172051655,-4,11,4,5,5,0,-1,3
1537907172066616,3,15,28,8,1,0,-3,-7
1537907172066616,-5,-35,-44,-20,-5,-2,1,11
1537907172067613,0,6,6,-1,-2,-1,-2,-7
1537907172067613,-6,-27,-17,-5,2,2,2,6
1537907172080577,1,3,29,3,-7,-2,-2,-7
1537907172080577,-1,-19,-20,11,8,3,2,-2
1537907172088555,-2,35,-4,-11,-8,-2,-2,-1
1537907172088555,4,-11,9,1,1,1,2,6
1537907172103516,-2,-12,-8,-7,0,-1,-3,-8
1537907172103516,-1,14,14,1,5,2,0,1
1537907172111495,-5,-29,-5,4,-8,-4,0,1
1537907172111495,4,-14,-19,3,3,2,3,7
1537907172126454,-2,23,5,-1,2,-2,-5,-10
1537907172126454,-6,-15,-4,1,-4,-2,1,0
1537907172127453,3,11,5,2,4,0,1,2
1537907172127453,-3,9,-6,-10,-6,-2,-1,-3
1537907172140417,3,-25,-16,-4,-1,0,0,1
1537907172140417,2,16,6,2,-3,-3,0,-1
1537907172149393,-5,-24,-2,-1,1,0,-2,-3
1537907172149393,-4,9,1,2,1,-1,-2,-1
1537907172163356,0,0,-5,-4,0,-1,1,-2
1537907172163356,4,19,0,2,-3,1,3,8
1537907172171334,-2,-12,-10,-3,0,1,-2,-10
1537907172171334,-1,21,7,2,-1,-1,1,1
1537907172186294,-5,7,4,0,-1,1,-2,-4
1537907172186294,-4,-21,14,5,-2,-1,-2,-5
1537907172187292,0,23,-5,-7,-1,-2,-2,3
1537907172187292,3,10,-2,2,2,0,-2,4
1537907172200257,-5,-18,-7,-5,0,-2,-4,-3
1537907172200257,3,16,16,6,0,-1,0,2
1537907172209233,7,20,8,-1,1,0,2,4
1537907172209233,2,1,-3,-2,-3,-2,-1,0
1537907172223195,0,12,18,-1,-4,-3,-1,-3
1537907172223195,-3,-29,-32,-5,1,2,1,-2
1537907172231174,-1,-12,-3,1,1,0,-1,-3
1537907172231174,0,10,4,1,-1,-1,-1,-2
1537907172246134,1,-4,-11,-2,-2,0,-3,-4
1537907172246134,0,-2,8,-2,-1,-1,-2,-3
1537907172247132,3,-5,-3,0,1,-1,2,1
1537907172247132,2,20,3,5,0,2,1,1
1537907172261094,-1,-18,-5,-2,-1,1,1,0
1537907172261094,-6,-1,2,0,-2,-2,-1,-4
1537907172269072,0,7,3,-1,-1,0,1,0
1537907172269072,-4,-9,-3,0,0,-2,-1,-1
1537907172283035,-2,0,-4,-2,-2,1,1,0
1537907172283035,-2,22,5,0,0,0,0,0
1537907172291013,0,-3,6,2,-2,-3,-1,-1
1537907172291013,1,-4,-4,-4,-1,-1,-2,0
1537907172305973,-2,-2,-1,-3,-1,-1,-1,-1
1537907172305973,3,16,-9,0,0,0,3,5
1537907172306971,-5,-18,-14,-2,-1,0,-4,-2
1537907172306971,1,1,2,0,-1,-2,-1,-1
1537907172320933,-1,-17,-5,-1,0,-2,-3,-2
1537907172320933,-3,9,18,-3,-3,-3,-2,-3
1537907172328912,-3,-4,16,3,1,2,0,2
1537907172328912,-1,0,-35,-4,-1,0,-2,-2
1537907172342875,-6,-25,-9,-3,-1,-2,-2,-2
1537907172342875,-1,-4,17,0,-1,-1,-1,-2
1537907172351851,-1,-11,-3,0,1,1,0,2
1537907172351851,-1,-16,4,-2,-2,-2,-1,0
1537907172366811,3,14,-4,-1,-1,0,-1,-2
1537907172366811,-2,-20,-9,-2,0,0,-3,-1
1537907172366811,-4,0,11,-1,0,-2,2,-1
1537907172366811,0,7,8,0,0,0,-1,0
1537907172380774,-2,4,-12,0,0,0,0,2
1537907172380774,-1,-7,2,0,0,-2,0,0
1537907172388752,-2,11,-3,-1,-2,-1,-3,-3
1537907172388752,3,11,-1,0,-1,0,1,0
1537907172402715,-1,0,9,1,-1,-1,1,-2
1537907172402715,0,-2,-2,-2,-2,-1,-1,-4
1537907172411691,0,-7,0,-3,-1,1,1,1
1537907172411691,-1,9,-6,2,1,-3,-1,-1
1537907172425654,-2,5,6,-1,-2,-1,-2,-1
1537907172425654,2,9,-4,1,0,0,-2,0
1537907172434631,1,-12,20,1,-1,0,-1,-1
1537907172434631,-3,12,-11,-7,-2,0,-1,-3
1537907172440614,-1,-11,-18,-1,2,-1,1,1
1537907172440614,1,2,-7,-2,0,-2,-2,1
1537907172457570,0,2,-5,-1,-2,-3,1,-3
1537907172457570,0,-3,20,4,1,2,-1,-1
1537907172463554,-2,0,15,-1,-1,-2,-2,-2
1537907172463554,-2,8,-8,-3,-2,-2,0,-1
1537907172472529,-1,1,0,-1,-1,-1,2,2
1537907172472529,-3,-13,5,-1,-2,-2,-4,-8
1537907172485494,2,6,-10,-2,-1,-2,0,0
1537907172485494,0,-5,4,0,0,1,0,-2
1537907172494470,-2,0,-17,-3,-1,-1,-1,-1
1537907172494470,0,2,-1,-1,-1,-1,1,2
1537907172517408,3,8,1,-2,-2,0,1,-1
1537907172517408,-1,-20,3,1,0,-3,0,0
1537907172518406,0,8,-4,-2,-1,-1,-3,0
1537907172518406,-1,-14,-4,-2,1,0,1,1
1537907172531371,1,4,9,1,-2,-1,-2,-1
1537907172531371,-1,9,0,-1,-2,0,1,2
1537907172538352,-2,-5,-10,-1,0,-1,-1,-1
1537907172538352,-1,-8,3,-1,0,-2,-2,-1
1537907172554310,0,-2,-2,-1,-1,-1,-1,-2
1537907172554310,-1,0,-3,0,-1,-2,-1,-2
1537907172556304,-3,-12,-6,-1,0,1,-1,-3
1537907172556304,-6,-7,27,-3,-2,-2,-1,-2
1537907172584230,4,9,-50,2,4,1,-1,3
1537907172584230,1,4,24,10,1,0,-1,-1
1537907172586224,-1,-25,2,36,10,2,0,-1
1537907172586224,-2,28,-11,-50,-8,-1,1,-2
1537907172590214,-3,-13,-39,15,-7,-5,-4,-1
1537907172590214,2,-11,0,45,14,12,7,5
1537907172599190,-4,0,-2,-1,-16,-7,-6,-6
1537907172599190,-3,-5,3,21,28,11,6,0
1537907172614150,6,7,27,-89,-50,-16,-5,1
1537907172614150,0,7,-92,51,28,6,-1,-1
1537907172616145,-1,-8,36,55,8,4,3,1
1537907172616145,-3,-32,-11,-36,-36,-16,-9,-2
1537907172637090,2,46,25,48,26,12,2,-1
1537907172637090,3,-2,51,-19,-8,-5,-1,0
1537907172638088,-3,2,-55,0,24,8,1,-1
1537907172638088,2,-3,48,116,49,15,4,1
1537907172651053,-2,-9,3,-62,-42,-15,-3,-3
1537907172651053,-9,-28,-28,7,-4,-3,-6,-5
1537907172660029,11,25,-32,-9,-12,0,3,8
1537907172660029,0,-13,1,13,12,8,1,2
1537907172674988,-6,-11,108,68,10,2,-1,-4
1537907172674988,-2,5,-45,-72,-30,-13,-4,-5
1537907172675988,3,0,-66,-7,5,5,2,4
1537907172675988,7,-2,-9,-79,-4,0,2,5
1537907172696930,-9,-14,41,32,16,-4,-7,-5
1537907172696930,0,16,107,31,23,9,3,1
1537907172698926,-4,1,-72,-75,-55,-27,-10,-7
1537907172698926,-8,-13,63,10,-9,-7,-8,-6
1537907172710893,8,10,7,7,21,13,9,8
1537907172710893,6,25,3,-40,-12,-4,0,1
1537907172719869,-4,-10,31,47,21,5,1,-2
1537907172719869,1,4,-63,1,-6,0,3,1
1537907172734830,-5,-14,-66,-56,-10,-6,-3,-4
1537907172734830,1,43,103,29,2,-1,0,-1
1537907172735827,1,-28,-53,11,23,9,3,2
1537907172735827,1,6,-11,15,5,-2,-2,-1
1537907172756769,-9,-19,-59,-6,-19,-9,-4,-3
1537907172756769,8,23,-69,-15,5,3,1,3
1537907172758764,-7,0,69,-10,-16,-8,-5,-5
1537907172758764,2,16,-32,5,8,-1,0,-1
1537907172770731,0,-2,29,5,10,5,1,-1
1537907172770731,-9,-36,48,12,-13,-6,-3,-6
1537907172779707,0,12,-31,-29,-3,-4,-1,-2
1537907172779707,1,-19,11,5,-12,-2,0,0
1537907172794667,-1,6,-14,16,12,4,2,0
1537907172794667,-7,-14,-4,-25,-17,-6,-2,-4
1537907172795665,4,9,45,5,9,3,1,1
1537907172795665,0,8,-24,-7,-8,-4,0,-1
1537907172816608,-1,-16,5,10,-2,-1,-2,-1
1537907172816608,-1,-24,-32,-1,6,1,-2,-1
1537907172818603,-4,29,22,1,0,-1,-2,-2
1537907172818603,11,23,9,4,-10,-1,4,12
1537907172832566,-8,-18,-5,-6,2,0,-6,-7
1537907172832566,-3,-45,-36,0,-1,-1,-1,-6
1537907172847528,1,23,12,-5,-1,0,-1,-1
1537907172847528,-6,-20,5,-9,-12,-5,-4,9
1537907172854509,2,13,-5,8,9,2,-8,-37
1537907172854509,2,-3,-23,-4,-2,0,13,47
1537907172856503,-3,-3,27,-1,-4,-3,-1,-5
1537907172856503,-3,5,0,-3,-1,0,-2,-3
1537907172877448,1,-10,-7,5,4,1,4,6
1537907172877448,-2,8,-6,0,-3,-1,-4,-10
1537907172878446,-1,-7,38,-4,-2,-1,-1,-2
1537907172878446,-1,-27,-35,-4,-3,0,1,0
1537907172890413,4,23,-22,4,1,0,2,8
1537907172890413,5,27,10,-3,-5,0,-4,-11
1537907172899388,-3,-25,2,-1,-1,0,1,5
1537907172899388,-10,-14,53,4,-3,-2,-6,-17
1537907172914349,-4,-19,-61,-3,-1,0,3,7
1537907172914349,4,-6,-12,-2,2,0,1,3
1537907172916344,1,-25,1,0,0,1,-1,-5
1537907172916344,-4,32,13,5,-2,-5,-3,-5
1537907172944269,0,2,21,-2,-2,0,1,6
1537907172944269,-4,2,14,8,0,0,-3,-5
1537907172946263,1,-26,-25,-8,-1,0,2,-1
1537907172946263,1,3,-17,-2,-5,-3,0,-1
1537907172950252,0,4,22,5,1,-1,1,7
1537907172950252,-5,-8,-16,-6,-3,-2,-3,-8
1537907172959228,-2,16,19,8,-2,-3,-4,-5
1537907172959228,5,-4,-5,12,9,4,2,4
1537907172974187,0,15,7,-23,-15,-3,0,1
1537907172974187,0,1,8,8,3,3,0,0
1537907172976183,-2,-5,-1,-5,-1,-3,0,0
1537907172976183,-3,10,-15,1,2,-1,1,-1
1537907172997126,-6,-3,40,11,5,-1,-3,-2
1537907172997126,1,-11,-59,-13,-14,-5,-1,-4
1537907172998123,4,-12,26,2,2,2,1,7
1537907172998123,-1,6,-25,-7,-5,-2,-1,-2
1537907173011089,-4,-8,18,0,1,2,-2,1
1537907173011089,-5,-5,31,-2,-2,-2,-4,-6
1537907173020065,-3,20,-47,1,0,-1,-1,-2
1537907173020065,0,-9,7,-5,-4,-1,-2,-1
1537907173035025,-2,-7,-18,1,3,1,1,0
1537907173035025,4,29,10,6,6,0,1,-1
1537907173036023,-1,2,8,-3,-3,0,-1,1
1537907173036023,-3,-4,11,-3,-3,0,0,-4
1537907173056967,0,-3,-10,3,-1,-1,0,-1
1537907173056967,0,6,-7,-1,-1,-1,-1,-2
1537907173058963,0,-11,16,-5,0,0,0,-3
1537907173058963,6,39,0,-3,-1,0,1,1
1537907173070930,-1,-9,-10,4,1,0,0,1
1537907173070930,-3,-5,2,-1,-1,-1,-1,-4
1537907173079907,1,6,-16,0,-2,-2,-1,4
1537907173079907,-2,-7,22,0,-2,-2,-4,-8
1537907173094866,-5,-25,-12,-3,0,1,-1,3
1537907173094866,4,19,15,1,1,0,-1,1
1537907173095863,2,6,-4,-1,-2,-3,-1,1
1537907173095863,0,-6,51,3,-2,0,1,0
1537907173117805,1,6,-67,-1,1,-2,0,-2
1537907173117805,-3,-15,0,-4,-1,-2,0,0
1537907173123789,-10,-44,-17,-3,0,0,0,-4
1537907173123789,3,17,0,-1,1,-2,0,1
1537907173130771,4,7,30,5,0,0,0,0
1537907173130771,-3,-7,-3,0,1,0,-1,0
1537907173139746,1,19,5,-2,-2,0,0,-1
1537907173139746,-4,-16,-7,-1,-1,0,-2,-1
1537907173153708,1,11,9,-3,0,-1,-1,-2
1537907173153708,-3,-8,-18,-3,-1,-2,-4,-2
1537907173160691,0,15,17,1,1,0,0,0
1537907173160691,-1,-13,-24,-3,-2,-2,-2,0
1537907173176647,3,37,8,3,0,2,-1,0
1537907173176647,-1,-24,-1,0,0,-1,0,-1
1537907173178641,0,8,1,-1,-1,-1,-1,-2
1537907173178641,2,0,-13,-1,-1,-1,0,1
1537907173199585,-2,-6,1,-3,-2,-3,-1,-2
1537907173199585,1,18,7,-1,0,1,-1,-1
1537907173200583,-4,-6,4,2,-1,-1,-2,-1
1537907173200583,2,19,-7,0,0,-1,-1,0
1537907173213547,1,-24,6,-1,0,-1,-1,0
1537907173213547,-4,13,1,-1,-1,-3,1,1
1537907173220529,1,22,-7,-1,-2,-1,-4,-9
1537907173220529,0,-11,-13,-3,-3,0,-1,-2
1537907173237483,-4,-29,30,3,0,-1,-1,0
1537907173237483,-4,3,-40,-2,-1,-1,1,-1
1537907173238481,2,15,11,2,1,0,0,2
1537907173238481,-3,-2,0,-1,-1,-1,-2,-1
1537907173259425,1,12,2,1,0,1,-1,-1
1537907173259425,1,-13,-1,0,-3,1,0,-1
1537907173261420,0,-13,4,-1,-1,-1,0,-1
1537907173261420,-5,-19,-9,-1,-1,-2,-1,-3
1537907173273388,1,-4,-2,0,1,-1,0,0
1537907173273388,-1,5,5,-3,-1,0,-1,-2
1537907173282365,1,-7,-5,-2,-1,-2,-1,0
1537907173282365,2,-1,0,-1,-1,0,-2,1
1537907173297324,-1,17,-4,-1,1,-1,-1,-1
1537907173297324,2,-9,5,0,-1,-2,-2,0
1537907173298321,-3,-7,5,3,0,0,2,-1
1537907173298321,-3,-8,-10,-1,-2,-1,-1,1
1537907173319265,-2,-9,-3,-1,-2,-1,-2,0
1537907173319265,0,16,2,0,0,-1,-1,-2
1537907173321260,-4,-23,-6,-3,-1,-2,0,0
1537907173321260,-2,-5,-5,-3,0,-2,-2,-1
1537907173334225,2,-4,2,-1,-1,-1,0,1
1537907173334225,-1,-1,3,0,-2,-1,-2,-2
1537907173336220,-1,3,-5,-2,-2,-1,0,-1
1537907173336220,0,2,-1,0,0,1,0,-1
1537907173357163,1,-3,-2,-2,-2,0,-2,-1
1537907173357163,-3,-7,-2,0,0,-1,-3,0
1537907173358161,-2,4,0,0,0,-1,-3,-2
1537907173358161,2,-2,-1,0,0,-1,1,1
1537907173379105,-2,-3,-3,-2,0,-1,-2,-2
1537907173379105,-1,-3,2,-1,0,0,1,-1
1537907173381100,2,8,-2,1,0,0,0,1
1537907173381100,-1,-1,-5,-3,-2,-3,-1,-1
1537907173394065,-4,3,-2,-1,-3,-3,0,-1
1537907173394065,-1,8,3,0,-1,-1,-1,0
1537907173401046,-1,4,-6,-2,-2,0,0,-2
1537907173401046,-2,5,5,1,-2,0,0,-2
1537907173417004,1,16,-1,1,-1,0,-1,-2
1537907173417004,1,-15,-3,-1,-1,0,-1,0
1537907173418001,0,0,3,0,-1,-1,0,1
1537907173418001,-1,3,0,0,-3,-2,-2,-1
1537907173439943,-1,-6,-1,-1,-1,0,0,-1
1537907173439943,0,-2,0,-1,0,1,1,-1
1537907173440942,1,7,1,-1,-1,-1,0,-2
1537907173440942,-4,0,-1,-1,-1,0,-1,-1
1537907173453909,2,-10,3,-1,-1,0,0,2
1537907173453909,-2,-6,-2,0,0,0,-2,0
1537907173460888,-2,2,2,-3,0,-1,-1,-2
1537907173460888,-1,1,-6,-2,0,0,0,-1
1537907173476844,-1,-9,-1,2,2,0,-1,-1
1537907173476844,-3,-3,-2,-3,-2,-2,-2,1
1537907173478839,0,-2,1,-1,-3,-2,-3,-1
1537907173478839,-4,-4,0,1,-1,0,-2,1
1537907173499782,-1,-15,-10,-2,-1,1,0,0
1537907173499782,-1,2,1,0,-1,-1,1,-2
1537907173500780,0,22,12,4,1,-1,-1,0
1537907173500780,0,-14,-3,-1,-1,0,0,-1
1537907173513745,-1,-3,1,-1,2,1,2,-1
1537907173513745,-2,-17,-12,0,-1,-2,0,-1
1537907173520726,-2,-4,5,-4,-5,-2,-1,-1
1537907173520726,-1,-1,-19,-1,-1,-3,-1,-2
1537907173536684,-1,12,7,0,2,2,-1,-1
1537907173536684,1,4,38,3,3,2,0,-3
1537907173538679,-3,-10,-41,15,2,-1,-1,-1
1537907173538679,2,6,-26,-18,-5,-3,0,1
1537907173559625,-1,5,-2,-12,-6,-1,-3,-2
1537907173559625,0,-1,2,3,4,0,0,1
1537907173560621,-1,-8,6,17,6,2,1,1
1537907173560621,2,12,38,-10,-5,-3,1,2
1537907173573586,-1,0,-23,-6,-4,-5,-1,0
1537907173573586,0,10,12,-6,-6,-1,-1,-2
1537907173582561,0,-6,-1,3,2,1,0,-1
1537907173582561,-2,7,34,36,12,3,2,-3
1537907173597522,-4,-13,-28,-29,-8,-5,-1,-4
1537907173597522,7,33,-19,11,-2,-2,0,3
1537907173598520,-4,-18,2,-14,-1,-1,-1,0
1537907173598520,1,-11,-34,1,5,1,1,0
1537907173619463,1,22,39,10,3,2,0,0
1537907173619463,-2,-17,-5,5,-3,-3,-2,-3
1537907173621457,0,4,26,-8,-5,-2,-2,-1
1537907173621457,-1,-14,-38,-14,-5,-2,0,-2
1537907173633426,2,-5,6,18,3,-1,2,-1
1537907173633426,-2,-4,-49,-12,6,1,-2,-2
1537907173642402,0,6,35,4,-5,-1,-1,-2
1537907173642402,-3,-22,-41,-27,-18,-5,-3,-2
1537907173657362,2,3,-8,1,4,3,1,4
1537907173657362,0,2,51,-3,-4,-2,0,1
1537907173658360,1,-2,4,10,6,1,-1,-2
1537907173658360,-2,8,13,-6,-4,-4,-1,-1
1537907173679304,0,-3,2,1,-4,-3,-1,-1
1537907173679304,-3,-4,11,-2,0,0,-1,-1
1537907173681300,1,11,23,10,1,1,-1,1
1537907173681300,-1,-11,-59,6,8,4,0,-2
1537907173694264,2,-2,-57,-23,-1,-1,-1,3
1537907173694264,-5,0,11,-5,-5,-3,-1,-3
1537907173702244,1,7,17,3,0,0,2,0
1537907173702244,2,7,43,-2,-3,-1,0,-1
1537907173717202,-4,5,9,7,4,-1,-2,-3
1537907173717202,-2,-31,-22,-2,-4,-1,-1,0
1537907173718201,-3,-4,-23,-22,-6,-1,0,-2
1537907173718201,1,8,18,4,3,-1,-1,-2
1537907173739144,-1,-2,4,11,3,0,-1,-1
1537907173739144,-2,2,-10,-10,0,0,-1,-2
1537907173741139,-2,1,-10,6,-4,-2,0,1
1537907173741139,0,-5,10,6,2,0,-1,1
1537907173753107,-2,-1,10,-6,-5,-3,1,1
1537907173753107,-2,5,33,14,4,3,2,0
1537907173762084,2,-3,-77,-43,2,2,1,1
1537907173762084,2,9,51,43,6,0,0,0
1537907173777043,-3,0,-51,-28,-17,-7,-4,-4
1537907173777043,3,3,9,-14,6,2,1,1
1537907173778040,1,-6,-2,29,1,-1,1,-2
1537907173778040,-2,-3,3,-16,-7,-3,-3,-2
1537907173799980,-1,-2,5,2,4,4,-1,-2
1537907173799980,0,3,-6,20,2,-1,-3,0
1537907173800977,0,0,-7,31,26,8,2,1
1537907173800977,2,-1,5,-44,-17,-6,-1,-1
1537907173812945,2,5,36,-4,-6,-1,-1,0
1537907173812945,1,1,-12,-7,-2,1,0,-1
1537907173821921,0,-1,10,-3,1,-2,-3,-1
1537907173821921,0,0,-4,23,10,3,0,-1
1537907173836881,0,4,0,0,2,0,-1,-1
1537907173836881,-1,-9,-1,-2,-11,-3,-1,-2
1537907173838876,-2,-1,-5,-10,-7,-4,-3,-3
1537907173838876,-2,11,-3,2,3,1,0,0
1537907173859832,-4,-17,12,15,-1,-3,0,-3
1537907173859832,1,2,-8,0,2,-2,-1,-2
1537907173860817,-4,2,9,-6,-6,-3,-2,-2
1537907173860817,3,10,15,-9,1,0,0,3
1537907173872785,-2,-14,-20,-2,5,1,2,1
1537907173872785,-6,-10,-50,-15,2,-1,-4,-5
1537907173881761,-1,-2,7,2,-10,-6,-2,-6
1537907173881761,-2,2,14,-1,1,0,-1,-2
1537907173896721,2,7,16,-4,0,0,0,1
1537907173896721,-4,4,18,1,3,0,1,1
1537907173898717,0,-18,-43,-42,-20,-8,-4,-3
1537907173898717,2,1,5,14,3,2,0,-2
1537907173919661,-2,1,13,8,0,-1,-1,1
1537907173919661,3,2,-3,9,5,0,1,2
1537907173920660,0,2,0,1,0,2,1,0
1537907173920660,-4,-6,0,-14,-9,-5,-1,-1
1537907173933623,1,-1,-6,-2,-2,-1,-1,0
1537907173933623,-1,1,7,10,2,0,-1,0
1537907173942601,-2,9,7,25,6,0,0,1
1537907173942601,-1,-16,0,-6,-9,-2,-3,-3
1537907173956563,1,3,-17,2,-1,0,-1,2
1537907173956563,1,1,1,-9,0,1,1,1
1537907173958557,-5,-1,53,45,11,1,-1,-3
1537907173958557,-5,-1,-26,-68,-33,-11,-5,-8
1537907173979500,1,0,-30,16,9,2,1,0
1537907173979500,7,-1,1,-5,-9,-4,0,4
1537907173980498,2,0,-3,-12,9,4,2,4
1537907173980498,-9,-1,32,20,12,2,-1,-1
1537907173993463,-5,-2,-28,-9,-14,-5,-4,-5
1537907173993463,2,7,18,-26,-6,-1,0,-1
1537907174002439,6,2,11,-9,-7,-2,0,3
1537907174002439,3,-3,-10,30,16,3,2,-1
1537907174017399,-3,1,31,-9,-2,-2,-3,-7
1537907174017399,-7,-5,-23,5,0,-1,-3,-1
1537907174018396,3,-1,-6,-10,-3,-1,0,0
1537907174018396,5,1,-10,4,0,0,1,4
1537907174039340,-4,0,24,9,2,1,-1,-3
1537907174039340,-10,-2,-10,5,-6,-4,-2,-4
1537907174041335,-6,1,2,-13,-2,1,-2,-3
1537907174041335,-13,-1,-11,27,5,1,0,1
1537907174053303,9,6,14,-9,-7,-3,-2,2
1537907174053303,4,-3,-32,-5,2,2,-1,1
1537907174062279,5,-5,-33,-7,-3,0,-2,2
1537907174062279,-3,1,63,-4,-2,-4,-3,-4
1537907174076243,-2,-1,-20,7,3,1,-1,1
1537907174076243,-1,0,-1,3,0,0,0,-2
1537907174083224,-9,-2,5,11,10,0,0,-1
1537907174083224,10,3,24,-10,-11,-5,-3,-5
1537907174099182,-4,-7,-26,-3,0,-1,-1,0
1537907174099182,6,0,4,3,0,-1,1,4
1537907174101177,-3,1,-21,-9,-1,-2,-1,0
1537907174101177,-10,-2,1,4,4,3,-1,-6
1537907174113144,0,0,14,-3,-2,-1,-1,-2
1537907174113144,-7,-4,-9,5,-3,-1,0,-4
1537907174122121,2,-1,14,-5,-3,-2,0,-1
1537907174122121,14,1,-27,1,3,1,2,5
1537907174136083,-9,2,9,4,2,0,-2,-7
1537907174136083,-4,-2,31,5,0,-2,-1,-2
1537907174143064,6,0,-25,-11,-10,-3,0,2
1537907174143064,0,-5,-30,-7,5,4,2,3
1537907174160019,6,-1,21,4,-8,-5,-3,0
1537907174160019,-1,0,-16,-5,-2,-2,-3,-2
1537907174161018,0,-1,2,-4,-4,-3,-1,4
1537907174161018,0,0,-28,2,6,3,1,0
1537907174172984,-4,-3,63,9,0,0,-2,-5
1537907174172984,-12,6,-20,6,1,-1,0,-1
1537907174181961,8,1,-8,-5,-5,-2,0,0
1537907174181961,2,-1,12,2,3,3,1,3
1537907174195922,2,2,1,2,-1,-2,2,5
1537907174195922,-12,-5,9,-4,-1,-1,-6,-13
1537907174202903,3,0,10,-4,-2,-3,-3,-7
1537907174202903,-1,-4,-43,2,-1,0,0,0
1537907174219857,4,2,7,-1,2,1,3,5
1537907174219857,7,-2,-1,2,-2,0,0,7
1537907174220855,-6,-1,9,3,-2,-2,-1,-2
1537907174220855,0,-6,-12,-8,-2,-1,-2,-2
1537907174232823,-2,-1,-17,-9,-3,-2,-1,0
1537907174232823,5,-1,-1,2,0,1,1,2
1537907174241799,-5,-1,16,1,0,1,-2,-3
1537907174241799,-9,-4,4,-2,-7,-5,-4,-4
1537907174256759,2,1,-25,4,4,1,-1,2
1537907174256759,7,-2,7,-5,3,1,2,1
1537907174262743,1,-1,14,-2,-5,-2,0,0
1537907174262743,-10,-6,-35,-7,-2,-2,-4,-7
1537907174279698,-6,2,0,14,3,0,-1,-2
1537907174279698,-1,0,38,-11,4,0,-1,-4
1537907174280695,-4,-4,-55,-2,-3,0,-1,-1
1537907174280695,10,7,21,12,3,1,4,7
1537907174301640,-4,-1,21,-18,-4,-1,-4,-4
1537907174301640,1,-4,2,15,1,-1,1,4
1537907174303636,3,0,7,1,3,0,-2,-6
1537907174303636,-6,-3,1,-8,-5,-2,-1,-2
1537907174316600,-4,-3,-14,-1,-2,-2,-1,-2
1537907174316600,1,2,-3,-5,-4,-4,-2,1
1537907174318596,-2,-1,5,-6,1,2,2,4
1537907174318596,1,0,-3,4,-2,-1,1,3
1537907174339538,-8,-5,-7,-2,0,-1,0,-6
1537907174339538,0,1,-9,-6,-5,-3,-2,-5
1537907174340535,-1,2,0,-3,1,2,-1,2
1537907174340535,4,1,26,6,2,-1,-2,-2
1537907174362476,0,-2,-14,0,1,0,1,2
1537907174362476,-1,-1,-26,-2,0,0,0,1
1537907174363474,-9,-1,14,3,-1,-4,-2,-4
1537907174363474,11,0,-4,4,4,1,1,2
1537907174377436,-5,-1,4,-9,-4,-1,-3,-3
1537907174377436,-1,-5,-3,0,-5,-2,-2,-2
1537907174378434,0,-1,10,-2,-6,-1,1,2
1537907174378434,-8,-5,-3,0,-1,-1,-1,-2
1537907174398380,3,-1,-2,7,4,2,0,1
1537907174398380,3,1,-2,-8,-3,-2,-1,0
1537907174407356,-6,-2,-2,-1,0,0,-2,-1
1537907174407356,0,-1,1,0,1,0,0,1
1537907174422316,9,3,-8,2,1,0,-1,-2
1537907174422316,-5,-2,2,-6,-5,-3,-1,-4
1537907174423313,-6,-4,5,6,-1,-3,-2,-6
1537907174423313,-8,-1,-1,-4,-2,-2,-3,-4
1537907174436279,6,-1,-19,-2,1,0,0,5
1537907174436279,6,-1,7,-1,0,-1,1,2
1537907174443260,-5,-3,-14,-2,0,-1,-1,-4
1537907174443260,-6,1,5,-2,-1,0,1,2
1537907174459218,-3,-3,4,-3,-3,-2,1,-1
1537907174459218,0,2,6,4,3,0,-1,-1
1537907174461212,7,2,-4,-3,-4,-1,0,3
1537907174461212,-4,-2,-9,-2,0,-1,-1,-2
1537907174482157,6,-4,-3,-3,-1,-1,-1,0
1537907174482157,-4,2,7,11,6,3,-3,-3
1537907174483154,-2,6,44,-18,-8,-2,-1,-3
1537907174483154,-5,-4,-56,-16,8,1,-3,-7
1537907174496119,4,-35,-23,16,-21,-3,2,2
1537907174496119,-5,0,24,44,33,11,1,0
1537907174511079,6,12,-96,-46,-16,-6,0,1
1537907174511079,2,1,108,47,-1,3,2,2
1537907174519058,11,38,-114,58,71,30,15,11
1537907174519058,0,41,78,17,-43,-26,-12,-5
1537907174521053,-15,-22,-44,-42,-61,-32,-17,-10
1537907174521053,11,17,-80,38,5,-3,-4,4
1537907174541997,-6,-28,28,-59,11,7,0,2
1537907174541997,5,0,85,117,92,37,16,7
1537907174543994,-10,-3,9,-70,-59,-25,-11,-11
1537907174543994,-3,-20,-42,-113,-55,-22,-10,-10
1537907174555960,-8,19,99,-6,-29,-13,-7,-11
1537907174555960,-3,-10,-128,16,28,14,4,1
1537907174564937,11,10,94,33,-3,2,5,7
1537907174564937,0,-9,24,46,6,3,3,6
1537907174579897,-2,14,-59,-11,23,8,-2,-1
1537907174579897,-4,-1,21,-47,-40,-10,-4,-6
1537907174580895,2,-1,33,127,107,36,12,6
1537907174580895,-6,9,-73,-87,-80,-31,-11,-8
1537907174601838,-3,-7,67,-23,-19,-6,-2,-2
1537907174601838,7,6,46,-17,1,-2,0,6
1537907174603832,1,-18,-10,38,31,11,2,2
1537907174603832,2,-12,27,27,31,9,4,2
1537907174615799,2,-9,-11,-10,-15,-10,-4,-2
1537907174615799,-8,-20,-33,-48,-29,-15,-7,-6
1537907174624776,-5,0,16,-7,5,3,-1,-5
1537907174624776,6,-6,10,5,13,6,3,4
1537907174639736,-8,-8,-5,0,-11,-6,-4,-4
1537907174639736,-7,-4,-1,-6,-4,-2,0,-5
1537907174640733,-4,7,-31,-2,0,3,1,2
1537907174640733,2,10,-1,4,16,7,0,-3
1537907174661677,3,4,5,18,2,-1,1,6
1537907174661677,-6,-7,-21,-25,-14,-7,-9,-10
1537907174663672,-4,-1,-14,-15,-3,-1,1,0
1537907174663672,6,4,15,1,5,3,0,4
1537907174684616,0,1,16,7,1,1,10,-3
1537907174684616,-10,-6,-15,-16,-12,-9,-9,-12
1537907174685614,7,-1,-10,-7,-4,8,13,10
1537907174685614,1,5,21,20,18,5,21,12
1537907174700574,-11,-4,-8,5,-2,11,-59,-18
1537907174700574,-3,-10,-20,-17,-7,-26,20,-12
1537907174702569,9,9,3,12,9,11,13,9
1537907174702569,0,0,7,0,0,-4,-32,-3
1537907174722515,5,0,-3,-7,-5,-18,50,46
1537907174722515,3,1,-3,-6,-4,-29,-48,-36
1537907174723514,-14,-1,5,-1,3,25,-17,-9
1537907174723514,-5,-1,2,6,5,-15,5,-8
1537907174735481,6,6,0,2,2,18,17,5
1537907174735481,7,-6,-4,-6,-4,8,9,16
1537907174744458,-4,0,-11,-4,-4,-15,2,-5
1537907174744458,3,-1,0,4,8,24,6,4
1537907174759417,-5,0,0,4,-3,-6,-6,-8
1537907174759417,2,2,-1,-1,-2,2,17,21
1537907174761411,0,-7,-7,-6,0,-6,-17,-22
1537907174761411,-8,-4,2,-2,-1,-1,-7,-4
1537907174781358,3,0,5,4,-2,-8,2,-5
1537907174781358,0,2,-7,-10,-3,10,5,5
1537907174789337,1,-5,-2,3,0,-1,-3,1
1537907174789337,-2,2,4,5,11,2,2,-2
1537907174795323,7,1,-3,33,12,-7,-1,-5
1537907174795323,-4,-5,-4,-27,-36,0,-7,2
1537907174804296,-2,-1,-4,-7,-4,-11,-4,1
1537907174804296,4,-1,0,8,3,-1,4,0
1537907174819256,-7,1,3,0,10,4,-6,-10
1537907174819256,2,-1,-4,1,3,4,-1,8
1537907174821250,-4,-3,1,2,-3,-6,3,-2
1537907174821250,-2,2,1,-9,2,2,1,-3
1537907174842195,1,0,-1,-7,-6,-1,-6,-3
1537907174842195,-1,0,0,3,5,3,0,-1
1537907174843192,5,2,-2,-5,-3,-5,3,5
1537907174843192,-9,-1,0,7,2,2,-4,-6
1537907174856156,0,-1,-3,-10,-10,-4,-4,-2
1537907174856156,1,1,-2,5,3,4,3,3
1537907174864135,2,2,-1,0,3,0,1,3
1537907174864135,0,-4,0,-3,-2,-2,-1,-2
1537907174880093,-9,-2,1,-7,-6,-5,-3,-9
1537907174880093,2,0,-1,-3,1,3,0,4
1537907174886077,1,-1,-2,2,2,1,1,2
1537907174886077,3,-2,2,3,-1,-3,1,1
1537907174901038,0,-5,-2,-6,-9,-6,-4,-4
1537907174901038,-5,-3,-4,-1,-1,-1,-1,-3
1537907174902035,5,-4,-3,-3,1,-3,-4,-1
1537907174902035,1,-1,-1,1,-2,0,2,5
1537907174923976,-6,0,-2,-1,-1,0,-4,-4
1537907174923976,0,0,0,5,5,4,1,1
1537907174924974,4,1,-2,-15,-9,-2,1,1
1537907174924974,-6,0,-1,0,1,-1,0,-1
1537907174938937,-7,-2,-1,1,0,1,-2,-6
1537907174938937,0,-2,-1,-2,0,0,-1,0
1537907174939934,-1,2,0,5,2,-2,0,-1
1537907174939934,2,2,0,-3,-3,0,-3,-2
1537907174960879,-3,0,-2,-4,-2,0,-1,1
1537907174960879,-3,-1,0,5,1,0,0,3
1537907174961876,6,0,-2,4,2,0,-1,2
1537907174961876,-4,-2,-4,-4,-3,-4,-1,-4
1537907174983816,-1,0,2,0,1,-2,0,-1
1537907174983816,0,-1,-1,-6,1,1,-1,0
1537907174984813,-3,-2,0,8,-5,-3,0,-1
1537907174984813,-1,-2,-2,-2,-2,0,-1,1
1537907174998775,5,2,-1,-5,-3,-1,0,4
1537907174998775,-4,-3,-3,-4,-1,0,-1,-6
1537907174999773,-3,-1,1,1,1,-1,-1,-2
1537907174999773,2,2,1,4,0,-2,-2,-1
1537907175021714,-5,-6,-4,-13,-7,-5,-3,-4
1537907175021714,6,2,1,6,1,2,-1,5
1537907175021714,-2,-1,-1,3,0,0,-2,-4
1537907175021714,-3,-1,0,0,-1,0,-1,-1
1537907175043655,2,1,2,8,2,0,0,2
1537907175043655,3,1,-2,-12,-3,0,2,4
1537907175044653,-6,-4,-2,0,1,-1,-3,-6
1537907175044653,2,0,-1,-1,2,1,0,-1
1537907175066594,-4,-1,-1,0,-5,-1,-1,-1
1537907175066594,1,-2,0,7,3,0,0,0
1537907175067592,-4,1,1,0,2,1,1,2
1537907175067592,-1,-1,-1,-4,-1,1,0,0
1537907175081555,2,0,0,0,-1,-2,-3,-2
1537907175081555,1,0,-2,1,-3,-3,0,-1
1537907175081555,-1,-2,-2,-5,1,1,-2,0
1537907175081555,-1,-2,0,8,3,-1,0,-3
1537907175104494,3,-2,-5,-5,-7,-2,1,1
1537907175104494,-11,-4,-4,-12,-5,-3,-3,-8
1537907175105492,1,1,-2,-11,-7,-1,-1,-2
1537907175105492,0,1,1,-3,-5,-1,0,1
1537907175118457,-1,-2,1,10,3,0,-1,-2
1537907175118457,3,1,0,-3,-1,0,0,2
1537907175119454,-6,-2,0,1,0,0,-1,-1
1537907175119454,-1,-1,-4,-3,-4,-4,-2,-3
1537907175141395,-1,1,1,-3,0,1,-1,1
1537907175141395,4,1,1,5,-1,-1,-1,2
1537907175142394,-1,0,0,0,2,2,0,-1
1537907175142394,-2,-1,0,-1,0,0,-1,1
1537907175164334,-1,-1,-1,-2,1,0,-1,1
1537907175164334,-4,-1,-2,0,-1,0,-1,-2
1537907175165332,3,0,1,5,0,-1,0,1
1537907175165332,-2,-1,-1,-4,-4,-1,0,1
1537907175179294,-2,0,2,1,4,-1,1,-3
1537907175179294,3,1,0,2,1,0,0,2
1537907175179294,-1,-2,-1,-5,-6,-2,-1,-2
1537907175179294,-5,-3,-2,-5,-2,-2,-3,-6
1537907175201237,1,-1,0,1,3,2,1,1
1537907175201237,0,1,0,1,-3,0,-1,-1
1537907175202234,0,-1,-3,0,0,0,0,2
1537907175202234,0,-1,0,5,3,1,0,-1
1537907175224174,5,1,-1,-4,-4,-1,0,3
1537907175224174,-5,-3,-2,0,2,-2,-1,-3
1537907175225171,-5,-4,0,2,1,-1,-1,-5
1537907175225171,0,1,0,-1,-1,-1,-1,-2
1537907175239133,1,-1,-2,0,-1,1,-1,0
1537907175239133,-1,-1,2,3,4,1,2,0
1537907175239133,-1,0,0,-3,0,0,-2,1
1537907175239133,0,-1,0,-3,7,2,2,1
1537907175261074,-2,-1,-6,-7,4,-1,-3,-1
1537907175261074,-1,1,1,2,-21,-10,-6,-3
1537907175262071,4,7,1,-3,3,1,1,1
1537907175262071,0,-3,4,-1,9,4,0,-2
1537907175284013,-3,10,-12,54,31,11,2,1
1537907175284013,-6,-29,3,-22,-22,-11,-3,-6
1537907175284013,11,24,46,42,46,11,2,2
1537907175284013,4,11,-38,-53,-103,-34,-9,-2
1537907175298972,-9,-51,-33,19,22,3,-2,-2
1537907175298972,12,76,59,92,67,23,9,8
1537907175298972,-5,-34,-23,-117,-96,-36,-11,-5
1537907175298972,2,8,-24,102,7,3,-3,0
1537907175320914,0,-9,-40,-63,7,2,2,0
1537907175320914,-10,-25,54,-40,-29,-11,-8,-9
1537907175321912,9,26,2,16,50,24,11,9
1537907175321912,1,0,25,12,18,1,0,2
1537907175343853,-5,-4,-18,27,1,-1,-3,-5
1537907175343853,-1,-20,-49,28,34,9,1,1
1537907175344851,-1,8,36,-21,-30,-8,-2,-3
1537907175344851,-7,-11,9,-23,9,3,-3,-5
1537907175358814,1,4,-16,-10,-15,-3,0,-2
1537907175358814,3,9,-2,-30,-10,0,1,3
1537907175359811,-3,-3,-9,32,0,0,-1,0
1537907175359811,-1,-9,1,7,21,5,2,0
1537907175381751,3,15,30,-16,-16,-6,-2,-1
1537907175381751,0,2,-7,-11,-9,-3,-2,1
1537907175381751,-3,-18,-25,16,-2,-4,-2,-1
1537907175381751,3,-6,-4,-14,12,3,3,4
1537907175403693,-3,9,34,0,-12,-4,0,-2
1537907175403693,-3,-10,-24,-4,-11,-5,-1,-3
1537907175404690,-7,-10,-14,12,14,2,-1,-5
1537907175404690,2,-1,9,-8,3,1,1,1
1537907175418653,8,0,11,-3,-15,-4,-1,4
1537907175418653,6,-8,-16,2,2,17,18,9
1537907175419650,2,-2,-8,-1,1,-15,-19,-4
1537907175419650,-15,-1,5,-9,3,14,3,-12
1537907175441593,-2,2,7,2,-5,4,14,24
1537907175441593,0,1,-12,-6,-7,-28,-33,-36
1537907175441593,-10,3,2,9,6,17,6,8
1537907175441593,9,1,-5,-5,-2,-2,19,-6
1537907175463533,-12,2,6,0,2,1,-23,-30
1537907175463533,8,6,-1,1,7,21,32,-16
1537907175464530,-7,0,-5,1,-5,-18,5,34
1537907175464530,3,-2,-1,1,3,-13,-2,-43
1537907175478493,-3,-1,4,-5,-6,-16,-20,15
1537907175478493,2,0,-1,-1,3,10,-4,-17
1537907175479490,-7,-5,-8,1,-5,18,6,-6
1537907175479490,-1,0,-1,-6,1,15,23,23
1537907175501431,8,5,8,2,3,11,13,-5
1537907175501431,-4,-8,-7,-4,-8,-16,-8,20
1537907175502429,-1,-5,-4,4,7,8,-2,-7
1537907175502429,-1,-1,3,-6,-1,-7,-10,7
1537907175523373,4,0,2,2,0,-9,-5,-2
1537907175523373,-7,-4,-6,-3,-4,0,-14,7
1537907175524370,4,-1,-3,4,0,-8,8,-7
1537907175524370,-2,1,6,5,3,-1,-13,-2
1537907175538333,-1,-2,1,5,8,6,2,1
1537907175538333,-3,-2,-11,-32,-20,-8,6,6
1537907175539331,0,-1,1,0,-14,-5,-8,-12
1537907175539331,-4,-1,-5,1,1,-7,-11,9
1537907175561272,-1,-1,3,4,3,5,3,-1
1537907175561272,-1,2,0,3,7,2,-1,5
1537907175562270,4,0,-2,1,0,-3,-2,-4
1537907175562270,-5,-2,-2,-6,0,1,-9,4
1537907175584212,0,3,0,-1,-6,-6,4,-2
1537907175584212,-3,0,1,5,2,1,-3,-3
1537907175585210,-3,0,-2,-3,-2,-3,-3,-3
1537907175585210,1,0,0,1,3,2,4,4
1537907175599171,0,1,1,-7,-3,-1,-1,-3
1537907175599171,0,-1,-1,7,1,-2,-2,7
1537907175599171,2,-1,-1,0,2,0,-1,-1
1537907175599171,1,-3,-1,-3,-1,-2,-2,0
1537907175622111,-10,-2,1,1,-1,-2,-5,-11
1537907175622111,0,-1,-2,0,-3,-1,-1,3
1537907175622111,0,0,-1,3,-7,-2,1,-1
1537907175622111,1,0,-1,5,5,1,-3,1
1537907175644052,2,-2,-3,-13,-14,-2,-2,3
1537907175644052,-4,-3,1,-1,4,-2,-3,-3
1537907175644052,1,-1,2,12,0,-1,-1,-4
1537907175644052,1,-1,0,-4,-3,-2,-1,3
1537907175659012,-4,-2,-1,-1,3,-2,0,0
1537907175659012,-5,1,0,1,1,-2,3,1
1537907175660008,4,0,-1,-1,5,1,-1,1
1537907175660008,-3,-1,-2,-3,-1,-3,-5,-4
1537907175680952,1,0,0,1,-2,-2,1,-2
1537907175680952,5,-1,-1,2,0,-1,1,4
1537907175681950,-3,-1,-1,0,1,0,-2,-2
1537907175681950,-2,-2,-1,-3,-1,2,-1,0
1537907175704888,1,1,-1,-4,-5,-1,-1,-1
1537907175704888,2,-1,-1,4,-2,-1,-1,3
1537907175704888,0,-1,-2,-9,3,1,-1,-2
1537907175704888,-2,0,0,1,-1,-1,-2,-2
1537907175718851,-4,-1,1,7,-1,-3,-1,-3
1537907175718851,1,-4,-5,-5,-4,-2,-1,0
1537907175719848,1,-2,-1,5,1,0,1,2
1537907175719848,-1,-2,-1,-7,-1,-1,-2,-1
1537907175741790,0,-1,0,2,2,-1,-1,-1
1537907175741790,-1,-1,1,6,1,1,0,-1
1537907175741790,1,3,-2,-7,0,-1,-1,-2
1537907175741790,-1,-1,-1,1,-4,-2,-3,-1
1537907175764729,-1,-1,-1,2,1,0,0,-1
1537907175764729,-2,1,-1,-8,-1,-1,0,-1
1537907175764729,-2,-2,-2,-1,2,-1,-2,-1
1537907175764729,1,-1,0,8,-1,-1,-1,1
1537907175778691,5,2,0,-11,-2,0,-2,2
1537907175778691,-5,-1,-1,2,3,-1,0,-3
1537907175779690,-2,1,-1,-2,-1,-1,1,-1
1537907175779690,1,0,-2,0,-2,-1,1,1
1537907175801631,0,-3,-3,2,3,1,-1,-2
1537907175801631,2,1,-2,0,-5,-3,-2,0
1537907175801631,4,-1,0,-5,0,0,-1,-1
1537907175801631,-3,0,1,-3,-1,-1,-2,0
1537907175824569,1,0,-1,5,6,3,1,2
1537907175824569,-2,-1,0,1,-10,-7,-3,-2
1537907175825568,-3,-3,-4,-9,0,-1,-1,-2
1537907175825568,1,-1,-1,-7,-5,-3,0,1
1537907175838534,0,-1,-2,-1,-2,-1,-3,0
1537907175838534,0,1,1,2,6,1,1,1
1537907175846510,-2,0,-1,0,-1,-1,-1,-2
1537907175846510,-1,-1,1,-2,1,-1,-1,-1
1537907175861469,-3,-2,-1,-4,-3,-2,1,-3
1537907175861469,0,2,0,5,1,1,0,-1
1537907175862467,-1,0,0,1,-1,-1,0,1
1537907175862467,-3,-2,-2,-1,2,2,-1,-2
1537907175884408,1,-2,0,2,-1,-2,-1,1
1537907175884408,-3,1,-1,-1,-2,-1,-4,-5
1537907175885405,3,-3,0,-2,-1,-1,-1,-1
1537907175885405,-3,-2,-2,-3,-4,-2,-1,-2
1537907175898371,-2,-1,0,-3,-4,-3,1,-1
1537907175898371,-2,-3,0,-1,2,3,2,-1
1537907175906349,-2,0,-3,1,-2,-1,0,0
1537907175906349,1,2,1,12,6,1,0,-1
1537907175921310,2,-2,-7,-16,2,1,0,0
1537907175921310,0,-4,3,0,-4,-5,-4,-1
1537907175922308,-2,10,-5,-6,-1,-2,-3,-2
1537907175922308,2,-13,4,44,8,3,1,2
1537907175944249,-6,-20,-2,17,26,5,1,-3
1537907175944249,0,-31,-9,55,-11,-10,-4,-2
1537907175945247,-1,23,-6,-13,-10,-4,-3,-1
1537907175945247,1,15,17,20,-13,-7,-5,-4
1537907175958212,2,5,20,-90,41,22,9,3
1537907175958212,4,1,25,84,8,-1,1,3
1537907175966191,-3,53,-17,-12,-18,-9,-7,-8
1537907175966191,-14,-46,-34,-85,-73,-23,-10,-5
1537907175981152,10,13,-8,-23,0,3,2,7
1537907175981152,2,32,-5,0,0,-2,-2,1
1537907175982150,5,-27,-43,-65,62,23,11,7
1537907175982150,-9,4,19,22,-33,-21,-11,-10
1537907176004089,-1,13,13,39,6,4,-1,-3
1537907176004089,2,-3,1,-62,0,5,3,2
1537907176005086,-4,-23,17,49,-3,0,-2,-3
1537907176005086,2,5,-19,49,45,15,6,2
1537907176027027,-5,-15,1,-77,-48,-14,-5,-4
1537907176027027,0,8,27,30,-1,1,1,-2
1537907176028025,-2,-11,-22,32,9,-1,-2,0
1537907176028025,4,6,34,-6,29,11,3,1
1537907176040990,-2,4,-33,-5,-67,-24,-9,-3
1537907176040990,0,3,10,-47,7,4,2,0
1537907176048968,0,-6,16,12,1,1,1,-1
1537907176048968,2,-2,6,-10,7,3,2,1
1537907176064925,-4,-9,-11,28,8,-2,-1,-2
1537907176064925,-1,-8,-24,-4,4,1,-1,0
1537907176064925,-2,-12,13,-15,-9,-3,0,-1
1537907176064925,0,0,-19,-12,-9,-4,-3,-2
1537907176077891,-1,-6,4,28,0,-3,-1,-1
1537907176077891,-2,-7,-9,-22,3,3,-1,-1
1537907176085869,2,-2,20,7,-8,-1,-1,1
1537907176085869,0,4,-6,-15,7,2,1,0
1537907176100830,-1,3,1,26,4,0,0,-2
1537907176100830,-1,0,-2,-20,-6,-3,-1,0
1537907176101827,-2,-4,2,-7,-3,-1,0,-1
1537907176101827,2,6,-7,0,8,4,1,1
1537907176124767,-1,2,4,4,1,0,-1,1
1537907176124767,-1,0,-8,10,-1,0,-3,0
1537907176124767,0,-2,2,-1,-10,-3,-1,0
1537907176124767,-2,3,-3,-10,3,0,1,0
1537907176146709,0,2,5,14,5,0,-1,-2
1537907176146709,-1,0,-5,-16,-1,-1,1,0
1537907176147707,-2,-2,1,-4,-4,-1,-3,-3
1537907176147707,1,-1,1,1,-2,0,-1,1
1537907176161669,0,0,-2,8,3,-2,0,-1
1537907176161669,0,-1,-6,-7,-3,-3,-2,-1
1537907176161669,-1,-4,2,-1,-8,-1,-3,-1
1537907176161669,-1,-1,-4,-6,7,4,0,-2
1537907176184606,0,-2,0,3,-2,-1,-2,-2
1537907176184606,0,-1,-2,-2,2,1,2,1
1537907176185605,-1,-2,2,-3,-3,-3,-1,-1
1537907176185605,-1,0,-1,-3,-2,-1,-1,1
1537907176206548,-2,0,0,9,2,0,0,-2
1537907176206548,-1,-1,-3,-7,-6,-3,-2,0
1537907176207546,3,-1,0,5,4,1,1,1
1537907176207546,-4,0,-3,-1,-1,-1,0,-4
1537907176221508,1,1,-1,0,-2,-1,-1,0
1537907176221508,-2,-1,-2,-3,2,2,-2,-2
1537907176222506,-6,-1,-2,2,-5,-2,-1,-3
1537907176222506,2,0,-2,-7,-3,-1,1,1
1537907176244446,1,-1,0,6,-2,0,2,1
1537907176244446,-1,0,-1,-2,-1,-1,1,-2
1537907176245445,-1,-1,0,1,-2,-1,0,0
1537907176245445,2,0,1,-5,-3,0,-1,1
1537907176267384,-3,-3,-2,5,3,-2,-1,-2
1537907176267384,0,-1,-4,-5,-1,-3,-2,-1
1537907176267384,-2,-3,0,1,1,-2,0,-1
1537907176267384,-2,-2,-2,-7,-5,-3,-1,-3
1537907176281347,-2,0,-1,1,1,2,-1,1
1537907176281347,-2,0,-1,-2,-3,0,-1,0
1537907176282345,-2,-2,1,0,-2,-1,-4,-2
1537907176282345,0,0,-1,4,6,1,2,1
1537907176304286,-1,-2,-2,2,-8,-4,-2,-2
1537907176304286,-1,-3,-1,0,3,-2,-1,-2
1537907176305283,-1,-1,-2,-3,-7,-1,-1,0
1537907176305283,1,1,-3,2,2,2,0,1
1537907176327225,2,-1,1,14,9,3,-1,-1
1537907176327225,-2,-1,-4,-25,-11,-2,-2,-1
1537907176327225,-1,-2,-1,3,2,-1,0,-1
1537907176327225,0,3,2,-4,0,-1,1,1
1537907176341188,-4,-2,-1,-11,-2,-2,-1,-4
1537907176341188,-1,-1,0,25,7,4,1,1
1537907176342186,-2,-3,0,4,1,-2,-2,-1
1537907176342186,-1,-3,-4,-15,-13,-3,-1,-1
1537907176365124,0,0,0,-5,-2,-2,-1,0
1537907176365124,0,-2,0,-4,3,-1,0,0
1537907176365124,-3,0,-1,-3,-1,0,0,-1
1537907176365124,-2,-2,0,10,5,-2,-1,-2
1537907176387065,0,1,-3,-4,-1,0,-1,0
1537907176387065,0,-3,-2,-3,-5,-2,-1,-1
1537907176388062,1,-1,0,1,0,-2,-1,0
1537907176388062,1,-1,2,-2,1,-1,0,-3
1537907176401027,-1,-1,-2,1,0,0,-1,-2
1537907176401027,2,-1,-2,-8,-6,-3,-2,-1
1537907176402025,-2,1,-1,1,0,-2,1,-1
1537907176402025,-1,-1,-3,5,3,-2,-2,-1
1537907176423966,1,0,-2,-7,-5,-1,-2,0
1537907176423966,-2,0,0,2,1,0,-1,-2
1537907176424964,-1,-1,-1,-8,-3,0,-3,-2
1537907176424964,-1,1,-1,1,1,-2,-2,-1
1537907176454883,-2,-2,0,4,2,0,0,1
1537907176454883,1,-2,0,2,0,0,1,1
1537907176454883,4,0,-2,-3,-3,0,0,3
1537907176454883,-6,-2,0,1,1,-1,-3,-2
1537907176460867,-1,-1,0,-1,0,-1,-2,-2
1537907176460867,-1,-1,0,0,1,0,2,-2
1537907176469843,-1,-3,-3,-1,-3,-3,-1,0
1537907176469843,3,1,-1,-4,-4,-1,1,1
1537907176484803,-2,-1,1,3,-2,-1,-3,-2
1537907176484803,-1,-2,-1,-6,-3,-1,-2,-1
1537907176485800,1,-1,1,4,3,0,-2,0
1537907176485800,0,-1,0,-5,3,3,1,0
1537907176506744,-2,-1,-1,3,-5,-6,-1,1
1537907176506744,0,-1,1,3,0,-1,-1,-2
1537907176508739,-2,-1,-2,-6,-2,0,0,-1
1537907176508739,-2,0,-1,-1,3,1,-1,-1
1537907176520707,-3,-1,-2,-6,-4,-2,1,-2
1537907176520707,-1,-1,0,5,2,-1,-2,0
1537907176529683,-1,-1,-1,-4,-3,-2,1,0
1537907176529683,0,-1,-1,-2,-3,-1,-2,1
1537907176544643,0,0,-2,2,1,2,0,1
1537907176544643,-1,0,0,0,-1,-1,0,-1
1537907176545640,-1,-2,-1,-2,0,0,-1,-3
1537907176545640,0,0,0,1,0,1,0,0
1537907176566584,0,-1,-1,-2,-2,-3,-1,-1
1537907176566584,-1,-1,-2,-3,-4,-3,0,-1
1537907176568579,0,-1,1,2,1,1,0,-1
1537907176568579,-2,0,-2,0,-2,-1,1,-2
1537907176580547,-1,-2,-1,-1,-3,-3,-2,-2
1537907176580547,-1,-1,-1,-1,1,0,0,0
1537907176589524,1,0,1,3,-1,-2,0,-1
1537907176589524,-2,-2,-2,-2,-4,-2,-3,-1
1537907176604484,-1,0,-1,-1,1,1,0,0
1537907176604484,0,1,0,-2,1,0,0,-1
1537907176605482,1,-2,-3,3,0,-2,-1,1
1537907176605482,0,-2,-2,0,1,-2,-1,-1
1537907176627422,0,0,-1,-4,-2,-2,-1,-3
1537907176627422,0,-3,-1,1,-3,0,-3,0
1537907176628421,-2,1,-1,0,1,-1,-1,0
1537907176628421,0,0,-1,0,0,-1,0,-1
1537907176640388,-1,0,-2,0,0,-1,0,0
1537907176640388,0,0,0,-1,0,0,-1,-1
1537907176649364,-2,0,0,-2,-1,0,-1,-1
1537907176649364,0,0,-2,-3,-4,-3,-2,1
1537907176664325,-1,0,0,1,1,-1,-1,0
1537907176664325,-1,-1,-1,-2,-1,-1,-1,0
1537907176666321,-1,-2,-1,0,-2,-4,-1,-1
1537907176666321,-2,-1,-1,0,0,2,1,-1
1537907176687262,-1,0,1,2,4,1,1,-3
1537907176687262,0,-1,-3,-5,-8,-2,-2,-2
1537907176688259,0,-1,-2,0,0,-1,0,-1
1537907176688259,2,-1,-1,0,-2,0,-1,1
1537907176700227,-1,-1,-1,-2,-1,-2,-2,-1
1537907176700227,-3,-1,-1,1,0,-1,0,-1
1537907176709203,-2,0,-1,-3,-1,1,-1,-1
1537907176709203,1,1,-1,-1,-1,0,-4,-1
1537907176724163,1,-1,-1,-1,-1,-1,-1,2
1537907176724163,-1,-3,-2,1,2,0,-1,-3
1537907176731144,-1,0,-2,-1,-2,-1,-1,0
1537907176731144,-2,-1,-1,1,2,0,-1,-1
1537907176747102,0,-1,1,0,0,0,-1,-1
1537907176747102,1,0,-2,-2,-1,-1,-1,-1
1537907176748099,1,0,0,-2,-1,0,-1,0
1537907176748099,-2,-1,0,1,1,0,0,-1
1537907176760067,-2,0,-1,-3,-4,-3,-1,1
1537907176760067,-1,-1,-1,-1,0,-2,1,-1
1537907176769043,-3,-2,1,1,0,-2,0,-3
1537907176769043,0,-1,-1,-5,-4,-2,-1,-2
1537907176784003,1,-1,-2,4,4,2,0,-1
1537907176784003,-2,0,-1,2,1,0,-2,0
1537907176785999,1,0,0,-3,-3,-1,0,0
1537907176785999,-1,-1,0,-1,-1,0,0,0
1537907176806943,0,0,1,-1,-1,1,1,-2
1537907176806943,-1,-1,-1,-1,1,0,-2,-1
1537907176807941,-2,-2,-1,0,0,-1,-2,-1
1537907176807941,0,-1,2,0,-2,-3,0,-3
1537907176820906,0,0,-1,-1,1,0,1,-2
1537907176820906,-1,0,-3,-5,-6,-4,-3,-1
1537907176829883,-1,0,-1,0,-1,0,-1,0
1537907176829883,-1,1,-2,0,-1,-1,0,0
1537907176844842,1,-2,-1,0,-2,-2,-3,-2
1537907176844842,-3,-2,1,0,1,1,2,0
1537907176845840,-1,-1,0,0,2,1,-1,-3
1537907176845840,-1,0,0,-2,-1,-3,-1,0
1537907176866783,-1,-1,-1,-2,-7,-2,-2,0
1537907176866783,1,2,0,-2,-1,-2,-1,-1
1537907176868778,0,-1,-1,-1,0,-1,0,0
1537907176868778,-1,-2,0,2,2,0,1,-1
1537907176880746,-1,-1,-1,-2,-3,-2,-1,-1
1537907176880746,-1,-1,-1,0,0,-1,-1,-1
1537907176889721,0,-1,-1,1,0,-1,1,0
1537907176889721,-2,-2,-2,-3,-1,0,0,-1
1537907176904680,-2,0,-1,-4,-5,-1,-1,0
1537907176904680,1,-1,0,1,-2,0,1,-1
1537907176905678,-1,-2,1,2,0,-1,-2,-1
1537907176905678,0,1,-1,2,2,0,-2,-1
1537907176926621,-2,-2,-2,-2,-1,-1,-2,-1
1537907176926621,-1,-1,-3,-2,-2,-2,0,-2
1537907176928616,0,0,-1,-3,-2,-2,0,-1
1537907176928616,0,0,0,-1,-2,0,0,0
1537907176940584,0,0,0,2,1,1,0,-1
1537907176940584,-2,-1,-1,0,2,0,0,0
1537907176949560,-2,-1,-2,-3,-5,-2,-2,0
1537907176949560,0,-1,-1,-1,-3,-2,-1,-1
1537907176964520,-1,0,-1,-2,2,0,1,0
1537907176964520,0,-2,1,1,-1,-2,-1,1
1537907176965518,-1,0,-1,0,0,-1,0,-1
1537907176965518,0,-1,-3,-2,-2,0,-1,1
1537907176986462,-1,-1,0,1,-1,-2,-1,1
1537907176986462,0,-1,0,3,1,0,-1,0
1537907176988456,-1,-3,-3,-4,-3,-2,-1,0
1537907176988456,-2,0,-2,-3,0,-3,0,0
1537907177000425,-1,0,0,2,1,0,-1,-1
1537907177000425,0,-2,0,1,0,1,-1,-1
1537907177009401,-1,-2,-1,0,0,0,-1,0
1537907177009401,1,-1,0,-4,-3,0,-4,-1
1537907177025358,-3,-3,0,-1,0,-2,-2,-3
1537907177025358,-2,1,-1,0,-1,0,-1,0
1537907177026355,1,0,0,-1,1,-1,-2,-1
1537907177026355,0,0,-1,-1,0,0,1,-1
1537907177047299,0,-1,-1,0,0,-1,0,-1
1537907177047299,2,1,-4,-4,-4,-2,-2,1
1537907177048297,-3,-1,0,-1,-2,0,1,-1
1537907177048297,-1,-1,0,3,3,-1,-1,-2
1537907177069242,-1,0,-1,-1,-4,0,-1,-1
1537907177069242,-1,-2,-1,0,1,-2,-1,-1
1537907177071237,-1,-3,0,-1,-1,-2,-2,-1
1537907177071237,-1,-2,-1,0,0,-1,-2,-1
1537907177084201,0,0,0,-5,-3,-1,-1,0
1537907177084201,0,-1,0,-5,-1,1,-1,1
1537907177086197,-2,1,-2,14,2,0,-2,-1
1537907177086197,-1,-1,-3,-7,-3,-3,-3,-2
1537907177107140,-1,-1,-2,-12,3,1,-2,0
1537907177107140,0,16,-2,-45,-3,3,3,0
1537907177109135,-3,-12,2,93,12,-3,-3,-2
1537907177109135,-2,39,-7,-65,1,1,0,0
1537907177129081,-1,-40,3,-41,-4,-9,-8,-5
1537907177129081,-3,2,-7,12,-5,0,-1,-5
1537907177131076,5,15,75,-17,-25,-6,3,6
1537907177131076,8,33,-62,87,17,9,4,4
1537907177144041,3,-3,16,-88,29,8,5,5
1537907177144041,2,-13,-14,-19,-75,-26,-9,-2
1537907177151023,3,22,29,39,73,26,6,4
1537907177151023,-3,-18,-34,-91,-51,-13,-5,-3
1537907177166980,0,11,13,112,37,10,4,0
1537907177166980,-1,-10,-40,-47,-19,-6,-3,-3
1537907177167977,-4,-7,-24,-35,-28,-12,-6,-7
1537907177167977,-2,-20,-28,15,55,16,3,0
1537907177189919,-1,20,17,50,-41,-12,-5,-3
1537907177189919,-5,4,52,28,27,7,0,0
1537907177190918,-4,-3,-14,-5,-1,3,-2,-5
1537907177190918,2,-13,-7,36,-9,-3,-1,2
1537907177202885,2,11,29,35,9,3,2,1
1537907177202885,0,1,-25,22,14,0,1,1
1537907177211862,4,-1,20,-29,6,3,0,3
1537907177211862,-3,-15,24,-15,-10,-3,1,-3
1537907177226821,-4,-6,-16,2,-15,-7,-2,-4
1537907177226821,1,-2,29,15,5,1,1,-1
1537907177228816,-1,-6,-37,-40,3,-2,-2,-1
1537907177228816,-2,-4,24,20,0,-6,-3,-2
1537907177249759,1,-7,-27,-31,-21,-7,-4,-2
1537907177249759,-1,-25,27,-7,13,3,0,0
1537907177250758,1,-17,-27,-1,-8,-4,-1,-3
1537907177250758,-3,-8,23,5,-6,-5,-4,-4
1537907177262726,-4,4,-12,-2,-5,0,-1,0
1537907177262726,-1,10,-7,5,19,7,2,1
1537907177271703,-2,5,-8,1,-16,-6,0,-3
1537907177271703,-2,5,22,5,-8,-1,-2,1
1537907177286661,-2,6,-15,-21,7,3,0,-2
1537907177286661,-1,6,-6,14,3,0,-1,-1
1537907177288657,-3,1,1,-8,-8,-2,-1,-2
1537907177288657,0,2,3,-7,-3,-4,-1,-1
1537907177309599,-1,0,-3,-2,0,1,-1,-3
1537907177309599,2,0,0,4,0,0,-1,0
1537907177310596,-2,-1,-7,3,-4,-2,0,0
1537907177310596,2,-2,8,-5,1,2,1,1
1537907177323561,0,-2,-3,1,-3,-2,-1,1
1537907177323561,-3,-2,0,4,-1,-1,-1,-1
1537907177331539,-3,-2,-9,-12,-1,-2,-1,-3
1537907177331539,-1,-2,6,6,-1,-2,-1,-1
1537907177346499,2,-1,0,-8,-7,-1,-1,-1
1537907177346499,0,-1,-6,0,6,2,-1,0
1537907177348494,1,-1,-3,0,0,0,-1,2
1537907177348494,2,-1,7,2,1,-1,0,1
1537907177369438,-3,-1,-6,-5,-8,-5,0,-2
1537907177369438,-3,1,-3,-2,2,1,0,-2
1537907177370436,-1,-1,-1,-3,-6,-1,0,0
1537907177370436,0,3,4,5,5,1,1,0
1537907177383401,-4,-3,-4,-3,-2,0,-2,-3
1537907177383401,0,1,-1,3,1,-1,-1,-1
1537907177392378,5,2,-2,-3,-8,-4,0,4
1537907177392378,-3,-2,0,1,2,2,1,1
1537907177407337,-6,-2,-1,-4,-2,-3,-3,-6
1537907177407337,-2,1,1,-3,0,-1,-1,-1
1537907177408334,-2,-3,-4,6,-1,-1,-3,-1
1537907177408334,3,0,0,-3,-2,-3,-1,0
1537907177429278,1,2,1,4,5,2,1,3
1537907177429278,-4,-2,0,3,-2,-3,-2,-3
1537907177431273,1,0,-4,-8,0,0,1,1
1537907177431273,-3,-2,1,-8,-3,-1,1,-3
1537907177443241,2,-3,-4,-3,-1,0,0,0
1537907177443241,0,-2,-2,-1,-4,-4,-2,1
1537907177452217,-4,-2,1,7,-1,0,-2,-2
1537907177452217,-4,-1,2,7,6,1,-2,-1
1537907177467177,-1,-1,-2,3,-12,-4,-2,0
1537907177467177,0,0,0,-5,0,1,2,1
1537907177468174,-1,-1,2,-4,-3,-2,-1,-2
1537907177468174,-1,-2,-1,-8,-6,-3,-2,-3
1537907177489118,-1,0,2,11,12,3,-1,0
1537907177489118,-1,0,-4,1,-4,-2,0,0
1537907177491113,-1,-2,-1,0,0,2,0,-2
1537907177491113,0,0,-2,-6,-3,-1,0,0
1537907177503081,1,0,3,-3,3,2,1,1
1537907177503081,-1,0,-2,0,-2,-1,-1,-1
1537907177512057,-3,1,-1,-4,0,0,0,-2
1537907177512057,-1,-3,0,5,0,0,-2,-3
1537907177527017,0,-1,0,1,1,0,0,-2
1537907177527017,1,-2,-3,-7,-3,-1,0,1
1537907177528014,-1,1,-2,-3,2,0,-3,-2
1537907177528014,-2,-1,-1,-4,-6,-2,-2,-2
1537907177548958,-1,-1,0,-4,-2,-1,-1,2
1537907177548958,2,1,0,3,7,2,0,-1
1537907177550953,-3,-2,-1,-2,-5,-4,0,0
1537907177550953,-1,-3,-1,-2,-4,-2,-2,-1
1537907177562921,-2,1,-1,-4,0,0,1,-1
1537907177562921,-1,-1,-1,1,0,-1,-1,-1
1537907177571897,0,-1,-2,-4,-2,-3,-1,0
1537907177571897,2,0,0,2,1,-1,-1,0
1537907177586857,-1,-2,-2,-1,1,-1,-1,0
1537907177586857,-1,-1,0,0,0,0,-1,-1
1537907177588851,0,-1,-1,1,0,1,0,-2
1537907177588851,-1,-2,-2,1,2,-2,-1,1
1537907177608799,1,-2,-1,-4,-3,-3,-2,-1
1537907177608799,-1,-2,-2,-2,-3,1,-1,0
1537907177615780,-1,-1,0,-2,0,0,0,0
1537907177615780,-2,0,0,-1,-2,-1,0,0
1537907177622761,0,0,-1,-2,2,-1,0,-2
1537907177622761,-2,0,-1,-2,-1,-3,-1,-3
1537907177631738,-2,-1,0,1,0,0,1,-1
1537907177631738,-2,0,-3,-3,-3,-2,-1,-2
1537907177646698,1,-1,-1,-1,-2,2,2,1
1537907177646698,2,0,1,2,4,1,-1,-1
1537907177648694,-1,-1,-2,-4,-6,-2,-2,-2
1537907177648694,1,-1,1,3,3,1,0,-1
1537907177669637,-2,1,1,-3,0,-1,-1,-1
1537907177669637,0,1,2,5,1,3,1,0
1537907177670634,1,0,0,-2,9,-1,0,1
1537907177670634,-4,-3,-7,-29,-24,-9,-4,-3
1537907177683600,-3,-4,0,15,0,-1,-1,-2
1537907177683600,0,-2,0,-23,6,4,0,0
1537907177691578,2,-6,4,84,40,15,5,1
1537907177691578,-1,18,5,-17,-6,-7,-2,0
1537907177706538,0,-7,-8,21,8,0,-1,-4
1537907177706538,1,-24,-2,100,9,-4,0,2
1537907177708536,-9,-3,-15,-66,-47,-18,-10,-9
1537907177708536,3,19,50,25,42,19,5,4
1537907177729477,-3,-10,10,29,-6,-8,-3,1
1537907177729477,-3,-5,-88,7,28,8,1,-2
1537907177730473,4,24,21,-22,-68,-25,-6,0
1537907177730473,-1,1,7,-12,-5,1,-2,-2
1537907177743439,3,15,15,-48,18,12,4,4
1537907177743439,0,-1,11,-18,2,-2,-1,0
1537907177752414,-3,-18,-26,-50,13,4,0,-2
1537907177752414,-3,-2,1,37,8,-1,0,-1
1537907177767374,0,4,23,-51,-15,-4,-2,-2
1537907177767374,-3,2,-22,68,6,-4,-4,-3
1537907177768372,0,3,32,-25,-16,-1,-2,-3
1537907177768372,-1,-10,-21,-5,-1,1,-1,-2
1537907177789315,2,9,5,3,12,7,2,0
1537907177789315,-2,2,11,-22,-9,-3,-1,-1
1537907177791310,-1,2,1,24,23,4,1,0
1537907177791310,-3,-9,-9,2,7,-3,-2,-3
1537907177803278,-3,-10,-21,2,-27,-8,-2,-1
1537907177803278,-3,6,23,-29,-14,-4,0,-2
1537907177812254,2,-1,4,2,6,1,2,1
1537907177812254,2,-10,-14,13,13,5,3,3
1537907177826218,-3,-9,-12,-8,-16,-9,-3,-2
1537907177826218,2,7,28,-31,-10,-2,-1,2
1537907177840181,0,-16,-29,16,12,0,-1,0
1537907177840181,1,-20,-14,-22,11,1,0,1
1537907177849158,-4,-4,7,40,-18,-8,-4,-5
1537907177849158,-3,-3,5,-34,-13,0,-2,-3
1537907177851152,1,2,-9,-15,8,2,2,1
1537907177851152,-2,1,5,43,-14,-6,-2,-2
1537907177863120,-2,1,-16,-20,-4,-3,-3,-2
1537907177863120,0,9,6,5,4,1,1,0
1537907177872097,-3,4,-1,9,2,1,0,-1
1537907177872097,-1,3,6,6,-1,0,-2,0
1537907177886058,0,3,-7,-4,16,6,2,1
1537907177886058,-2,-5,6,11,-3,-1,-1,-1
1537907177893040,-4,6,-20,-10,-14,-6,-4,-2
1537907177893040,1,15,25,-23,-12,-3,-2,0
1537907177916976,0,-5,-8,15,8,1,1,1
1537907177916976,-2,2,-1,-29,4,0,0,-1
1537907177917974,1,-4,4,-10,3,4,2,0
1537907177917974,-3,0,-13,9,-18,-11,-3,-3
1537907177922960,1,3,-5,-2,2,1,-1,-1
1537907177922960,0,-10,6,-6,-7,-1,-1,-1
1537907177939914,0,9,11,13,17,4,2,1
1537907177939914,-2,-14,-13,-5,-9,-3,-1,-1
1537907177945898,-1,-2,2,3,17,3,2,-1
1537907177945898,-2,-2,-9,-45,-29,-9,-3,-2
1537907177954874,-5,-2,7,29,2,-1,-2,-3
1537907177954874,1,1,-2,19,5,1,-1,-2
1537907177969833,-2,-6,-2,37,1,0,-1,0
1537907177969833,1,9,1,-10,1,-1,0,-1
1537907177971828,-3,-5,1,8,-2,-3,-1,-1
1537907177971828,-2,-4,5,-9,-5,-1,-1,0
1537907177982799,0,0,-4,-1,3,0,-1,1
1537907177982799,-4,-13,-7,1,4,-3,-2,-2
1537907177991775,1,8,0,10,-5,-1,0,0
1537907177991775,0,3,6,-16,7,0,0,-1
1537907178006734,-2,-2,2,0,-5,-3,-1,-1
1537907178006734,-1,-1,1,5,10,3,-2,0
1537907178012719,0,-11,-7,1,-2,-1,-1,-1
1537907178012719,-1,4,-11,-9,1,1,1,-1
1537907178029673,-1,2,3,3,-1,-2,0,0
1537907178029673,-1,8,1,-4,-10,-3,-2,-4
1537907178030671,-1,-3,3,4,7,1,2,0
1537907178030671,-1,-2,2,33,1,2,1,-1
1537907178051615,-3,3,-9,-42,-30,-9,-4,-4
1537907178051615,-2,-6,14,8,-3,1,0,-1
1537907178053609,6,10,-6,15,-1,-4,-1,1
1537907178053609,-1,-1,1,-22,0,0,-1,-1
1537907178066574,0,-5,1,-1,8,2,0,0
1537907178066574,1,7,-2,16,7,0,0,0
1537907178068569,-1,-17,-1,-15,-2,-2,-1,-2
1537907178068569,0,0,1,9,-2,-2,-1,0
1537907178088515,0,3,1,9,-1,-2,0,0
1537907178088515,0,2,-2,8,2,3,1,0
1537907178097492,-2,-5,-1,0,3,0,0,-1
1537907178097492,-2,-4,-9,4,1,0,-1,-1
1537907178111454,-1,2,1,7,0,-1,0,-2
1537907178111454,0,-4,5,-8,-28,-9,-2,-1
1537907178119433,-1,2,4,9,-8,-2,-2,-1
1537907178119433,-1,-6,-5,-8,3,2,0,0
1537907178126415,-1,-1,4,1,4,-1,-1,-2
1537907178126415,-2,-4,1,-14,2,-2,-1,0
1537907178128410,-1,4,1,-1,-8,-3,-1,-1
1537907178128410,0,0,-2,-16,-7,-1,-1,0
1537907178157331,0,1,3,13,14,1,-1,2
1537907178157331,-1,2,-3,7,3,0,-2,-2
1537907178158329,0,-7,-10,-46,6,3,0,1
1537907178158329,0,3,-5,-28,-9,-4,-2,-3
1537907178172292,-1,-4,1,4,3,1,-1,1
1537907178172292,0,5,-8,-28,-15,-5,-2,-2
1537907178173289,-2,2,6,15,8,0,2,0
1537907178173289,-1,-1,-2,-5,-9,-3,-3,0
1537907178186254,-1,-2,-7,-7,-11,-4,-2,-1
1537907178186254,0,-1,1,7,13,4,0,0
1537907178200217,0,-2,0,4,4,1,1,1
1537907178200217,-1,0,-3,-2,3,-1,0,0
1537907178209193,0,-1,0,-6,1,-1,1,0
1537907178209193,-1,2,-4,-1,8,0,-1,-1
1537907178211188,-3,-1,-9,7,-8,-6,-4,-3
1537907178211188,0,4,11,-2,6,2,1,0
1537907178232132,1,2,4,6,0,3,0,0
1537907178232132,-1,-6,-6,-6,12,3,2,0
1537907178233130,0,1,2,-12,-17,-5,-2,-4
1537907178233130,-1,-3,-6,10,6,1,-2,-1
1537907178246096,0,5,-1,-18,-13,-3,-1,-1
1537907178246096,-1,-3,1,13,2,1,2,-1
1537907178253078,-2,-1,8,7,16,5,1,-1
1537907178253078,-3,0,-6,-4,-15,-7,-3,-1
1537907178269034,-1,-5,-1,-7,0,-1,-1,-2
1537907178269034,-3,-6,1,13,1,-1,-1,-1
1537907178271030,-1,8,1,-5,2,3,0,0
1537907178271030,1,-4,-4,-8,3,-1,0,-1
1537907178291973,-2,-2,-3,-9,-5,-2,-3,-1
1537907178291973,-1,-6,2,-1,-5,-2,-3,1
1537907178292972,2,7,0,-6,6,1,0,0
1537907178292972,-3,-9,-4,22,16,4,1,0
1537907178305936,-3,-6,-9,-35,-37,-13,-6,-2
1537907178305936,0,1,3,-16,-11,-5,1,-1
1537907178312917,3,-1,-4,-11,9,2,2,1
1537907178312917,0,1,-1,17,1,0,-1,-1
1537907178329872,0,2,6,10,14,5,2,0
1537907178329872,-2,10,-2,2,-4,-4,-1,-1
1537907178330871,-1,-8,-1,-5,0,-2,-1,-1
1537907178330871,-1,-3,2,-11,-8,-1,-1,-2
1537907178351815,-2,-4,-3,6,5,1,1,-2
1537907178351815,0,7,0,-2,-7,-4,-3,-1
1537907178353809,-3,-2,1,39,9,1,0,-1
1537907178353809,-1,1,-1,-13,-8,-1,-1,-1
1537907178365775,-1,-1,-4,2,2,2,-1,-1
1537907178365775,2,1,-3,-35,-6,-1,0,0
1537907178372756,-2,-6,-5,-22,-17,-4,-4,-1
1537907178372756,-2,0,-2,6,-1,-1,-1,-2
1537907178396693,0,1,3,11,14,4,1,0
1537907178396693,1,-8,-2,-6,-4,-2,-1,2
1537907178398687,0,-1,2,-1,-2,-1,0,0
1537907178398687,0,0,1,3,-16,-6,-3,-2
1537907178411653,0,6,3,22,2,-1,1,-1
1537907178411653,-3,-5,5,17,3,1,1,-2
1537907178413647,-2,-12,-2,-10,-15,-5,-4,-3
1537907178413647,0,13,6,10,8,2,0,0
1537907178425615,0,-5,-7,-3,5,1,0,-2
1537907178425615,-2,-3,-2,22,-6,-4,-2,-3
1537907178434591,-2,-2,-3,-3,3,1,0,-2
1537907178434591,-1,-3,1,12,-1,-2,-1,-1
1537907178449552,0,-3,-6,-61,-8,-4,-1,0
1537907178449552,-1,-1,-3,16,-10,-4,0,-1
1537907178450550,1,1,-3,11,3,0,0,0
1537907178450550,-1,-7,2,20,10,1,1,-2
1537907178471493,-1,5,1,0,1,-1,-1,0
1537907178471493,-4,-5,-4,18,12,2,-1,0
1537907178473488,-1,0,1,-11,-6,-4,-2,-2
1537907178473488,0,3,-1,9,6,0,1,0
1537907178485456,0,-2,-2,-21,-5,0,-1,0
1537907178485456,1,-1,-2,-16,4,0,0,0
1537907178494433,0,3,4,15,17,5,1,0
1537907178494433,-2,2,1,-27,-29,-8,-3,-1
1537907178509393,-3,-16,2,20,7,2,0,-1
1537907178509393,1,6,-1,8,-8,-3,-1,-1
1537907178511386,0,0,2,-17,1,0,1,0
1537907178511386,0,1,-3,-17,7,2,1,1
1537907178532330,-2,0,-3,-6,-1,-2,-1,-1
1537907178532330,1,1,3,17,1,2,1,0
1537907178533327,-2,-4,-1,12,6,-1,0,-2
1537907178533327,-1,0,-3,-53,-38,-8,-3,-1
1537907178545295,0,2,-1,15,4,0,0,1
1537907178545295,-2,3,4,-11,11,4,0,-1
1537907178554271,-1,0,-7,-26,-28,-7,-2,-1
1537907178554271,1,-8,-5,3,20,5,2,0
1537907178570228,-1,-6,4,11,3,2,1,-1
1537907178570228,1,12,-3,-23,7,3,2,-1
1537907178571225,-3,-5,-1,29,4,-1,-3,-1
1537907178571225,0,-8,-2,5,2,-3,-3,-1
1537907178592169,-3,3,-1,-27,-16,-4,-2,-1
1537907178592169,0,0,-5,10,4,1,1,-1
1537907178593167,1,0,2,20,4,1,-1,-2
1537907178593167,-1,1,-10,-36,0,0,1,1
1537907178605135,2,7,2,20,-18,-7,-3,-2
1537907178605135,-3,-23,-2,6,-5,-1,-1,-2
1537907178614111,-2,0,-5,-16,-11,-5,-1,-1
1537907178614111,-1,-2,5,63,16,2,-2,-2
1537907178629071,0,3,-4,1,2,-2,0,-1
1537907178629071,-3,8,-4,-23,-8,-3,-2,-1
1537907178631066,-1,1,3,13,10,4,2,-1
1537907178631066,0,0,2,27,12,4,1,1
1537907178652010,-1,-2,-10,-49,-23,-6,-2,-3
1537907178652010,-1,0,8,6,1,0,0,-1
1537907178653007,-1,-5,1,37,18,4,1,1
1537907178653007,-2,-1,3,3,-22,-9,-4,-2
1537907178665974,2,1,5,3,18,6,2,0
1537907178665974,0,-5,5,55,27,5,1,2
1537907178674950,-3,6,-10,-48,-48,-17,-8,-5
1537907178674950,2,-4,-1,40,19,7,4,1
1537907178689910,-2,0,2,27,-14,-6,-2,0
1537907178689910,-1,-4,3,72,54,14,1,2
1537907178690907,-1,-2,-4,-17,1,-3,-1,-2
1537907178690907,-2,-3,-1,-36,8,3,-1,-1
1537907178711851,-1,8,3,24,-2,-1,0,-2
1537907178711851,2,-9,-8,-80,-56,-15,-4,-2
1537907178713846,-1,5,5,54,28,8,2,1
1537907178713846,1,-2,1,5,26,8,2,1
1537907178725814,-5,-4,-8,-64,-42,-13,-5,-3
1537907178725814,3,6,6,30,28,8,3,1
1537907178734790,-1,-4,1,-48,-27,-5,-2,-1
1537907178734790,0,5,-1,3,0,-2,0,0
1537907178749750,-3,-3,-2,-15,12,6,1,-1
1537907178749750,-3,-5,-9,9,-45,-18,-8,-5
1537907178750747,0,0,2,-44,1,3,0,1
1537907178750747,-1,3,-2,-39,-4,-1,-1,-2
1537907178772688,2,-17,-9,4,20,5,0,-1
1537907178772688,-4,2,4,25,-19,-5,-3,-2
1537907178773685,2,-6,-1,8,12,3,0,1
1537907178773685,-3,2,5,9,-6,-2,-2,-2
1537907178785652,5,8,-3,81,28,8,5,3
1537907178785652,-5,-4,-17,-45,-19,-9,-4,-3
1537907178794629,0,-2,7,41,9,4,2,0
1537907178794629,-1,4,-4,32,23,5,2,1
1537907178809589,-3,-2,1,-25,-3,-2,-3,-2
1537907178809589,-1,2,-2,-38,-25,-5,-3,-2
1537907178810586,1,-6,3,-4,-4,-1,-1,0
1537907178810586,0,3,-14,11,-25,-8,-2,-2
1537907178831530,-3,-1,4,0,-6,-5,-1,-2
1537907178831530,0,-3,-5,36,19,5,2,1
1537907178833525,1,5,7,28,12,4,0,1
1537907178833525,-1,-1,-8,-40,11,6,1,-2
1537907178845493,0,-4,-2,63,-7,-4,-1,1
1537907178845493,-4,1,-11,-93,-61,-20,-8,-5
1537907178854469,2,1,11,56,59,15,5,4
1537907178854469,-3,-5,-4,-40,-44,-11,-4,-2
1537907178869428,0,2,-1,14,18,6,1,0
1537907178869428,2,-5,15,59,54,19,6,3
1537907178870426,-3,-3,-23,-97,-82,-24,-8,-4
1537907178870426,-1,3,-3,11,-24,-8,-4,0
1537907178892367,-1,4,4,-13,24,8,3,1
1537907178892367,-3,-5,-7,-3,-28,-9,-3,-3
1537907178893364,-1,4,-3,-53,-5,-3,-1,-4
1537907178893364,3,-4,-2,24,46,13,4,0
1537907178905332,-3,-4,-3,-112,-59,-14,-5,-1
1537907178905332,-1,1,4,36,21,7,3,0
1537907178914309,-3,0,1,45,29,7,1,0
1537907178914309,-3,-6,-4,-63,-37,-11,-4,-3
1537907178930267,2,2,11,35,52,14,5,3
1537907178930267,1,8,0,-22,21,4,2,1
1537907178935255,-5,-14,-18,-61,-102,-29,-10,-5
1537907178935255,-1,4,6,-1,6,3,0,0
1537907178952210,1,2,12,36,31,6,1,1
1537907178952210,-1,-1,-8,-22,10,1,0,1
1537907178954204,-1,0,-4,13,13,1,-1,-1
1537907178954204,1,-1,0,-19,0,-1,-3,-2
1537907178974149,-2,0,-1,44,-12,-5,-1,-2
1537907178974149,3,0,-1,2,23,7,2,2
1537907178976144,0,1,0,30,25,6,1,1
1537907178976144,-1,-9,12,12,3,-1,0,0
1537907178989108,-1,5,-1,-15,-13,-5,-3,-2
1537907178989108,-2,-4,15,-4,13,5,3,0
1537907178991103,-2,-1,-15,-33,-25,-8,-3,-2
1537907178991103,1,-1,7,29,10,3,1,2
1537907179012047,1,7,-17,-19,28,7,1,1
1537907179012047,-3,-8,-3,-15,-58,-17,-6,-4
1537907179013044,-3,-9,7,3,18,6,2,-1
1537907179013044,3,19,-9,-1,-7,-6,-2,-1
1537907179033988,-1,-1,3,23,9,2,-1,0
1537907179033988,1,3,-4,-14,8,2,0,0
1537907179035983,-2,-10,-2,-4,-6,2,1,2
1537907179035983,-5,-12,-6,-8,-17,-7,-3,-3
1537907179048949,-1,-2,2,-4,-31,-6,-2,-3
1537907179048949,1,0,-3,-37,-9,-4,0,-2
1537907179050943,3,10,6,8,21,6,3,0
1537907179050943,-1,-7,1,13,11,3,1,0
1537907179071887,-2,-7,-9,-13,2,-1,0,-2
1537907179071887,1,2,5,51,9,3,0,-1
1537907179072884,0,3,-3,10,4,-1,-1,-1
1537907179072884,1,5,-3,31,-5,-4,-2,0
1537907179094826,-2,-6,0,-6,-6,-1,-1,-1
1537907179094826,1,-2,-2,15,34,8,2,2
1537907179095823,0,6,5,-37,-2,1,-1,0
1537907179095823,-4,-7,-6,-8,-27,-9,-5,-3
1537907179108788,1,0,1,9,-2,-1,1,1
1537907179108788,1,-2,-3,-11,13,4,3,0
1537907179115770,-1,9,-1,32,11,0,0,-1
1537907179115770,-3,-7,4,-7,-6,1,0,-1
1537907179131727,0,-2,-1,-1,-3,-3,-1,-1
1537907179131727,-1,5,5,10,-18,-4,-3,-1
1537907179133722,-2,-2,1,25,15,3,1,0
1537907179133722,2,-2,2,61,32,8,5,2
1537907179154666,-4,11,0,-63,-58,-14,-5,-4
1537907179154666,-2,-20,-12,-6,-12,-4,-3,-3
1537907179155663,0,10,5,-25,14,3,0,0
1537907179155663,0,-7,-6,-16,-25,-8,-5,-1
1537907179168628,1,6,3,3,7,2,1,0
1537907179168628,-2,3,1,-7,1,-1,1,-1
1537907179175610,-2,-7,-6,34,6,2,0,-1
1537907179175610,-1,6,-2,-24,1,-3,1,-1
1537907179191567,-1,-6,-2,10,2,0,0,-2
1537907179191567,-1,1,0,-12,-3,-1,-2,-2
1537907179193562,2,-3,-7,10,-7,-3,0,-1
1537907179193562,-2,-1,-1,-5,6,1,-1,-2
1537907179214506,0,3,9,70,18,3,0,1
1537907179214506,-3,-10,-2,-70,-45,-12,-6,-4
1537907179215503,-2,4,-2,-27,-19,-6,-2,-2
1537907179215503,-1,-1,0,5,-20,-7,-3,-1
1537907179228468,-1,-4,-1,0,25,8,1,1
1537907179228468,-2,8,-4,21,13,2,1,0
1537907179236447,1,-7,4,6,-11,-4,-1,-1
1537907179236447,-3,-2,2,-18,-25,-6,-2,-3
1537907179251407,0,-4,0,7,12,0,0,-2
1537907179251407,2,8,6,7,14,4,-1,0
1537907179253402,-1,-5,-1,-27,-5,-2,-2,-1
1537907179253402,1,6,-4,-13,14,4,1,1
1537907179274346,-1,-10,-3,-14,12,3,0,2
1537907179274346,-1,-2,-4,-19,-28,-8,-3,-2
1537907179275344,-1,4,4,6,1,-1,-1,-2
1537907179275344,1,0,1,14,25,5,4,2
1537907179288309,-1,-1,-4,-11,-6,-2,-2,-1
1537907179288309,0,6,2,17,17,2,0,0
1537907179295290,-2,-10,3,29,-1,-2,-1,0
1537907179295290,0,-5,-6,-58,-5,-2,-1,-1
1537907179312246,-2,4,-5,20,-10,-2,-1,-3
1537907179312246,0,1,1,17,10,2,2,1
1537907179313244,2,4,-4,-19,20,6,2,0
1537907179313244,-2,-5,-6,-3,-27,-8,-3,-3
1537907179334188,0,-1,6,-4,5,-1,0,-1
1537907179334188,-1,5,-1,-14,-12,-4,-1,0
1537907179336183,-2,-7,-3,8,7,0,0,1
1537907179336183,-2,6,1,34,23,5,2,3
1537907179349148,-2,-13,-5,4,-13,-5,-2,0
1537907179349148,-2,0,-4,9,1,0,0,0
1537907179355133,-1,-2,6,13,-12,-3,1,-2
1537907179355133,2,3,-2,-1,15,4,0,-2
1537907179372086,3,2,-5,-4,-7,-3,-1,0
1537907179372086,1,9,4,0,13,2,0,1
1537907179373083,-3,-5,-6,16,-15,-4,-2,-1
1537907179373083,-2,-3,-1,13,9,3,0,-3
1537907179393029,-1,1,-2,7,-4,-4,-2,0
1537907179393029,-2,-11,-5,-47,-12,-3,-2,-1
1537907179402005,0,8,4,-22,-9,-3,-2,0
1537907179402005,-3,1,-4,-22,-24,-7,-3,-3
1537907179408986,0,-6,0,9,7,2,0,1
1537907179408986,3,2,5,-19,6,3,2,-2
1537907179415967,-2,2,-17,17,0,-3,-1,-1
1537907179415967,-2,-14,0,-9,-11,-3,-3,-4
1537907179431925,-2,7,4,-12,-11,-3,-2,-2
1537907179431925,-1,-5,5,31,12,4,1,0
1537907179432922,1,2,-5,-7,2,0,-1,1
1537907179432922,0,-1,5,9,6,2,1,0
1537907179454863,-3,-1,-4,5,1,0,-2,-3
1537907179454863,-1,-1,-2,37,9,1,1,0
1537907179455862,-2,-1,6,-4,1,0,-1,-1
1537907179455862,0,1,0,9,2,-2,-2,0
1537907179467829,-1,0,0,-11,-5,0,-1,0
1537907179467829,1,-2,3,6,15,4,1,0
1537907179476806,1,1,0,-32,-6,-1,2,-2
1537907179476806,-1,-3,-4,-8,-10,-5,-2,-1
1537907179491765,-1,1,-2,0,8,1,3,-1
1537907179491765,-2,-3,1,-15,-3,-1,-1,-1
1537907179493760,0,3,-6,-3,8,1,-1,-2
1537907179493760,1,-2,4,9,4,1,1,1
1537907179514704,-3,-2,0,-9,-4,-2,-2,-2
1537907179514704,-2,-11,-2,10,0,-1,0,0
1537907179515702,1,2,1,2,6,1,-2,-1
1537907179515702,2,7,11,42,34,10,3,2
1537907179527670,-2,-6,-11,-62,-16,-5,-1,-2
1537907179527670,-2,1,-3,9,-4,-1,-1,-2
1537907179536645,0,-2,-2,-30,-17,-4,-1,-1
1537907179536645,0,1,-1,-4,-1,3,1,-1
1537907179551605,0,1,7,16,-1,-2,-2,-1
1537907179551605,0,0,-4,-10,-4,-2,-2,-2
1537907179553600,-1,-8,6,36,11,3,1,0
1537907179553600,-2,4,-9,-33,-15,-6,-3,-1
1537907179574543,0,-1,0,-9,-4,-1,0,0
1537907179574543,-1,-2,3,-7,8,2,0,0
1537907179575541,-2,1,-5,13,-12,-5,-3,-3
1537907179575541,1,0,-1,-13,1,1,1,-1
1537907179588506,-1,-9,-5,5,-11,-4,-3,-1
1537907179588506,-1,3,3,8,4,-1,2,-3
1537907179604464,-1,-1,-7,-6,-3,-2,-3,-1
1537907179604464,-1,-7,0,26,-3,-3,-2,-1
1537907179611445,3,16,1,8,11,3,2,1
1537907179611445,0,-4,3,35,-3,-1,-2,0
1537907179613439,-1,-10,0,-2,4,0,-1,-1
1537907179613439,-1,0,5,-2,-2,0,-1,-2
1537907179634383,1,-5,1,36,22,7,0,0
1537907179634383,-2,2,-12,-20,-32,-9,-4,-2
1537907179635381,-1,0,6,24,11,2,0,0
1537907179635381,1,-4,3,-12,4,0,-1,2
1537907179648346,-2,8,2,-24,-6,-3,-1,-4
1537907179648346,1,-9,-3,-6,-6,-2,-1,-1
1537907179657322,0,1,-6,-28,-8,-1,-2,-1
1537907179657322,-2,-4,-4,-12,-5,-2,-1,-2
1537907179671284,2,1,4,-25,-10,-3,-2,-1
1537907179671284,-1,-1,1,16,26,6,1,0
1537907179679263,-3,-4,-4,-1,-46,-17,-5,-4
1537907179679263,-2,1,3,17,11,3,1,-1
1537907179694223,-2,-6,-7,0,-9,-5,-3,-1
1537907179694223,-2,-3,-4,-2,-2,-2,-1,-2
1537907179696218,0,1,12,-12,17,7,3,1
1537907179696218,1,5,-4,-5,3,-1,0,0
1537907179717162,-2,-10,-3,-29,-20,-7,-2,-4
1537907179717162,1,3,-1,-2,-2,-1,-1,1
1537907179718159,0,6,2,7,8,2,1,0
1537907179718159,-1,-5,-8,-4,2,-2,-1,1
1537907179732122,-3,0,-5,13,3,-2,-1,-4
1537907179732122,1,4,-4,-15,-3,-2,1,0
1537907179733119,0,-4,4,-12,-5,-4,-2,-1
1537907179733119,-2,1,-4,8,0,1,-3,-1
1537907179754063,-2,1,-2,20,3,1,1,-1
1537907179754063,-3,-8,-3,6,3,2,-1,-1
1537907179756058,0,2,-8,-32,-15,-5,-1,-1
1537907179756058,-1,-1,2,22,-6,-2,-2,-1
1537907179768026,2,5,3,-1,1,-3,-1,1
1537907179768026,-2,-5,-3,5,-3,-1,-1,-1
1537907179777003,-1,0,-3,38,15,3,-2,0
1537907179777003,-3,-1,-3,-39,-20,-6,-3,-3
1537907179790965,-3,-4,5,-30,-10,-1,0,-1
1537907179790965,1,6,0,10,-3,-2,-2,-1
1537907179791962,4,3,-8,1,17,5,2,0
1537907179791962,-3,-6,1,3,-9,-4,-1,1
1537907179813903,-2,-5,-3,18,5,1,-1,0
1537907179813903,-2,-7,4,2,-3,-3,0,-1
1537907179813903,-1,5,2,-9,-6,-2,-3,-2
1537907179813903,0,0,-4,-17,-8,-2,0,-3
1537907179835845,2,4,3,6,7,3,1,1
1537907179835845,-1,-5,-4,20,-4,-1,0,-1
1537907179836843,0,0,2,11,6,0,1,0
1537907179836843,-2,0,-2,-2,5,0,-2,-1
1537907179850806,-1,-4,-4,-4,0,-1,-1,1
1537907179850806,0,5,1,-7,-5,-2,-3,-2
1537907179851803,-1,-3,1,-10,-3,-2,-1,-3
1537907179851803,1,-1,0,6,4,-1,0,-1
1537907179873745,0,3,5,1,17,6,1,0
1537907179873745,1,1,-2,6,-2,-1,-1,0
1537907179874743,0,-3,-2,14,5,2,2,0
1537907179874743,-2,-2,-2,-6,-4,-4,0,-2
1537907179896683,0,-4,-2,8,-2,-1,-1,-2
1537907179896683,-1,0,-7,-17,-5,-2,-1,-1
1537907179896683,-2,-3,2,7,6,3,-2,0
1537907179896683,0,1,-6,5,1,-1,-1,0
1537907179911644,1,-1,2,2,11,1,1,0
1537907179911644,-2,0,-6,-6,-12,-3,-2,-1
1537907179911644,-2,2,2,11,-10,-5,-3,-1
1537907179911644,-3,-6,-1,14,-2,0,0,-1
1537907179933585,1,-9,-3,-3,-8,-5,-3,-1
1537907179933585,-1,4,2,16,0,-3,-2,-1
1537907179934583,-2,-3,0,-6,1,1,-1,0
1537907179934583,0,1,-4,1,-2,-1,-1,0
1537907179956524,-1,0,-3,1,-4,-2,-1,-1
1537907179956524,-2,1,-1,-39,-2,-2,-3,-1
1537907179956524,-1,0,-4,-5,-11,-3,0,-2
1537907179956524,0,2,6,23,11,2,1,-1
1537907179970486,-3,0,-6,-1,-6,-1,-2,-1
1537907179970486,-1,0,1,-12,2,0,1,0
1537907179978465,-1,-4,-3,10,4,0,1,-2
1537907179978465,0,-2,4,-18,-1,-2,1,0
1537907179993425,-1,-1,1,32,2,-1,-2,0
1537907179993425,-2,-1,1,-5,-10,-1,-2,-2
1537907179994423,-1,-1,-2,-12,-9,-2,-1,2
1537907179994423,0,-3,1,10,0,0,-2,-1
1537907180016362,-1,2,-2,-5,-1,-2,-1,-1
1537907180016362,-2,-3,-1,11,6,0,1,-1
1537907180017360,-1,-2,-3,-17,-9,-3,-1,-2
1537907180017360,1,0,0,-7,1,-1,0,-2
1537907180030325,-2,-1,-1,-7,-2,-1,-2,-1
1537907180030325,1,0,-1,3,3,0,-1,-1
1537907180038304,-1,-2,1,0,4,1,-1,-2
1537907180038304,-2,0,-3,-2,-2,-2,-4,-1
1537907180053264,-3,-2,-2,-10,-6,-3,-1,-2
1537907180053264,-1,0,1,1,-1,2,1,0
1537907180054261,1,0,-2,8,2,-1,0,1
1537907180054261,3,-2,0,-7,-3,0,0,0
1537907180076203,0,1,-1,3,2,0,-1,2
1537907180076203,-7,-2,0,-6,-2,-1,-4,-8
1537907180077200,-5,-3,-3,1,-1,-3,-3,-6
1537907180077200,0,6,-3,0,-3,1,3,2
1537907180091162,-6,-8,-2,-6,-1,-1,1,-1
1537907180091162,7,-3,-2,0,0,0,0,0
1537907180092160,3,2,1,0,1,1,1,4
1537907180092160,4,2,-2,2,3,-1,0,1
1537907180114103,-1,5,0,0,-2,-1,-2,-3
1537907180114103,1,-4,-2,-1,-1,-1,1,3
1537907180114103,-1,-1,1,8,5,3,-1,-3
1537907180114103,-9,-6,-2,-6,-5,-4,-1,-2
1537907180136043,1,5,2,2,3,2,-1,-1
1537907180136043,-16,-7,-8,-9,-9,-10,-9,-12
1537907180137040,1,-3,0,3,2,2,1,0
1537907180137040,10,7,1,-12,1,1,0,2
1537907180151003,7,0,0,27,2,1,-1,2
1537907180151003,-5,-4,0,11,2,0,0,3
1537907180152001,-7,-5,-4,-2,-6,-5,-3,-5
1537907180152001,-5,0,-3,-2,-7,-2,-2,-2
1537907180173942,11,-3,2,-9,4,3,3,4
1537907180173942,-5,-1,0,-3,9,3,1,-2
1537907180173942,-9,1,1,-5,-9,-6,-2,0
1537907180173942,4,-4,-2,5,4,-1,-3,-5
1537907180195883,-1,-3,-3,-10,-4,-2,-3,-2
1537907180195883,8,5,0,0,2,1,1,3
1537907180196881,3,0,0,0,5,2,-1,-2
1537907180196881,-3,-2,-3,0,-3,-2,-2,-3
1537907180210844,-6,0,-1,-6,-4,2,-3,0
1537907180210844,4,3,0,1,-2,-1,12,4
1537907180211841,-3,0,1,2,1,-3,-12,-6
1537907180211841,-1,-2,0,2,-1,1,1,-2
1537907180233781,-4,-1,-1,0,-4,6,-9,-7
1537907180233781,-1,4,-1,-4,-1,-3,7,2
1537907180234779,3,-2,-1,0,-1,0,-3,2
1537907180234779,-4,-1,0,-1,-2,-3,-1,-1
1537907180255723,-2,-1,-1,-7,-1,3,3,0
1537907180255723,1,1,0,-3,-1,-1,2,-6
1537907180256720,2,1,-1,0,-2,-1,0,0
1537907180256720,-1,-4,-1,2,0,1,-3,-3
1537907180271680,-2,-3,-3,-3,-2,-5,2,0
1537907180271680,3,-3,0,0,-2,0,-4,11
1537907180271680,-4,-4,-2,-1,-2,-2,0,-8
1537907180271680,-3,-1,-2,-1,0,0,-2,-1
1537907180294620,-1,-1,0,-3,-1,-7,-1,-2
1537907180294620,5,0,0,0,-2,0,-3,1
1537907180295617,0,1,-1,0,2,3,6,-1
1537907180295617,-11,-2,-3,-4,-2,-6,-5,-3
1537907180316560,4,-1,-3,-2,-2,-4,-2,-3
1537907180316560,-2,-1,-2,0,-1,0,-4,-1
1537907180316560,3,1,0,-1,0,2,3,7
1537907180316560,-5,0,1,0,-2,0,0,-5
1537907180331520,-8,-1,0,-1,0,-4,3,2
1537907180331520,4,-3,-2,-2,-3,0,-4,-7
1537907180331520,-1,0,-1,1,0,0,-4,-2
1537907180331520,3,-1,1,1,-1,-2,0,1
1537907180353461,-3,0,-1,-2,-1,0,-1,-1
1537907180353461,-3,0,0,-2,-1,-1,-1,0
1537907180354458,-2,-2,1,-2,-1,0,3,3
1537907180354458,7,2,1,0,1,0,9,5
1537907180376400,1,0,-1,0,0,-2,-13,2
1537907180376400,5,0,0,0,1,6,-4,-6
1537907180376400,0,-1,-1,1,0,2,8,25
1537907180376400,3,1,-2,-3,-2,7,5,17
1537907180391360,-13,-6,-1,-1,-3,-30,-9,-11
1537907180391360,-11,-1,-1,0,-2,-4,-3,-11
1537907180392357,-5,-2,0,0,2,5,-4,-13
1537907180392357,3,2,-2,0,1,6,0,-5
1537907180413301,5,1,-1,0,0,6,9,11
1537907180413301,3,-1,0,0,1,3,0,9
1537907180414299,-4,0,0,-2,-1,-4,-1,-3
1537907180414299,-3,-4,1,0,0,-3,-3,-1
1537907180436240,1,2,-1,0,1,3,1,-1
1537907180436240,10,1,0,-1,-2,-4,1,3
1537907180437237,-5,1,-2,-2,-2,0,-1,-4
1537907180437237,5,-1,1,-1,-1,-4,1,-3
1537907180450202,-7,-2,-2,-2,-1,5,2,-4
1537907180450202,-7,-4,-2,-2,-1,0,-3,-3
1537907180458181,6,0,0,-1,-1,-3,0,4
1537907180458181,-4,-1,-1,1,1,0,-4,0
1537907180474138,2,0,-1,-2,-4,0,1,-2
1537907180474138,-5,-1,-2,-2,-1,-3,-1,-2
1537907180474138,0,-1,-2,0,0,-1,-1,2
1537907180474138,-2,0,-1,0,-1,1,-4,-6
1537907180496080,5,1,0,2,3,21,6,-1
1537907180496080,1,1,-1,-2,-6,-33,-10,-7
1537907180497077,3,-1,-3,-2,-2,-3,7,34
1537907180497077,-4,0,0,0,-1,-3,-1,3
1537907180519019,3,-2,0,-2,0,0,5,2
1537907180519019,1,-1,0,-2,1,23,6,2
1537907180520017,0,-1,-1,-1,-2,-14,-5,-12
1537907180520017,-3,-2,1,-1,1,3,3,-1
1537907180533979,1,0,-2,-3,-1,-5,-4,2
1537907180533979,-5,-1,-2,0,1,3,-1,0
1537907180533979,2,-1,-2,0,0,1,-2,-7
1537907180533979,0,1,1,0,0,-2,-3,2
1537907180555923,-3,-2,-2,0,-3,-3,-3,-6
1537907180555923,0,0,-1,0,-1,-3,-2,0
1537907180556919,-2,-3,-2,-1,0,1,-2,-7
1537907180556919,2,0,-2,-1,-1,-1,1,1
1537907180570880,2,1,0,0,-1,-3,1,5
1537907180570880,-10,-4,-2,-1,-2,0,-3,-7
1537907180578859,-1,1,0,0,0,0,-1,-4
1537907180578859,0,-2,-2,-1,-3,-1,-2,-3
1537907180593819,2,-2,1,0,1,-6,-1,-1
1537907180593819,-1,-3,-1,-1,-3,2,2,3
1537907180594816,-2,-2,0,-2,-2,1,-4,-7
1537907180594816,-3,-1,-1,0,-1,-5,-11,-31
1537907180615760,-5,0,0,-1,-1,-2,6,27
1537907180615760,5,0,0,2,2,13,8,13
1537907180616757,0,-1,-1,1,-4,-16,-8,0
1537907180616757,1,0,-1,-2,-1,0,-3,-11
1537907180630720,-5,-1,-1,0,-1,-7,-8,-13
1537907180630720,-4,-1,0,-2,-2,-3,-3,-8
1537907180638700,2,-1,-1,0,0,5,4,7
1537907180638700,1,-1,-1,-1,1,4,3,13
1537907180653659,-1,-1,-1,-2,-1,0,-4,-8
1537907180653659,2,0,1,2,3,-1,2,7
1537907180654656,-1,-1,0,0,-1,5,0,-9
1537907180654656,-1,-1,-1,-1,-3,-5,-1,4
1537907180676598,-2,-3,-1,1,1,3,1,-7
1537907180676598,4,1,0,-1,-1,-3,-2,-5
1537907180677595,-2,1,1,-1,0,2,-1,-3
1537907180677595,-2,-1,1,0,-1,-2,0,1
1537907180690560,-1,-2,0,-4,-5,-3,0,0
1537907180690560,1,2,0,3,2,2,1,4
1537907180698539,1,-2,-2,-1,-1,-4,-5,-7
1537907180698539,2,1,0,2,-1,0,1,7
1537907180713499,-7,-3,-1,-2,0,-1,-2,-9
1537907180713499,-1,0,0,0,-2,-4,-2,0
1537907180714496,-5,-1,-2,-3,-1,2,2,-4
1537907180714496,-1,-2,0,2,3,-1,-1,1
1537907180736437,4,0,0,2,2,16,1,1
1537907180736437,-2,1,-1,-3,-8,-36,-8,-7
1537907180736437,-3,-1,-1,1,-1,1,2,1
1537907180736437,4,1,0,2,1,0,1,-2
1537907180750400,-1,-1,-3,-1,3,2,-1,-3
1537907180750400,3,16,-5,-23,7,10,1,2
1537907180758379,-7,-27,-11,22,-24,-13,-6,-6
1537907180758379,-4,9,2,-38,-19,-5,-5,0
1537907180773339,1,1,-3,33,12,3,0,0
1537907180773339,-7,-16,-15,-37,-20,-3,-3,-4
1537907180774337,6,22,8,79,17,0,0,1
1537907180774337,-9,13,26,-30,23,14,3,-3
1537907180796280,-8,-18,-19,-33,-49,-32,-16,-12
1537907180796280,13,26,-7,65,54,25,13,9
1537907180797277,2,-19,-70,22,-20,-5,-5,-2
1537907180797277,2,-4,-54,9,-7,-1,2,4
1537907180819217,8,21,24,-46,-9,-4,3,6
1537907180819217,-5,-6,53,35,8,1,-4,-1
1537907180820214,-3,-5,7,-40,21,12,7,2
1537907180820214,1,9,58,27,-27,-11,-4,-3
1537907180834176,-4,-13,-88,8,45,7,5,-1
1537907180834176,-6,-11,-4,23,-51,-20,-10,-9
1537907180834176,-1,11,115,-20,23,11,0,-4
1537907180834176,2,-2,-89,-9,-52,-20,-2,5
1537907180856118,1,11,16,31,-13,-1,2,1
1537907180856118,2,-2,-13,-1,70,29,6,3
1537907180857115,-1,7,11,-26,-5,-9,-3,-1
1537907180857115,-9,-30,-28,-56,-14,-10,-9,-7
1537907180879056,7,2,51,80,92,32,9,6
1537907180879056,-5,-4,-47,-109,-128,-52,-17,-10
1537907180880054,-1,-4,-24,30,38,13,4,1
1537907180880054,9,9,70,78,67,33,11,6
1537907180894017,1,1,-21,-26,-45,-18,-4,0
1537907180894017,-1,-12,10,3,44,18,5,0
1537907180895014,1,-7,29,64,75,19,7,6
1537907180895014,-10,-8,-41,-74,-66,-27,-12,-8
1537907180915959,3,-5,17,78,40,7,5,4
1537907180915959,-6,-10,12,40,23,6,-2,-6
1537907180916957,4,4,-13,-48,16,11,8,5
1537907180916957,-8,-4,19,-27,-34,-14,-4,-6
1537907180939895,-3,3,-16,-79,4,-3,-2,-5
1537907180939895,-1,-1,-19,-83,-78,-20,-11,-3
1537907180939895,-3,-5,-15,13,-6,0,-4,-5
1537907180939895,6,3,-1,-100,-48,-16,-3,1
1537907180953857,3,8,-14,10,20,15,6,5
1537907180953857,-7,-7,-24,39,-32,-18,-5,-4
1537907180954856,-4,-11,-14,-16,-8,0,-4,-6
1537907180954856,1,11,29,-21,-18,1,4,3
1537907180976796,2,0,13,-14,36,17,3,-3
1537907180976796,-1,-9,7,-67,-31,-9,0,0
1537907180977794,2,9,-32,-8,-21,-7,-1,0
1537907180977794,5,-8,-5,127,98,42,13,10
1537907180999737,-8,5,-47,-71,-54,-36,-14,-9
1537907180999737,0,-1,74,18,49,14,3,2
1537907180999737,-4,-7,-11,-6,-37,-20,-7,-6
1537907180999737,2,-4,-18,41,81,22,3,2
1537907181013698,-9,-5,64,-14,-64,-13,-6,-6
1537907181013698,8,4,-50,12,4,2,1,5
1537907181014695,1,-1,0,-51,-18,-1,0,1
1537907181014695,0,12,-6,52,-3,-5,0,-1
1537907181036635,-8,-13,-6,66,-5,-2,-3,-5
1537907181036635,-2,-4,-1,-40,-40,-13,-2,-1
1537907181037632,5,9,21,-1,-12,1,-1,2
1537907181037632,-1,2,13,-47,14,1,-1,-2
1537907181058576,4,-1,21,69,12,-3,0,1
1537907181058576,2,4,-7,44,37,15,5,3
1537907181066555,0,5,-8,-7,7,-1,-2,0
1537907181066555,3,5,6,0,13,-2,-3,-2
1537907181074533,-4,-39,33,-2,37,13,1,-1
1537907181074533,-2,8,21,-16,26,12,4,-2
1537907181075531,2,9,-40,-32,-51,-17,-4,2
1537907181075531,0,13,21,21,2,-6,-1,-1
1537907181096475,4,-10,-36,-76,0,3,1,5
1537907181096475,-4,0,12,7,6,4,-1,-4
1537907181097472,-3,-2,14,36,6,-1,-3,-4
1537907181097472,-11,-10,-14,-43,-18,-9,-5,-6
1537907181119414,0,26,11,-55,-8,-3,0,-1
1537907181119414,-8,-22,-12,-78,-69,-24,-10,-8
1537907181120411,6,11,-20,2,3,4,2,4
1537907181120411,1,-9,-13,-13,2,-4,-2,-1
1537907181133376,-1,-11,11,48,-15,-5,-1,1
1537907181133376,0,0,-3,66,54,11,4,1
1537907181134374,-9,6,15,-16,-12,-8,-5,-8
1537907181134374,3,-7,-23,28,-2,-3,-1,2
1537907181156315,-3,5,33,17,-3,-3,-1,-2
1537907181156315,3,16,-12,28,24,7,2,3
1537907181157312,1,-15,-1,23,9,1,1,2
1537907181157312,-1,1,22,-27,0,3,1,1
1537907181179254,1,16,18,0,-11,-3,-3,-2
1537907181179254,-3,-14,-15,8,3,2,1,0
1537907181180252,3,10,15,-22,-8,-1,1,3
1537907181180252,-5,-11,7,-7,10,1,-4,-1
1537907181193218,7,2,-16,-12,-4,-1,2,4
1537907181193218,-5,2,11,-22,3,3,0,-3
1537907181194216,-1,-5,-3,10,9,0,0,-3
1537907181194216,-2,1,37,1,-32,-11,-2,-3
1537907181217152,-5,-14,-72,-14,-12,-3,-1,-3
1537907181217152,8,6,-28,40,20,6,2,3
1537907181217152,-5,-7,4,-24,-13,-6,-3,1
1537907181217152,2,1,-5,23,8,2,-1,0
1537907181239094,-4,-3,18,-9,-8,-1,-3,0
1537907181239094,0,2,3,3,-1,-1,0,-1
1537907181240091,1,-2,-2,6,3,1,0,0
1537907181240091,-1,-10,0,-8,0,-1,-1,-1
1537907181254054,-4,3,-11,4,-2,-2,0,-1
1537907181254054,1,3,7,9,7,3,1,0
1537907181254054,0,-1,1,1,-2,-2,1,-2
1537907181254054,0,-6,-13,15,4,2,1,2
1537907181276992,-2,-7,-6,-4,-3,1,0,0
1537907181276992,7,-3,2,9,1,0,-1,-1
1537907181277990,-8,-12,3,-5,-4,-2,-3,-4
1537907181277990,-4,-10,-12,3,0,-2,0,-4
1537907181298934,3,0,-1,4,-2,-1,1,1
1537907181298934,4,2,8,-6,-3,1,-1,2
1537907181299931,2,6,-2,4,2,1,1,2
1537907181299931,-6,-1,-6,1,4,1,-1,2
1537907181313894,5,8,1,0,0,0,-2,-8
1537907181313894,-9,3,-1,5,0,-1,-1,-2
1537907181313894,-1,0,-4,-2,0,0,-1,-1
1537907181313894,2,5,-5,5,1,1,3,2
1537907181336832,-2,4,1,-3,-2,-1,0,2
1537907181336832,-1,4,1,0,-1,-2,0,-4
1537907181337830,2,2,0,-1,-2,-2,-1,1
1537907181337830,-7,0,2,2,2,0,-1,-3
1537907181359771,-1,-1,-5,-3,-4,-1,1,-1
1537907181359771,-3,1,1,-1,3,0,0,2
1537907181360768,-4,-3,2,-2,-1,-1,-1,0
1537907181360768,10,0,-2,1,-1,2,-1,-3
1537907181374731,2,0,0,-1,-1,-2,-3,1
1537907181374731,-6,0,-3,0,1,20,3,-4
1537907181381712,-1,-1,0,-2,-3,-38,1,1
1537907181381712,0,0,-4,-3,-3,-1,-5,0
1537907181396672,-5,0,-1,1,-1,0,-4,-3
1537907181396672,4,2,3,-3,-3,-5,-2,3
1537907181402656,-3,0,-2,1,0,11,0,-5
1537907181402656,3,1,-2,0,1,1,4,1
1537907181419611,5,2,4,-3,4,1,1,6
1537907181419611,-14,-6,-4,14,-6,-6,-5,-11
1537907181420609,-3,-3,-2,3,2,6,-2,-2
1537907181420609,0,1,0,7,-2,-3,-3,-1
1537907181432577,2,1,-3,-28,-21,-1,-1,1
1537907181432577,3,0,-2,-10,5,0,0,2
1537907181441552,4,-3,-2,-7,2,5,0,0
1537907181441552,-7,-5,0,-2,-3,-3,-3,-4
1537907181456513,-4,-3,1,47,39,13,3,-2
1537907181456513,0,9,-11,-57,-52,-20,-5,-2
1537907181458507,-1,-12,-4,-3,-4,0,-2,2
1537907181458507,0,4,1,1,6,6,2,1
1537907181479451,-3,-8,0,0,1,-2,0,-3
1537907181479451,3,1,4,21,19,1,1,1
1537907181480450,-5,1,0,2,-4,5,-1,-3
1537907181480450,-3,1,-3,-7,-4,-3,-1,0
1537907181493415,0,0,-1,3,-3,-4,-2,-4
1537907181493415,0,-2,2,6,3,-1,-2,1
1537907181501393,3,3,1,-5,-2,2,1,1
1537907181501393,-2,-2,-1,5,3,-1,0,-2
1537907181517351,-4,2,-2,-11,-13,-5,-3,-3
1537907181517351,9,-2,1,6,6,4,2,8
1537907181518350,-6,-3,0,1,2,0,-5,-8
1537907181518350,-5,-3,-3,-2,-3,-3,0,-4
1537907181539291,0,-3,-2,-2,-7,-2,1,1
1537907181539291,7,-3,0,2,4,0,1,4
1537907181540288,0,-2,-1,1,0,-1,-1,-1
1537907181540288,-1,-2,-2,-4,-1,-1,-3,-2
1537907181553254,0,-2,0,-5,-4,-2,-1,0
1537907181553254,-5,-4,2,9,6,2,0,-3
1537907181562230,3,2,-2,-4,-5,-1,2,2
1537907181562230,0,-2,-2,-2,-3,1,-2,0
1537907181576193,-3,1,-1,0,0,0,-3,0
1537907181576193,3,2,2,7,2,-2,1,2
1537907181583174,-1,1,-3,-9,-1,1,-3,-1
1537907181583174,-1,0,2,-4,-2,-3,0,0
1537907181599131,-2,2,-5,-3,0,0,-2,-1
1537907181599131,-2,-1,-1,2,1,0,-3,-1
1537907181601126,-1,0,-2,6,7,2,1,-1
1537907181601126,1,-2,-4,-12,-12,-4,0,-1
1537907181613094,2,3,2,-4,-7,-4,0,0
1537907181613094,-4,-2,2,22,0,-1,-2,-2
1537907181622070,-1,-1,-3,-10,1,0,-2,-3
1537907181622070,0,-2,0,-2,5,2,-1,1
1537907181636033,-1,-2,-3,-1,2,1,-1,-1
1537907181636033,-2,-2,-1,-3,0,-1,-2,-3
1537907181643014,1,3,1,10,-1,-1,1,3
1537907181643014,-4,0,-4,0,-4,-4,-2,-4
1537907181659969,-2,0,0,-1,-6,-2,0,-1
1537907181659969,1,0,1,-1,2,-1,-1,-4
1537907181660966,-3,-1,0,1,0,2,-1,0
1537907181660966,1,0,-1,1,-2,-2,1,1
1537907181672934,-1,-3,-1,-7,2,2,0,2
1537907181672934,-3,-3,-1,-2,-2,0,-2,-2
1537907181681910,1,0,2,-2,-1,-1,-2,1
1537907181681910,1,-2,-1,10,2,1,-1,-3
1537907181695873,-1,-1,2,4,-2,-2,-2,-2
1537907181695873,0,0,-2,-8,1,0,2,2
1537907181702855,1,-3,-1,2,1,-2,1,2
1537907181702855,-3,-1,-3,-8,-5,-1,-3,-3
1537907181718811,-1,0,-2,-1,0,1,-1,-2
1537907181718811,-1,-1,-1,-2,2,0,-2,-1
1537907181726790,1,2,-2,-4,-8,-3,0,1
1537907181726790,1,0,0,2,4,2,1,1
1537907181741750,-2,-1,-2,-1,1,0,0,-2
1537907181741750,0,-2,-1,-3,-6,-2,1,-2
1537907181743745,-2,-1,1,6,1,1,-1,-3
1537907181743745,0,-1,-2,-1,-1,0,-2,-1
1537907181755713,1,0,0,0,-4,-2,-3,-1
1537907181755713,2,-2,0,-4,5,1,0,2
1537907181762694,-6,1,2,10,-3,-3,-2,-2
1537907181762694,2,2,-1,-8,4,2,2,1
1537907181779648,-4,-5,8,56,1,-2,-1,-2
1537907181779648,-2,11,-4,-43,-15,-4,-2,-2
1537907181780646,3,0,-7,-4,-2,2,0,-1
1537907181780646,1,0,-5,2,28,9,3,4
1537907181801590,-4,-48,-15,-32,-14,-5,-1,-2
1537907181801590,3,49,2,-13,-11,-5,-5,-5
1537907181803585,3,12,31,41,-4,-2,-1,0
1537907181803585,4,-12,12,92,28,7,1,1
1537907181816550,2,32,8,-86,12,10,6,3
1537907181816550,-10,-97,-33,0,-33,-16,-4,-6
1537907181822534,5,89,-38,-19,0,-3,-2,-1
1537907181822534,2,-13,44,33,-36,-16,-8,0
1537907181839490,9,5,-3,30,29,12,4,7
1537907181839490,0,-13,25,-15,42,14,5,4
1537907181840488,0,-12,-4,60,28,10,3,1
1537907181840488,-5,-2,2,27,20,-3,-4,-6
1537907181861431,-4,11,2,-38,-83,-21,-7,-6
1537907181861431,-5,-3,-74,-104,-33,-7,-2,-5
1537907181863426,-3,-39,-82,52,9,2,0,0
1537907181863426,1,26,62,-26,-65,-18,-6,-2
1537907181875393,1,-15,-35,16,60,19,7,5
1537907181875393,0,22,62,79,22,7,1,1
1537907181884370,-3,-15,-41,-84,-58,-18,-5,-2
1537907181884370,-4,-11,36,25,70,24,7,1
1537907181899330,-6,11,-33,-52,-66,-36,-14,-10
1537907181899330,3,9,0,20,16,4,-3,-2
1537907181900328,2,-7,50,97,91,23,10,7
1537907181900328,-5,4,-53,-102,-90,-29,-8,-6
1537907181922268,1,-2,59,14,38,16,4,2
1537907181922268,5,13,-49,120,47,13,5,4
1537907181923268,-5,-38,63,-68,-83,-28,-12,-9
1537907181923268,9,3,-21,-34,56,23,9,8
1537907181935234,-5,13,-36,-16,-40,-15,-7,-4
1537907181935234,-1,-8,46,-18,-34,-12,-3,-1
1537907181944210,4,-5,-91,-29,58,19,5,3
1537907181944210,-5,-4,43,69,-34,-17,-7,-5
1537907181959171,1,-8,5,63,31,11,4,1
1537907181959171,-3,-4,41,18,21,8,3,1
1537907181961166,-3,4,54,-27,-52,-17,-5,-6
1537907181961166,-1,1,-88,-43,8,3,1,1
1537907181982109,4,10,34,27,27,7,1,2
1537907181982109,-5,-15,-9,38,12,2,2,-1
1537907181983106,-2,21,27,-42,-15,-3,-3,-3
1537907181983106,-3,-21,-30,-20,7,6,1,-1
1537907182004051,-4,7,6,80,31,9,-1,-4
1537907182004051,-12,-28,-27,-83,-28,-14,-9,-7
1537907182006046,4,3,33,37,24,10,5,5
1537907182006046,2,17,-13,11,-14,-11,-4,0
1537907182019010,-2,-24,-3,-30,-26,-7,-2,-1
1537907182019010,3,10,-6,-17,2,-1,-1,1
1537907182021007,-6,-10,-12,15,4,-3,-4,-4
1537907182021007,2,32,14,-5,-7,-1,-1,-3
1537907182042947,2,-3,-3,7,30,5,1,3
1537907182042947,2,9,6,59,17,3,0,1
1537907182044941,-5,-19,-19,-84,-68,-20,-7,-4
1537907182044941,0,-8,1,27,34,12,5,2
1537907182055910,-5,2,-12,-100,-97,-28,-11,-8
1537907182055910,2,8,17,17,9,5,2,3
1537907182063889,-1,-9,3,21,21,4,0,-2
1537907182063889,-3,-5,24,0,10,2,-1,-4
1537907182078849,-1,-2,2,-9,-9,-4,-2,-1
1537907182078849,6,14,-15,-28,8,4,1,3
1537907182080844,-4,-6,42,-3,-12,-4,-3,-1
1537907182080844,-3,-5,19,-94,-67,-21,-7,-7
1537907182101788,0,3,-54,-1,0,-3,-2,2
1537907182101788,2,-6,13,10,-9,-3,-2,0
1537907182102785,-8,5,-4,28,41,15,6,0
1537907182102785,-5,-20,9,41,25,6,1,-2
1537907182115750,-3,9,0,-7,-7,-5,-1,-3
1537907182115750,0,9,-6,26,2,0,-1,-1
1537907182124727,5,4,-2,-16,0,-1,-2,1
1537907182124727,-3,-2,-15,2,8,3,0,1
1537907182139687,-1,-6,11,40,0,1,0,-1
1537907182139687,-2,-3,-14,-27,-17,-5,-1,-1
1537907182140684,0,-2,7,8,11,2,2,-1
1537907182140684,0,-3,-15,-7,16,5,3,1
1537907182161628,2,7,36,-38,20,4,1,1
1537907182161628,-1,0,-21,-9,-11,-4,-1,-1
1537907182163623,-3,-5,-23,13,-5,-3,-1,-1
1537907182163623,-1,4,47,11,7,2,-2,1
1537907182175591,2,-2,-11,1,8,3,-1,1
1537907182175591,0,1,6,-5,2,-1,-2,-2
1537907182184567,3,-1,-27,0,1,0,-1,0
1537907182184567,0,-2,27,28,5,1,-2,2
1537907182199527,-4,-18,-23,-8,6,0,-1,-2
1537907182199527,-3,15,19,-15,-18,-9,-4,-3
1537907182200525,1,-3,-20,4,13,3,0,0
1537907182200525,-1,4,26,10,-19,-8,-3,0
1537907182221469,0,-2,-23,16,3,1,1,0
1537907182221469,1,-2,-16,0,16,6,2,1
1537907182223465,-3,-4,20,3,-11,-8,-3,-3
1537907182223465,-3,3,-31,-15,-13,-2,-1,-3
1537907182235433,-2,-3,13,4,14,3,3,-1
1537907182235433,-1,-4,-6,-10,-10,-4,-2,-3
1537907182244409,3,7,18,5,7,0,0,2
1537907182244409,1,-7,-32,-6,-2,-1,1,-1
1537907182259368,-1,-1,3,18,10,1,-1,0
1537907182259368,-1,-6,12,-19,-13,-4,1,-1
1537907182260365,0,1,-3,-5,-6,-2,-2,-1
1537907182260365,1,-2,-22,0,0,1,-2,0
1537907182281308,0,-3,14,5,2,1,-1,-1
1537907182281308,-3,4,7,8,2,-3,-1,0
1537907182283303,3,-1,-5,-10,-3,0,-1,1
1537907182283303,-1,-2,-17,-14,0,-3,-1,-1
1537907182295270,-2,2,16,11,5,1,-1,-2
1537907182295270,-2,-3,-3,-4,-4,-1,-3,-1
1537907182304247,-2,-3,-6,-2,0,-1,-1,-2
1537907182304247,4,-1,-4,2,5,0,3,1
1537907182319206,4,1,6,4,-3,-2,-1,2
1537907182319206,-9,-3,-4,1,0,-1,-2,-4
1537907182321202,-7,-3,3,-3,0,0,-1,-3
1537907182321202,-1,0,-7,1,0,0,-2,-1
1537907182342146,6,1,-1,-1,-5,-2,-1,2
1537907182342146,5,-1,1,-3,0,-1,1,3
1537907182343143,-2,0,2,2,0,-1,-1,-3
1537907182343143,-1,-5,-9,-3,0,0,0,-2
1537907182355111,-3,-3,-1,3,1,1,-2,-2
1537907182355111,3,-1,5,1,-2,1,-1,-1
1537907182364087,2,1,2,-3,-4,0,-1,3
1537907182364087,0,-4,-8,-2,-3,1,0,1
1537907182379046,-3,2,6,5,5,1,3,4
1537907182379046,-4,-2,-3,-4,-4,-4,-4,-18
1537907182385030,2,0,-1,-2,-1,-2,-4,-4
1537907182385030,-3,1,-5,-6,-4,3,6,-4
1537907182402982,2,3,1,1,2,1,9,7
1537907182402982,-2,-1,0,2,-1,-11,-21,-7
1537907182404977,5,0,-1,-1,-1,-1,0,-1
1537907182404977,-9,-1,-3,0,1,-1,-3,-5
1537907182414950,-2,0,2,1,-1,2,3,-2
1537907182414950,2,2,0,-2,0,3,9,9
1537907182423926,1,1,2,1,2,1,1,0
1537907182423926,4,1,-3,-3,0,-1,-3,2
1537907182438886,-1,-2,2,5,6,1,1,-1
1537907182438886,-2,-3,-9,-15,0,0,1,4
1537907182445868,1,1,7,7,-14,-7,-4,-3
1537907182445868,-2,1,-4,-14,-11,-4,0,0
1537907182461825,0,0,2,-8,10,1,-3,-3
1537907182461825,-1,-3,-14,-33,-20,-4,0,0
1537907182462823,-5,-2,5,16,13,5,3,3
1537907182462823,1,-3,-7,-19,-27,-14,-5,-1
1537907182486759,3,4,-1,5,1,-2,-5,-3
1537907182486759,-3,-10,8,15,-1,2,3,1
1537907182488753,-5,-1,-6,-7,7,1,2,-1
1537907182488753,2,-2,-1,4,5,0,-1,-2
1537907182490748,-1,4,1,3,-2,-2,-3,-3
1537907182490748,4,7,0,2,4,3,2,4
1537907182500721,-2,1,-3,0,-4,-3,0,-1
1537907182500721,-1,-2,2,11,12,3,-2,-1
1537907182512689,-3,-3,-6,-6,-8,-4,-2,-3
1537907182512689,1,-1,-1,6,1,-1,0,-1
1537907182521665,-2,-3,-4,-18,-6,-2,-2,-1
1537907182521665,-2,1,-1,1,4,3,1,1
1537907182527649,-1,-5,0,1,-5,-2,-1,-4
1537907182527649,-1,-2,3,17,9,3,1,0
1537907182536625,0,-3,-2,-11,-9,-7,-3,-3
1537907182536625,1,-2,0,-1,8,1,2,0
1537907182550588,-1,-6,-2,-6,-3,-2,-2,-1
1537907182550588,-5,-5,-3,10,-9,-6,-3,-5
1537907182559564,0,-1,-3,-5,-2,1,2,-1
1537907182559564,-2,-3,0,-1,-17,-6,-2,-3
1537907182572529,-4,-6,0,3,4,-1,-3,-2
1537907182572529,-1,1,0,-5,4,0,1,0
1537907182581505,-1,-1,-4,4,1,0,-1,1
1537907182581505,-1,1,0,0,6,1,0,-1
1537907182587489,-1,1,-4,1,-4,-3,0,0
1537907182587489,0,0,0,-1,1,-1,-1,-1
1537907182596465,1,0,-4,-4,-2,-2,0,0
1537907182596465,-1,-4,0,8,5,1,-1,-1
1537907182610428,-5,-2,0,-4,-7,-2,1,1
1537907182610428,-5,-3,-1,2,2,2,1,-2
1537907182619405,-2,-4,-1,-2,2,2,1,1
1537907182619405,2,3,1,6,4,2,0,1
1537907182633370,3,1,-1,-1,-6,-1,-1,0
1537907182633370,1,2,2,-2,1,0,0,0
1537907182642344,2,0,-1,0,0,1,-1,-1
1537907182642344,1,-4,-2,2,3,2,1,0
1537907182648328,2,-1,1,2,-6,-3,-1,-1
1537907182648328,1,0,-1,-8,-3,-2,2,0
1537907182657304,-2,-3,1,14,2,0,2,0
1537907182657304,-1,1,3,-16,-1,1,-1,1
1537907182670268,1,-2,-1,-2,9,2,1,-1
1537907182670268,-3,-1,0,18,2,-1,-2,-1
1537907182679244,-1,0,-6,-22,-14,-5,-3,-1
1537907182679244,-2,-2,0,8,3,1,0,-1
1537907182693207,-3,0,-1,-4,1,-1,-1,-1
1537907182693207,1,-1,0,-6,2,1,0,1
1537907182702183,-2,-2,2,5,3,1,-1,-2
1537907182702183,-1,-1,-2,3,2,-1,-1,-1
1537907182708167,1,1,-3,-7,-6,-4,-3,0
1537907182708167,-2,-1,1,-2,0,-2,0,0
1537907182717143,-3,-2,0,2,0,0,0,-3
1537907182717143,0,0,0,-1,-2,0,1,2
1537907182730109,-1,-2,-1,4,-1,-2,-1,-1
1537907182730109,0,-1,0,-1,-1,0,-1,-3
1537907182739085,2,1,2,-1,1,0,-1,-1
1537907182739085,-3,-1,-1,4,0,-1,-1,-2
1537907182754044,1,-1,0,-7,-2,1,0,-1
1537907182754044,1,0,-2,-3,0,0,0,-1
1537907182760028,-1,1,-1,-3,-1,-2,-2,-1
1537907182760028,1,0,-3,-6,4,1,0,0
1537907182768007,-3,-4,5,18,2,-3,-1,-2
1537907182768007,0,3,-10,-10,-5,-3,-2,0
1537907182776983,-4,2,-1,11,-18,-5,-2,-3
1537907182776983,-3,-28,-2,-8,4,2,1,0
1537907182789948,1,16,-14,52,23,4,0,-2
1537907182789948,3,24,32,-60,-21,-5,-1,0
1537907182798924,-2,-3,-52,-45,-17,-9,-3,-3
1537907182798924,8,24,42,84,29,10,4,4
1537907182812886,-8,-5,-37,-83,-55,-14,-6,-5
1537907182812886,3,-2,11,15,67,24,7,7
1537907182821863,-1,-22,-15,72,36,6,3,4
1537907182821863,-9,-7,57,50,-11,-10,-11,-11
1537907182827846,4,12,-24,-30,-38,-11,-4,-2
1537907182827846,-1,-12,-48,8,-14,-9,-3,0
1537907182836823,3,19,-8,26,-3,-5,-3,-1
1537907182836823,1,-7,1,12,28,12,5,4
1537907182850786,-2,-2,17,-48,14,2,-2,-1
1537907182850786,-1,-16,11,42,37,7,2,-2
1537907182859762,-6,-16,28,-34,-25,-8,-3,-4
1537907182859762,-2,1,-29,-42,-1,-2,1,1
1537907182874721,-2,2,8,26,21,2,-1,-1
1537907182874721,2,-1,7,84,2,3,2,3
1537907182880706,3,33,24,-105,-57,-13,-3,-4
1537907182880706,-2,-3,60,74,76,18,5,1
1537907182887687,-9,-18,-70,-113,-96,-38,-14,-7
1537907182887687,1,-7,-69,-8,30,6,0,2
1537907182896663,6,12,78,28,11,6,2,4
1537907182896663,1,-3,-11,-11,-5,-1,-1,2
1537907182910626,-4,-29,40,63,56,21,7,2
1537907182910626,-3,20,25,-39,-70,-23,-8,-5
1537907182919602,-1,-14,-17,0,23,7,1,0
1537907182919602,2,7,-26,-59,2,3,0,0
1537907182933564,4,-6,20,-24,-7,-6,2,1
1537907182933564,-1,7,-1,10,5,-3,-4,-3
1537907182941544,1,-7,-8,13,55,18,5,2
1537907182941544,-2,-3,-19,-8,-14,-8,-4,-1
1537907182956504,-6,5,5,-3,-21,-4,-1,-4
1537907182956504,0,1,7,4,3,3,3,1
1537907182958500,-1,-4,-22,4,-4,0,-1,-2
1537907182958500,3,18,9,-6,13,3,0,-1
1537907182970467,0,-6,-28,21,18,5,0,-1
1537907182970467,4,11,21,-15,-7,-2,1,1
1537907182979444,-10,-36,14,-32,-17,-9,-5,-5
1537907182979444,-1,-3,-32,-30,-35,-12,-4,-1
1537907182993406,5,24,9,30,33,12,4,3
1537907182993406,-2,0,19,-1,-7,-6,-2,-2
1537907183000386,-1,3,-31,2,16,3,0,-2
1537907183000386,-4,-2,21,2,-10,-7,-2,-4
1537907183016344,-5,-1,-48,-71,-72,-22,-8,-4
1537907183016344,-4,-8,39,12,16,9,0,0
1537907183018339,-2,4,7,17,0,-1,-2,-1
1537907183018339,-2,3,-10,-11,-12,-1,-1,-2
1537907183030306,4,-1,23,67,34,10,5,3
1537907183030306,-3,-12,-15,-36,-9,-5,-2,-3
1537907183039283,2,9,-7,93,13,2,0,-1
1537907183039283,0,3,12,-5,-6,-2,-1,-1
1537907183053245,0,1,6,17,15,6,0,1
1537907183053245,-2,-13,-9,-34,-17,-6,-4,-2
1537907183060227,3,9,9,29,18,7,2,1
1537907183060227,3,1,-47,23,-29,-8,-2,-2
1537907183077182,-3,-11,30,29,24,4,0,0
1537907183077182,-1,3,0,26,21,5,2,1
1537907183078178,-3,-1,-4,-63,-50,-18,-5,-3
1537907183078178,-1,-7,4,-33,-13,-3,-5,-1
1537907183090146,-1,0,-18,1,16,5,2,0
1537907183090146,1,10,13,-12,-6,0,0,0
1537907183099122,0,-6,-6,-9,0,-2,-1,2
1537907183099122,-3,2,1,14,-12,-5,-2,-2
1537907183114081,-2,-4,15,-19,34,9,3,1
1537907183114081,-4,-12,-4,-4,-29,-9,-4,-4
1537907183120065,0,3,-19,-7,7,3,1,0
1537907183120065,1,-1,-19,-15,6,2,1,0
1537907183137020,1,-3,18,34,17,5,3,0
1537907183137020,-2,0,-17,-2,5,0,-1,-1
1537907183138017,0,-2,10,-5,-5,-2,-3,-1
1537907183138017,-2,-1,-2,-8,-9,-3,-2,0
1537907183149985,1,1,0,-6,-8,-4,-1,-1
1537907183149985,0,-3,0,7,-5,-2,-1,-1
1537907183158961,2,2,3,-3,2,1,0,2
1537907183158961,-1,-4,-9,-10,3,-2,-2,0
1537907183173921,1,3,10,17,-2,1,-1,-1
1537907183173921,-3,0,-7,-11,1,0,-1,-3
1537907183180903,0,-2,3,1,6,0,1,-1
1537907183180903,-3,-2,-9,-10,-4,-2,-1,-1
1537907183196860,-1,2,8,1,-4,-1,0,2
1537907183196860,3,0,-3,3,-1,0,-1,1
1537907183197858,1,-1,-5,-4,2,0,-1,-1
1537907183197858,-3,-1,1,-2,-4,-1,0,-2
1537907183210824,0,2,4,0,-4,-1,1,0
1537907183210824,-3,-5,-6,-1,3,-1,-1,0
1537907183218802,0,-4,1,1,1,-1,-2,-2
1537907183218802,0,-5,-2,-10,-4,-2,-1,-1
1537907183233763,0,-3,3,8,4,3,-2,0
1537907183233763,1,-7,-7,-5,-5,-4,-1,0
1537907183240745,2,0,1,-5,-1,0,0,2
1537907183240745,2,1,0,-1,-3,-3,-2,1
1537907183256702,-8,-1,-1,-1,-3,-2,-3,-3
1537907183256702,-2,3,-2,-1,-1,-1,-4,-6
1537907183258697,-2,4,4,2,6,6,15,4
1537907183258697,0,-1,-3,-5,-4,-7,-8,-1
1537907183279640,0,1,2,4,1,4,-5,-1
1537907183279640,1,2,-2,-2,0,3,2,7
1537907183280637,4,1,-1,-3,-3,-16,-8,-11
1537907183280637,-9,2,0,2,5,6,5,-4
1537907183293602,0,2,-1,-3,-7,-6,1,-1
1537907183293602,-5,-2,-1,2,1,7,0,-2
1537907183300583,3,5,0,-2,0,5,2,5
1537907183300583,0,2,0,0,-1,-3,-2,0
1537907183316540,0,-1,-1,-3,-5,-1,-2,-3
1537907183316540,0,-2,-2,-2,-1,-2,-1,0
1537907183318535,0,3,5,18,12,3,-1,3
1537907183318535,-1,-5,-11,-40,-19,-8,-6,-5
1537907183330503,-2,-1,-1,-1,3,2,1,-1
1537907183330503,2,0,0,5,0,-1,2,0
1537907183339479,-3,-3,-1,4,9,2,-3,1
1537907183339479,3,-3,4,5,-9,2,1,4
1537907183353442,2,-3,-5,-12,-6,-2,0,-1
1537907183353442,-8,-2,-2,-2,-3,-5,-5,-5
1537907183360424,-6,-3,-2,-11,1,2,-4,-3
1537907183360424,4,2,5,35,15,1,2,1
1537907183384360,0,2,0,-27,-9,-5,1,3
1537907183384360,-2,1,-2,1,3,0,-2,-4
1537907183385358,-2,-1,-2,-7,-6,-1,-3,-2
1537907183385358,0,1,-2,-1,1,2,2,-1
1537907183398323,2,1,2,14,3,-1,0,-2
1537907183398323,0,1,1,1,-1,0,-3,-1
1537907183407300,-1,-2,-2,-2,1,-1,-2,-1
1537907183407300,-2,-2,-2,-6,-6,-1,0,1
1537907183421263,0,1,1,4,7,2,1,1
1537907183421263,0,-2,1,5,1,-1,2,-1
1537907183428244,-2,-3,1,16,1,-1,-2,0
1537907183428244,1,0,-4,-9,-2,-3,-2,-1
1537907183444201,-5,-4,-2,3,-2,-2,-4,-4
1537907183444201,4,-1,-1,-3,-4,-3,-1,0
1537907183446195,1,-1,-3,-19,-11,-5,-1,0
1537907183446195,-2,-2,1,2,8,4,-1,-2
1537907183458163,-1,-2,0,4,-2,-3,-1,-1
1537907183458163,0,0,-1,1,3,0,2,2
1537907183467140,-5,-3,-1,1,-4,-2,-3,-5
1537907183467140,-1,-1,-1,2,-3,-1,0,-1
1537907183481102,0,0,2,3,2,1,2,0
1537907183481102,2,1,0,-5,-5,-2,0,-1
1537907183488083,-4,0,-2,-5,-1,0,0,-1
1537907183488083,-2,-2,0,2,0,2,-1,0
1537907183504040,-1,1,1,4,0,-1,-3,-1
1537907183504040,2,0,-1,-5,-1,-3,0,0
1537907183506034,1,-1,-1,3,2,0,1,1
1537907183506034,-1,1,-1,3,-1,-3,-3,-2
1537907183518002,1,-1,0,-8,-1,1,1,0
1537907183518002,-4,-5,-2,5,-4,-1,-1,-1
1537907183526978,2,0,-1,-7,-7,-3,-3,1
1537907183526978,-3,-4,-2,2,3,1,1,0
1537907183540940,-2,-2,-2,-1,-1,-2,-1,-3
1537907183540940,1,1,1,0,1,0,-1,0
1537907183547922,1,0,1,9,3,2,0,0
1537907183547922,-2,-3,-2,-10,-6,-3,-1,-1
1537907183563879,-1,0,0,13,7,2,1,-1
1537907183563879,-1,-3,-2,-13,-11,-4,-2,-1
1537907183565874,-2,0,0,-1,0,-1,-2,-2
1537907183565874,2,1,-1,-4,-2,0,-1,0
1537907183577842,-3,-2,0,3,2,1,-1,-1
1537907183577842,0,1,-1,3,5,-1,0,-1
1537907183586818,-1,-2,-1,-3,-1,1,0,1
1537907183586818,-2,0,-2,-4,-5,-3,-2,-2
1537907183601778,2,1,-1,-4,-6,-5,-2,1
1537907183601778,-2,2,3,4,7,2,0,-1
1537907183602775,-3,9,-3,-2,-3,-3,1,-3
1537907183602775,0,-16,-2,-8,3,-1,0,0
1537907183624716,2,-9,1,-9,-14,-5,-2,0
1537907183624716,-5,-24,-20,-8,13,4,0,-1
1537907183625714,-1,-7,26,41,-5,-6,-4,-4
1537907183625714,-5,12,-19,-62,-8,-1,0,-4
1537907183646658,-2,6,-36,-64,-60,-20,-9,-6
1537907183646658,2,-13,10,71,55,14,5,2
1537907183648653,3,-14,-3,31,37,14,7,7
1537907183648653,0,58,1,-65,-91,-34,-15,-11
1537907183660620,-5,-35,-19,53,18,6,1,0
1537907183660620,7,21,-46,-111,-36,-6,-4,2
1537907183667602,-2,-12,20,58,28,6,2,2
1537907183667602,7,2,-4,93,86,27,10,7
1537907183684556,-8,4,39,-68,-53,-18,-8,-8
1537907183684556,-6,9,17,-7,-28,-8,-6,-6
1537907183685554,3,-2,21,-27,25,15,7,0
1537907183685554,-6,-11,-25,24,-30,-17,-7,-6
1537907183706498,2,4,29,76,36,10,5,3
1537907183706498,2,-6,1,-55,68,25,11,4
1537907183708493,-7,14,40,-29,-114,-47,-18,-12
1537907183708493,-2,-8,1,23,55,21,8,3
1537907183721458,4,1,-90,48,45,12,6,6
1537907183721458,0,10,52,-79,-78,-24,-8,-3
1537907183727442,2,-3,-18,37,44,16,5,3
1537907183727442,-4,-7,72,2,-20,-8,-5,-3
1537907183744396,-3,-4,-6,-37,-5,-4,-2,-4
1537907183744396,0,-4,-10,87,25,8,5,2
1537907183745394,-1,-4,-54,-93,0,-1,-2,-1
1537907183745394,-3,-26,41,22,-35,-11,-3,-1
1537907183766338,1,9,12,-6,30,11,3,0
1537907183766338,-1,8,-1,27,-8,-6,-4,-4
1537907183768333,-3,3,-14,-40,-24,-7,-3,-2
1537907183768333,2,-1,-11,28,47,15,6,4
1537907183780301,-6,-24,2,-27,-19,-7,-2,-3
1537907183780301,-2,20,22,26,-15,-7,-3,-4
1537907183789277,1,-11,-27,-18,18,7,1,2
1537907183789277,3,2,-16,12,2,3,2,2
1537907183804237,-1,9,29,20,-3,-3,0,0
1537907183804237,-3,-9,37,37,81,25,5,4
1537907183805235,-3,10,-62,24,-96,-33,-11,-6
1537907183805235,-3,-20,-14,9,-5,-5,0,0
1537907183827175,2,8,21,-5,18,5,2,0
1537907183827175,-5,-11,-21,114,12,1,-1,-3
1537907183828173,1,13,34,-33,25,8,3,1
1537907183828173,2,3,-10,-16,10,3,1,-1
1537907183840141,0,15,-17,16,-22,-7,-2,2
1537907183840141,2,-16,13,-25,-7,-2,1,0
1537907183849116,1,8,-10,56,26,6,-1,-1
1537907183849116,4,-1,-13,1,9,1,-1,2
1537907183866072,-3,-5,6,-34,-9,1,-1,-5
1537907183866072,-6,4,-5,-12,-12,-5,-3,-4
1537907183867069,-5,-11,-1,-33,-42,-13,-7,-7
1537907183867069,0,11,13,-1,17,6,0,-1
1537907183887015,5,0,10,27,13,1,0,2
1537907183887015,0,3,-7,-35,-30,-11,-4,-3
1537907183888013,-1,-3,-1,9,19,5,1,0
1537907183888013,0,-6,-11,-2,25,5,2,1
1537907183899981,-1,4,27,65,-3,-4,-2,-2
1537907183899981,-3,-13,-18,-39,-29,-11,-5,-3
1537907183908957,1,9,8,55,29,7,5,2
1537907183908957,-6,-20,-10,13,-2,-1,-2,-3
1537907183923916,12,29,2,20,56,15,6,8
1537907183923916,-2,-9,21,19,-3,-2,-2,-2
1537907183931895,3,-2,-6,4,15,5,0,3
1537907183931895,-5,-5,23,-18,-33,-8,-3,-2
1537907183946855,-3,-4,-24,-9,-2,0,-2,-5
1537907183946855,1,0,-16,4,-6,-3,0,1
1537907183947853,-3,-1,5,17,3,2,-1,-1
1537907183947853,2,7,-10,-9,-23,-7,-2,1
1537907183953837,0,-26,-25,-29,-16,-6,-4,-1
1537907183953837,6,25,-5,-12,-8,-2,-1,1
1537907183960818,-3,-19,48,-12,12,7,3,0
1537907183960818,-5,-9,-24,-13,-31,-13,-8,-5
1537907183975779,-3,9,9,0,-13,-5,-2,-3
1537907183975779,-4,-11,-54,57,14,3,0,1
1537907183982760,3,14,18,-71,-29,-6,-1,0
1537907183982760,-7,-20,27,58,1,3,1,-5
1537907183999715,-1,8,-17,-14,1,-1,2,-1
1537907183999715,-2,-10,-21,-12,-21,-8,-3,-1
1537907184000714,-3,-1,5,13,10,3,0,-3
1537907184000714,3,25,13,-1,8,2,0,0
1537907184013678,0,-5,-31,-28,-22,-4,-2,-1
1537907184013678,1,-1,-2,-5,3,0,0,-1
1537907184020659,2,-4,-9,-3,27,8,1,0
1537907184020659,0,7,-13,-7,-5,-3,0,-1
1537907184036617,-2,-14,21,-19,-16,-5,-1,0
1537907184036617,-5,5,20,-16,-1,1,0,-2
1537907184042600,3,-5,-12,17,6,0,0,1
1537907184042600,0,-4,7,32,30,10,2,0
1537907184059555,0,17,16,-21,-1,-5,-3,-2
1537907184059555,2,-9,-62,-8,-14,-3,0,-1
1537907184060553,-1,4,1,12,-4,-1,-2,-1
1537907184060553,-2,-7,-12,-23,12,3,2,2
1537907184073518,1,0,22,-8,-3,-2,0,0
1537907184073518,0,0,19,0,0,-1,-2,0
1537907184080500,-1,-10,-14,2,2,-1,-1,-2
1537907184080500,0,9,3,-3,7,2,1,0
1537907184096457,-1,-8,8,4,-7,-1,0,0
1537907184096457,-1,-6,-25,-17,-6,0,0,-2
1537907184102440,-1,3,0,-2,-10,-3,-1,0
1537907184102440,0,0,-4,-32,-9,-2,-1,0
1537907184119395,-3,-9,1,19,2,2,0,-2
1537907184119395,3,1,12,1,6,1,1,1
1537907184120392,-3,1,2,-17,-2,1,0,-2
1537907184120392,-1,1,-8,-31,-11,-3,-2,-2
1537907184133357,-2,-4,-9,8,9,1,0,0
1537907184133357,-1,5,19,-2,-1,-3,-1,0
1537907184140338,1,-4,-8,-1,-4,-2,-2,0
1537907184140338,1,-1,-4,-12,-2,-2,-2,0
1537907184156296,0,-1,-4,3,-2,1,-1,-2
1537907184156296,0,-2,8,-1,1,-1,0,-1
1537907184163277,-2,-1,0,-3,-6,-4,-1,0
1537907184163277,2,-2,-9,-4,-5,-1,0,0
1537907184179234,-5,2,0,3,5,1,-2,0
1537907184179234,-3,0,10,0,3,-1,-2,-3
1537907184180232,-3,0,-3,0,-3,-1,-1,-2
1537907184180232,0,1,0,-4,-3,-4,0,0
1537907184194195,3,-2,-2,0,2,-1,0,1
1537907184194195,2,-1,6,-5,1,1,-1,0
1537907184200179,0,-3,-1,3,0,-1,-1,0
1537907184200179,-3,1,-2,-5,-7,3,3,-1
1537907184224115,-6,-13,-2,0,5,24,10,8
1537907184224115,1,1,4,-1,-8,-51,5,-8
1537907184226111,-1,-2,-4,-4,-8,-11,-73,-10
1537907184226111,0,-2,1,1,0,-4,4,-2
1537907184239075,-1,1,-2,1,1,5,6,4
1537907184239075,-4,1,1,0,5,27,4,-12
1537907184241071,0,1,-4,-3,-8,-30,-8,-8
1537907184241071,-2,2,-3,-2,1,3,-5,2
1537907184254035,-2,0,-3,-1,-1,-2,-1,-6
1537907184254035,2,2,3,0,1,6,13,15
1537907184260021,-1,-1,0,1,0,10,18,2
1537907184260021,1,-3,-3,-5,-4,1,-5,-3
1537907184275977,5,1,1,1,2,-11,4,4
1537907184275977,0,0,2,-1,1,7,-7,1
1537907184282958,-6,-5,-3,1,3,7,9,-1
1537907184282958,-3,-1,-2,-7,-7,-7,-3,1
1537907184298918,2,2,2,-1,0,-4,-4,-3
1537907184298918,1,-3,4,5,8,2,-8,3
1537907184300911,-1,1,1,23,5,6,11,-3
1537907184300911,-2,-4,-2,4,-9,-8,3,0
1537907184313876,-3,0,-1,-6,-8,-9,-11,-8
1537907184313876,-6,-2,-3,-9,-5,2,-4,-4
1537907184321855,3,2,0,-2,5,4,14,8
1537907184321855,1,3,1,2,7,3,-3,1
1537907184335816,1,-2,-1,1,-2,-1,-6,-3
1537907184335816,-1,1,1,4,2,1,-1,1
1537907184342798,0,0,0,-7,-1,2,6,0
1537907184342798,0,0,0,7,2,-2,-2,-3
1537907184359752,-1,0,-3,-5,-5,-2,-3,-2
1537907184359752,-2,-1,-1,-5,-3,-1,1,0
1537907184360750,0,2,-3,12,-2,1,2,1
1537907184360750,-2,-1,-5,-20,5,4,-2,-3
1537907184372717,-2,1,2,6,7,-2,0,-2
1537907184372717,-1,0,-1,-10,-9,0,-5,-2
1537907184381693,2,0,1,14,1,3,2,2
1537907184381693,-1,-1,-5,-8,-9,-5,-1,0
1537907184395656,1,-2,-1,-2,0,-1,-2,0
1537907184395656,0,-1,0,-8,4,-1,-2,0
1537907184402637,-3,-2,0,6,6,1,1,-1
1537907184402637,0,-1,1,6,-1,-2,0,0
1537907184419592,3,-2,-1,-10,0,0,-1,0
1537907184419592,-2,-5,-1,6,-3,-1,-2,-3
1537907184420590,2,-2,-1,-10,-2,-1,3,2
1537907184420590,1,-2,1,2,4,0,-2,0
1537907184432558,-3,-3,0,2,-4,-2,-1,-2
1537907184432558,-2,-1,-1,-4,0,0,-2,-2
1537907184441533,-4,-2,-1,-4,-3,0,2,-2
1537907184441533,-2,1,0,-5,-4,-2,-2,0
1537907184456494,-2,1,-3,0,-4,-3,-2,-1
1537907184456494,0,1,-1,5,-1,-1,0,-1
1537907184462479,-1,0,-4,-13,-4,-1,0,0
1537907184462479,0,0,-1,2,3,2,0,-1
1537907184479434,1,-1,2,8,2,1,-1,0
1537907184479434,0,0,-1,-1,-3,-2,-1,0
1537907184480432,1,0,-3,-14,-8,-4,0,-1
1537907184480432,-1,-1,2,8,4,2,2,0
1537907184493396,-2,-2,0,-11,1,-1,1,-1
1537907184493396,-1,-2,-5,-2,-12,-5,-4,-1
1537907184501374,-1,-1,0,3,1,0,0,-1
1537907184501374,-3,-1,-3,-5,1,0,0,-2
1537907184516334,-1,0,0,0,-5,-3,-1,-2
1537907184516334,0,-1,-2,-3,0,0,0,1
1537907184523316,2,1,1,-6,-1,-1,1,1
1537907184523316,-4,-2,-1,5,4,1,-2,-1
1537907184540270,-3,0,-3,1,-5,-5,-1,-3
1537907184540270,0,0,3,9,7,3,2,0
1537907184542266,-2,-2,-4,-12,-7,-2,0,0
1537907184542266,-1,-1,-2,-1,3,0,-1,2
1537907184553235,0,0,-1,0,0,0,-1,1
1537907184553235,-3,-2,3,20,1,-1,0,-3
1537907184562211,2,-2,-2,-23,-10,-4,-2,0
1537907184562211,-3,-2,2,-2,-5,-1,-1,-3
1537907184576173,-3,-2,-2,4,3,-1,-1,-1
1537907184576173,-2,-2,-1,1,3,2,-1,-3
1537907184583154,-2,-3,1,4,1,-1,1,-1
1537907184583154,0,-1,-3,-1,-2,-2,1,0
1537907184598115,1,1,-3,-3,0,1,0,0
1537907184598115,-2,0,-1,-3,2,-1,1,2
1537907184605096,-2,-1,-2,1,5,2,0,-2
1537907184605096,-2,-1,-3,-11,-20,-10,-4,-2
1537907184622050,-1,-2,-2,-10,0,1,0,1
1537907184622050,0,-1,0,1,-5,-3,-1,0
1537907184623048,-2,-2,-4,8,6,2,0,0
1537907184623048,-1,-3,0,-3,-6,2,0,0
1537907184636013,0,-1,0,5,3,0,0,-2
1537907184636013,-1,2,-5,-10,-4,-2,0,1
1537907184642995,-3,-2,-2,2,1,-1,-1,-2
1537907184642995,0,0,0,2,2,1,1,2
1537907184658953,0,-1,0,3,0,1,3,1
1537907184658953,-1,-2,0,3,4,3,4,2
1537907184664937,0,2,1,-10,-1,0,-1,-2
1537907184664937,1,1,2,9,3,1,0,-1
1537907184672915,3,4,-2,-11,-4,-1,-2,-1
1537907184672915,2,-2,1,-2,0,-1,-1,1
1537907184681891,1,0,0,5,-1,-1,-1,0
1537907184681891,1,0,2,-1,2,-1,0,-1
1537907184696853,-1,0,1,1,5,2,-1,0
1537907184696853,1,0,-2,1,-1,0,-2,-2
1537907184702836,0,0,-1,-5,-1,0,-1,-1
1537907184702836,1,1,-1,3,2,1,0,-1
1537907184717796,0,-1,-2,4,4,1,1,-1
1537907184717796,2,0,0,-12,-1,1,-1,-1
1537907184725775,-1,1,0,5,-7,-5,-2,0
1537907184725775,1,1,-1,0,2,-2,-1,-1
1537907184740735,-4,-3,-1,10,-1,-4,-2,-3
1537907184740735,1,-1,-1,-9,-1,-2,-3,-2
1537907184741734,-4,-2,-3,-1,0,-2,-2,-1
1537907184741734,-6,-1,-1,-7,-2,-1,-1,-2
1537907184756692,-3,-2,-2,1,-12,-7,-4,-1
1537907184756692,-3,-2,-3,-4,-3,-2,-2,-1
1537907184762675,2,0,0,4,-3,0,0,0
1537907184762675,-1,0,-2,-4,1,0,-2,0
1537907184777637,-1,0,0,-2,4,0,1,0
1537907184777637,-2,-3,1,6,0,-2,-3,-2
1537907184785613,0,-2,-2,-7,0,0,1,-1
1537907184785613,-1,1,0,-2,-1,-1,-2,-1
1537907184800574,1,1,0,-3,-3,1,0,0
1537907184800574,-2,-1,0,0,-3,0,0,-1
1537907184801571,-2,0,0,0,0,-1,-1,-2
1537907184801571,0,-2,-1,0,0,-1,-2,-2
1537907184823512,-2,0,0,3,-1,1,-1,-1
1537907184823512,-1,-1,-2,-5,-1,-3,-1,-1
1537907184824510,2,-1,-1,-1,-1,0,-1,1
1537907184824510,-1,-1,1,4,1,-2,-1,0
1537907184846451,0,-1,0,-5,-3,-3,-3,-1
1537907184846451,-3,-2,-2,-1,-3,0,-1,-3
1537907184846451,-2,-2,1,4,-2,-3,-1,-2
1537907184846451,1,-1,-1,0,2,0,0,0
1537907184868393,-1,-1,0,7,5,2,0,0
1537907184868393,1,2,4,16,1,-1,1,1
1537907184869392,-1,-1,-5,-18,-4,-3,0,0
1537907184869392,-1,-2,-2,-10,-4,-1,0,-1
1537907184883353,-1,-2,0,-5,3,3,0,-1
1537907184883353,1,0,-1,13,7,0,-1,0
1537907184884350,-1,-2,0,1,-6,0,-1,-2
1537907184884350,2,-1,-2,1,-2,-2,-3,0
1537907184906290,1,-2,-1,-3,2,1,0,1
1537907184906290,2,0,1,-2,2,-1,-1,-2
1537907184906290,-4,1,1,5,0,-1,-1,0
1537907184906290,-4,-2,-3,-7,1,-1,-1,0
1537907184928232,-2,-3,0,-9,-13,-5,-3,-2
1537907184928232,-1,-1,-3,-7,-6,-2,-1,-1
1537907184929229,2,-1,1,5,4,-2,-1,0
1537907184929229,-1,0,-1,-7,-2,0,0,0
1537907184943192,0,0,1,8,5,0,0,1
1537907184943192,0,0,0,6,-3,0,-2,-2
1537907184944189,0,-1,-1,1,-2,-1,-2,-1
1537907184944189,-2,-2,-3,-9,0,0,-2,0
1537907184966131,1,-1,0,-2,-3,-3,1,0
1537907184966131,-1,1,-1,-7,2,-1,0,-1
1537907184967128,-1,-1,0,-2,3,0,-1,-1
1537907184967128,-1,-2,3,18,2,1,1,0
1537907184989069,1,2,-2,-9,-2,0,-1,-1
1537907184989069,-2,-2,-4,-15,-8,-5,-2,-1
1537907184989069,3,-2,-1,3,-1,-1,1,1
1537907184989069,-2,0,0,1,-1,0,0,-3
1537907185004029,-1,1,0,1,3,1,0,-1
1537907185004029,-3,0,2,7,7,4,3,-1
1537907185004029,6,2,0,-5,-4,-3,2,3
1537907185004029,-2,0,1,1,0,-1,-2,-4
1537907185025971,-5,-7,-4,-1,-4,-3,-4,-5
1537907185025971,3,1,-2,-9,-6,-2,1,4
1537907185026968,-1,-4,0,3,1,6,12,1
1537907185026968,-4,1,0,-2,-1,9,-10,-18
1537907185047912,15,0,0,5,10,18,12,83
1537907185047912,-3,-2,-2,-7,-9,-36,4,-29
1537907185055891,1,3,3,6,14,50,4,36
1537907185055891,13,-12,0,8,4,7,48,70
1537907185063870,-25,13,-3,-9,-17,-11,-69,-66
1537907185063870,-1,0,0,5,10,80,7,74
1537907185063870,30,29,13,7,8,-7,32,-100
1537907185063870,-42,-20,-10,-3,13,61,-45,-41
1537907185085812,35,10,7,2,-33,-101,30,33
1537907185085812,-18,-25,-19,-20,-29,-47,-88,-113
1537907185086810,2,4,4,3,18,73,29,86
1537907185086810,-32,0,-8,-11,-12,-51,-14,-44
1537907185108751,-10,-3,-4,2,15,7,53,-121
1537907185108751,3,-9,0,1,-12,-63,11,84
1537907185109748,43,-4,-6,-4,-8,-55,-55,44
1537907185109748,16,5,-3,-2,-1,8,-24,11
1537907185122713,-16,-15,6,8,28,119,38,-37
1537907185122713,4,-12,-1,-3,-6,-47,60,-39
1537907185130691,-72,-7,-11,-15,-31,-115,-78,-4
1537907185130691,-5,-14,-6,-1,5,66,-48,-80
1537907185145652,-20,-1,-6,-5,-24,-128,21,62
1537907185145652,22,10,0,-1,15,121,11,60
1537907185146649,-37,-4,5,2,5,50,47,-92
1537907185146649,35,-14,-3,-3,-22,-108,-27,-76
1537907185168589,6,13,2,1,9,35,-28,22
1537907185168589,-62,-8,1,2,17,93,-8,-126
1537907185169587,-6,4,5,4,5,24,-4,-40
1537907185169587,73,17,7,8,7,-1,65,127
1537907185182552,-14,-13,-8,-11,-9,-78,-86,-94
1537907185182552,40,31,7,9,-8,-78,-10,36
1537907185191528,-10,-41,-16,-18,-28,-48,-39,55
1537907185191528,-18,49,14,6,9,57,10,29
1537907185206488,15,-10,-2,1,4,42,14,43
1537907185206488,14,10,-4,-6,-12,-60,-52,40
1537907185206488,-7,-22,0,8,25,119,80,-83
1537907185206488,-2,7,-2,-5,-6,34,6,19
1537907185228430,-27,1,-7,-13,-22,-99,-77,-1
1537907185228430,-17,-14,0,1,11,27,11,-82
1537907185229427,27,12,-1,-3,-14,-91,-40,37
1537907185229427,-28,-20,-4,-4,-9,-41,19,-22
1537907185253364,14,9,5,6,19,100,45,-8
1537907185253364,14,-2,5,4,8,26,2,-20
1537907185254363,-11,0,-3,1,-1,-25,-2,13
1537907185254363,5,-8,-3,-1,-1,-3,-24,-4
1537907185266330,10,-15,-2,2,0,7,13,7
1537907185266330,-3,-4,2,2,9,40,35,-2
1537907185267327,-17,16,-2,-5,-12,-46,-25,-75
1537907185267327,-3,-4,-1,3,7,0,10,-6
1537907185288271,0,-6,-2,0,4,63,4,-6
1537907185288271,13,-2,0,-1,4,21,43,30
1537907185289269,-7,1,-6,-11,-18,-26,-21,13
1537907185289269,-8,0,0,-2,6,59,2,-21
1537907185303231,20,5,1,-1,-9,-75,-6,38
1537907185303231,-18,0,-6,-7,-1,24,-19,-19
1537907185311210,28,-3,0,5,5,12,-23,53
1537907185311210,4,3,-2,-5,-12,-78,-30,-28
1537907185326170,2,3,0,2,13,63,27,56
1537907185326170,-23,-3,-3,-4,-12,-61,3,20
1537907185327168,20,20,2,5,10,23,0,-47
1537907185327168,13,-30,-1,-1,-4,-24,1,-3
1537907185348110,-1,7,1,0,2,23,-4,10
1537907185348110,1,-5,1,3,4,-7,9,3
1537907185349108,-6,-1,0,1,6,56,12,-29
1537907185349108,3,12,-1,-4,-8,-41,-5,30
1537907185363070,-6,-12,-6,-6,-7,-4,-19,-37
1537907185363070,6,13,-1,1,2,24,24,60
1537907185371048,-26,-6,4,5,12,26,-4,-32
1537907185371048,2,-2,-2,-1,-3,8,-11,0
1537907185386008,0,-4,-2,-1,-4,2,-1,-2
1537907185386008,-3,1,1,-2,-1,-20,-12,-2
1537907185387006,24,6,-1,1,5,26,22,-1
1537907185387006,-20,-8,-4,-5,-7,-13,0,-23
1537907185408947,6,7,1,2,-3,-25,-1,0
1537907185408947,1,1,1,-1,11,71,-35,-24
1537907185408947,23,5,2,-2,-17,-86,31,50
1537907185408947,-38,-20,-4,-4,-13,-79,-52,-77
1537907185431887,6,4,2,0,1,12,16,32
1537907185431887,-26,-7,1,4,4,-14,-25,-47
1537907185432884,22,4,-2,-3,4,46,33,63
1537907185432884,-12,8,3,3,1,-7,12,-74
1537907185445848,2,3,-1,-2,-2,0,-12,-6
1537907185445848,-1,-8,-3,-3,-6,-43,-15,12
1537907185446847,-7,-5,2,5,9,36,11,-35
1537907185446847,5,17,4,5,14,79,37,73
1537907185468787,18,15,6,3,-6,-45,-10,-74
1537907185468787,-6,-3,-3,-4,-9,-20,-8,-42
1537907185468787,0,-8,-4,-3,-6,-26,-19,-4
1537907185468787,12,2,1,2,7,48,13,17
1537907185491725,-10,-1,2,4,11,30,11,25
1537907185491725,19,3,1,0,-1,2,25,36
1537907185492723,-4,-7,-2,-2,-4,15,-5,8
1537907185492723,-6,-4,0,1,0,-19,-1,15
1537907185505688,-11,-11,-6,-7,-9,-18,-18,4
1537907185505688,-12,2,2,1,-1,-13,-2,-23
1537907185506685,-1,23,7,5,10,17,0,17
1537907185506685,5,-12,-5,-1,1,16,7,29
1537907185528627,-8,-2,-2,-2,0,7,-1,-17
1537907185528627,7,4,1,0,-2,-8,-8,7
1537907185529624,4,1,0,2,1,9,3,15
1537907185529624,-3,4,2,3,-1,-3,7,2
1537907185551566,-2,-4,0,5,5,8,4,2
1537907185551566,8,1,1,-11,-4,10,11,9
1537907185552563,-12,-11,-4,8,3,-13,-4,10
1537907185552563,13,4,-8,-48,-23,-16,-6,-7
1537907185566526,-12,-10,4,20,10,16,-4,-9
1537907185566526,7,3,-3,22,9,-1,-1,19
1537907185566526,-9,-15,-4,8,8,-21,-12,-10
1537907185566526,-5,8,0,-4,1,0,1,-3
1537907185588467,0,-3,5,-47,-47,-3,2,0
1537907185588467,4,-8,-13,89,49,6,0,5
1537907185589465,-3,4,9,-121,-88,-37,-12,-1
1537907185589465,1,-1,-15,0,-1,6,5,5
1537907185613400,1,-3,-12,25,-1,8,2,4
1537907185613400,-3,3,7,-93,-29,-16,-6,-6
1537907185614398,-4,-7,17,127,73,19,1,-2
1537907185614398,7,3,1,66,37,13,10,12
1537907185634344,-7,-4,-20,-26,-54,-22,-13,-12
1537907185634344,0,-3,-3,21,-28,-13,-5,-1
