timestamp,emg1,emg2,emg3,emg4,emg5,emg6,emg7,emg8
1537913184043222,1,-20,0,7,4,2,4,2
1537913184043222,1,23,8,5,1,1,1,0
1537913184044220,0,-15,-5,-4,-1,0,0,-7
1537913184044220,-3,6,-1,-1,0,1,-1,1
1537913184047212,2,7,-2,-3,-2,0,-2,0
1537913184047212,-4,-4,-3,-3,-1,-2,0,-2
1537913184048209,-1,4,2,-1,-2,-1,0,3
1537913184048209,0,0,-8,-2,0,-1,-6,0
1537913184055190,0,1,0,-2,-2,-1,-1,-3
1537913184055190,4,9,7,3,0,-2,-1,-2
1537913184064166,1,2,10,3,-1,2,-1,1
1537913184064166,3,-6,-2,0,3,-1,2,0
1537913184070150,0,11,1,-3,-2,0,-1,2
1537913184070150,-2,-9,-8,-3,-3,0,-3,-3
1537913184084112,0,14,-7,-4,0,-2,-1,-1
1537913184084112,1,-4,4,4,-1,-1,-1,1
1537913184095084,-4,2,2,1,-2,-1,-2,-2
1537913184095084,-1,-14,-15,-8,-1,-2,2,0
1537913184109046,1,-4,10,3,1,0,-3,0
1537913184109046,1,-5,5,3,-1,1,7,-2
1537913184116028,-6,12,4,1,2,0,1,-5
1537913184116028,-2,0,-6,-5,-3,-1,-1,-1
1537913184161906,-1,1,-7,2,0,-1,-6,-1
1537913184161906,0,13,2,2,-1,-3,-2,-2
1537913184162903,1,-32,-4,3,1,1,1,0
1537913184162903,-2,2,-1,-2,-1,-1,-2,-2
1537913184163900,-1,-2,-1,-3,-2,-1,2,-2
1537913184163900,-1,2,-2,-3,0,-2,-2,-2
1537913184166892,1,-7,-4,-2,-2,3,-3,0
1537913184166892,3,12,-1,1,0,6,0,-2
1537913184175868,-3,-4,-3,1,0,-3,3,0
1537913184175868,-3,-6,-1,-1,-1,-1,-4,-4
1537913184181851,-2,14,4,-1,-2,-3,-5,-4
1537913184181851,1,-7,1,1,2,-1,2,3
1537913184190827,3,2,2,0,2,1,5,1
1537913184190827,-2,0,-1,-1,-2,-2,-10,2
1537913184203793,-2,8,-3,1,5,-4,-3,-3
1537913184203793,-1,-5,1,5,53,2,-9,-1
1537913184212769,5,7,0,-7,-51,0,0,0
1537913184212769,-4,-11,-4,-10,-5,-4,4,-1
1537913184218753,1,2,1,3,-22,-7,-1,2
1537913184218753,-1,-4,1,0,9,8,-2,-1
1537913184235708,-2,0,1,1,7,1,-1,-1
1537913184235708,5,3,1,3,-3,0,0,2
1537913184241692,-2,5,2,1,9,0,0,-1
1537913184241692,3,1,-1,0,-12,-7,0,-1
1537913184250668,-1,-6,-4,-2,9,-2,-2,-1
1537913184250668,-3,-5,-3,-1,-7,0,1,-5
1537913184263633,3,3,1,-2,5,2,3,2
1537913184263633,-4,-3,0,-3,-8,0,10,-1
1537913184272608,-3,-1,-3,-3,0,-5,-20,-3
1537913184272608,-1,-2,0,2,8,1,5,-2
1537913184278594,-1,1,0,0,4,-7,-11,-1
1537913184278594,-4,-2,1,1,-11,5,-3,-2
1537913184295550,2,1,-1,-5,-2,-3,-1,-1
1537913184295550,1,1,-2,2,0,1,6,4
1537913184301533,-1,-1,-5,-2,-2,-2,-7,-5
1537913184301533,0,-1,-1,0,-11,-3,2,-1
1537913184310509,-4,-2,1,4,6,-1,6,2
1537913184310509,0,-1,-1,0,3,0,-6,-1
1537913184323473,-2,-4,0,0,-3,1,6,1
1537913184323473,-1,-2,-2,-3,-8,-2,2,1
1537913184332449,-2,0,0,1,8,4,6,1
1537913184332449,1,-2,-1,-5,-2,-2,1,0
1537913184339430,0,3,1,-2,1,3,-7,-2
1537913184339430,-3,-2,-2,0,-5,-5,-4,-4
1537913184355387,-2,2,3,1,3,1,4,-2
1537913184355387,-4,-3,-1,-4,-1,1,-11,0
1537913184361372,-1,0,-3,0,0,-2,1,-1
1537913184361372,0,2,1,-2,-2,-4,-2,1
1537913184370348,-3,0,-5,-2,1,0,-1,-2
1537913184370348,-2,-2,-4,1,1,-1,0,-3
1537913184384310,2,0,6,1,0,-8,4,-1
1537913184384310,1,-3,-5,-1,-4,8,0,-1
1537913184393286,1,4,10,6,3,-2,-5,-2
1537913184393286,-1,-1,0,2,2,1,-1,1
1537913184399270,-2,-5,-4,-3,-2,0,6,1
1537913184399270,-1,-5,-7,-6,-5,-7,2,1
1537913184415228,-1,-5,-4,0,-1,-3,-5,-2
1537913184415228,0,1,3,-3,-3,0,-1,0
1537913184421211,-2,2,0,-2,-2,3,2,-1
1537913184421211,-2,-2,2,-1,2,-2,-4,-5
1537913184430187,1,-1,-2,-1,4,3,0,0
1537913184430187,0,1,-3,3,-1,-1,2,0
1537913184444150,-2,3,-3,-4,0,3,-1,1
1537913184444150,-1,3,7,3,-2,-1,1,2
1537913184453126,2,-4,0,0,1,-3,-3,-1
1537913184453126,-2,-4,-3,-2,0,1,2,-2
1537913184459110,-1,-2,-6,-2,-1,-1,0,-2
1537913184459110,-1,1,-7,-3,-3,-4,-2,-1
1537913184475067,-2,-1,-3,-2,-1,-1,-2,1
1537913184475067,2,-1,4,2,2,-1,0,-2
1537913184481051,0,6,0,-4,-1,2,-1,0
1537913184481051,1,-3,1,1,-3,-2,-3,-2
1537913184490027,2,0,0,0,1,0,2,1
1537913184490027,0,-1,-5,-2,-2,-2,0,0
1537913184503991,-3,-3,2,0,1,1,0,0
1537913184503991,0,1,-1,-2,-3,-1,0,-1
1537913184512967,-3,0,-1,-3,-2,1,1,1
1537913184512967,4,2,-1,-1,0,2,-2,-1
1537913184526929,2,0,0,-1,-1,-3,1,0
1537913184526929,0,-1,-4,-2,-1,-1,-2,2
1537913184535907,-3,-1,-5,-3,0,1,0,-1
1537913184535907,1,3,4,3,-1,-2,-3,0
1537913184541890,-1,-2,3,1,-1,0,1,1
1537913184541890,-1,-1,-4,0,1,-1,-1,-3
1537913184550866,-1,-2,1,-1,2,-2,-2,-1
1537913184550866,-2,-2,-2,-1,-1,1,1,0
1537913184563833,-1,-3,-3,0,-3,2,-2,-1
1537913184563833,-1,3,1,3,-2,0,-2,1
1537913184572808,2,2,2,-4,1,0,0,0
1537913184572808,-1,-1,-3,-3,0,-1,0,1
1537913184586771,1,-1,-1,1,1,2,-1,-2
1537913184586771,-3,1,-1,-2,-1,-2,-1,-3
1537913184595747,0,-1,-2,1,-2,1,-2,-3
1537913184595747,3,1,2,-1,-1,-1,-1,2
1537913184601730,-3,-2,-2,0,-1,-1,0,0
1537913184601730,2,-5,-1,-2,0,1,0,0
1537913184610706,-1,-2,0,1,-2,0,0,-1
1537913184610706,-3,-2,0,1,1,-2,-1,-2
1537913184623670,1,0,-2,-3,-2,0,-1,0
1537913184623670,0,-2,1,1,1,-1,-1,-1
1537913184632646,-1,-2,-1,5,21,0,-1,-2
1537913184632646,0,1,-1,-13,-37,-2,-2,-2
1537913184647606,-4,-3,-3,0,-3,1,0,0
1537913184647606,2,3,-2,0,-3,-3,-1,2
1537913184653590,-1,-1,-2,-2,3,0,0,-3
1537913184653590,-2,-1,1,4,10,-1,0,-2
1537913184661569,0,-3,-1,-1,0,0,-2,0
1537913184661569,0,0,-1,-4,-3,0,0,-1
1537913184670545,-2,0,-2,2,-7,-1,0,-2
1537913184670545,1,-1,0,3,7,1,2,-2
1537913184683510,1,0,-1,-6,-2,-1,-3,1
1537913184683510,0,3,2,2,5,-2,-1,-1
1537913184692492,2,-1,-1,-2,-4,-1,-1,0
1537913184692492,-4,-1,-3,-4,1,-2,-2,1
1537913184707446,0,1,-3,-3,2,-3,0,-2
1537913184707446,-1,0,5,0,-1,-1,0,-2
1537913184714428,0,2,1,2,-3,-2,0,0
1537913184714428,-1,-2,-1,-3,1,-6,1,-1
1537913184721410,-1,0,1,5,-3,2,0,-1
1537913184721410,-2,-2,-2,-2,0,1,-3,-1
1537913184730387,-4,-3,-4,-4,-7,0,-3,0
1537913184730387,1,-1,-1,1,4,-1,0,0
1537913184744349,-2,-2,-2,4,0,-4,0,-2
1537913184744349,-1,-1,-10,-7,-3,0,-2,0
1537913184753326,1,1,14,2,-2,-1,0,-1
1537913184753326,-2,-1,-2,-6,2,2,1,-2
1537913184766290,1,-2,-4,-2,0,2,-1,-1
1537913184766290,-2,-2,0,3,-4,-1,0,0
1537913184775267,-1,0,-6,0,-2,-1,-3,-1
1537913184775267,1,4,1,0,1,0,-1,0
1537913184781251,-4,1,1,2,0,-1,0,-1
1537913184781251,-1,-1,3,1,0,-2,-1,0
1537913184796210,3,-2,-3,-5,-3,-2,1,-1
1537913184796210,2,-1,0,0,1,0,-1,0
1537913184804188,1,-1,-4,-2,-1,-3,-1,-2
1537913184804188,-2,1,-2,-2,-2,0,-1,-2
1537913184813164,-1,1,5,-2,-1,-2,1,-2
1537913184813164,-2,-4,-1,4,2,1,-1,1
1537913184826129,-1,-4,-6,-1,-2,-1,0,0
1537913184826129,1,1,-4,-6,-1,-3,-2,-2
1537913184835105,-1,-3,3,0,-1,3,1,-2
1537913184835105,-1,-1,-1,5,1,-1,0,0
1537913184841089,1,1,1,-1,-1,-2,-2,-1
1537913184841089,-3,-5,-3,1,-1,0,-1,-2
1537913184856049,-2,0,-9,-5,2,-2,-1,-1
1537913184856049,2,0,-2,-1,-3,1,1,0
1537913184864027,-2,0,4,-2,2,1,-1,0
1537913184864027,-1,4,1,2,0,1,0,-2
1537913184873004,1,0,-1,1,-1,2,0,1
1537913184873004,-1,0,-1,-1,0,-2,1,-1
1537913184885969,0,4,0,-2,-1,-1,-2,0
1537913184885969,-1,-7,1,-1,1,-2,0,-1
1537913184894946,-1,-1,-1,-3,-2,1,0,-2
1537913184894946,-4,-11,-17,-5,0,0,1,-2
1537913184901927,4,6,11,1,-1,-1,-1,-1
1537913184901927,2,12,18,6,1,0,-2,3
1537913184916886,0,-3,-3,-3,0,0,1,0
1537913184916886,0,-4,2,10,1,-1,-1,-1
1537913184923868,0,-3,-9,-14,0,-1,-1,-3
1537913184923868,-1,-3,-15,-5,0,0,1,-1
1537913184932844,-2,1,5,1,-1,-1,-2,0
1537913184932844,0,6,0,-4,-2,0,-2,0
1537913184946807,-2,-5,-2,5,0,0,-1,-1
1537913184946807,1,1,1,1,-1,-2,-1,0
1537913184955783,0,0,-6,-1,-2,-1,0,1
1537913184955783,-2,2,0,1,1,-2,0,-1
1537913184969745,-1,0,2,-1,1,-1,0,-1
1537913184969745,3,-2,0,-4,-2,-1,-1,0
1537913184976726,-1,-1,-5,-1,-1,-1,0,-2
1537913184976726,-3,2,3,-1,0,0,-2,-1
1537913184983708,-1,-1,1,1,0,-1,-2,0
1537913184983708,-1,-2,-4,-1,1,0,-1,-2
1537913184992684,0,-1,0,2,-1,-1,-2,0
1537913184992684,1,0,4,0,-2,1,-2,-2
1537913185006646,-3,-1,-1,-1,0,-1,0,-1
1537913185006646,-1,-5,-3,1,1,0,1,-1
1537913185015622,-2,1,0,-1,0,1,0,0
1537913185015622,0,3,0,-2,-1,0,0,1
1537913185021606,2,-2,-3,1,-2,0,-1,-2
1537913185021606,0,-2,-1,-1,-1,-1,-1,0
1537913185036566,-2,-2,2,-2,-2,-2,-1,-1
1537913185036566,0,2,-1,-2,2,-1,-1,-1
1537913185043547,1,1,0,2,1,0,1,0
1537913185043547,1,0,-1,-3,-2,0,-2,-1
1537913185052524,-2,0,-3,-2,-2,-1,0,0
1537913185052524,0,1,-1,0,-1,-1,-3,-1
1537913185066486,0,-2,0,-3,0,-2,1,1
1537913185066486,1,-1,-4,-4,-1,1,0,-2
1537913185075463,-1,1,-2,1,-2,-1,-1,2
1537913185075463,-1,-1,1,-1,-2,1,-1,0
1537913185081446,0,0,-4,2,-1,1,0,0
1537913185081446,-3,-1,1,0,0,-2,0,1
1537913185096407,-1,-3,-3,-1,-1,0,-1,-2
1537913185096407,-2,-3,-1,1,-1,0,-1,1
1537913185104386,-1,0,1,-2,0,-1,0,-1
1537913185104386,0,0,-1,1,0,-2,0,-3
1537913185112365,-1,0,2,1,0,0,-1,-2
1537913185112365,0,-1,3,0,0,0,-3,-1
1537913185126327,-2,-3,-5,0,-1,0,-2,0
1537913185126327,-2,-1,1,1,1,-1,0,2
1537913185135304,2,0,0,-1,-3,-1,0,-2
1537913185135304,0,-4,-1,-3,1,-1,-1,-3
1537913185149265,-2,-3,-1,1,-1,0,-2,0
1537913185149265,-1,3,0,-4,-2,-2,0,-1
1537913185156247,0,-2,-9,-3,0,0,0,-2
1537913185156247,-1,-3,1,-1,-2,-3,-1,-3
1537913185173201,-1,2,3,2,-2,-2,-1,-2
1537913185173201,0,0,3,2,0,-1,-1,0
1537913185174199,-3,-4,-1,0,1,-5,-3,0
1537913185174199,-3,1,-2,-2,-1,1,0,-2
1537913185186167,1,3,0,0,0,-2,0,-1
1537913185186167,1,0,0,-1,-2,2,1,-2
1537913185195143,2,-4,-6,-3,-1,-2,-1,-3
1537913185195143,1,1,-3,-1,-1,-3,0,0
1537913185210103,-6,-2,-1,-1,0,-1,0,1
1537913185210103,-3,-1,4,2,1,-3,0,-2
1537913185216087,2,0,-7,-7,2,0,-1,1
1537913185216087,-2,-3,3,-4,-2,0,-2,-2
1537913185233042,-1,0,3,0,-1,3,1,0
1537913185233042,0,-7,-5,1,-2,1,-1,0
1537913185234040,2,-2,-7,-4,-1,-2,2,0
1537913185234040,-2,2,2,2,2,-1,-1,0
1537913185246008,4,6,0,1,-2,0,3,2
1537913185246008,0,-1,5,3,-2,1,4,3
1537913185254983,-11,-4,3,0,0,1,0,2
1537913185254983,1,-4,-3,-2,-2,-3,-2,0
1537913185269943,6,-2,-3,0,-1,-4,-8,-1
1537913185269943,-3,-3,-8,-2,-1,0,-8,-6
1537913185276924,2,8,5,3,0,5,16,4
1537913185276924,14,12,10,6,5,11,16,15
1537913185292882,-14,-7,-6,-4,2,-11,-23,-19
1537913185292882,2,-9,-10,-7,-3,-8,-6,10
1537913185293880,11,17,13,10,8,-4,-31,-25
1537913185293880,6,4,7,6,5,32,101,24
1537913185306845,0,-22,-13,-11,-4,-20,-25,2
1537913185306845,12,4,-11,-8,-8,-21,22,-23
1537913185315821,-5,-5,-7,-6,-8,2,-9,8
1537913185315821,7,12,5,3,0,3,36,13
1537913185329784,-30,-6,7,6,10,12,-12,0
1537913185329784,-23,-18,-5,-2,4,40,66,-3
1537913185336765,-12,27,6,-2,-4,-8,36,28
1537913185336765,22,-67,-15,-5,-1,-20,-56,-51
1537913185352722,4,16,6,0,-2,22,81,53
1537913185352722,-35,3,2,4,3,-21,-7,-3
1537913185366685,-35,20,-1,5,10,37,-11,3
1537913185366685,-61,9,6,-1,-4,-15,-13,7
1537913185367682,3,-1,7,7,-2,0,25,-17
1537913185367682,0,12,2,2,0,5,-26,8
1537913185375661,-1,-20,-7,-5,-7,-2,8,0
1537913185375661,61,20,2,-3,0,-6,-12,-1
1537913185389623,-22,-5,-6,7,7,-12,-37,-26
1537913185389623,3,17,2,-4,-10,-20,-33,-4
1537913185396606,8,10,2,-1,2,35,66,5
1537913185396606,-17,-10,-14,-9,-3,-20,-52,-21
1537913185412564,53,-20,10,7,8,-14,1,-29
1537913185412564,-5,38,-5,-4,-6,17,23,54
1537913185414558,59,1,-14,1,2,-6,-9,-3
1537913185414558,4,-81,-25,-27,-37,-48,-52,-12
1537913185426524,3,23,17,10,18,-15,17,28
1537913185426524,2,-1,-9,9,21,26,49,16
1537913185435500,4,81,37,12,-3,-34,-33,-9
1537913185435500,-8,-43,2,3,-9,6,127,61
1537913185449463,-6,-38,-65,-51,-55,-63,-104,-63
1537913185449463,5,19,10,12,0,-82,22,29
1537913185456444,25,-80,-10,24,65,83,42,66
1537913185456444,2,-12,6,-12,-16,31,47,-41
1537913185472401,-24,91,-13,19,25,66,-49,-29
1537913185472401,50,-71,-10,9,28,83,-45,-29
1537913185474396,-46,89,7,-38,-73,-118,-54,46
1537913185474396,-30,98,-2,-6,24,67,22,-27
1537913185486364,26,-126,-8,-31,-32,-46,-27,-7
1537913185486364,-60,122,14,23,16,65,81,-101
1537913185495340,10,82,13,13,22,77,19,-73
1537913185495340,30,-23,-44,-65,-82,-123,-107,29
1537913185509303,-38,127,-13,8,5,-74,-10,-66
1537913185509303,15,18,27,-7,-10,34,54,71
1537913185516284,-5,-76,-48,-35,-75,-122,62,-97
1537913185516284,-16,-17,49,11,35,1,-20,-80
1537913185533239,27,-13,-16,-30,-18,-62,17,14
1537913185533239,17,-6,-47,-45,-29,-119,-128,-98
1537913185534236,15,-102,-17,17,-7,-24,-11,20
1537913185534236,-2,11,-8,15,1,27,-20,91
1537913185546204,-21,-17,0,27,30,102,65,18
1537913185546204,11,-114,-6,-19,-52,-46,-15,-84
1537913185555181,-36,92,40,10,-5,28,24,65
1537913185555181,-21,-42,19,32,35,3,62,15
1537913185569143,-20,7,9,12,25,36,72,3
1537913185569143,25,-31,-12,16,-7,6,-55,79
1537913185576125,-2,88,5,-3,-3,67,31,-70
1537913185576125,25,-55,-35,-1,8,13,-68,-99
1537913185593080,-27,127,0,5,38,68,93,79
1537913185593080,25,-100,20,-8,-16,14,23,61
1537913185594078,29,51,12,-25,-90,-128,-93,-32
1537913185594078,-11,89,32,26,109,68,50,54
1537913185606045,9,95,12,27,38,66,0,-32
1537913185606045,33,-18,-52,-26,-18,-66,67,-82
1537913185615021,14,-69,15,64,0,-17,95,-10
1537913185615021,-4,106,58,-44,-57,49,41,62
1537913185629981,35,-60,-28,-7,-19,-116,28,0
1537913185629981,-23,15,25,25,45,36,-23,18
1537913185635966,-10,-38,-23,1,4,-10,9,-44
1537913185635966,-10,127,32,38,-7,7,7,-92
1537913185652921,-36,-52,28,-17,-46,36,122,61
1537913185652921,-3,88,1,37,71,17,5,42
1537913185653918,14,8,-17,15,10,-71,2,-15
1537913185653918,0,54,-40,-44,-11,6,110,1
1537913185666881,32,-69,7,-17,-70,56,20,-49
1537913185666881,10,-11,6,-17,-44,-21,29,75
1537913185674860,-47,-7,11,40,37,31,-74,58
1537913185674860,-7,-27,-13,24,116,-6,-29,4
1537913185689820,13,-10,22,-9,-87,12,88,37
1537913185689820,-21,7,-8,10,-21,-29,-33,-36
1537913185696802,-4,79,22,-39,14,74,92,42
1537913185696802,-2,-123,-49,-20,-19,-72,20,-65
1537913185711762,-4,39,-5,-15,33,-38,-79,12
1537913185711762,-22,46,10,11,20,7,42,-54
1537913185718743,6,-7,27,23,60,55,-5,36
1537913185718743,-5,-25,-32,-20,-100,-52,66,23
1537913185726722,-4,-15,-9,46,34,-27,-97,-24
1537913185726722,-4,3,1,-42,-6,-8,26,27
1537913185735698,8,-42,-15,-12,-22,22,-42,6
1537913185735698,-2,7,13,40,33,-5,-14,28
1537913185749661,2,-28,3,-16,-51,-1,-65,9
1537913185749661,0,10,9,7,60,-16,-18,-8
1537913185756642,3,-30,-16,-30,-22,33,0,-13
1537913185756642,-4,4,7,33,26,9,-59,-8
1537913185772599,16,-15,7,-20,1,-23,10,12
1537913185772599,-9,24,14,9,-9,22,-14,30
1537913185778584,-2,-23,-13,0,90,2,-16,-20
1537913185778584,-1,-3,-7,-19,-61,-8,-24,35
1537913185786563,-3,14,6,6,11,-3,8,-17
1537913185786563,-10,26,0,-4,-35,21,6,0
1537913185795540,-3,-73,-14,-5,46,-5,19,-3
1537913185795540,2,42,1,-18,-80,-17,-33,10
1537913185809501,4,-25,4,22,37,5,-9,-27
1537913185809501,1,15,-3,-16,-10,2,-5,-17
1537913185816482,0,-10,-13,-20,-15,-41,-14,10
1537913185816482,6,13,9,14,12,14,-5,-8
1537913185832440,-9,-6,-6,3,45,-2,-14,-4
1537913185832440,4,-10,-2,-17,-22,-8,-3,2
1537913185839421,1,10,-6,-17,-25,-15,-7,-3
1537913185839421,-2,-13,1,7,-26,2,0,6
1537913185846403,-6,1,3,3,7,10,32,18
1537913185846403,-13,-4,-4,4,-3,12,-15,-15
1537913185855380,-8,-9,1,1,-9,7,1,8
1537913185855380,-14,13,-8,5,22,0,-6,-9
1537913185869340,-3,-28,7,-2,-3,-4,3,8
1537913185869340,-1,6,1,7,12,11,24,-4
1537913185876322,-2,-43,-2,-8,-1,2,-12,-7
1537913185876322,-12,20,3,1,3,2,-11,-4
1537913185892279,-6,22,-1,-6,-2,-7,-9,-5
1537913185892279,-8,-7,-3,3,3,0,-10,-5
1537913185899260,3,9,3,0,-12,-1,6,-2
1537913185899260,-4,-1,4,2,13,-14,-26,3
1537913185923196,-3,-5,-1,-6,-21,13,-1,0
1537913185923196,-21,6,-4,-2,-38,-5,-14,-1
1537913185924194,-2,15,-1,-6,-8,-2,24,-1
1537913185924194,1,-16,-2,11,13,11,-15,1
1537913185929181,1,4,2,-7,27,-20,-25,-13
1537913185929181,2,-3,-8,-7,2,12,7,-4
1537913185936162,2,8,-2,0,3,-7,-20,-2
1537913185936162,2,-17,1,-2,0,-3,1,-3
1537913185952119,-3,1,-1,2,3,-8,-3,0
1537913185952119,3,-10,2,-1,14,-1,2,4
1537913185959101,3,-2,-4,-1,-4,4,5,-2
1537913185959101,3,4,7,1,24,0,-11,1
1537913185975058,-4,4,-3,0,-6,2,-3,5
1537913185975058,5,11,-5,-1,-1,-4,8,1
1537913185977054,8,-20,-1,-1,-9,8,1,-5
1537913185977054,5,-5,0,-3,-7,-12,0,2
1537913185990019,5,3,-4,-2,-6,2,-4,3
1537913185990019,-1,-6,-2,4,1,-1,0,-2
1537913185996004,5,21,7,1,1,-8,-2,6
1537913185996004,5,-11,-1,1,9,0,0,2
1537913186011960,5,-9,-3,-5,-48,-6,2,-1
1537913186011960,-1,1,2,-1,17,0,0,-2
1537913186018940,-2,0,-7,0,-13,1,0,-3
1537913186018940,0,-5,3,1,-2,5,13,6
1537913186034898,-4,1,-2,4,19,5,-24,2
1537913186034898,1,0,1,4,8,-2,-3,-1
1537913186036892,7,-2,1,-6,-20,1,0,1
1537913186036892,-4,8,0,5,10,1,5,1
1537913186049858,4,-7,-4,-2,6,-1,8,1
1537913186049858,4,-3,2,0,-3,-4,-11,-3
1537913186056839,3,-8,-7,-3,12,4,-1,-2
1537913186056839,2,1,0,-3,-4,-2,-4,-4
1537913186071799,-6,2,1,1,12,-2,8,1
1537913186071799,5,-2,-1,-7,-18,-10,-10,4
1537913186078782,1,3,0,6,13,11,13,-1
1537913186078782,-1,5,6,0,3,1,0,-4
1537913186095735,4,1,1,-3,-7,-2,-6,3
1537913186095735,-1,0,4,8,12,5,8,-2
1537913186096733,-4,8,-2,-3,5,-4,-14,-5
1537913186096733,-1,-12,-8,-15,-42,-11,-2,4
1537913186109697,2,3,0,2,8,9,8,2
1537913186109697,-1,-2,-1,0,7,2,-1,3
1537913186116679,-3,-3,0,2,-2,-1,-2,0
1537913186116679,-3,16,-4,0,15,1,0,-4
1537913186131639,-2,-45,-6,-5,-1,-5,0,-1
1537913186131639,1,8,0,2,-11,-2,-11,0
1537913186138620,-10,16,2,4,1,-6,-6,-2
1537913186138620,3,-7,-4,-3,4,8,15,5
1537913186155575,-2,-33,-9,-2,-7,-5,-7,-11
1537913186155575,2,1,6,-4,4,2,-3,-4
1537913186156572,-3,-2,-2,-6,-4,-7,-7,-2
1537913186156572,-4,9,1,5,3,1,-15,-2
1537913186169538,-8,37,4,10,17,30,27,9
1537913186169538,2,-75,-7,-9,-6,-13,-20,-6
1537913186176519,1,25,-5,-13,-19,-15,-5,-16
1537913186176519,-4,-31,-4,5,13,14,-5,16
1537913186191479,6,20,-6,-3,-3,2,18,2
1537913186191479,5,14,-1,-4,-4,21,-41,-1
1537913186200455,-13,-20,-1,9,15,10,-32,-1
1537913186200455,8,70,19,-7,-26,10,52,-16
1537913186215415,-22,91,10,8,1,-29,22,25
1537913186215415,19,-88,-3,5,13,12,42,1
1537913186216413,-15,17,-6,-22,-23,-34,-36,-2
1537913186216413,-5,-64,-36,-18,-18,-59,-52,-80
1537913186229378,14,30,31,8,-13,-15,23,-10
1537913186229378,-19,127,-5,6,11,69,55,15
1537913186236359,-14,-20,22,13,33,52,79,30
1537913186236359,-1,-51,-22,-56,-83,-85,1,14
1537913186252318,-50,78,2,23,30,45,19,51
1537913186252318,50,-110,-10,-1,6,-41,4,-82
1537913186259300,14,103,31,19,63,90,27,-8
1537913186259300,-51,-11,-2,-4,-37,-15,108,111
1537913186274260,4,-62,-46,-13,7,-51,-77,-54
1537913186274260,-64,127,52,34,26,42,-58,62
1537913186275258,57,-73,-82,-90,-110,-114,67,-36
1537913186275258,-13,127,22,44,76,92,69,-10
1537913186290217,-13,39,-2,2,55,51,60,-10
1537913186290217,18,-42,-41,-6,26,6,105,1
1537913186296200,-60,51,-24,4,-26,-3,-45,-28
1537913186296200,53,-34,22,-35,-47,-57,-68,-83
1537913186313155,4,17,-48,18,-4,-24,4,31
1537913186313155,29,-72,2,-38,10,-11,-46,-20
1537913186319139,-15,109,60,73,43,26,47,49
1537913186319139,28,80,-42,-25,-57,-30,-49,-89
1537913186335096,-4,-7,9,9,69,61,-20,-2
1537913186335096,37,-12,-46,-58,-56,-22,-4,60
1537913186335096,6,-52,-27,-21,-44,-13,-21,-34
1537913186335096,-41,-60,14,53,60,34,-29,127
1537913186357037,60,-57,87,11,-7,-39,-16,-86
1537913186357037,-47,-5,7,12,15,2,20,38
1537913186358034,-4,76,-9,-26,-15,-28,-28,-3
1537913186358034,-19,-102,2,27,41,40,11,-65
1537913186372995,-7,19,-17,-24,-32,14,-33,90
1537913186372995,-5,-65,-14,6,-56,-54,76,-59
1537913186378980,-10,27,56,60,50,110,-22,96
1537913186378980,-1,-73,14,-16,32,33,11,-17
1537913186394937,-11,65,-44,-4,13,26,-10,-11
1537913186394937,-27,127,33,-8,-40,-39,-28,18
1537913186394937,8,-113,-22,4,86,-2,41,-47
1537913186394937,-2,34,-65,-6,-52,2,-8,-29
1537913186416878,11,29,72,-37,-48,-68,24,-23
1537913186416878,-15,-30,-14,35,79,25,9,22
1537913186417877,7,44,29,-25,-68,-28,97,10
1537913186417877,-10,30,44,77,114,72,-5,-50
1537913186432835,40,-125,-73,-44,-63,-56,-35,-55
1537913186432835,-17,124,61,7,-20,-61,-44,20
1537913186438818,12,27,-35,-16,10,-6,13,16
1537913186438818,6,-69,4,-13,22,6,-14,63
1537913186454775,-4,-38,-42,-8,-80,-46,26,20
1537913186454775,20,45,24,17,15,15,27,-51
1537913186454775,-3,-14,11,24,0,38,36,26
1537913186454775,24,127,36,-43,-81,13,85,9
1537913186476717,-18,-68,-52,-1,21,-31,-19,-58
1537913186476717,11,-51,-23,-63,-75,-71,-50,37
1537913186477715,-6,35,33,25,-54,-91,-115,-115
1537913186477715,16,10,-27,37,89,-4,-49,8
1537913186491676,12,121,37,-2,7,90,67,36
1537913186491676,-19,-35,-30,4,24,13,61,20
1537913186498658,-1,18,13,39,-6,-4,-19,-87
1537913186498658,3,6,-38,-49,-20,-42,60,-11
1537913186514615,5,-99,20,32,60,59,-85,-33
1537913186514615,-11,79,-4,2,-13,2,7,15
1537913186515613,0,-51,10,-26,-54,-67,-49,47
1537913186515613,-24,106,-5,38,66,1,-27,51
1537913186530573,3,87,46,-28,-61,-43,35,28
1537913186530573,-14,8,7,13,-18,9,1,-48
1537913186536557,6,19,-42,-36,25,-56,-87,-20
1537913186536557,2,46,16,32,51,12,38,-4
1537913186551517,-2,15,-5,-21,-54,-12,-19,-71
1537913186551517,7,-7,5,13,72,99,-62,6
1537913186558498,10,-28,-30,-10,-66,12,29,67
1537913186558498,-1,-5,42,15,71,29,-28,-37
1537913186574456,-14,-71,-51,6,32,14,-8,2
1537913186574456,6,58,24,3,-19,63,41,-15
1537913186575453,-12,-120,-1,-15,-40,-29,64,12
1537913186575453,10,92,21,-9,-70,-15,-13,-1
1537913186590414,-22,82,42,40,54,15,-19,38
1537913186590414,-1,-72,-18,1,40,94,81,73
1537913186596397,7,52,9,-15,-4,-67,-84,-34
1537913186596397,-1,-23,-21,-15,-46,-45,2,-5
1537913186611357,-6,-64,-3,3,10,21,12,-3
1537913186611357,7,9,-35,-10,7,-57,-26,-87
1537913186619335,-3,118,40,20,7,95,87,39
1537913186619335,-16,-128,24,26,57,47,112,7
1537913186634296,-13,11,-59,-64,-73,-69,103,5
1537913186634296,9,96,-7,6,-4,22,36,-34
1537913186641278,-3,-118,-31,-6,1,-15,13,-37
1537913186641278,-9,73,23,-14,-70,-20,40,16
1537913186650255,-3,24,-13,-3,-5,32,-7,-9
1537913186650255,-4,-16,-17,32,-17,-46,-1,41
1537913186656237,-2,20,11,13,68,13,25,48
1537913186656237,11,-45,-2,-30,-18,6,-71,77
1537913186671198,8,-20,27,24,93,8,62,-16
1537913186671198,-7,-22,-6,-25,-59,-33,-43,-48
1537913186679177,-6,54,-33,17,115,35,7,6
1537913186679177,17,1,21,11,21,89,61,-3
1537913186694136,3,2,-1,-37,-76,-87,-14,12
1537913186694136,1,24,16,27,12,-15,-36,-54
1537913186701118,13,-5,-19,-56,-54,29,27,-8
1537913186701118,-7,12,-33,3,18,-17,-27,-13
1537913186710093,-2,3,29,30,51,39,-5,27
1537913186710093,9,-20,2,-11,-1,-6,-3,-1
1537913186716077,-4,0,7,-2,-9,2,-3,3
1537913186716077,-1,-5,-2,5,9,-26,-25,-36
1537913186731037,2,-26,4,5,-42,21,-20,22
1537913186731037,2,-32,-1,-5,1,-37,-6,13
1537913186739016,-6,-5,8,26,67,47,8,-18
1537913186739016,9,3,-7,-20,-44,-26,-25,5
1537913186753976,-1,29,3,8,9,-7,-2,-4
1537913186753976,-4,-25,0,-7,9,4,6,7
1537913186760957,6,38,-4,-4,-1,-5,-7,-25
1537913186760957,0,-71,3,-10,-43,-36,1,-7
1537913186769933,2,25,14,36,65,27,-25,-4
1537913186769933,1,2,-8,-44,-50,-8,12,-6
1537913186775917,-2,-5,6,5,1,11,4,2
1537913186775917,0,-1,-16,1,-27,-24,-15,4
1537913186790877,-4,-2,-7,-19,34,17,28,-9
1537913186790877,-16,1,13,14,32,-21,-15,12
1537913186798856,-6,-22,-7,-1,-6,2,4,-3
1537913186798856,-10,9,-10,1,20,-4,-14,1
1537913186813817,1,10,10,-4,-14,1,3,10
1537913186813817,-8,-3,3,13,14,14,-10,-15
1537913186821796,6,1,8,-11,-34,-30,1,18
1537913186821796,-4,0,-9,2,1,-18,-17,-18
1537913186836755,-5,6,6,17,2,-10,-10,-2
1537913186836755,-7,17,2,-17,-18,4,16,9
1537913186837753,-11,-6,-1,13,27,15,2,17
1537913186837753,5,-8,-12,-17,-40,-5,-16,-12
1537913186852713,-6,-3,-3,-4,-37,-5,-28,0
1537913186852713,1,8,-1,10,4,15,44,5
1537913186858696,3,-17,-8,-11,-10,-2,-20,-8
1537913186858696,-7,9,2,-2,-3,-2,-8,4
1537913186873656,-6,1,2,4,32,18,15,14
1537913186873656,10,-10,-8,-10,-20,1,-29,2
1537913186881636,-2,-2,3,4,9,-5,13,-22
1537913186881636,6,-4,-6,-7,-1,-4,-22,9
1537913186896597,4,4,-7,1,-11,-4,10,-2
1537913186896597,2,0,5,11,8,0,7,5
1537913186897593,1,-22,-1,-3,-1,4,-5,-3
1537913186897593,-5,9,1,-4,-4,-3,-3,-8
1537913186911555,1,-11,-11,-2,-18,0,2,6
1537913186911555,6,-21,12,7,11,-2,8,5
1537913186918536,-5,1,1,2,-8,-6,7,-5
1537913186918536,5,9,-4,-5,-3,4,-4,-1
1537913186933496,-1,-3,-2,1,-20,-8,-2,-1
1537913186933496,8,11,-7,-11,-7,-4,-1,-9
1537913186941474,4,8,6,16,0,11,-7,1
1537913186941474,11,-10,9,-11,-15,20,10,1
1537913186957432,-5,11,-1,9,10,-5,1,0
1537913186957432,2,7,-3,-13,-53,-3,-14,0
1537913186957432,-3,-10,-7,-2,0,2,5,-2
1537913186957432,-3,3,-3,5,7,-11,-3,-5
1537913186971395,4,1,6,-4,-19,0,-12,0
1537913186971395,-9,-3,0,7,7,10,1,-2
1537913186979373,0,-6,-2,-1,0,1,-5,-2
1537913186979373,-1,-2,-2,1,-8,-7,2,-9
1537913186994333,-2,0,3,-5,-2,3,4,0
1537913186994333,-12,4,0,-2,4,-10,-5,4
1537913187001315,-4,-4,-1,2,-1,18,14,-5
1537913187001315,-4,-3,-5,-6,2,-8,-1,-2
1537913187017271,0,-2,3,3,-3,-1,2,2
1537913187017271,-5,7,-5,10,2,-6,-4,3
1537913187017271,2,7,15,-2,4,4,4,9
1537913187017271,-5,18,1,-3,-1,2,2,-4
1537913187031234,1,15,-1,-2,-5,-3,-11,-8
1537913187031234,-18,-6,-1,4,14,-1,2,-6
1537913187039213,2,21,0,0,-32,-23,-9,4
1537913187039213,-3,-19,-3,5,7,7,21,16
1537913187054173,-10,-3,-3,-7,-6,2,-25,-17
1537913187054173,0,7,6,6,12,9,15,-5
1537913187061154,-1,-10,-7,4,15,-12,-11,-5
1537913187061154,-10,-6,5,11,14,4,-2,1
1537913187077112,5,-1,-8,-21,-24,-7,7,4
1537913187077112,-2,-6,0,6,16,2,6,12
1537913187078109,5,-4,-6,-6,1,11,-10,-2
1537913187078109,3,-16,-7,0,5,-4,3,-11
1537913187091074,3,14,8,6,-3,4,2,9
1537913187091074,5,-7,-2,-1,1,-2,1,-7
1537913187099053,8,-2,3,1,2,2,2,0
1537913187099053,3,13,3,-1,-4,-2,-10,1
1537913187114013,1,-8,0,0,3,-1,3,0
1537913187114013,4,3,2,-2,-1,2,3,0
1537913187120994,0,6,-3,3,0,-3,-9,-4
1537913187120994,-1,-19,-4,-4,7,-7,-4,-2
1537913187136951,3,-4,1,6,2,0,2,0
1537913187136951,6,-5,0,3,40,1,-2,-1
1537913187137949,0,8,-3,-13,-24,1,2,0
1537913187137949,3,3,-2,0,-2,1,-2,0
1537913187150914,4,-4,-2,4,1,-3,1,1
1537913187150914,0,1,-2,1,5,-3,-8,-4
1537913187158893,-1,-8,0,11,22,2,-2,-3
1537913187158893,5,4,0,-8,-20,2,1,4
1537913187173853,-2,-3,-1,3,3,-4,3,-1
1537913187173853,7,-1,-3,-2,-14,-1,0,-1
1537913187181831,-2,-5,-3,3,9,0,4,0
1537913187181831,4,0,0,-2,-7,-1,1,-3
1537913187196791,-7,-5,-3,-1,-1,-8,2,0
1537913187196791,-8,22,1,2,-2,18,-1,-2
1537913187197789,7,-16,-4,-7,-3,1,-5,2
1537913187197789,-3,14,-2,0,-1,-3,4,2
1537913187211752,-2,23,2,-1,1,2,-5,-4
1537913187211752,2,-81,-11,-5,7,-13,-8,-4
1537913187218733,-3,17,1,-7,-25,-3,-1,-2
1537913187218733,5,1,-3,-14,-8,2,-3,-9
1537913187233693,-4,20,2,4,3,-7,5,5
1537913187233693,0,10,0,2,-7,-4,-21,-3
1537913187241672,-1,-6,0,3,14,6,9,9
1537913187241672,2,-7,-2,-1,-3,-10,-11,1
1537913187256633,1,-5,-1,-2,-10,-8,7,-1
1537913187256633,-6,-6,-4,-2,3,8,8,4
1537913187257631,5,7,-1,-2,5,2,-4,10
1537913187257631,9,-17,-8,-11,-31,-25,-8,-27
1537913187271594,-4,0,3,2,8,5,-8,1
1537913187271594,16,13,3,-1,-11,-11,-8,0
1537913187278575,-14,7,4,6,11,8,6,4
1537913187278575,-4,23,-2,3,0,8,12,3
1537913187293536,10,-48,-6,-2,2,4,-5,-1
1537913187293536,0,-7,4,1,11,-2,-40,11
1537913187301514,-4,60,10,5,3,24,-2,0
1537913187301514,6,-23,-14,-19,-22,-38,7,1
1537913187317471,-1,28,0,2,1,-4,-11,-2
1537913187317471,-16,-42,6,9,3,24,28,14
1537913187317471,-9,48,9,3,17,-14,-1,-6
1537913187317471,13,-60,3,5,18,27,5,-5
1537913187331433,-14,-28,-25,-29,-57,-42,-27,-33
1537913187331433,-1,2,-11,-3,-4,-13,29,-3
1537913187338414,0,-61,-11,-1,5,-10,-38,-9
1537913187338414,-19,28,18,28,45,33,5,10
1537913187354370,-1,20,4,0,13,6,7,4
1537913187354370,1,10,-3,-9,-25,-16,10,3
1537913187361352,-4,-20,-8,-5,-2,9,18,-1
1537913187361352,-3,16,-1,4,-2,-4,-4,6
1537913187377309,-2,-12,3,-2,-9,-2,-10,4
1537913187377309,-6,19,1,3,6,1,-1,-1
1537913187377309,4,-20,-2,5,-18,-23,-4,-2
1537913187377309,0,14,-9,1,33,13,-2,-6
1537913187391272,17,11,17,-8,-39,-19,10,-1
1537913187391272,-3,25,-2,-1,35,-11,-21,0
1537913187399251,-8,21,-10,-10,-18,-16,-4,-13
1537913187399251,5,-64,0,12,6,2,-14,2
1537913187414211,-11,16,13,12,25,33,37,-5
1537913187414211,19,24,1,-29,-68,-33,-20,-30
1537913187421192,-11,-6,10,12,-8,6,-1,17
1537913187421192,-15,100,9,0,20,9,-28,24
1537913187437149,3,-45,-9,-7,17,14,-38,-34
1537913187437149,4,20,-4,7,13,52,23,-8
1537913187438146,22,-17,6,-8,-17,-10,-7,-34
1537913187438146,-47,86,14,3,-11,-3,-10,24
1537913187451112,-27,52,11,18,10,41,63,21
1537913187451112,24,-115,-16,-14,-10,-46,-46,10
1537913187459090,-7,114,-19,-1,18,26,29,-3
1537913187459090,27,-57,4,7,22,46,44,45
1537913187474050,14,-36,-3,-19,-52,-87,-37,-35
1537913187474050,-8,0,1,12,14,15,6,19
1537913187481032,-8,-42,-2,3,2,16,44,31
1537913187481032,-3,36,6,15,34,26,59,-14
1537913187496989,11,-28,-11,-15,5,-4,24,91
1537913187496989,-19,37,17,11,-28,-3,-12,0
1537913187497987,18,-4,-12,-11,38,-37,40,-68
1537913187497987,-11,9,5,-7,-74,-47,15,-45
1537913187510952,-2,91,11,-2,-3,-22,-27,-3
1537913187510952,-18,37,11,6,-14,19,51,34
1537913187518930,9,-112,-2,9,39,63,65,-5
1537913187518930,10,31,10,9,39,32,8,-64
1537913187533890,-12,116,-13,-14,-21,-47,61,-8
1537913187533890,20,-101,-20,13,3,22,-9,0
1537913187540872,6,-2,-17,-26,-45,25,9,-83
1537913187540872,29,-28,-12,-10,14,-24,16,-40
1537913187556829,3,16,-14,-5,-13,-30,-48,49
1537913187556829,-16,37,7,34,59,33,8,63
1537913187557826,13,51,11,-18,-14,-9,-15,20
1537913187557826,0,-49,-29,-43,-82,-96,-110,-41
1537913187571789,-40,-14,20,31,46,38,30,78
1537913187571789,-9,53,-10,2,41,57,34,22
1537913187578771,-18,-28,-30,-18,-82,-40,25,97
1537913187578771,4,22,7,14,52,70,31,42
1537913187593730,14,40,-25,3,40,48,69,-44
1537913187593730,-41,66,20,4,-9,-33,-2,-8
1537913187601709,20,-109,-64,-33,-7,-60,-77,47
1537913187601709,15,126,51,15,-14,52,120,31
1537913187616669,-35,20,54,31,16,-5,-13,46
1537913187616669,7,97,26,11,47,87,103,11
1537913187624648,5,-39,1,-6,-58,-118,-125,-15
1537913187624648,-23,79,-39,-29,-42,-89,-11,88
1537913187631630,42,-63,-14,9,45,56,35,-128
1537913187631630,-61,127,13,8,12,-25,-44,46
1537913187638611,-3,36,-31,-39,-61,-19,-68,-66
1537913187638611,-34,-3,-3,14,-3,38,-56,67
1537913187653572,14,4,12,3,19,18,12,-12
1537913187653572,12,4,29,25,30,67,40,-27
1537913187661551,4,-14,3,5,-38,17,91,42
1537913187661551,15,-49,-44,-56,-118,-74,-16,-92
1537913187676511,18,25,23,32,68,42,-52,-39
1537913187676511,5,-68,-2,-6,-51,46,-9,-12
1537913187684490,-16,59,32,40,127,71,43,11
1537913187684490,8,-49,-10,-16,-60,-40,-37,-43
1537913187691471,8,-48,-43,-54,-118,-85,-9,-17
1537913187691471,35,56,-15,-12,-13,-44,-46,-32
1537913187698452,-59,31,12,49,56,70,98,38
1537913187698452,5,-52,6,-26,-17,-35,-62,-29
1537913187713413,8,13,-25,-9,25,43,15,-115
1537913187713413,-4,74,-41,9,47,11,-50,20
1537913187721392,32,110,76,12,-48,-59,40,2
1537913187721392,-2,44,20,27,28,26,-25,-35
1537913187736350,-10,6,6,2,36,20,-2,68
1537913187736350,20,-20,-30,-23,-25,-66,31,-24
1537913187744329,-28,5,-23,17,44,70,8,-128
1537913187744329,0,-49,-8,-19,-17,-44,-14,96
1537913187751310,-5,-33,36,21,16,-58,-11,-42
1537913187751310,-28,17,41,9,53,-35,33,31
1537913187759288,44,-8,-37,-51,5,17,-73,-107
1537913187759288,8,-29,13,26,-33,-21,-26,-23
1537913187774248,-17,-32,-32,-1,4,18,28,51
1537913187774248,-13,33,19,18,31,32,31,-54
1537913187781229,28,-56,-18,-49,-106,-109,-99,71
1537913187781229,-32,81,-3,5,43,44,74,-88
1537913187796189,18,-54,-28,4,7,35,49,82
1537913187796189,23,46,80,23,5,42,2,-30
1537913187804168,-25,16,24,15,30,72,75,105
1537913187804168,0,110,-13,12,26,-36,-56,-67
1537913187819128,21,-55,-32,-21,-70,-45,-103,-73
1537913187819128,4,50,-6,-21,16,55,75,33
1537913187820125,-8,45,1,13,-53,-91,-88,-41
1537913187820125,16,-73,-6,1,99,60,5,16
1537913187834088,2,86,29,18,57,48,27,-68
1537913187834088,21,-90,-37,-26,0,-52,-118,16
1537913187841070,-4,-60,-9,8,-52,-72,-79,-45
1537913187841070,1,16,31,14,33,100,56,-18
1537913187856030,13,12,-21,-31,-100,-70,-60,14
1537913187856030,1,-30,-9,-14,-42,-50,2,24
1537913187865006,-9,80,14,14,43,71,83,25
1537913187865006,4,-62,-14,14,8,-11,15,65
1537913187879967,-39,119,21,32,66,53,36,110
1537913187879967,37,-128,-33,-31,-36,3,-4,-28
1537913187879967,-11,104,-16,-31,-62,-71,-26,40
1537913187879967,-2,31,8,25,97,69,53,33
1537913187893930,-1,38,-9,-11,-24,26,19,-29
1537913187893930,-7,13,-11,-1,-29,36,-23,-28
1537913187901908,13,-64,5,7,29,9,19,-1
1537913187901908,2,-3,-15,-20,-31,-32,-22,25
1537913187916868,-1,-66,33,25,-5,19,29,21
1537913187916868,9,4,-11,-9,-32,-63,-33,-74
1537913187924847,0,-18,19,12,39,36,29,12
1537913187924847,-6,-1,6,7,-31,-11,19,-5
1537913187939806,3,-2,-28,-38,-79,-36,-21,-11
1537913187939806,-5,-22,-12,-18,-49,-36,27,-4
1537913187939806,11,19,2,15,22,69,25,-28
1537913187939806,0,24,-13,-10,-29,-46,-14,-27
1537913187953768,0,-13,7,8,-14,15,11,42
1537913187953768,-5,-4,-3,-6,-22,-31,1,26
1537913187961747,-7,0,3,17,74,11,2,-12
1537913187961747,1,0,9,-3,-10,9,6,-13
1537913187976707,-1,-15,-5,-17,22,14,28,-4
1537913187976707,-17,35,-18,-1,-28,-27,1,-13
1537913187984685,-3,-65,2,6,52,28,1,14
1537913187984685,1,67,7,8,1,29,2,41
1537913187999645,-5,-92,-17,-12,-27,-31,-19,-12
1537913187999645,3,49,6,-1,21,-9,10,11
1537913188000643,-8,15,-4,-5,-45,-10,2,1
1537913188000643,4,-7,0,-4,16,-15,7,-11
1537913188013608,-15,10,-1,3,23,17,-8,6
1537913188013608,-2,-26,-4,14,24,-6,2,-29
1537913188021587,0,4,10,-9,4,-1,-1,14
1537913188021587,-5,-32,-5,-5,1,-12,4,7
1537913188036548,2,39,7,-3,-44,16,-11,6
1537913188036548,-1,-33,-12,-9,49,0,2,-26
1537913188044528,1,32,4,-4,-32,-5,6,0
1537913188044528,-9,-21,-5,3,3,6,-15,-3
1537913188059487,4,9,4,5,32,15,8,1
1537913188059487,2,-4,-6,-17,-37,-11,-2,-3
1537913188060485,-5,1,3,6,2,3,11,4
1537913188060485,2,-12,-1,1,-10,-1,3,4
1537913188073449,9,2,5,13,18,-2,-8,-14
1537913188073449,-3,-3,0,-11,-19,-5,9,-2
1537913188081427,-6,8,0,9,40,3,30,17
1537913188081427,-6,38,-1,2,-8,-3,-1,0
1537913188096387,-2,-55,-7,-14,9,-10,-5,12
1537913188096387,2,-37,1,5,5,10,-2,0
1537913188104365,4,15,11,7,-4,6,-20,-7
1537913188104365,0,-2,-7,-12,-23,-12,16,-9
1537913188119326,-6,28,-3,8,14,-4,-5,-12
1537913188119326,-3,1,-5,-5,-11,-5,-13,-12
1537913188120323,1,-5,-2,-5,9,13,-6,5
1537913188120323,0,-18,4,5,-4,5,8,3
1537913188134285,-8,11,-2,-1,-3,11,13,-14
1537913188134285,0,-5,-1,6,-6,-5,-19,-7
1537913188141267,-1,18,8,6,-13,-6,-1,8
1537913188141267,0,-11,-1,-5,24,6,8,17
1537913188156227,-10,8,1,-3,7,-7,-3,1
1537913188156227,-5,15,7,4,-11,-6,5,5
1537913188164206,2,11,-3,5,28,44,19,-9
1537913188164206,2,-28,-16,-21,-56,-41,-40,2
1537913188180163,2,-5,4,2,-6,-12,-8,1
1537913188180163,-3,11,2,3,4,-1,0,8
1537913188181160,5,-8,-5,-4,-15,-4,-3,4
1537913188181160,-2,-9,-6,5,30,17,11,-3
1537913188194126,0,22,3,3,2,-4,-9,-7
1537913188194126,4,14,-4,-12,-10,2,-5,-1
1537913188202104,-2,-33,1,6,3,-12,-1,-12
1537913188202104,1,11,5,-3,-2,6,6,-7
1537913188216067,5,6,-4,-1,-7,-10,-4,1
1537913188216067,1,-7,1,2,0,-3,3,0
1537913188225043,-4,13,-2,2,2,-2,-19,-12
1537913188225043,8,-12,2,-5,-25,-21,-6,11
1537913188240003,-4,2,-4,-2,13,7,9,-6
1537913188240003,2,3,2,4,5,-1,8,6
1537913188240003,-1,-12,0,-3,0,-5,1,15
1537913188240003,1,-4,-7,1,-6,-8,-5,-23
1537913188253965,-1,2,-1,-4,-7,-1,-12,-5
1537913188253965,1,0,-1,2,-43,-9,11,1
1537913188261944,1,-4,-3,-9,2,5,-8,5
1537913188261944,-1,2,6,5,15,6,9,7
1537913188275907,0,6,3,3,6,-2,-3,6
1537913188275907,-1,-7,-4,3,-5,0,3,-24
1537913188284883,2,2,-2,-1,15,-2,-4,9
1537913188284883,-2,-6,-4,-4,-3,9,2,3
1537913188299843,-4,-3,-3,1,20,-5,-3,-11
1537913188299843,10,-2,-3,-2,11,4,0,7
1537913188300841,0,8,1,-3,-1,-1,0,-6
1537913188300841,-1,1,4,2,-1,7,8,3
1537913188313807,5,-5,-4,-3,-3,1,-11,-6
1537913188313807,3,-4,-3,0,15,4,5,-3
1537913188321785,6,2,-7,-8,-20,-9,2,-2
1537913188321785,-7,-8,-1,9,21,-3,-2,-5
1537913188336746,2,4,7,-2,-13,-1,-1,5
1537913188336746,-5,-1,0,-2,3,4,6,3
1537913188344725,5,3,-1,2,-21,-3,-2,-3
1537913188344725,-7,-3,1,7,23,9,6,4
1537913188359684,6,-1,-6,-10,2,-6,5,-6
1537913188359684,-6,5,0,0,-9,-3,-11,-2
1537913188360682,-7,0,2,0,6,-8,-5,6
1537913188360682,0,0,0,3,9,28,-4,5
1537913188373647,-3,2,-1,0,4,-7,0,1
1537913188373647,-3,-4,-1,-4,-19,3,-6,0
1537913188381625,4,-2,-2,-1,-2,-2,0,-1
1537913188381625,-1,-1,-2,-3,1,0,1,-2
1537913188396585,7,3,0,1,3,1,2,1
1537913188396585,-1,0,2,0,6,-2,-2,-1
1537913188404563,0,-3,1,5,9,6,6,-5
1537913188404563,6,-3,-7,-9,-14,-13,-1,-3
1537913188419523,0,-1,-1,-5,-7,1,2,3
1537913188419523,0,1,-6,-3,7,-4,-13,-1
1537913188420521,-3,2,1,2,1,17,-6,-2
1537913188420521,-3,-3,-2,4,-14,-5,-4,22
1537913188433486,-3,0,-2,-7,-24,-27,-7,-3
1537913188433486,-5,0,-1,-2,24,26,16,2
1537913188442462,1,-3,-2,-5,-12,-26,-20,1
1537913188442462,2,5,0,-2,-2,3,11,-5
1537913188456425,0,-3,1,3,11,12,-3,-1
1537913188456425,-4,-3,-3,0,-1,-8,7,-1
1537913188464403,1,1,3,1,5,14,5,1
1537913188464403,-5,4,-2,-5,-11,-15,3,-4
1537913188479363,-4,-2,-2,-1,-2,-1,-8,-3
1537913188479363,1,-2,0,-2,3,3,-1,-1
1537913188480361,-1,4,-3,2,12,9,11,4
1537913188480361,3,-23,-2,-7,-12,-2,-19,-17
1537913188493326,-9,7,-1,1,1,9,6,7
1537913188493326,-5,1,2,2,-12,-4,-3,0
1537913188502302,-16,0,-1,1,10,-2,3,-2
1537913188502302,-4,0,-1,-2,2,2,-2,2
1537913188516265,-7,0,0,8,4,2,-3,-6
1537913188516265,-6,-2,-1,-10,-3,-3,2,0
1537913188524244,-9,1,-3,-2,-1,-5,-1,-1
1537913188524244,-10,-1,0,4,30,3,0,-7
1537913188539204,0,0,0,-4,-16,-2,-4,7
1537913188539204,-4,-1,-2,2,-8,-3,1,9
1537913188547184,-1,-2,-2,-2,-4,0,2,-3
1537913188547184,-4,4,-2,0,-4,-3,2,-3
1537913188554165,0,-4,-2,-5,-6,-3,1,-5
1537913188554165,10,-3,1,4,10,16,-4,-8
1537913188562145,8,-2,-3,-10,-21,-17,-7,-6
1537913188562145,3,-6,-2,0,-4,1,-11,-1
1537913188576106,3,10,-1,1,6,0,1,2
1537913188576106,3,-3,0,0,-9,-4,2,-3
1537913188585082,2,-3,2,0,0,4,4,4
1537913188585082,6,3,1,2,2,0,3,1
1537913188599044,2,-3,-4,-1,3,2,3,1
1537913188599044,-2,-1,0,-3,1,-6,-5,1
1537913188607023,2,-2,-5,-1,-2,3,2,-3
1537913188607023,-1,3,0,-2,1,-3,0,1
1537913188614005,1,-4,-1,1,-1,4,-1,-5
1537913188614005,-3,-1,-3,-1,6,-7,-4,-2
1537913188621982,2,6,2,0,8,-5,-5,-4
1537913188621982,2,-6,1,-2,-6,-1,-3,9
1537913188635945,4,3,1,-3,1,0,8,2
1537913188635945,4,-1,-3,-2,-9,-7,-14,-1
1537913188644921,-5,-1,1,0,6,4,4,1
1537913188644921,4,2,-4,-4,9,-4,1,-7
1537913188658884,6,-5,1,-2,5,16,0,-4
1537913188658884,2,0,-2,2,-1,-6,-11,2
1537913188667860,2,0,-3,-1,-10,-4,3,1
1537913188667860,2,2,1,6,1,6,-2,-3
1537913188673844,-2,-4,-3,-1,-1,-14,-11,-3
1537913188673844,1,-1,-2,-6,7,4,7,-3
1537913188682820,5,0,-1,2,1,4,-6,0
1537913188682820,5,-3,0,-5,-10,-2,2,1
1537913188696783,-6,-1,-1,2,1,-2,2,0
1537913188696783,-1,2,-1,-1,3,0,0,0
1537913188705758,-1,-1,0,-3,-4,-5,1,1
1537913188705758,-4,-3,-1,0,-4,1,2,-1
1537913188718724,0,2,-1,0,0,0,-4,-2
1537913188718724,3,-1,-1,-1,-3,-4,1,-1
1537913188727700,-2,-3,-2,-2,0,0,0,-2
1537913188727700,-6,6,2,2,5,-2,3,0
1537913188742660,-9,0,3,2,2,12,3,0
1537913188742660,1,-21,-8,-9,-26,-26,-10,-4
1537913188743658,-3,4,0,-1,-5,0,-6,-6
1537913188743658,-3,1,-1,1,8,-6,2,-3
1537913188756622,-3,2,0,3,-3,-2,2,-3
1537913188756622,-6,2,1,4,24,15,8,0
1537913188765599,5,-4,-5,-4,-5,-3,-7,7
1537913188765599,-2,-7,1,-4,-5,3,2,2
1537913188778565,-1,-1,-1,1,7,-7,-2,-1
1537913188778565,1,5,0,1,6,-1,-2,1
1537913188787540,3,4,0,-1,-6,-7,-6,-1
1537913188787540,-1,-1,0,6,12,10,-5,2
1537913188802501,-13,26,-1,2,-1,10,6,4
1537913188802501,20,-64,-26,-14,-5,-6,16,-16
1537913188804495,-18,72,32,13,-6,5,-21,7
1537913188804495,6,-49,-17,-16,-21,-12,8,-12
1537913188816462,-4,26,3,0,6,-5,1,-4
1537913188816462,0,12,11,15,20,19,12,6
1537913188825439,-1,-32,-19,-14,-5,-3,0,-4
1537913188825439,-2,38,10,1,-23,-15,1,5
1537913188838404,-9,4,-5,3,2,4,-12,20
1537913188838404,10,17,1,-12,-6,3,1,-1
1537913188847380,-4,1,4,5,13,20,41,14
1537913188847380,-12,-9,3,11,32,25,1,8
1537913188862340,-6,33,-7,-15,-43,-56,-13,34
1537913188862340,-33,-5,5,8,-8,23,2,-17
1537913188864335,21,-89,-9,-11,-1,-12,6,14
1537913188864335,7,-21,-8,-9,6,10,-11,-27
1537913188876303,-26,93,-2,25,41,43,35,70
1537913188876303,28,-77,-49,-36,-10,-44,-55,-1
1537913188885279,-1,61,1,-11,-67,-59,-10,-23
1537913188885279,-9,5,22,32,55,37,31,14
1537913188899242,-9,-29,-22,-40,-64,-47,-43,-9
1537913188899242,30,-53,21,20,32,23,21,80
1537913188908219,-24,93,13,5,-6,-14,-30,-22
1537913188908219,12,76,-13,7,10,18,62,-54
1537913188921184,40,17,-12,-22,-21,-18,47,-37
1537913188921184,-8,2,10,12,-5,-12,-51,-41
1537913188930161,-4,-55,5,23,51,68,87,63
1537913188930161,33,-103,51,7,-30,-35,-65,30
1537913188936144,-37,101,47,-2,-18,30,15,53
1537913188936144,-31,5,-25,12,74,85,123,-8
1537913188945119,35,-18,-2,-14,-61,-68,-79,-12
1537913188945119,-8,65,14,23,5,-40,-53,5
1537913188959083,-1,-128,-29,-23,-10,25,38,32
1537913188959083,-17,121,41,9,3,30,86,-13
1537913188975038,10,-74,-20,-15,-19,-21,6,-56
1537913188975038,-6,101,10,8,-6,35,5,13
1537913188982020,47,-122,20,1,-20,-34,-18,-35
1537913188982020,-29,74,-16,-6,27,7,-72,3
1537913188989001,4,-25,-11,11,2,-8,20,-43
1537913188989001,5,-3,-14,-15,3,-21,-45,54
1537913188995983,-4,70,-12,8,33,-29,21,-117
1537913188995983,11,8,43,28,50,35,102,-50
1537913189004958,-4,15,-35,-51,-21,1,-55,19
1537913189004958,-13,-23,-36,-20,-31,-36,46,25
1537913189018921,-7,9,41,51,29,55,-41,-43
1537913189018921,7,-11,-14,-15,-25,-58,-85,26
1537913189027897,-1,53,-38,15,30,30,-27,-2
1537913189027897,-4,-83,3,-29,37,50,52,14
1537913189041859,4,97,9,-11,-26,-28,-35,-5
1537913189041859,-9,-20,25,33,-5,-3,18,42
1537913189048841,15,-31,37,-5,-13,35,67,-13
1537913189048841,-20,40,10,24,36,34,-35,58
1537913189056820,7,-58,-58,-14,-31,-22,-8,-101
1537913189056820,-1,26,1,-33,-67,-45,-31,83
1537913189064798,-17,-15,0,9,-19,-28,50,70
1537913189064798,3,10,-41,-37,44,-54,-31,-112
1537913189078761,-1,-4,18,13,37,28,-52,53
1537913189078761,18,-46,-45,-54,-98,-43,28,-53
1537913189087737,-21,6,-12,43,127,54,-13,70
1537913189087737,-4,-8,10,3,-128,39,100,85
1537913189102697,7,78,5,-41,-39,-78,-112,22
1537913189102697,-13,89,19,13,-30,33,57,-8
1537913189103694,29,-14,-35,-20,26,-84,-87,-73
1537913189103694,3,104,86,62,-5,-12,65,-49
1537913189116659,4,29,7,7,46,42,19,-44
1537913189116659,5,15,9,8,21,14,-14,-68
1537913189125636,8,60,15,-27,-75,-31,79,-19
1537913189125636,-10,73,-40,5,27,-15,-74,-12
1537913189138601,8,-128,-30,-7,-50,-15,49,3
1537913189138601,8,62,8,-1,50,4,-120,-38
1537913189147577,-4,64,2,8,-38,31,29,5
1537913189147577,12,-104,-44,-31,-3,-8,-17,-59
1537913189162537,-1,-31,13,12,29,62,125,51
1537913189162537,-10,-18,-8,19,23,-60,2,-28
1537913189164532,-19,5,22,-14,-24,40,-3,7
1537913189164532,0,-69,5,-10,-33,7,-17,0
1537913189176500,9,37,21,18,46,10,-56,-44
1537913189176500,-5,-31,-13,3,-21,9,5,27
1537913189185476,-11,35,-3,-1,30,18,26,8
1537913189185476,-7,8,29,14,-13,18,-23,3
1537913189198441,0,56,15,-3,13,-27,29,14
1537913189198441,-2,42,1,3,-11,-12,-24,2
1537913189207417,-3,7,10,4,18,9,-2,-14
1537913189207417,-15,14,-21,-11,-14,7,-27,-46
1537913189222377,6,15,-7,23,75,25,26,-9
1537913189222377,1,-54,-14,-42,-78,-8,26,20
1537913189224371,-16,-3,23,30,25,-18,-23,78
1537913189224371,-1,14,-11,-28,53,-2,39,-9
1537913189236339,-14,-31,-21,-2,-47,14,-19,16
1537913189236339,-5,-11,0,13,25,17,-4,1
1537913189251300,-8,-13,-2,-4,7,-15,-5,-51
1537913189251300,9,-45,-10,-4,-31,-26,-5,-3
1537913189259278,-9,-11,-6,-7,-11,-7,16,10
1537913189259278,-8,-3,-2,-9,-6,3,-3,20
1537913189267257,-2,-2,-6,6,-10,20,17,-17
1537913189267257,4,-8,-9,-9,-35,-15,-33,0
1537913189282217,-1,-15,5,2,-3,-10,10,-2
1537913189282217,4,-32,-6,10,11,0,7,-16
1537913189284212,-5,23,2,0,8,0,-27,-15
1537913189284212,9,-18,-2,-4,-48,9,31,15
1537913189296180,-10,-29,-14,-9,24,0,-2,2
1537913189296180,-4,15,-1,1,-28,-13,-8,-6
1537913189305156,2,-13,3,-5,13,-4,-14,-20
1537913189305156,5,3,-3,6,44,7,3,3
1537913189319119,-4,13,0,8,-35,-13,3,4
1537913189319119,-1,-8,-5,-12,-12,-9,-1,9
1537913189328096,4,-26,-1,-5,-5,13,9,-8
1537913189328096,-15,8,2,7,22,16,31,11
1537913189343056,6,-3,-12,-10,-9,-54,-36,5
1537913189343056,-3,10,4,4,8,-8,0,4
1537913189344056,9,-19,2,14,3,14,-2,-3
1537913189344056,8,13,-9,-16,-7,1,1,3
1537913189356021,-3,5,4,2,21,24,14,8
1537913189356021,3,7,-9,1,-9,-2,-12,-2
1537913189364997,4,-36,8,5,20,5,-4,-6
1537913189364997,2,6,-1,3,-9,-10,3,-1
1537913189378961,2,2,5,5,-9,10,6,12
1537913189378961,-3,25,4,9,30,1,0,-9
1537913189387937,-1,13,-4,-12,-10,1,-5,-5
1537913189387937,-4,-2,2,-2,4,-9,-8,0
1537913189409876,-4,-7,-5,-4,-4,7,2,-3
1537913189409876,2,-13,1,2,5,5,-1,0
1537913189411872,1,16,0,4,16,-11,2,-5
1537913189411872,-2,4,-9,-4,-23,-10,-5,-1
1537913189416858,-15,-4,4,3,21,-9,-1,24
1537913189416858,9,-3,-8,-16,-20,13,2,-9
1537913189424836,-4,-6,-3,-5,-47,-7,2,-3
1537913189424836,-1,8,-3,2,31,-3,3,-1
1537913189438799,6,-5,-1,-1,-2,2,4,-8
1537913189438799,0,-2,4,3,11,-9,5,4
1537913189447775,-2,-9,-3,2,2,4,-1,0
1537913189447775,-8,2,-1,-5,-21,1,-1,1
1537913189461738,0,6,0,-2,-16,7,0,-5
1537913189461738,-2,-3,4,2,10,-6,5,3
1537913189468719,11,4,0,1,-7,7,1,2
1537913189468719,-15,-3,-3,0,-1,-1,-1,2
1537913189476697,0,1,0,-1,8,7,-6,-6
1537913189476697,6,1,-4,0,3,1,-4,7
1537913189485674,0,-1,0,-4,0,-3,-2,-1
1537913189485674,2,2,-4,2,8,-21,-1,-1
1537913189498639,-8,-13,-1,5,1,-6,-16,8
1537913189498639,6,-4,-2,-9,-42,2,-5,3
1537913189507615,-7,4,2,0,7,0,5,3
1537913189507615,9,1,-4,-2,4,-8,-19,-8
1537913189530555,9,-10,-4,-3,-3,7,6,-10
1537913189530555,-6,2,2,4,10,-5,1,1
1537913189531553,1,-7,-5,-2,12,-4,0,2
1537913189531553,3,2,-1,4,-1,18,-4,0
1537913189536538,5,5,-2,-10,-15,1,4,-4
1537913189536538,-5,-3,-6,0,6,-3,-7,11
1537913189545516,3,-6,-1,-8,-6,6,8,-2
1537913189545516,-9,-4,2,6,6,1,6,-3
1537913189558479,-1,2,-1,1,0,4,-4,3
1537913189558479,-1,-3,1,2,12,1,-4,-3
1537913189567455,-2,-4,-4,2,15,2,-6,-3
1537913189567455,7,13,2,-8,-24,-2,10,3
1537913189582416,-3,-7,-2,2,-5,1,-4,-12
1537913189582416,0,6,7,0,9,0,4,-3
1537913189588399,-3,-8,-5,3,2,6,-4,-1
1537913189588399,5,11,-1,-3,-6,-6,-9,-5
1537913189596378,1,-6,-4,-4,-1,4,8,-1
1537913189596378,4,3,3,5,-9,24,-2,2
1537913189605355,-2,0,-3,-3,-10,-4,-7,-13
1537913189605355,-15,-3,3,6,34,-1,0,3
1537913189619316,-7,9,2,-5,-21,-1,8,-6
1537913189619316,-7,-3,1,0,7,4,7,-5
1537913189628294,-9,-1,3,6,1,-7,-4,2
1537913189628294,-1,1,-2,-7,12,11,14,1
1537913189642255,-4,-3,-4,3,13,-17,-13,-4
1537913189642255,-7,-5,-5,-6,-25,-8,1,2
1537913189649237,-7,5,0,0,-2,0,-4,0
1537913189649237,-1,-2,2,4,-1,-5,-1,-3
1537913189665194,-4,-5,0,1,9,4,3,3
1537913189665194,-5,0,0,-3,4,-7,-8,-1
1537913189666192,-1,6,-4,-1,-5,1,3,-2
1537913189666192,-1,-11,0,-4,-14,-2,-9,-4
1537913189679158,-3,6,-1,-1,-6,3,-5,2
1537913189679158,0,-10,-1,2,9,-1,-1,-4
1537913189686138,-4,3,1,0,-2,-4,5,5
1537913189686138,-4,2,1,-3,6,4,1,1
1537913189702095,3,-3,1,-1,-10,-1,8,4
1537913189702095,-5,-2,-3,2,-3,-15,-26,-10
1537913189709077,1,-1,-2,0,3,8,1,1
1537913189709077,6,0,2,0,-15,-1,1,4
1537913189725034,0,1,-1,-3,-1,2,15,3
1537913189725034,2,4,-1,-3,-5,-5,7,0
1537913189727030,4,3,-1,-2,-9,-9,-20,0
1537913189727030,-2,-1,-3,0,-1,-15,-5,-4
1537913189739994,7,2,0,4,9,9,-1,-2
1537913189739994,3,0,-1,-3,8,10,4,-3
1537913189745980,0,-2,-2,-2,-3,0,2,-2
1537913189745980,4,1,0,7,7,-2,-1,-3
1537913189761937,6,0,1,-2,-5,-7,-4,0
1537913189761937,5,-1,-4,-7,3,-2,2,0
1537913189768917,-3,-1,-1,1,0,-1,-2,-4
1537913189768917,2,-4,-1,-1,4,2,4,0
1537913189784874,-2,-2,-2,4,-6,-2,-17,-8
1537913189784874,-1,-1,-1,-3,4,8,-1,-1
1537913189786870,-1,0,2,4,4,-1,8,3
1537913189786870,2,-2,-2,-2,-7,5,-3,1
1537913189799834,-3,0,2,1,18,7,12,0
1537913189799834,0,1,-4,-3,-24,-13,-11,-3
1537913189806816,1,-5,-4,-1,5,-1,-5,-1
1537913189806816,1,1,-3,0,-4,2,-1,-5
1537913189821776,-6,-1,0,-3,2,0,4,-1
1537913189821776,1,-5,2,3,1,13,9,4
1537913189828757,2,1,0,-3,-1,2,14,6
1537913189828757,-1,0,-3,-8,-8,-3,-4,-14
1537913189844713,2,-3,-3,-3,-6,-3,-9,2
1537913189844713,2,2,4,2,5,-6,-3,1
1537913189846709,-1,4,1,3,-4,2,2,-3
1537913189846709,-2,-4,-1,-2,4,-9,-2,1
1537913189859674,7,-2,-5,-5,-3,-6,-8,-1
1537913189859674,-3,-2,-4,-1,4,-4,2,-8
1537913189866655,4,1,2,3,3,-1,-19,2
1537913189866655,1,-6,-2,-2,2,6,6,2
1537913189881615,-1,1,4,2,-2,-6,-7,-7
1537913189881615,4,1,-5,1,9,0,1,7
1537913189888596,2,-4,-6,-5,-19,-5,-14,-9
1537913189888596,-3,-1,-3,1,-2,-1,-4,6
1537913189905551,0,1,0,-2,-8,12,11,8
1537913189905551,7,0,0,2,3,1,26,-1
1537913189906549,-2,-5,0,-3,2,-7,-20,-5
1537913189906549,-8,6,2,5,13,10,-7,3
1537913189919515,6,-10,-4,-5,-14,9,3,-4
1537913189919515,-2,-11,-1,-1,3,-9,7,-5
1537913189926496,-1,9,3,-6,-3,-3,-6,9
1537913189926496,6,11,-3,2,-9,0,1,-6
1537913189942453,-7,-3,-2,1,8,6,-11,3
1537913189942453,-3,8,0,4,1,7,19,6
1537913189948438,-2,-10,7,4,8,17,21,-8
1537913189948438,-1,6,4,-4,-3,1,-31,-3
1537913189965392,-3,12,-5,-2,-8,-22,17,1
1537913189965392,1,9,-4,-7,-14,-17,-16,-4
1537913189966389,5,-9,-8,-2,-8,-8,1,9
1537913189966389,-4,-14,-4,0,4,6,24,0
1537913189979354,-5,6,4,6,12,-5,-6,-18
1537913189979354,-2,-3,-1,-10,1,-7,-8,11
1537913189993316,-2,24,-2,6,14,3,1,-5
1537913189993316,1,8,18,10,11,19,33,2
1537913190002292,10,-29,-12,-18,-31,-30,-39,-19
1537913190002292,-13,34,0,-3,-18,-23,1,-1
1537913190009273,4,-21,-9,5,28,33,10,-10
1537913190009273,-10,-34,-4,-4,-4,-8,-15,11
1537913190025231,13,84,5,6,-1,-21,10,-3
1537913190025231,4,-118,-8,-11,-24,-19,-13,-37
1537913190026228,-18,46,-4,-14,-2,-6,-13,47
1537913190026228,-26,63,14,15,25,-10,1,-10
1537913190039194,-18,32,-19,-11,-5,4,17,-18
1537913190039194,34,-79,4,6,8,-9,-52,15
1537913190046175,-11,54,9,8,8,27,73,-39
1537913190046175,29,-106,-40,-17,-15,16,6,52
1537913190062133,31,-64,32,7,9,29,24,38
1537913190062133,4,127,8,-19,-79,-58,36,5
1537913190069114,2,-112,-13,-3,0,29,-38,-66
1537913190069114,-9,76,30,16,35,23,19,-21
1537913190085071,-29,61,-17,6,11,14,39,8
1537913190085071,53,-126,-57,-20,46,80,72,-39
1537913190087066,32,22,5,-10,-27,-36,-21,84
1537913190087066,-33,95,64,34,-6,-7,32,10
1537913190099035,25,-15,-21,-36,-57,-41,-10,6
1537913190099035,-25,64,17,28,27,17,50,40
1537913190108011,-5,-87,-52,-1,25,-7,5,-11
1537913190108011,63,45,17,-1,-3,-27,-2,-100
1537913190121972,-37,-12,31,14,58,52,-2,9
1537913190121972,5,90,20,-8,-63,-42,5,28
1537913190128954,-3,2,-6,19,62,49,-7,17
1537913190128954,-4,-123,-57,-34,-82,-21,56,19
1537913190144911,23,84,-16,-18,-18,-67,-87,-41
1537913190144911,-44,5,37,49,60,75,86,2
1537913190146906,26,36,-2,-28,-54,-77,-50,-27
1537913190146906,-15,-35,-13,-8,31,40,40,-68
1537913190158873,-2,-6,27,7,1,3,-13,-1
1537913190158873,-15,40,2,9,10,-10,-10,-48
1537913190167849,3,85,-9,-15,-48,-11,10,-47
1537913190167849,9,7,6,11,3,5,-50,66
1537913190181812,-8,14,18,15,36,67,35,95
1537913190181812,28,3,0,-21,-18,-41,-55,-32
1537913190188793,-22,-8,43,29,48,67,105,58
1537913190188793,2,44,-45,-48,-96,-92,2,35
1537913190204751,4,-114,-31,4,26,39,16,-82
1537913190204751,-30,87,30,22,-1,21,54,17
1537913190206745,8,-90,-18,-21,-39,-32,104,37
1537913190206745,-9,-39,52,48,80,12,62,14
1537913190218713,36,49,-32,-42,-72,-48,15,-29
1537913190218713,-27,-23,-21,-11,47,40,-48,38
1537913190233673,-7,27,-13,-7,-14,-43,-70,-23
1537913190233673,-19,32,11,2,14,16,-23,40
1537913190241652,-10,12,49,45,54,77,60,26
1537913190241652,2,-77,-67,-56,-92,-84,2,-43
1537913190248633,3,59,34,51,58,34,-23,-49
1537913190248633,10,-12,-9,-29,-9,-20,-27,28
1537913190265588,-14,50,17,27,39,20,101,43
1537913190265588,-4,-78,-38,-23,22,6,-107,-68
1537913190266586,14,16,4,-2,-24,47,76,-2
1537913190266586,-18,14,3,19,44,13,32,9
1537913190278554,-11,-37,-23,-28,-34,-24,18,-74
1537913190278554,10,5,7,11,6,-32,26,44
1537913190287529,-8,-7,22,23,41,33,24,-26
1537913190287529,3,108,-20,-49,-65,-50,-91,-46
1537913190301492,-16,41,8,11,4,-23,-23,14
1537913190301492,2,61,-14,32,24,58,28,45
1537913190308473,-8,-56,-36,-49,-48,-95,-108,16
1537913190308473,18,-67,43,9,-18,-4,11,-26
1537913190325428,6,-5,-10,-11,-22,-35,88,-30
1537913190325428,-32,24,13,15,3,47,-69,-20
1537913190326425,11,-4,-55,-24,0,-43,-55,18
1537913190326425,-6,-92,-49,12,3,20,23,-62
1537913190338394,-6,-26,23,-23,-105,-66,-46,69
1537913190338394,11,-35,12,40,99,28,-54,-22
1537913190347370,-4,43,15,-27,-85,36,38,126
1537913190347370,-11,-22,-29,-5,0,-22,-72,9
1537913190362330,-9,-19,-16,9,-5,22,-121,-51
1537913190362330,21,22,38,6,-3,39,78,45
1537913190368314,-12,52,33,29,100,-4,12,-102
1537913190368314,6,41,-12,-39,-78,-6,13,44
1537913190384272,-11,-21,5,30,108,37,31,16
1537913190384272,-4,22,8,-8,-44,-23,2,13
1537913190391254,-8,-48,7,14,-26,16,44,-68
1537913190391254,-7,-6,-7,17,46,40,-4,12
1537913190399233,9,-23,7,0,-36,-17,31,30
1537913190399233,6,13,-2,-4,42,-35,16,-72
1537913190408208,-3,18,8,-11,12,-36,-17,23
1537913190408208,-4,10,-10,8,0,37,-1,-32
1537913190422171,-2,-13,-11,-2,35,-13,-47,3
1537913190422171,-4,-13,-12,-12,-12,-5,1,33
1537913190429153,0,-3,11,0,-63,19,-7,-9
1537913190429153,9,22,16,3,-1,-22,-12,6
1537913190444112,2,4,-6,14,26,13,-6,-15
1537913190444112,-3,-29,-11,-34,-55,-16,-19,12
1537913190451093,0,30,-2,2,16,-3,8,-24
1537913190451093,5,-1,10,6,2,-3,26,-6
1537913190459071,-2,-1,-4,-5,-37,2,-19,-10
1537913190459071,12,15,2,7,-9,6,-14,-8
1537913190468047,-5,-45,-4,1,1,5,-23,41
1537913190468047,1,15,-1,2,-16,-4,5,-15
1537913190482010,-2,-2,-7,-8,47,3,-9,11
1537913190482010,1,6,-6,3,-40,-20,-33,-22
1537913190488991,2,3,2,-2,20,-16,7,-11
1537913190488991,2,0,-6,2,-14,27,4,7
1537913190504948,0,-3,-9,-5,-43,-14,-7,-18
1537913190504948,2,6,5,-8,72,2,7,11
1537913190510932,15,0,-3,-1,-38,-17,-22,-22
1537913190510932,-4,7,2,7,12,-3,-6,-10
1537913190518911,4,-3,-4,-15,-38,-6,-12,8
1537913190518911,-2,0,1,1,-27,-3,3,13
1537913190527887,2,-7,0,1,7,3,3,2
1537913190527887,-3,16,1,2,32,5,-3,-10
1537913190541850,2,-6,-2,-2,2,7,-2,-4
1537913190541850,0,-8,3,1,-40,-17,5,1
1537913190548831,-2,20,3,-5,30,20,2,10
1537913190548831,-5,-21,-9,-5,-14,-15,-9,-6
1537913190564789,-8,4,-1,10,11,4,2,1
1537913190564789,0,-4,6,-9,17,-1,0,-3
1537913190571771,4,8,1,1,-44,-22,-31,-2
1537913190571771,0,-8,-3,5,26,-8,5,3
1537913190587728,2,6,5,-3,-18,-6,-13,10
1537913190587728,-9,-1,-5,3,6,0,5,11
1537913190588727,-3,-6,-3,-7,8,3,-2,5
1537913190588727,5,-9,-4,-4,-7,1,9,-14
1537913190601691,1,7,-6,-4,-2,-2,-2,1
1537913190601691,-1,12,10,16,16,10,12,-3
1537913190608672,-15,-15,-2,-3,10,-7,-4,-23
1537913190608672,4,11,1,-6,-4,-5,-7,10
1537913190624631,-3,-21,3,-2,14,22,5,-9
1537913190624631,1,4,-4,-1,-8,5,-1,2
1537913190631612,-4,-1,-1,1,0,2,-2,4
1537913190631612,1,10,0,-3,7,3,-5,-6
1537913190647568,-5,2,-3,5,20,-8,-3,-3
1537913190647568,2,-8,0,-2,23,4,15,6
1537913190649562,6,7,-1,0,-6,10,6,-5
1537913190649562,-8,-12,-5,-5,-2,0,-21,27
1537913190661530,0,2,-2,-2,-5,-9,1,4
1537913190661530,4,-6,2,5,-3,-2,-4,0
1537913190668511,-2,1,1,4,-8,-5,15,9
1537913190668511,10,5,2,13,16,12,6,1
1537913190684468,9,-1,-3,-25,-23,25,4,-7
1537913190684468,-7,-4,-7,-9,-8,-11,-15,-3
1537913190691450,2,-4,1,0,0,0,-4,-3
1537913190691450,-1,6,5,3,-2,-4,2,-5
1537913190707407,-3,0,-2,7,12,-3,5,0
1537913190707407,8,-4,-4,-9,-26,-2,-1,-8
1537913190709402,-3,5,0,-1,-8,-1,2,3
1537913190709402,-7,-4,1,-3,13,8,8,-5
1537913190722367,3,1,-5,0,-19,-6,-34,-5
1537913190722367,0,1,-6,-7,-4,-10,5,-2
1537913190728352,-6,1,4,10,7,-3,-3,7
1537913190728352,5,0,-1,-9,7,4,5,0
1537913190744309,-14,6,-2,-3,3,-8,-5,-10
1537913190744309,-4,-13,-1,4,0,1,-1,3
1537913190751291,1,5,5,2,16,0,-2,-4
1537913190751291,-2,0,-2,-4,-2,2,8,-3
1537913190767248,0,-5,-3,-1,-2,-7,-1,-4
1537913190767248,-1,-1,-3,-2,-4,2,-10,-2
1537913190769244,-10,2,-3,3,12,1,9,8
1537913190769244,-6,-5,2,3,-2,-2,-10,-14
1537913190782209,1,7,4,-1,6,-3,4,4
1537913190782209,-13,-3,-1,-2,7,2,-3,-3
1537913190789190,1,1,-2,1,-4,1,4,-2
1537913190789190,5,-6,-6,-7,-26,-10,-7,1
1537913190804151,-2,-3,-1,-2,-4,-10,-5,-7
1537913190804151,-1,3,4,6,7,5,5,-5
1537913190811132,2,-2,-1,-7,-8,5,6,1
1537913190811132,0,-1,0,4,-19,-18,-3,0
1537913190828086,1,-2,0,3,9,2,7,3
1537913190828086,5,-2,-3,-4,-4,-1,-1,-1
1537913190829084,-2,0,-4,-2,1,-6,-3,-1
1537913190829084,-2,1,1,4,0,-5,-12,-7
1537913190842048,2,-2,0,5,23,4,8,8
1537913190842048,8,7,0,-8,-51,-8,-5,-1
1537913190849030,4,-4,1,-1,-9,-5,4,-6
1537913190849030,2,-6,-3,-2,15,7,4,2
1537913190863989,4,-3,-2,-1,1,3,4,1
1537913190863989,-2,-7,-2,2,10,3,-6,4
1537913190870970,3,5,0,0,8,2,9,3
1537913190870970,2,1,-2,-5,-10,1,-9,-4
1537913190887925,-4,-6,-3,2,4,-9,2,-3
1537913190887925,5,0,2,-3,-4,0,4,-10
1537913190888922,4,4,-1,-4,-14,20,-3,3
1537913190888922,-6,-1,2,-1,6,4,8,-1
1537913190901887,-2,1,0,0,-7,-11,-2,-1
1537913190901887,-3,-4,-3,3,12,3,0,1
1537913190908869,-2,-3,-3,1,11,-3,5,-6
1537913190908869,-1,1,-4,-1,-18,-2,2,5
1537913190924827,-1,-2,-3,-6,-6,-2,-3,1
1537913190924827,0,-2,0,4,-11,-5,-1,-4
1537913190931808,7,-5,-7,-13,-14,-4,-4,-2
1537913190931808,-4,7,10,8,15,3,-3,2
1537913190947765,-1,-4,-2,1,-9,-2,0,1
1537913190947765,0,2,1,-2,19,-2,-10,5
1537913190948763,2,0,-1,-2,6,-2,1,0
1537913190948763,-1,-3,-5,-2,-6,-1,-5,-7
1537913190961728,2,2,1,1,-2,0,4,3
1537913190961728,-5,-6,-2,0,24,11,12,-1
1537913190968714,-1,1,1,2,-9,-4,-9,-1
1537913190968714,-2,0,-4,-2,9,0,3,-2
1537913190984668,-1,0,-1,-1,-6,0,-4,0
1537913190984668,-1,3,-3,3,4,1,2,1
1537913190991649,1,2,4,0,-8,-7,-5,-2
1537913190991649,2,-3,-2,-5,8,4,0,-1
1537913191007605,-2,1,0,4,-1,-1,0,-3
1537913191007605,-1,-1,-1,-2,0,17,2,1
1537913191008602,-1,-2,-3,1,-10,9,6,3
1537913191008602,3,-5,-4,-1,-2,-7,-13,4
1537913191021567,4,-1,0,-2,-3,1,-1,2
1537913191021567,-1,2,2,-5,-8,-9,-2,0
1537913191028549,-1,-3,-1,3,20,-13,-10,0
1537913191028549,-4,-4,-1,-1,-2,13,18,3
1537913191044506,3,0,-2,-2,5,0,-16,-7
1537913191044506,-2,-2,-2,0,5,-5,-11,2
1537913191051487,-2,-2,-4,-1,1,-3,4,-6
1537913191051487,3,6,5,3,3,-10,-3,2
1537913191067445,-1,0,1,-2,-15,-1,1,0
1537913191067445,-2,-2,-2,-2,7,1,2,1
1537913191069440,-4,-2,-1,4,-2,0,-4,0
1537913191069440,1,-5,-2,-9,-7,-5,-1,-2
1537913191089387,1,2,-1,1,5,2,5,2
1537913191089387,1,1,-3,-2,-5,-3,2,-1
1537913191090384,-14,-1,2,1,-5,-3,-11,1
1537913191090384,-4,4,1,2,-6,-3,2,-2
1537913191105344,0,0,0,4,7,12,1,-1
1537913191105344,1,0,1,-2,-9,1,0,-2
1537913191111328,-5,-4,-6,-3,-4,-1,-6,0
1537913191111328,-3,1,0,2,8,-1,6,-4
1537913191127285,-6,-2,-3,-4,5,2,-4,-1
1537913191127285,0,0,-2,2,-2,-5,7,1
1537913191127285,-5,0,3,6,-6,2,-4,-4
1537913191127285,-6,0,-2,-4,0,-3,-11,-1
1537913191142246,-7,-3,-1,-3,-1,-2,2,-1
1537913191142246,-9,2,0,4,-3,-3,1,-1
1537913191149227,-4,-1,0,-4,9,4,5,0
1537913191149227,-6,-5,-4,-2,-8,-8,-1,-2
1537913191165185,-6,3,0,1,4,-2,4,0
1537913191165185,-4,0,-2,-2,-7,-7,-7,-1
1537913191171169,-10,-2,0,-2,2,31,-1,-1
1537913191171169,-4,0,1,4,0,-1,-1,-5
1537913191194108,-5,-3,0,0,-6,-2,-1,-2
1537913191194108,1,-4,-1,-7,2,1,-1,-2
1537913191195105,-10,-2,-1,0,0,-6,4,8
1537913191195105,-4,-3,-3,0,0,0,0,-10
1537913191203083,-1,-2,0,2,-2,-1,-3,0
1537913191203083,-4,0,2,-1,-6,-8,-3,4
1537913191209067,-4,1,0,1,-4,-13,-1,-6
1537913191209067,0,1,-1,-4,-4,3,1,5
1537913191225024,-4,-5,-1,0,-2,-9,-3,-7
1537913191225024,7,1,-2,-1,2,0,6,-6
1537913191231008,-4,-2,-1,-2,0,-7,2,1
1537913191231008,-1,-1,0,4,11,11,1,0
1537913191246965,8,3,-4,-8,-15,-8,3,3
1537913191246965,0,-1,3,4,-2,2,-1,4
1537913191247963,5,0,-1,-3,0,-5,-1,-5
1537913191247963,1,-3,1,-3,-4,-1,0,-1
1537913191262923,-2,-1,-2,-1,16,4,4,2
1537913191262923,-1,-2,-2,-4,7,-2,-2,1
1537913191268907,4,1,-1,-2,-13,-8,-6,-10
1537913191268907,1,0,1,1,2,8,-7,2
1537913191284864,-1,0,0,2,9,-1,3,1
1537913191284864,1,-1,1,0,2,0,-7,0
1537913191290848,-1,0,-1,0,1,0,0,-2
1537913191290848,6,-1,-4,-4,-5,-5,-4,1
1537913191306805,5,0,-1,2,0,0,-3,1
1537913191306805,-3,-1,-3,0,-5,-8,1,-7
1537913191307802,-3,-4,0,-2,-1,-22,-6,6
1537913191307802,8,6,-1,1,-3,0,3,-9
1537913191322762,-1,-4,-2,-4,-1,5,-22,1
1537913191322762,2,-3,0,-2,0,1,15,2
1537913191328747,-1,0,-3,-5,-2,-6,-4,2
1537913191328747,-3,-5,-3,-1,4,-3,-4,-2
1537913191343706,-4,0,1,-5,-12,-11,-9,-7
1537913191343706,1,0,-3,1,5,-1,2,-1
1537913191351685,0,2,-1,2,-3,7,2,-6
1537913191351685,-1,-4,-2,0,-3,-2,0,9
1537913191366645,0,3,0,4,3,5,10,1
1537913191366645,-7,0,0,-3,0,0,-7,-2
1537913191373626,2,-3,3,-2,-1,1,2,-1
1537913191373626,-2,-3,-1,1,7,0,3,-3
1537913191382602,-2,7,1,0,-1,8,3,0
1537913191382602,5,-3,-3,1,-3,-2,-5,-4
1537913191388586,0,0,-3,1,7,3,2,2
1537913191388586,-3,2,2,-1,-6,-9,-5,2
1537913191403546,11,1,-2,-3,-4,20,8,-6
1537913191403546,-2,-9,-3,-4,-4,1,9,1
1537913191411525,2,0,-2,-3,-2,4,1,-1
1537913191411525,3,7,5,3,-2,-2,8,11
1537913191426485,-5,-18,-8,-6,-10,-6,-14,-14
1537913191426485,3,43,11,5,-1,1,7,2
1537913191433466,8,-46,1,1,8,11,24,-5
1537913191433466,-2,13,-3,-4,-4,22,-17,4
1537913191442442,-10,3,0,4,4,-8,-11,3
1537913191442442,6,-18,1,-4,-8,-26,-14,-24
1537913191448426,0,38,2,4,8,20,0,21
1537913191448426,0,-25,-1,-3,-5,-21,-13,-22
1537913191463386,3,35,7,13,6,6,-18,6
1537913191463386,-6,-19,0,0,16,16,-33,-9
1537913191471365,9,60,22,15,-4,-30,33,10
1537913191471365,-17,95,-5,-7,-10,15,1,-17
1537913191486325,-26,-102,-12,1,30,-3,-51,19
1537913191486325,30,-38,-13,-12,-44,-32,6,-2
1537913191493306,13,0,-18,-24,-34,-44,-71,-81
1537913191493306,-17,84,29,28,33,8,36,0
1537913191502282,-10,-50,-4,15,54,80,74,25
1537913191502282,-11,24,-22,-35,-54,-20,-36,-20
1537913191508266,3,-32,-15,-5,32,1,-28,1
1537913191508266,-23,-24,-3,10,-9,-16,2,14
1537913191524223,44,-30,-5,-7,-6,-14,-14,9
1537913191524223,-10,57,13,8,-18,-17,28,1
1537913191531205,-18,-7,-18,-10,-24,-45,-19,2
1537913191531205,-8,-53,17,33,110,99,-45,-22
1537913191546165,10,73,17,-30,-98,-87,46,-36
1537913191546165,-9,-84,-32,-9,23,-6,15,46
1537913191554144,-47,91,17,2,-13,-27,-34,15
1537913191554144,-10,25,18,29,76,99,123,85
1537913191569105,-36,55,8,-12,-33,-34,-22,9
1537913191569105,22,30,12,-1,-3,-27,-48,-14
1537913191570104,-17,-6,-6,16,42,54,35,1
1537913191570104,2,9,-7,-2,-21,-39,-51,-66
1537913191585063,-5,-45,-26,-36,-37,22,104,-17
1537913191585063,-15,-11,-8,-8,-13,-55,-16,-47
1537913191591047,20,-5,13,30,48,80,-9,32
1537913191591047,67,23,5,-25,-59,-33,-38,-15
1537913191606006,-14,-44,-10,-18,-18,-53,-25,-52
1537913191606006,-22,24,-25,20,42,26,-85,-38
1537913191621964,38,-13,40,9,33,62,127,72
1537913191621964,-4,90,-22,-48,-99,-89,22,1
1537913191629943,-12,41,-3,11,5,-1,5,-10
1537913191629943,-39,4,24,33,107,127,97,38
1537913191629943,-11,-13,-54,-71,-110,-81,106,28
1537913191629943,-47,21,59,25,-4,-57,10,-63
1537913191644904,-14,5,10,29,46,-46,-115,1
1537913191644904,-10,-47,18,-14,-41,-22,91,-52
1537913191650888,59,-42,-27,-12,-3,-30,-123,-23
1537913191650888,62,-45,-46,-33,-12,-53,-57,7
1537913191666842,1,78,-18,15,53,47,45,14
1537913191666842,7,-56,61,55,48,110,121,-13
1537913191673824,59,-13,-15,-60,-90,-116,-68,-43
1537913191673824,-29,-21,-22,-10,-22,-22,19,-45
1537913191689781,22,23,13,38,75,73,-13,11
1537913191689781,6,34,-18,7,53,27,72,78
1537913191689781,-14,12,14,18,-22,-64,-15,-7
1537913191689781,-1,-27,-7,6,32,127,79,75
1537913191704741,29,117,1,-40,-102,-104,-85,-29
1537913191704741,-42,46,9,2,3,-19,62,37
1537913191711722,-26,86,47,30,26,11,-78,-11
1537913191711722,-49,30,-43,-22,-16,-35,7,-36
1537913191726683,-22,-33,-20,14,21,16,-19,-9
1537913191726683,52,-80,3,-11,-19,24,12,14
1537913191733664,-15,40,20,8,8,5,3,-6
1537913191733664,7,-20,9,11,-12,42,22,53
1537913191749622,6,-41,-5,-7,10,37,95,11
1537913191749622,-8,25,-50,-34,-9,-92,-57,-10
1537913191750620,8,-89,42,55,97,127,126,30
1537913191750620,18,68,16,-38,-95,-126,4,76
1537913191765581,3,-16,-13,-7,-34,-58,-52,-16
1537913191765581,4,31,8,25,61,63,-55,-9
1537913191779543,0,2,-16,-4,0,5,87,50
1537913191779543,13,-67,-28,-13,12,-17,-41,-62
1537913191786525,-6,-14,19,14,-2,19,9,-18
1537913191786525,-9,42,11,9,-26,-34,-56,33
1537913191793506,-23,-87,-27,-18,-5,13,-46,-12
1537913191793506,8,2,22,21,13,18,36,5
1537913191809462,5,8,-1,-2,-9,-9,9,-12
1537913191809462,17,0,-8,-33,-57,-20,-39,3
1537913191810461,-13,-1,-16,-4,-12,33,7,-16
1537913191810461,1,-31,3,23,27,4,-4,19
1537913191823426,2,-12,11,-9,40,18,13,-5
1537913191823426,1,14,-10,-7,-9,-3,14,-7
1537913191831404,-4,31,5,8,-59,-12,-12,-27
1537913191831404,4,-17,3,-9,60,-25,-18,1
1537913191846364,-8,-15,-16,-11,-6,10,6,4
1537913191846364,-3,-1,-5,-2,-42,-6,-21,6
1537913191853346,-8,12,-5,5,28,4,-14,1
1537913191853346,3,-2,-13,7,0,14,-30,-53
1537913191869302,14,-58,6,3,-10,4,2,30
1537913191869302,-5,31,4,0,-19,-48,-12,-5
1537913191870299,-4,7,-2,-12,25,18,-1,-4
1537913191870299,-8,-19,-10,-3,-11,9,-6,7
1537913191884261,-11,15,1,1,13,2,9,12
1537913191884261,-6,2,-5,-3,-46,-5,1,-21
1537913191907200,0,11,-4,4,29,-20,-15,-16
1537913191907200,-3,-20,-4,7,-22,15,-13,-4
1537913191909195,-7,15,6,1,-15,18,27,13
1537913191909195,9,-11,0,-17,13,-32,-4,-6
1537913191914181,1,4,-8,13,-38,-9,5,-6
1537913191914181,7,-13,3,-13,5,22,-5,2
1537913191929141,-1,4,0,10,20,-1,2,4
1537913191929141,3,7,-4,0,-8,4,2,7
1537913191930138,-2,-6,-9,-12,11,3,-20,-19
1537913191930138,1,-10,3,0,-4,-22,-10,-6
1537913191945099,-1,6,4,7,15,29,8,7
1537913191945099,11,1,-6,-10,13,12,-10,-5
1537913191951082,0,0,-4,-4,12,-6,7,2
1537913191951082,-1,-14,0,8,-6,4,3,-3
1537913191966043,7,7,4,-7,-6,-6,-11,5
1537913191966043,0,3,3,4,-22,5,29,8
1537913191974021,-9,-6,-1,15,62,7,-28,-15
1537913191974021,13,4,2,-15,3,-5,-3,13
1537913191988982,4,4,0,0,-5,-2,7,-7
1537913191988982,3,-3,-1,1,19,6,-6,-2
1537913191989980,5,11,1,0,-21,-4,10,-2
1537913191989980,5,-5,-4,1,3,9,1,-3
1537913192011921,6,17,6,5,2,-12,-4,-3
1537913192011921,8,3,-11,1,9,16,4,-2
1537913192012940,8,-68,-3,-11,-12,4,24,12
1537913192012940,-8,11,6,1,9,-7,-16,-12
1537913192025884,2,-4,-3,-1,-12,4,9,-1
1537913192025884,-3,14,-1,1,3,-11,-15,-3
1537913192033862,5,9,-6,1,2,3,4,-1
1537913192033862,3,-12,-4,-7,0,5,7,6
1537913192049819,-5,2,-2,-1,-9,-5,4,2
1537913192049819,-1,-4,0,-2,3,5,-6,-5
1537913192049819,-4,11,3,1,1,-2,8,-16
1537913192049819,-3,-13,-2,3,-1,-2,-23,1
1537913192063781,3,9,3,6,9,19,1,-1
1537913192063781,-5,-9,-2,-6,19,-1,2,8
1537913192071760,-3,9,-3,-13,-14,0,-4,-11
1537913192071760,-2,1,-4,0,-1,-3,0,-2
1537913192086720,-3,-5,0,0,-8,-5,4,3
1537913192086720,-3,-5,2,2,-1,-7,-11,-4
1537913192093701,2,9,1,3,-7,-4,-1,2
1537913192093701,-3,-2,0,7,25,7,7,0
1537913192109658,3,-6,-7,-12,4,-3,-2,0
1537913192109658,-2,-3,3,1,-4,0,-4,-8
1537913192109658,-3,11,-1,-3,-7,28,0,-1
1537913192109658,1,-9,-4,3,5,9,-5,-1
1537913192123621,-2,-3,-3,-10,-15,1,-1,-1
1537913192123621,-5,7,2,3,-1,1,-11,-1
1537913192131600,-6,-9,2,2,1,-8,2,2
1537913192131600,-6,2,2,4,-5,2,14,6
1537913192146560,0,-1,-3,-3,1,1,-3,-4
1537913192146560,9,0,-4,-2,-6,-6,-11,-4
1537913192153542,-2,4,1,1,-8,-9,-2,6
1537913192153542,4,-3,-1,7,4,2,2,-1
1537913192169500,7,-10,-1,-8,-10,-10,2,5
1537913192169500,-6,13,4,0,-4,2,0,-5
1537913192170498,2,3,1,1,-11,-7,-5,-2
1537913192170498,2,-1,-2,-3,-12,-1,5,1
1537913192183464,-5,-1,1,3,4,0,1,-1
1537913192183464,0,-5,-2,-2,-2,-2,-3,-1
1537913192191441,3,2,1,-1,3,1,-1,3
1537913192191441,-1,0,-1,-4,-7,0,1,1
1537913192206402,-3,-2,-1,0,-5,-2,1,4
1537913192206402,-1,-1,-1,-1,5,1,0,-5
1537913192213384,-2,4,1,4,8,-4,-3,-2
1537913192213384,-3,-3,2,1,16,-27,3,-1
1537913192229339,4,3,-2,-3,-10,3,6,-3
1537913192229339,-1,-4,1,3,-2,-6,3,-1
1537913192230337,1,0,-3,0,9,2,-17,-5
1537913192230337,-2,0,-1,-3,14,-1,3,-2
1537913192243302,-3,1,-1,4,-1,-5,-5,4
1537913192243302,-3,-7,-2,-5,4,4,1,-1
1537913192251280,-4,0,-4,-4,-8,-5,1,-2
1537913192251280,2,0,1,-1,-4,9,2,2
1537913192266241,-8,0,-1,4,3,-1,-2,-3
1537913192266241,-7,-2,2,3,21,3,-3,1
1537913192274219,2,-1,-2,-3,-8,-4,0,3
1537913192274219,-6,1,-3,0,-7,3,-1,0
1537913192289179,-8,-1,2,1,4,-5,-1,-2
1537913192289179,2,-3,-2,3,2,-4,-3,-1
1537913192297158,-2,0,-1,-6,0,0,3,0
1537913192297158,1,-5,-5,0,-6,9,0,-1
1537913192305136,-2,10,0,-4,-1,-3,-4,-1
1537913192305136,8,-5,0,0,-6,-3,-4,-3
1537913192311120,1,-1,-1,2,-3,-1,3,-1
1537913192311120,3,-3,0,-2,20,11,-3,-4
1537913192326081,12,-2,-4,-1,-12,0,3,0
1537913192326081,-5,-1,-1,2,-4,-1,0,-2
1537913192334060,-7,2,2,-1,-5,-6,1,-3
1537913192334060,4,-1,0,-1,-3,-2,-2,2
1537913192349019,-6,-4,0,0,16,2,3,-3
1537913192349019,3,3,1,-4,-8,-1,-1,-1
1537913192356998,3,-1,-2,1,-7,-2,5,1
1537913192356998,2,0,-1,-2,-4,-1,-6,-2
1537913192363979,2,1,-1,0,-8,-9,-1,-1
1537913192363979,9,-3,-5,-3,-5,1,-4,-1
1537913192370960,-5,0,1,1,0,-1,-1,-1
1537913192370960,3,0,0,0,-6,0,5,0
1537913192385920,6,-2,-1,1,-4,-2,-3,0
1537913192385920,-3,1,-2,-2,1,-1,3,-1
1537913192393899,-1,0,-2,0,3,-1,-4,-5
1537913192393899,2,2,-1,-2,-8,-4,-1,1
1537913192408859,-3,-2,0,0,8,4,0,-1
1537913192408859,2,-4,1,-1,0,1,1,0
1537913192416837,4,0,1,-1,3,1,-4,0
1537913192416837,-5,-1,-3,-5,-12,-11,1,-1
1537913192423819,0,-1,-1,2,4,10,-2,-2
1537913192423819,0,-4,-5,-5,-5,-3,-6,-3
1537913192430800,-1,-1,-2,-2,-3,-3,-4,2
1537913192430800,-1,-1,2,1,-1,-4,-4,-2
1537913192445760,-7,-4,-3,2,23,-1,3,-2
1537913192445760,4,0,-1,-8,-5,-4,-3,2
1537913192453739,0,0,0,4,3,5,5,4
1537913192453739,-2,1,-1,-3,-7,0,-2,0
1537913192468699,4,-1,-1,4,4,4,-6,1
1537913192468699,-2,4,1,-1,-1,-2,0,0
1537913192476678,2,-3,-3,-7,-6,-7,-12,-2
1537913192476678,-2,-5,-3,-1,0,3,2,0
1537913192491637,-3,0,1,-1,-3,-4,1,-2
1537913192491637,-6,-2,-1,1,-4,2,1,0
1537913192492635,-3,1,1,0,-3,-1,2,-1
1537913192492635,-2,3,-1,-1,6,1,0,-1
1537913192506597,-3,-3,-1,-3,-5,-2,-4,-3
1537913192506597,4,-2,0,0,7,-3,1,1
1537913192513579,-6,-2,-2,1,-7,10,1,-2
1537913192513579,2,-1,-4,-4,-8,-2,-2,-2
1537913192528539,-1,0,-1,1,4,-6,0,-1
1537913192528539,0,-1,0,3,3,5,0,-2
1537913192536518,-1,0,-1,-9,5,0,4,1
1537913192536518,3,-2,-2,-3,4,-6,-4,-4
1537913192551479,-2,1,-2,0,4,3,-2,1
1537913192551479,3,0,-2,0,-8,-2,2,0
1537913192552476,4,0,-2,0,10,-2,-1,-1
1537913192552476,-4,0,2,0,-23,-1,0,0
1537913192566439,2,-2,1,-3,22,0,-1,0
1537913192566439,-3,-3,-1,1,13,7,1,-2
1537913192582397,5,0,-3,-5,-29,-16,2,-5
1537913192582397,-3,1,-1,2,31,11,2,2
1537913192588380,-1,-3,-1,1,-20,-3,-1,-2
1537913192588380,-1,0,0,-1,-3,-1,-2,0
1537913192597357,3,-2,-2,-4,-41,-7,0,1
1537913192597357,-5,-2,1,8,58,1,-2,-4
1537913192612317,5,1,-2,-11,-14,7,0,1
1537913192612317,1,-2,-3,-4,-16,-8,0,1
1537913192612317,-1,1,-2,-2,1,-2,-1,0
1537913192612317,-6,-2,-1,-1,-18,-1,-1,-3
1537913192626279,-2,-1,4,5,23,19,3,4
1537913192626279,7,2,-2,-1,-11,-38,-2,-1
1537913192634257,-5,-3,-2,-2,-5,0,-7,-6
1537913192634257,2,6,4,3,8,2,5,7
1537913192649217,-7,-8,-2,1,-6,-5,-6,-8
1537913192649217,-14,-2,-2,-5,-12,5,-3,-4
1537913192657196,-6,-1,1,2,12,3,3,1
1537913192657196,-6,0,-1,-1,-9,-6,1,0
1537913192672157,10,6,1,1,-5,0,0,3
1537913192672157,-8,0,0,5,3,8,6,2
1537913192672157,0,-3,0,-2,7,-6,-3,-4
1537913192672157,-3,2,1,-1,5,9,-2,0
1537913192686118,-11,-9,-4,-6,-23,-7,1,-1
1537913192686118,0,3,0,3,13,4,-2,-1
1537913192694097,1,3,0,-1,11,4,4,0
1537913192694097,-1,-3,-4,-3,-22,-8,-1,1
1537913192709057,5,0,-1,1,-1,-1,-2,-1
1537913192709057,8,-2,-2,-5,-46,-2,-1,-2
1537913192717036,-3,-1,-2,2,-5,2,3,1
1537913192717036,-3,-4,-4,2,19,6,-4,-4
1537913192731996,-8,-1,-2,-2,-8,-11,-2,1
1537913192731996,-3,-2,1,4,16,6,-1,-1
1537913192732993,2,1,2,2,29,-2,-1,0
1537913192732993,7,-1,-2,-7,-38,-5,0,1
1537913192745959,-6,-6,-2,0,4,-4,-1,-1
1537913192745959,9,3,0,3,11,3,0,-2
1537913192753937,-3,-5,-2,-1,-6,-1,1,0
1537913192753937,-3,2,0,-1,5,-1,1,-3
1537913192768898,2,1,-1,-1,-2,-2,-3,-4
1537913192768898,-2,-1,2,-2,-4,0,0,-1
1537913192776876,-1,-3,0,1,3,-2,-2,-4
1537913192776876,5,0,0,0,-2,2,1,2
1537913192791836,9,3,2,0,-5,-3,3,-1
1537913192791836,-4,-1,1,0,7,2,1,-1
1537913192792834,0,-5,-2,-2,11,2,-4,-3
1537913192792834,7,-1,-1,-3,-7,-3,-3,2
1537913192805798,-11,2,-1,2,14,-2,0,-3
1537913192805798,1,-5,-4,-10,-34,-3,-2,2
1537913192813778,-5,1,1,1,8,12,1,2
1537913192813778,10,5,0,2,12,-11,-2,-4
1537913192828737,-19,-6,-2,0,6,-2,-1,1
1537913192828737,0,2,-2,3,-10,-2,-2,-1
1537913192836718,-1,1,0,-1,-1,0,1,2
1537913192836718,-5,-9,-5,0,-6,1,-8,-8
1537913192851676,7,6,1,-14,-28,-7,1,4
1537913192851676,-3,1,0,6,24,5,0,1
1537913192859655,1,0,1,1,-11,-5,0,2
1537913192859655,-2,-1,1,1,6,1,0,1
1537913192866636,8,0,-1,2,7,4,-1,-3
1537913192866636,-2,-1,-2,-4,-21,1,1,2
1537913192873617,11,1,-4,0,4,-3,-2,0
1537913192873617,-8,-1,1,-4,-19,-3,-1,-2
1537913192888577,20,2,0,4,2,0,-2,1
1537913192888577,-22,-22,-3,-6,14,10,1,-12
1537913192896557,13,10,-2,4,-2,0,-4,3
1537913192896557,5,5,2,-2,-8,6,3,2
1537913192911515,2,1,-1,1,-12,-22,1,-1
1537913192911515,9,0,-1,3,7,-2,-5,-3
1537913192912513,-10,-6,-2,-2,-2,-2,-1,-1
1537913192912513,-11,-3,-3,-2,-2,1,-2,1
1537913192926475,5,2,0,2,13,6,2,3
1537913192926475,9,7,2,7,18,0,2,0
1537913192933457,-3,-8,-3,-4,-6,13,0,-4
1537913192933457,5,0,2,-3,-6,-32,2,2
1537913192948417,5,-1,-2,0,7,5,1,1
1537913192948417,-3,-3,-2,-1,5,-8,-1,0
1537913192957393,3,2,-2,1,0,7,0,1
1537913192957393,-3,-2,-3,-1,1,5,1,1
1537913192972353,-8,-12,-5,-6,-1,-2,-7,-8
1537913192972353,3,-2,-2,-1,0,-2,-1,2
1537913192972353,6,22,5,-2,-3,-4,6,11
1537913192972353,0,-12,1,2,-4,4,3,-8
1537913192986317,-6,17,-2,1,1,-11,-10,6
1537913192986317,4,-19,-4,1,5,16,2,-12
1537913192993298,-9,18,11,6,7,-8,3,-11
1537913192993298,-4,1,-3,-2,-6,-6,18,-1
1537913193009255,-2,-6,-3,-1,1,22,-13,5
1537913193009255,-5,12,-2,-2,1,0,-2,-5
1537913193017234,-4,-9,-3,5,6,-1,14,4
1537913193017234,-8,-6,-4,-4,-11,-14,-5,6
1537913193032194,5,13,3,-3,-13,-16,-6,-2
1537913193032194,-8,-3,3,2,4,-26,-33,11
1537913193032194,-12,-10,5,9,26,34,18,-3
1537913193032194,-8,26,3,5,1,26,-29,-2
1537913193046158,-2,-36,-10,-18,-27,-29,29,19
1537913193046158,-15,4,10,4,-3,-29,13,-17
1537913193054134,-17,-28,-26,-3,15,28,27,27
1537913193054134,4,50,26,12,0,11,20,-2
1537913193069094,-15,62,26,10,4,22,2,-15
1537913193069094,23,-78,-18,-17,-13,32,1,11
1537913193077073,-24,27,1,3,17,7,42,1
1537913193077073,1,29,9,12,18,-2,78,30
1537913193092033,-9,-27,-13,-8,-14,61,68,-18
1537913193092033,-38,127,7,7,17,-35,11,-21
1537913193093030,60,-77,-36,-44,-83,-60,24,-21
1537913193093030,-28,55,-7,0,5,26,35,46
1537913193105995,7,23,3,10,28,-11,-44,-18
1537913193105995,15,67,9,-12,-34,-30,-27,-1
1537913193113974,-14,-20,14,12,17,50,38,20
1537913193113974,2,10,-19,-4,50,-60,-110,-11
1537913193128934,13,-128,-42,-18,-30,-2,-40,-11
1537913193128934,-2,2,12,-2,-67,-6,17,57
1537913193136912,-36,127,-23,26,87,11,-77,-20
1537913193136912,91,-128,-55,-61,-98,-46,-37,-83
1537913193151872,-17,16,1,1,19,-53,11,28
1537913193151872,-5,63,17,29,80,119,78,-89
1537913193152870,36,-69,-22,-17,20,-1,-72,97
1537913193152870,-17,124,21,29,59,88,64,-96
1537913193165835,7,80,16,-9,-43,-89,-39,30
1537913193165835,15,-43,-28,-13,-1,-6,20,-4
1537913193173814,-6,2,16,12,-5,-2,-43,50
1537913193173814,-6,-24,17,25,38,86,24,-74
1537913193188774,29,4,2,-15,-54,-4,37,27
1537913193188774,-30,31,9,7,-26,-107,-26,15
1537913193196754,9,-27,-12,0,0,-5,87,25
1537913193196754,-20,-63,29,3,3,-57,-32,46
1537913193211713,64,-62,-21,-22,4,50,-32,-112
1537913193211713,18,48,43,18,48,14,-95,-39
1537913193219693,22,31,9,-20,-56,-30,31,-17
1537913193219693,-4,-11,-22,-12,-42,-60,9,33
1537913193226674,25,10,-1,27,32,14,24,10
1537913193226674,23,-29,-19,-9,61,54,-2,-12
1537913193233656,3,1,14,-9,-67,-34,-34,-53
1537913193233656,-17,-2,4,6,51,35,15,38
1537913193248614,7,86,3,0,-13,-29,-18,13
1537913193248614,1,-128,-31,-25,-16,2,30,16
1537913193256593,-12,50,17,10,-67,-63,-24,-46
1537913193256593,-9,-3,-12,-22,22,6,-20,25
1537913193271553,-32,-5,1,19,57,19,35,2
1537913193271553,-1,-14,-1,15,8,16,16,26
1537913193279532,-4,52,2,2,23,6,-8,-22
1537913193279532,24,-102,-25,-32,-64,-29,-16,2
1537913193286513,-21,68,9,-6,-9,-39,-37,-10
1537913193286513,-24,27,7,7,-12,-9,-2,18
1537913193293494,-23,58,14,15,36,12,21,31
1537913193293494,10,-29,2,10,-10,23,-12,5
1537913193308454,-26,-18,4,0,23,18,3,8
1537913193308454,1,-24,-12,-11,-31,-38,-7,8
1537913193316433,5,-23,-5,-1,-5,-14,-69,-38
1537913193316433,-10,34,4,2,41,23,5,18
1537913193331393,-2,-20,-9,-7,-37,-25,0,-2
1537913193331393,2,-13,-14,-11,-28,-9,15,-13
1537913193339371,-5,-17,5,8,24,11,-12,-17
1537913193339371,-3,50,4,3,4,-9,4,0
1537913193346353,-6,7,11,11,13,43,35,-10
1537913193346353,34,-59,-9,-24,-50,-21,12,-1
1537913193354331,-18,40,15,7,19,13,7,15
1537913193354331,-14,-3,-5,-5,-39,-31,-2,9
1537913193368294,-29,36,3,20,65,77,50,37
1537913193368294,18,5,-4,-10,-19,-21,-31,-36
1537913193377270,6,-55,-9,-10,-16,-9,71,14
1537913193377270,-13,63,23,22,15,18,20,-27
1537913193391233,-26,40,5,11,28,24,4,29
1537913193391233,-22,-33,-30,7,37,12,12,-34
1537913193399211,24,-93,-37,-67,-102,-102,-55,-26
1537913193399211,-14,35,4,6,-13,-2,-22,5
1537913193415169,-68,65,2,30,76,94,66,9
1537913193415169,36,-75,-64,-62,-69,-95,-85,-13
1537913193416167,-21,123,23,22,41,41,10,36
1537913193416167,1,12,-9,-6,-19,-15,14,-13
1537913193429132,-5,-23,-8,-8,-27,-47,-31,5
1537913193429132,-19,47,31,38,65,70,39,26
1537913193437111,1,-48,-7,-4,10,14,-15,-16
1537913193437111,1,11,0,-9,-28,-25,-32,3
1537913193451073,9,-18,8,12,20,20,-57,-18
1537913193451073,2,-52,5,-14,-43,-21,8,17
1537913193459052,-3,25,7,2,0,4,-7,-19
1537913193459052,-7,6,0,7,5,-6,38,12
1537913193474012,4,-22,1,-5,8,-1,6,-11
1537913193474012,-33,51,-4,20,54,26,16,30
1537913193480993,46,-82,20,11,6,76,33,-37
1537913193480993,0,-1,-32,-44,-58,-66,-75,-26
1537913193488972,13,-4,-1,-8,0,-9,-1,-14
1537913193488972,-2,30,9,5,-11,4,-1,4
1537913193497948,-17,25,7,28,58,37,36,16
1537913193497948,1,-9,3,6,15,28,29,6
1537913193510913,16,-39,-12,-27,-55,-52,-32,-4
1537913193510913,-15,46,18,13,17,9,10,8
1537913193519889,-5,13,-12,-3,5,-1,-20,-3
1537913193519889,20,-45,8,6,-10,6,14,16
1537913193534849,0,82,12,-3,-13,-29,-2,-13
1537913193534849,10,-56,2,4,4,29,-7,-17
1537913193536843,0,32,-5,-11,-15,-22,17,5
1537913193536843,-10,2,-9,-2,-2,4,-14,55
1537913193548812,-9,16,12,20,34,7,27,17
1537913193548812,9,25,-4,-12,-28,-5,17,5
1537913193557788,-6,-7,0,-4,-15,-10,-11,3
1537913193557788,-12,12,2,15,31,43,22,-15
1537913193570753,16,-41,-8,-22,-42,-48,-24,-19
1537913193570753,-4,33,10,3,7,16,-3,8
1537913193579729,-3,-22,-15,3,14,-6,-23,-18
1537913193579729,5,7,20,18,27,15,11,1
1537913193594690,12,7,-2,-3,-28,6,10,-6
1537913193594690,4,-41,-5,-2,7,-8,-11,6
1537913193596685,-5,29,7,-1,-4,2,9,-12
1537913193596685,3,0,3,1,5,3,-9,1
1537913193608653,7,28,2,4,7,12,9,-12
1537913193608653,4,-16,9,-1,-3,18,29,0
1537913193617629,-2,34,-7,-11,-16,-34,-70,22
1537913193617629,5,11,-3,-4,-6,-9,-1,-4
1537913193631592,-3,-17,-4,-4,-3,-2,-3,18
1537913193631592,-10,54,12,14,27,19,21,18
1537913193640568,10,-25,-13,-5,8,12,4,-13
1537913193640568,7,-1,1,0,1,-10,-14,-30
1537913193655527,10,9,9,1,2,18,45,9
1537913193655527,-14,15,-5,-4,-12,-35,-27,-6
1537913193656526,8,22,8,6,21,44,44,13
1537913193656526,17,-91,-28,-19,-33,-29,-21,-6
1537913193668493,-11,18,7,11,1,-7,-10,-11
1537913193668493,-6,85,12,16,67,59,19,13
1537913193677469,21,-66,-19,-35,-74,-86,-45,-32
1537913193677469,-9,6,2,8,21,16,11,5
1537913193691431,-1,-42,-10,-7,-15,6,0,12
1537913193691431,-4,19,7,8,5,0,-10,0
1537913193700408,-5,16,1,10,24,18,2,12
1537913193700408,-9,9,2,-1,-5,-2,11,2
1537913193715369,0,-42,-9,-14,-12,-26,-21,-7
1537913193715369,8,9,-5,-1,-9,-28,-14,3
1537913193716365,-19,90,37,27,43,56,66,24
1537913193716365,15,-53,-22,-33,-58,-56,-52,-3
1537913193728334,-6,58,-2,-1,6,-2,3,-10
1537913193728334,12,-3,0,-5,-17,-28,-22,1
1537913193737308,-17,10,-1,13,33,33,-7,-1
1537913193737308,-7,41,6,6,-2,-3,32,-7
1537913193751271,-4,-36,-7,-10,-11,-19,-26,6
1537913193751271,-8,0,6,6,8,28,9,0
1537913193760247,6,-33,-17,-19,-42,-49,13,-20
1537913193760247,-25,52,6,10,22,22,8,1
1537913193775207,-1,-59,-10,-5,-6,0,0,3
1537913193775207,-16,-1,-12,-4,-6,-4,8,-7
1537913193776204,-13,-25,8,25,53,53,36,33
1537913193776204,28,-59,-3,-22,-27,-62,-104,-60
1537913193789169,1,44,4,-1,-33,-16,27,-6
1537913193789169,2,-9,-8,2,-3,10,15,1
1537913193797148,-16,25,-9,1,17,-2,6,-4
1537913193797148,2,-3,9,12,8,35,-13,-5
1537913193811111,2,0,7,-8,0,-19,-29,-1
1537913193811111,-2,23,5,-6,-15,-17,-20,-16
1537913193820087,4,-13,-2,-9,-17,-13,12,5
1537913193820087,0,32,7,17,35,46,44,30
1537913193835047,5,15,2,5,15,32,-22,-2
1537913193835047,1,6,-2,-15,-43,-29,-44,-8
1537913193837042,4,3,-2,-2,-6,-15,-19,-15
1537913193837042,-10,9,-4,4,15,26,12,9
1537913193849010,-2,39,11,5,1,5,44,23
1537913193849010,8,-27,-12,-9,7,-4,0,3
1537913193857986,15,-66,-11,-11,-23,-24,-50,-60
1537913193857986,6,72,12,6,-14,-20,2,13
1537913193870952,0,-40,-9,15,31,12,11,12
1537913193870952,11,-5,4,-7,4,40,72,8
1537913193879928,12,6,9,-3,-25,-12,-35,-19
1537913193879928,-9,8,-2,1,12,6,31,14
1537913193894888,2,-7,-6,0,-11,-3,-28,1
1537913193894888,1,14,4,12,35,14,25,17
1537913193896883,10,-79,-10,-2,-6,10,15,29
1537913193896883,11,18,-5,-14,-33,-22,9,-9
1537913193908850,-10,-18,-1,1,12,3,-18,15
1537913193908850,-13,-35,-6,-3,-9,-11,-32,21
1537913193917827,-7,35,6,5,6,15,20,0
1537913193917827,0,-6,-2,4,14,10,22,18
1537913193930792,-3,-15,-18,-15,-20,-17,-7,-12
1537913193930792,-2,38,8,5,1,-4,-3,-28
1537913193939767,-2,-36,-11,-5,-5,-14,1,31
1537913193939767,-12,-44,-3,5,22,30,-2,-12
1537913193954728,2,4,-3,-8,-14,-12,-5,-35
1537913193954728,-3,20,1,3,3,-8,-18,4
1537913193956722,-8,55,25,16,8,15,3,6
1537913193956722,20,-24,-21,-25,-32,-35,-8,-8
1537913193968689,-5,4,7,6,16,25,30,8
1537913193968689,5,-21,-2,-4,1,-13,-65,-36
1537913193977665,2,23,0,1,-9,-27,-16,6
1537913193977665,-6,21,7,12,28,41,23,-2
1537913193991628,-10,63,-2,6,22,59,23,26
1537913193991628,21,-100,-15,-23,-48,-39,20,0
1537913194000604,-18,48,6,-1,-7,-16,-57,-17
1537913194000604,-13,5,0,2,-2,-3,-6,6
1537913194014566,1,-9,-6,0,-3,-9,3,-12
1537913194014566,-16,20,4,11,20,21,14,10
1537913194016561,5,-19,-8,-7,11,16,17,-3
1537913194016561,-13,-14,-3,-4,-12,-22,-2,7
1537913194028529,-16,39,0,11,17,0,-11,-14
1537913194028529,31,-76,0,-9,-19,-4,8,6
1537913194037505,1,16,0,-12,-42,-37,-2,17
1537913194037505,-17,29,8,7,19,8,-1,-12
1537913194051468,8,-23,-3,-5,-10,-24,-29,1
1537913194051468,-8,36,4,10,3,45,18,8
1537913194060445,-3,-15,-8,-4,-12,2,30,-4
1537913194060445,16,10,-11,2,25,11,-7,10
1537913194075405,31,-40,19,0,-28,2,11,-11
1537913194075405,-13,24,9,-6,-25,-27,18,8
1537913194076403,-8,1,1,10,17,3,-5,2
1537913194076403,7,3,0,2,-1,-11,7,12
1537913194088369,0,-9,-6,0,25,29,18,-13
1537913194088369,0,16,-9,-1,8,-12,-34,-11
1537913194097345,2,22,-1,0,-3,6,10,-11
1537913194097345,4,-63,4,-1,-2,-8,-3,14
1537913194111308,-3,7,0,-3,-9,-11,3,6
1537913194111308,5,10,0,1,-3,-5,-11,2
1537913194120284,2,18,-8,-1,30,21,-11,-29
1537913194120284,-2,-52,-12,-15,-17,-15,2,12
1537913194134247,-5,-3,-1,-2,-14,-18,-21,4
1537913194134247,-3,14,2,3,4,2,15,1
1537913194141228,1,8,4,14,50,47,31,6
1537913194141228,1,96,15,-5,-42,-15,-9,-10
1537913194148209,11,-107,-28,-31,-37,-55,-31,-31
1537913194148209,-21,66,8,9,28,12,-7,-1
1537913194157185,-5,-3,0,6,16,17,44,6
1537913194157185,7,11,-15,-9,-20,-28,-31,-23
1537913194171148,-16,1,-2,-1,3,-3,-25,-4
1537913194171148,3,-10,2,1,17,10,1,-7
1537913194180124,-11,7,7,7,1,10,10,22
1537913194180124,12,-41,-16,-10,-7,-1,-20,-21
1537913194194087,-7,1,-3,-1,0,4,9,3
1537913194194087,-5,-16,-11,-2,2,-19,-1,-2
1537913194201068,16,-52,0,-12,-17,-17,-16,6
1537913194201068,-8,31,13,10,12,15,16,-7
1537913194209047,13,7,4,3,-2,0,-53,-16
1537913194209047,-1,15,0,3,8,4,29,13
1537913194218024,7,7,-8,-8,-21,-4,-7,-10
1537913194218024,-8,-26,-5,-3,3,3,3,-5
1537913194230990,1,55,25,20,34,36,47,58
1537913194230990,3,4,-12,-24,-48,-32,-17,-28
1537913194239967,-2,20,0,-2,-7,-16,-25,-12
1537913194239967,7,-9,1,5,7,10,17,2
1537913194254928,-12,35,1,5,14,16,20,-6
1537913194254928,0,-12,4,12,30,26,16,23
1537913194260909,11,-43,-9,-16,-44,-46,-17,-33
1537913194260909,-18,47,11,6,7,2,2,23
1537913194268887,-3,-12,-5,2,5,-2,-7,-15
1537913194268887,-17,101,28,20,26,44,40,29
1537913194277863,22,-88,-38,-39,-50,-66,-73,-28
1537913194277863,-12,74,9,12,5,7,9,6
1537913194290829,6,5,-1,-6,-15,-7,-14,0
1537913194290829,3,-1,-6,3,14,-11,-1,-8
1537913194299804,-17,32,22,35,76,96,48,53
1537913194299804,37,-46,-25,-45,-79,-89,-59,-63
1537913194314764,-8,-11,-2,-1,-12,-16,-2,-2
1537913194314764,-1,-27,-8,-1,-5,-6,-11,-2
1537913194320748,-12,-9,11,12,26,30,24,21
1537913194320748,5,-14,-6,-5,4,-1,-6,12
1537913194337703,-2,22,-1,-1,-5,-43,-4,-7
1537913194337703,13,-4,15,15,12,59,5,3
1537913194338701,-17,3,-11,-15,-34,-46,-22,-15
1537913194338701,-9,21,7,12,27,25,21,16
1537913194351666,2,-3,0,-3,-2,-7,11,-18
1537913194351666,-3,9,-1,-4,-4,-9,-23,-8
1537913194359644,7,23,-3,0,-12,-14,12,-10
1537913194359644,3,-21,2,4,24,27,18,4
1537913194374604,-7,5,-3,-5,-1,2,-2,8
1537913194374604,6,-26,-11,-10,-6,-12,-16,-12
1537913194381586,-2,26,1,9,26,22,28,-8
1537913194381586,-3,-52,-6,-8,-13,-35,-28,-4
1537913194397543,-2,1,-1,3,16,13,10,14
1537913194397543,-36,57,6,25,45,49,20,-1
1537913194399538,43,-93,-52,-61,-84,-99,-68,-13
1537913194399538,-14,93,20,21,20,25,23,11
1537913194411506,8,20,2,0,-4,12,11,3
1537913194411506,-13,5,-14,2,23,0,-7,16
1537913194420482,20,-29,-1,-1,-10,-37,-48,-37
1537913194420482,2,4,1,-1,-3,10,21,7
1537913194434445,7,-5,-2,-6,-22,-20,-32,4
1537913194434445,-17,65,-6,9,18,14,27,15
1537913194441426,29,-53,-24,-24,-37,-26,-44,-32
1537913194441426,-24,45,4,1,8,17,-10,22
1537913194457383,-4,24,8,9,22,-21,13,0
1537913194457383,-9,79,19,16,1,48,24,29
1537913194459378,5,-46,-28,-32,-42,-45,4,-10
1537913194459378,-12,43,0,18,54,22,-2,-14
1537913194471346,23,-18,20,0,-57,-10,-28,-14
1537913194471346,-46,76,2,13,47,32,55,15
1537913194480323,73,-26,33,5,-4,-10,-45,-30
1537913194480323,12,60,-17,-52,-65,-75,-37,-48
1537913194494284,-88,127,25,75,127,110,74,81
1537913194494284,103,-128,-57,-87,-126,-128,-99,-95
1537913194501266,-38,127,54,48,14,-6,-11,48
1537913194501266,-8,97,36,66,115,115,82,2
1537913194517223,75,-46,-62,-110,-128,-121,-77,-15
1537913194517223,-6,61,11,0,-47,-33,-84,-31
1537913194523207,-34,22,-4,17,49,54,45,5
1537913194523207,-57,46,31,60,79,78,70,103
1537913194531186,41,-62,-12,-25,-32,-24,-9,-93
1537913194531186,-11,-72,-25,-43,-41,-45,-20,-13
1537913194540161,-53,45,9,33,76,74,-5,20
1537913194540161,52,-39,1,-34,-48,18,55,-51
1537913194554125,1,-28,7,19,11,1,-41,17
1537913194554125,-46,74,4,11,-8,7,79,31
1537913194561105,-40,-10,-11,-12,-4,-5,61,94
1537913194561105,-36,77,16,35,71,67,26,-73
1537913194577063,11,-115,15,-14,-19,-12,106,0
1537913194577063,37,66,6,-32,-64,-54,-63,80
1537913194579058,-44,22,18,47,100,127,124,2
1537913194579058,31,20,0,-27,-58,-68,-59,51
1537913194591025,-8,27,-14,9,20,26,37,1
1537913194591025,-8,-26,-6,21,32,-3,-10,-70
1537913194600001,27,-72,5,-3,-9,-10,-8,-6
1537913194600001,6,-25,7,14,7,-11,-30,43
1537913194613964,2,-15,-40,-54,-71,-52,-21,-64
1537913194613964,2,-81,2,20,2,-11,-42,-29
1537913194620945,18,35,-2,-4,32,-32,37,-35
1537913194620945,-1,-54,-20,-25,-39,21,83,4
1537913194637900,-10,35,1,16,30,-23,-16,2
1537913194637900,4,-4,28,17,23,69,101,40
1537913194638898,-15,89,-13,-25,-44,-45,-37,17
1537913194638898,6,-128,-21,6,8,-8,-61,-42
1537913194650866,-1,78,6,27,35,29,2,7
1537913194650866,33,12,47,-5,-17,-14,-14,28
1537913194659842,-30,98,31,24,31,64,12,-5
1537913194659842,15,-1,-15,-19,-53,-60,3,21
1537913194682782,3,-3,-9,1,22,24,-27,29
1537913194682782,-4,57,-3,-3,-10,-27,10,-84
1537913194683779,-8,8,0,-3,-20,-13,-9,63
1537913194683779,4,-23,-16,-19,-9,-21,-7,5
1537913194697743,-14,43,13,13,-22,17,48,4
1537913194697743,19,-43,-8,13,100,76,5,6
1537913194698739,20,-39,-13,-42,-44,-58,-52,-15
1537913194698739,-17,-14,-4,27,-33,-35,13,-22
1537913194711705,9,-3,-1,-33,46,35,-51,-3
1537913194711705,-11,-42,-9,4,-9,-17,23,9
1537913194718685,26,-14,-4,0,4,22,25,-24
1537913194718685,-3,-1,-7,-6,6,-41,-63,8
1537913194734643,-2,0,5,16,18,5,41,0
1537913194734643,-18,70,9,29,52,103,0,15
1537913194741625,45,-90,-41,-42,-70,-101,-49,-51
1537913194741625,5,99,10,-8,-13,-4,-27,-19
1537913194757584,-9,47,8,16,2,5,-5,21
1537913194757584,-5,8,-12,-1,46,19,12,2
1537913194758580,-4,15,4,13,2,17,12,5
1537913194758580,8,-64,-21,-18,-13,1,8,2
1537913194771543,-4,1,4,5,-13,1,-16,-5
1537913194771543,0,-30,5,7,21,-20,8,-17
1537913194778524,10,10,3,-8,13,9,5,2
1537913194778524,-2,-12,-1,-4,-6,17,-3,14
1537913194794482,-3,-9,-12,-2,26,-4,42,-20
1537913194794482,12,-52,-4,-20,-52,-46,-28,6
1537913194801463,-12,30,13,22,1,11,2,0
1537913194801463,-2,12,1,-7,16,4,7,-1
1537913194817420,-11,2,-9,11,14,24,10,20
1537913194817420,4,34,1,5,-1,25,19,-11
1537913194819415,9,-63,-11,-27,-61,-80,-47,-10
1537913194819415,-5,41,2,4,10,-10,-21,8
1537913194831384,-2,2,10,22,4,8,-15,-10
1537913194831384,0,0,-14,-36,-42,-32,-14,3
1537913194840361,-20,35,-6,19,35,27,19,25
1537913194840361,23,-57,-1,-5,0,-4,5,-29
1537913194854323,-10,38,-1,-13,-48,-45,-45,-20
1537913194854323,-3,-18,2,9,11,-1,-34,-18
1537913194861305,-4,1,6,15,13,48,35,-9
1537913194861305,-16,19,4,9,30,-19,-3,18
1537913194877262,3,-58,-11,-23,-62,-30,-26,-40
1537913194877262,-8,38,4,1,8,-28,-61,1
1537913194879258,-16,127,30,13,3,41,25,28
1537913194879258,-5,-108,-31,-8,1,-1,26,-16
1537913194891224,1,85,19,13,23,38,-2,29
1537913194891224,-18,30,-35,-17,-49,-67,11,3
1537913194900201,-6,-76,6,17,69,59,-2,-8
1537913194900201,15,11,-2,-26,-51,-45,-14,-62
1537913194914164,-11,32,6,2,6,-25,-23,25
1537913194914164,2,11,-8,2,7,29,23,30
1537913194921145,-13,-8,-14,-2,4,1,-9,5
1537913194921145,-6,30,5,4,0,-5,-17,3
1537913194938099,-17,-71,-1,0,7,-1,13,14
1537913194938099,31,-63,-4,6,8,24,20,-64
1537913194939098,-3,3,-17,-22,-43,-51,-19,9
1537913194939098,-5,-51,12,7,17,16,-15,25
1537913194951066,-8,-19,-4,-2,6,27,-8,-4
1537913194951066,-30,68,-18,7,12,33,25,23
1537913194960042,61,-50,7,-16,-39,-75,-31,-65
1537913194960042,-20,64,-2,-15,-31,-24,-61,13
1537913194974002,-1,61,6,15,47,68,56,7
1537913194974002,8,-33,-9,-14,-16,-50,-24,-16
1537913194980983,-11,55,-8,6,7,21,37,-43
1537913194980983,3,7,9,8,13,29,33,26
1537913194997938,12,-35,-7,-6,-14,-35,-32,-11
1537913194997938,-8,1,25,7,5,5,8,25
1537913194998935,-2,0,-1,2,-9,-8,-8,17
1537913194998935,-1,-3,6,7,24,46,43,-9
1537913195010903,2,8,-8,-10,-2,6,-1,-1
1537913195010903,-5,-42,-11,-18,-53,-36,-22,7
1537913195019879,4,37,33,20,3,30,15,-14
1537913195019879,-2,34,-16,-11,-17,-14,-9,-8
1537913195034839,1,23,11,12,24,10,12,-2
1537913195034839,25,-62,-1,-10,-7,-9,-24,-22
1537913195040823,-18,61,4,6,2,11,-1,29
1537913195040823,7,-4,2,9,27,19,13,17
1537913195057778,4,-2,-10,-9,-7,-11,1,3
1537913195057778,-4,16,7,6,5,6,3,8
1537913195058776,1,87,21,23,46,55,45,4
1537913195058776,25,-12,-29,-39,-68,-46,-27,-26
1537913195071742,0,-31,-13,-5,-23,-28,-22,-4
1537913195071742,-3,8,16,14,28,22,36,85
1537913195079721,-17,68,-16,-6,1,-4,-11,13
1537913195079721,4,-91,-12,0,4,11,32,26
1537913195094679,-4,36,5,-1,17,-7,12,-6
1537913195094679,10,-43,2,-7,-33,-9,-4,-22
1537913195101660,16,-16,-7,-8,6,-11,-46,0
1537913195101660,-7,32,10,16,11,-1,-41,13
1537913195116621,-16,-20,-10,3,24,43,47,7
1537913195116621,29,-9,-15,-13,-20,-48,4,-31
1537913195123602,-13,-72,0,-5,-14,-15,5,12
1537913195123602,-6,22,-2,-1,-10,-4,21,10
1537913195131581,15,-20,5,1,-5,-17,-29,-21
1537913195131581,0,30,7,11,25,28,-31,-14
1537913195140557,-8,47,-17,-3,-14,-13,-4,18
1537913195140557,6,-83,-7,-1,19,20,1,-15
1537913195154519,13,69,21,5,18,31,41,20
1537913195154519,-10,10,-9,-22,-59,-50,-18,-4
1537913195161501,-16,-12,-11,-3,5,-7,-17,-20
1537913195161501,-9,43,16,15,36,34,46,-20
1537913195176461,2,25,6,0,-11,-22,-17,28
1537913195176461,4,-30,-6,-1,-1,16,-1,-23
1537913195183442,-7,-31,-1,7,47,20,6,2
1537913195183442,17,75,11,12,-14,35,24,3
1537913195191421,5,-32,-10,-35,-72,-61,-29,-20
1537913195191421,-18,48,9,9,20,9,-2,12
1537913195200397,0,-16,-2,-2,9,0,-15,-1
1537913195200397,-15,3,-18,14,14,-14,10,31
1537913195214359,13,83,34,19,58,33,-58,-65
1537913195214359,26,-85,-23,-30,-77,-39,18,22
1537913195221341,0,86,1,-3,-9,3,-5,33
1537913195221341,-31,54,-12,13,51,3,-44,10
1537913195237298,30,-53,-15,-16,-39,-19,15,-31
1537913195237298,-16,77,18,10,3,-25,-16,14
1537913195243283,7,-20,10,6,-10,-5,-16,-6
1537913195243283,-25,12,-20,16,62,42,31,16
1537913195251262,32,-57,-2,-6,-45,-22,-33,-15
1537913195251262,-5,68,-5,-21,-13,30,41,33
1537913195260238,10,31,-2,-6,-31,-32,-17,-23
1537913195260238,-19,49,11,5,8,4,5,-31
1537913195274200,-37,-41,-23,6,42,29,-30,-7
1537913195274200,15,-73,8,2,-17,-36,-3,8
1537913195281182,-9,-63,-10,-3,4,3,32,-24
1537913195281182,-5,19,7,-11,-6,-34,-16,20
1537913195297139,-13,2,33,23,-3,26,76,12
1537913195297139,-10,66,-10,-35,-47,-39,-20,-32
1537913195304120,-15,22,-4,8,-1,-26,-8,2
1537913195304120,15,8,-9,-14,-21,7,-6,-13
1537913195320077,-29,35,3,2,-16,-12,21,32
1537913195320077,-9,-43,-1,20,56,32,50,3
1537913195321074,-1,-21,16,14,21,31,-25,-16
1537913195321074,10,18,17,-6,-2,-23,-24,-21
1537913195334039,-7,-4,-20,-17,-67,-57,-14,18
1537913195334039,-17,12,16,26,37,51,-15,-18
1537913195341021,-10,35,-24,-4,43,14,25,9
1537913195341021,23,-104,-12,-18,-37,32,18,-13
1537913195356978,0,-13,-11,-12,22,-7,-43,-17
1537913195356978,-25,33,8,2,-92,-30,-8,-18
1537913195363960,15,-8,2,12,98,99,67,25
1537913195363960,2,17,3,-16,-71,-62,23,15
1537913195379918,-2,67,-12,-2,61,34,8,34
1537913195379918,5,-43,-15,-2,-16,24,17,1
1537913195381912,6,-21,-20,-21,-102,-22,-15,-10
1537913195381912,-12,-82,2,-9,5,-12,2,-19
1537913195393880,-4,25,0,-2,-37,-9,-1,11
1537913195393880,-18,102,20,45,127,47,22,29
1537913195400861,-16,-82,-10,-19,-43,-3,45,-62
1537913195400861,20,-28,-11,-25,-33,-47,-68,-30
1537913195424797,-13,16,-6,3,-23,16,36,22
1537913195424797,19,62,-10,2,11,18,-51,-10
1537913195426792,13,-7,27,2,-23,-55,66,12
1537913195426792,5,54,29,17,13,45,-22,8
1537913195439757,13,-49,-5,4,-19,22,28,17
1537913195439757,-27,73,-5,6,63,-14,-28,-32
1537913195441752,9,-55,14,10,25,54,6,10
1537913195441752,-1,97,-8,-30,-60,-58,8,-17
1537913195453721,-3,71,16,14,18,35,-5,-5
1537913195453721,8,-29,3,-9,-20,-11,-7,-1
1537913195462698,10,23,-12,17,31,-16,-36,30
1537913195462698,6,-27,-15,-3,-5,49,35,-13
1537913195476659,-11,-9,0,-19,43,-17,55,7
1537913195476659,18,-24,-1,-10,-32,-15,5,-27
1537913195483641,-13,-34,-4,-9,-57,-46,-55,9
1537913195483641,-16,3,6,29,24,0,-15,12
1537913195499598,-5,99,-3,12,29,42,42,9
1537913195499598,9,-128,-9,-23,-15,21,-13,-20
1537913195501593,-4,104,19,-17,-37,-37,1,-11
1537913195501593,7,28,4,7,21,-22,-30,-28
1537913195513560,-25,75,-5,20,57,36,17,28
1537913195513560,21,-83,0,-2,-44,-1,55,13
1537913195522536,-1,12,-15,-20,-30,-37,-34,-16
1537913195522536,-28,14,8,13,5,26,4,22
1537913195536498,12,-100,-21,-14,11,-35,-31,-32
1537913195536498,2,38,10,13,-4,15,2,26
1537913195543479,5,-28,-2,5,33,34,42,-17
1537913195543479,-1,1,-6,-8,-15,-6,76,-16
1537913195560434,1,-39,5,10,-8,-7,-17,-2
1537913195560434,-2,117,-13,15,0,9,1,0
1537913195561432,17,-91,-5,-10,92,76,11,37
1537913195561432,-1,80,7,-17,-67,-55,-31,7
1537913195573400,-8,6,-14,-11,-32,-18,-23,0
1537913195573400,-7,-18,7,23,68,62,5,6
1537913195582376,17,86,14,-2,-69,-62,10,32
1537913195582376,-2,-38,-5,12,41,44,-18,-17
1537913195597335,10,-41,-7,-18,-52,-66,-62,4
1537913195597335,-12,36,6,8,35,19,20,0
1537913195603320,-7,-39,-10,-9,-16,15,-56,-7
1537913195603320,1,-30,6,-3,10,-21,-2,34
1537913195620274,-6,27,5,-4,-46,-9,-9,-52
1537913195620274,-4,-29,-21,-1,35,5,24,30
1537913195621272,3,51,36,21,33,14,-28,-42
1537913195621272,0,27,3,-10,-55,-16,20,32
1537913195634237,-12,30,-8,-3,8,12,-19,4
1537913195634237,5,-6,-3,-8,4,-13,2,11
1537913195642215,-10,62,-4,-5,-26,-28,8,-16
1537913195642215,-1,-37,-1,9,22,9,-51,-5
1537913195657175,0,-17,17,20,28,15,15,9
1537913195657175,-9,27,7,-10,-6,-16,13,-14
1537913195664157,-20,4,-31,-4,-3,9,2,-2
1537913195664157,13,52,36,2,3,26,-8,-5
1537913195680114,-13,95,20,-9,-20,-22,18,1
1537913195680114,-5,61,-4,-8,-26,-29,-36,-33
1537913195681112,-4,6,-5,-5,-18,4,17,12
1537913195681112,-3,-1,-9,20,59,23,15,0
1537913195694078,-2,-41,0,7,0,5,2,2
1537913195694078,9,-54,-3,-19,-29,9,-45,-12
1537913195703053,-1,20,-3,-6,2,-49,1,8
1537913195703053,-9,-47,-20,-7,-8,14,-6,4
1537913195717016,2,-2,11,3,-6,-7,22,19
1537913195717016,-7,4,3,5,11,7,7,18
1537913195723997,-1,-22,-6,-1,-5,4,3,-8
1537913195723997,3,-1,-11,-7,1,-12,2,-11
1537913195739956,12,-21,-32,0,29,-11,-5,14
1537913195739956,15,23,83,59,64,96,64,59
1537913195741951,27,108,-27,-72,-90,-99,-97,-100
1537913195741951,-8,96,5,11,24,11,13,5
1537913195753919,19,22,-8,0,13,26,5,-6
1537913195753919,-11,19,-16,-1,14,-6,-10,-5
1537913195762896,-7,-40,2,20,21,31,30,26
1537913195762896,12,-34,0,-9,-19,-8,4,-2
1537913195776857,5,-11,5,5,-7,-8,-12,-14
1537913195776857,-13,91,-1,14,39,-28,-3,0
1537913195783838,30,-90,-19,-37,-78,3,-16,11
1537913195783838,-11,70,3,8,17,2,29,17
1537913195799794,7,-11,-13,-13,-26,-27,-40,-27
1537913195799794,-7,-7,-16,-18,-13,-33,-9,-34
1537913195801789,-8,-9,2,27,41,10,11,14
1537913195801789,-2,-16,4,3,-18,7,3,11
1537913195813757,-8,-23,-4,-16,-12,5,20,7
1537913195813757,11,-43,-13,-18,22,-4,-5,-10
1537913195822733,-20,20,11,21,1,-3,7,6
1537913195822733,0,-39,-4,-2,31,10,2,-7
1537913195836695,-13,4,7,5,-1,3,2,4
1537913195836695,3,-24,-22,-27,-75,-34,-21,-18
1537913195843677,-10,6,8,13,25,16,16,21
1537913195843677,-1,31,-6,6,15,-7,5,4
1537913195860632,17,-76,-3,-15,-11,-7,-19,-8
1537913195860632,-2,-17,-1,-5,-14,-8,2,8
1537913195861630,-9,25,7,3,3,10,9,11
1537913195861630,4,-12,-4,2,-8,-3,-10,-8
1537913195873598,-10,25,-3,-9,13,7,4,-10
1537913195873598,8,-18,-7,-5,-29,14,11,1
1537913195882576,0,2,4,28,51,4,4,1
1537913195882576,6,3,-4,-12,3,-6,-9,-6
1537913195897535,2,8,0,2,-45,-2,9,-1
1537913195897535,12,-2,-6,-15,18,12,-3,2
1537913195903519,-19,14,4,10,23,-4,-1,2
1537913195903519,4,-8,2,-7,-28,6,-3,0
1537913195919476,-2,8,5,18,11,-4,-3,6
1537913195919476,11,-8,-6,-11,-45,-32,5,-9
1537913195920474,-10,3,0,2,16,14,-4,-2
1537913195920474,3,-15,-2,3,-11,2,7,3
1537913195941417,-3,2,-1,2,31,28,3,-4
1537913195941417,-4,6,-6,-5,-19,-14,-26,-11
1537913195942414,2,-2,-2,-9,-7,-2,2,-2
1537913195942414,-5,2,4,4,-11,-10,3,-2
1537913195957374,-5,6,0,1,-19,3,-3,4
1537913195957374,-5,2,3,9,49,4,2,5
1537913195963360,3,-5,-2,-5,-24,8,6,-6
1537913195963360,-7,2,-3,-6,-5,-3,-9,-5
1537913195980314,4,8,9,6,19,1,6,-3
1537913195980314,-5,-13,-7,1,-13,-12,-5,-2
1537913195981311,-3,2,-1,-7,2,-2,4,-3
1537913195981311,-7,-10,-5,0,4,0,-11,-2
1537913196002253,8,17,2,6,16,-7,-4,-5
1537913196002253,1,-4,-2,-5,-33,-6,5,-4
1537913196002253,-20,-1,-3,3,14,10,-3,4
1537913196002253,-6,0,1,-13,-33,-25,-5,-4
1537913196017213,5,0,-5,0,15,1,5,-3
1537913196017213,-16,-3,2,-3,2,22,3,4
1537913196023197,-6,1,1,6,0,-7,-3,-6
1537913196023197,-9,2,0,2,-12,-14,0,-4
1537913196038157,-5,-3,0,-6,37,12,7,3
1537913196038157,-8,2,-4,0,-12,-12,-2,-4
1537913196046136,-4,-5,3,3,-17,-10,-14,-3
1537913196046136,-1,-5,-1,-2,43,24,5,1
1537913196062093,-6,-4,-2,-6,-40,-13,-2,-1
1537913196062093,-1,3,2,7,35,1,2,4
1537913196062093,2,1,0,-6,-9,13,7,5
1537913196062093,2,-4,5,5,-7,-7,-11,-9
1537913196078051,-3,-3,-8,-4,12,1,6,3
1537913196078051,-1,-1,1,-7,-4,-13,-7,-5
1537913196084035,3,0,-6,-5,-9,12,6,-1
1537913196084035,7,0,2,3,3,-5,-6,1
1537913196098995,-6,-3,3,3,-3,4,-1,1
1537913196098995,2,-2,-2,-5,-7,-9,1,-1
1537913196105976,-5,0,-2,-3,20,-2,0,-3
1537913196105976,3,-5,-7,-5,-49,-1,2,-1
1537913196121933,1,-4,-1,-2,19,-3,-1,0
1537913196121933,10,7,-1,3,5,2,-1,2
1537913196122931,-5,-1,0,0,-9,-4,1,1
1537913196122931,0,-1,-1,-2,7,5,1,-1
1537913196137891,-1,3,0,-1,-7,-2,-1,3
1537913196137891,-7,-6,1,0,-43,-21,-4,-4
1537913196143875,1,2,-2,0,51,10,0,3
1537913196143875,7,2,-5,-8,-25,-10,8,-1
1537913196158835,-5,-1,-4,-1,10,-4,-11,-4
1537913196158835,6,1,1,1,-4,7,4,2
1537913196165816,-5,1,0,3,-5,-7,-8,-3
1537913196165816,-5,-6,-1,2,7,1,0,-2
1537913196181774,2,3,-1,-5,-9,-12,14,1
1537913196181774,-18,-1,-2,2,31,8,-13,-1
1537913196188755,0,-2,2,-5,-60,-10,-1,-1
1537913196188755,-1,1,0,9,42,-2,-2,-2
1537913196197731,-3,0,1,-14,-11,6,7,-1
1537913196197731,-7,-1,-4,-1,-7,-1,2,-6
1537913196203715,-1,0,-2,-2,8,4,2,6
1537913196203715,-10,-2,1,2,2,-2,-1,-2
1537913196218675,-1,7,1,8,-1,2,-2,-1
1537913196218675,2,-2,-1,-2,6,4,2,2
1537913196225656,1,4,1,-3,-9,-2,-4,-2
1537913196225656,6,-16,-5,-3,7,8,-1,0
1537913196241614,-3,-5,-3,1,-3,-3,0,-1
1537913196241614,-3,24,7,9,8,21,10,6
1537913196242611,13,-26,-4,-9,-11,-24,-4,-7
1537913196242611,-5,7,-3,-6,-1,-6,-12,-2
1537913196257572,-3,1,-2,2,-4,3,0,-1
1537913196257572,5,-4,-9,-5,-17,-13,-2,-1
1537913196263555,2,1,2,8,38,22,0,1
1537913196263555,-1,1,1,-6,-8,5,-1,-1
1537913196278516,-2,-6,-3,4,-12,5,-8,-1
1537913196278516,8,-2,-3,-9,5,-3,2,2
1537913196286494,0,7,1,-5,-48,-1,4,2
1537913196286494,4,-1,-1,7,62,11,3,0
1537913196301453,-5,1,1,1,7,2,-3,1
1537913196301453,-10,-4,1,7,3,0,0,-4
1537913196302452,12,3,-5,-12,-24,-3,3,3
1537913196302452,-6,0,-2,0,-1,-1,2,1
1537913196317411,5,13,9,2,-7,6,-1,1
1537913196317411,8,1,0,3,-1,-4,-1,-3
1537913196323395,-1,-7,-4,-2,10,-7,6,-1
1537913196323395,1,2,-3,-2,-5,-3,-28,-6
1537913196338355,-8,-5,-4,3,10,-4,3,0
1537913196338355,0,0,3,-2,1,-2,-6,-3
1537913196346334,2,2,-2,1,18,5,4,0
1537913196346334,0,-3,-4,-4,-15,-9,4,-3
1537913196362291,-2,2,2,1,-3,0,-5,-3
1537913196362291,1,-5,-1,1,-7,-2,-9,-1
1537913196362291,1,0,-1,4,11,3,-2,-4
1537913196362291,-1,1,-2,-3,-13,-3,7,3
1537913196376254,0,-8,-7,0,-3,-4,-8,-6
1537913196376254,-3,-4,-4,-8,1,4,7,-1
1537913196383236,-4,-1,4,0,1,10,-3,0
1537913196383236,-7,-1,-1,-1,-19,-6,2,-3
1537913196399193,-10,-4,1,3,3,0,2,1
1537913196399193,-7,-6,-4,-10,-13,-6,2,-1
1537913196406174,0,3,-2,-1,-23,-2,-5,-1
1537913196406174,-7,2,2,2,3,3,11,3
1537913196430110,-11,-2,0,0,5,-4,-4,-2
1537913196430110,-10,-3,-1,-2,-8,-24,1,-1
1537913196431108,-11,-1,-1,5,20,1,0,0
1537913196431108,-1,2,0,-3,-8,1,1,-1
1537913196436094,1,-1,0,-2,-3,-1,0,-1
1537913196436094,-12,0,0,5,6,4,1,0
1537913196444073,-3,-1,-3,-3,7,-3,-3,0
1537913196444073,2,-2,-1,-2,-6,1,-2,0
1537913196459033,0,-4,-1,-6,-7,-8,1,-1
1537913196459033,4,-1,0,2,11,15,2,-1
1537913196466014,8,1,1,-1,-24,-12,-2,1
1537913196466014,-6,3,-1,0,15,2,-2,-4
1537913196481971,7,-11,-2,-2,23,-14,5,-1
1537913196481971,12,3,-2,0,-14,19,3,5
1537913196482969,-4,1,6,1,-13,-1,5,6
1537913196482969,9,-5,-4,2,14,4,-8,-6
1537913196495934,2,3,-4,-5,-19,-13,-3,-10
1537913196495934,12,-4,1,-5,6,-2,-2,-3
1537913196503913,-4,0,-2,0,-21,-4,-3,-1
1537913196503913,6,3,-1,0,11,3,1,6
1537913196518873,-4,-4,0,-3,3,7,0,3
1537913196518873,7,-1,-3,2,6,1,-1,-4
1537913196525854,-5,2,-1,1,-12,-6,-1,-3
1537913196525854,6,-2,1,2,3,-3,2,-1
1537913196541811,2,2,0,2,10,6,-6,-2
1537913196541811,-5,-1,-3,-4,-19,-11,-1,-1
1537913196542809,2,-4,-1,-1,18,1,-1,-1
1537913196542809,-1,1,2,-2,-5,-1,4,-1
1537913196555774,0,0,-2,-5,-11,2,-1,1
1537913196555774,9,6,3,4,5,2,-4,-1
1537913196563753,-1,-11,-7,-1,13,-2,5,-3
1537913196563753,-4,5,1,0,-1,-18,0,-1
1537913196578714,4,4,2,-1,-7,17,0,2
1537913196578714,-3,-1,0,0,4,-7,-3,-1
1537913196586692,-1,1,-2,3,15,0,-20,-2
1537913196586692,4,-4,-3,-8,-3,-6,11,0
1537913196601651,0,5,1,2,5,5,-1,-1
1537913196601651,-8,17,-4,5,18,12,-7,1
1537913196602648,17,-22,9,4,20,16,10,10
1537913196602648,0,-46,-18,-19,-66,-34,-15,-9
1537913196616611,0,14,2,-1,4,-17,-26,-19
1537913196616611,1,-6,-3,-1,-4,-27,4,5
1537913196623592,-22,56,6,16,33,57,26,3
1537913196623592,9,-78,-19,-16,7,20,2,15
1537913196638552,2,48,-1,-3,-18,-34,-34,-8
1537913196638552,-1,-61,5,4,6,14,-3,-12
1537913196646531,-11,-7,-6,-9,-27,-24,-14,-10
1537913196646531,-7,28,5,4,5,-8,23,8
1537913196661491,3,50,3,6,17,-13,12,15
1537913196661491,-27,-16,-18,0,40,53,-20,-20
1537913196662488,28,48,49,16,-17,28,30,-3
1537913196662488,5,7,0,-7,-16,-20,-19,-16
1537913196676451,-25,45,-1,4,5,2,-26,-5
1537913196676451,8,31,-12,-4,-19,-25,7,-6
1537913196683432,-7,45,7,-7,14,-27,-19,-12
1537913196683432,-14,-44,-8,5,4,-13,-18,29
1537913196698392,20,-66,8,5,0,21,18,-32
1537913196698392,-47,127,8,38,99,72,48,52
1537913196706371,44,-128,-46,-52,-73,-53,-84,-24
1537913196706371,14,2,1,-17,-7,18,1,-8
1537913196721331,-1,30,-2,7,40,48,-52,10
1537913196721331,-3,9,-3,-9,-24,-14,53,13
1537913196722328,-36,127,20,50,72,71,77,5
1537913196722328,20,-55,-10,-6,-13,-28,-55,-44
1537913196744270,-9,66,-3,-11,-24,2,47,19
1537913196744270,-2,-100,3,-3,-37,-6,18,-20
1537913196745267,5,64,13,0,18,1,3,23
1537913196745267,-31,59,-4,6,19,-22,-9,8
1537913196758233,11,-38,4,2,-9,19,-13,-11
1537913196758233,43,-27,6,-29,-89,-86,-24,-37
1537913196766212,-22,-22,-9,5,12,0,0,-9
1537913196766212,-28,-12,3,11,29,56,16,23
1537913196782171,-27,120,-2,5,25,3,50,-34
1537913196782171,42,-58,-19,-11,-23,-10,-49,55
1537913196782171,-3,37,-11,-9,38,-3,49,-54
1537913196782171,24,127,11,18,43,59,33,-11
1537913196796133,4,-52,-22,-20,-70,-70,14,0
1537913196796133,5,-61,-14,-12,13,3,10,3
1537913196812089,-4,-90,-2,-10,-57,-64,-13,7
1537913196812089,-32,42,11,23,22,43,-14,12
1537913196819070,28,-87,4,4,22,36,-11,4
1537913196819070,-2,-19,7,-7,-8,-25,-19,-58
1537913196826051,5,56,-11,11,41,45,4,62
1537913196826051,15,-93,-11,-25,-55,-33,48,12
1537913196850984,-21,47,9,3,11,-32,-52,52
1537913196850984,16,-27,20,23,4,36,15,-55
1537913196850984,-11,77,-5,-11,-10,6,-3,93
1537913196850984,14,54,10,7,-29,-67,-16,-57
1537913196855971,-8,29,3,18,80,76,107,11
1537913196855971,-8,-16,7,-8,-45,-30,79,16
1537913196863950,-5,1,-6,-20,-13,-22,-58,-75
1537913196863950,20,-3,-4,0,-14,-26,-37,-36
1537913196878910,2,3,-2,3,-1,27,35,51
1537913196878910,-20,18,17,14,47,40,6,-18
1537913196885891,14,-11,9,16,28,29,22,12
1537913196885891,-32,11,-2,-18,-47,-3,47,27
1537913196901850,7,62,0,-7,-26,-17,-29,-54
1537913196901850,-42,4,-23,7,48,14,-38,28
1537913196902848,7,-5,11,-6,-25,-11,27,-1
1537913196902848,-14,50,10,1,7,-12,-28,-14
1537913196915813,-15,-53,1,5,-2,-9,17,-22
1537913196915813,8,48,-1,-14,-16,25,-70,8
1537913196931770,-13,-32,-6,0,-25,-42,4,-1
1537913196931770,-7,38,-2,3,52,22,-14,-16
1537913196938751,16,-79,-35,-24,-47,-40,-5,-58
1537913196938751,-2,-15,5,9,37,32,-11,45
1537913196945733,9,-56,-24,-19,-55,-40,15,-18
1537913196945733,18,-61,13,-3,-28,1,46,15
1537913196960692,-2,23,14,-2,-27,-12,5,72
1537913196960692,-9,33,-11,-4,21,-17,-8,-31
1537913196969669,-11,74,-3,9,11,31,11,15
1537913196969669,15,-72,7,4,15,12,34,14
1537913196976650,-10,2,15,3,24,24,85,20
1537913196976650,3,73,8,9,-27,-24,37,11
1537913196983631,14,-61,-13,-11,6,-8,-23,-29
1537913196983631,-1,49,3,5,6,1,7,28
1537913196998592,-12,79,-10,23,90,88,-42,-1
1537913196998592,35,-56,43,-7,-68,-19,64,-31
1537913197006573,10,96,-4,-42,-76,-92,-78,-22
1537913197006573,0,58,1,9,45,30,-18,1
1537913197021529,-7,-1,-6,-3,17,-7,-7,-5
1537913197021529,-8,44,-7,5,-9,13,9,28
1537913197029508,12,-72,-5,18,93,41,1,-1
1537913197029508,-2,-17,-1,-14,-17,1,12,1
1537913197036489,-6,-37,6,1,-28,-30,-23,13
1537913197036489,5,15,-11,-9,-3,-4,-32,-6
1537913197051449,2,-38,12,11,-10,2,22,-7
1537913197051449,-3,25,-8,3,2,-3,-19,-7
1537913197058430,13,-45,-2,-8,-15,-32,-7,-9
1537913197058430,2,11,-8,2,2,10,-18,8
1537913197066409,-10,-8,-5,-5,-7,10,9,2
1537913197066409,0,6,0,7,-5,2,3,0
1537913197090345,6,-25,0,-5,2,-5,-18,-10
1537913197090345,3,20,-4,-7,-20,-20,-4,0
1537913197090345,-5,-5,0,13,25,6,-17,0
1537913197090345,6,-1,-5,0,0,22,13,6
1537913197096331,-15,-8,14,4,26,-6,6,32
1537913197096331,1,102,7,9,11,7,0,-25
1537913197103311,-11,-36,-16,-21,-19,-28,-4,1
1537913197103311,-2,31,0,9,1,4,12,7
1537913197118271,13,-7,-11,-21,-67,-27,-22,-2
1537913197118271,-11,26,1,10,12,3,2,9
1537913197126249,0,-14,-1,6,16,26,14,3
1537913197126249,-11,-17,-6,-8,-14,-11,6,1
1537913197141209,-7,1,-3,12,9,10,-3,-2
1537913197141209,2,-15,0,-15,-17,-7,-7,7
1537913197149188,0,0,6,7,17,11,-1,-4
1537913197149188,-10,-5,-1,3,6,2,-13,-3
1537913197172126,9,-9,-6,0,4,-1,-5,-14
1537913197172126,-10,-14,-15,-15,-13,-17,-32,-10
1537913197173124,-2,-11,0,3,-1,8,13,4
1537913197173124,-3,17,4,5,11,4,-4,-3
1537913197178110,2,-10,-4,-11,-24,-1,-2,2
1537913197178110,-11,-9,-3,-2,14,-14,6,6
1537913197186089,-12,14,8,14,26,15,4,-3
1537913197186089,6,-5,-8,-11,0,0,-12,8
1537913197201049,3,0,0,-2,-31,-9,-6,-12
1537913197201049,-2,-5,-6,-2,36,2,-4,2
1537913197209028,-2,2,1,8,9,12,3,-6
1537913197209028,0,-2,0,-4,-3,3,0,-1
1537913197223989,-2,-1,0,-3,-20,-12,-4,4
1537913197223989,-1,-1,-1,5,2,7,5,3
1537913197224986,14,-3,-6,2,-31,-13,-13,-6
1537913197224986,3,5,0,-6,-17,-9,-1,-9
1537913197238947,8,2,2,-5,-2,16,4,-5
1537913197238947,1,-4,-1,2,6,8,4,-1
1537913197245929,4,-1,-3,-1,1,2,3,4
1537913197245929,-2,1,2,7,-5,2,-1,-3
1537913197260889,1,-4,-3,2,4,-3,0,-4
1537913197260889,5,-6,-3,-3,-4,-9,-5,4
1537913197269865,-6,17,8,2,-3,10,6,1
1537913197269865,3,-14,-2,-3,19,-3,-4,-2
1537913197283827,-2,-4,1,-3,7,-2,4,-5
1537913197283827,5,5,-3,0,3,-3,-6,-1
1537913197284825,-1,-1,-2,-3,-10,0,4,0
1537913197284825,7,-1,-6,0,3,0,-7,-5
1537913197299785,1,-5,-2,-4,-6,-2,0,3
1537913197299785,-6,-5,-2,-1,-1,-5,2,-2
1537913197305769,-1,-1,1,2,30,8,-2,-9
1537913197305769,8,4,-1,-8,-34,-17,-12,-2
1537913197320729,3,-6,-3,-2,4,-27,-18,1
1537913197320729,3,5,1,-2,4,5,0,-5
1537913197329705,-3,-2,0,-2,7,-1,11,6
1537913197329705,-4,-5,2,4,8,2,-1,4
1537913197344666,1,4,-1,-1,-3,2,12,1
1537913197344666,7,1,-1,0,-13,-8,-10,-4
1537913197344666,4,-8,-5,-12,-13,-3,-3,-4
1537913197344666,0,0,1,0,9,7,5,-8
1537913197358628,2,-3,-3,0,2,2,-6,0
1537913197358628,1,-1,0,0,-3,0,2,0
1537913197365609,2,0,-1,1,-11,3,5,-1
1537913197365609,1,-7,2,3,13,1,-6,-1
1537913197381567,-12,3,0,0,5,2,6,-4
1537913197381567,-5,-4,0,-1,1,0,-1,0
1537913197389545,0,6,-4,-2,-8,-7,-4,1
1537913197389545,-1,-1,-4,-1,9,-4,0,0
1537913197404506,0,-1,-1,0,-7,4,3,-3
1537913197404506,0,0,-1,3,4,1,-5,4
1537913197405503,-4,-4,-3,-5,-5,11,0,-3
1537913197405503,3,3,0,11,27,2,1,3
1537913197418468,10,-2,-4,-12,-23,-1,-10,-12
1537913197418468,-7,-1,1,0,-3,-3,-5,7
1537913197426447,3,-7,-2,0,3,-7,-6,-8
1537913197426447,-7,1,4,-3,-11,1,17,7
1537913197441406,3,1,4,8,14,6,1,1
1537913197441406,4,-2,-3,-4,-7,-10,-8,-3
1537913197449384,5,-1,-4,-2,-1,17,-2,-14
1537913197449384,2,3,0,0,-8,-3,-5,1
1537913197464344,2,-1,0,-3,5,0,2,1
1537913197464344,0,-2,0,-2,-11,3,8,2
1537913197465342,1,-1,0,1,-3,-5,0,3
1537913197465342,-4,-3,-2,-2,-10,0,-6,-1
1537913197478307,-4,1,3,5,3,4,-1,-1
1537913197478307,-1,-6,-2,-5,10,0,1,-6
1537913197486286,2,3,-1,1,-17,-11,-5,1
1537913197486286,-3,-5,-4,-1,-3,-1,-4,1
1537913197501246,-3,4,4,0,3,-5,5,1
1537913197501246,4,-2,-4,-1,-4,-5,-5,-2
1537913197509224,-5,1,-1,-4,-1,-3,0,6
1537913197509224,-4,-1,-3,-1,7,0,-3,-3
1537913197524185,-8,-5,-2,8,-3,4,1,-2
1537913197524185,-7,1,2,-6,-3,-2,5,-5
1537913197525182,-2,-3,0,2,5,1,11,3
1537913197525182,-6,3,1,3,7,0,5,0
1537913197538147,-10,-1,-3,-4,-5,-5,-7,3
1537913197538147,1,-1,-2,-1,7,1,8,1
1537913197546126,-6,-3,0,-1,3,-2,-4,-8
1537913197546126,-6,4,0,0,-10,1,9,-5
1537913197561086,-2,-2,-3,-1,2,-3,-4,1
1537913197561086,-1,-1,-1,0,-7,-1,11,5
1537913197569065,-6,-1,-1,-1,4,-4,-13,2
1537913197569065,1,-2,-1,-1,0,8,3,2
1537913197584026,-2,-4,-4,-3,1,-1,3,-6
1537913197584026,-5,3,0,3,4,-3,-10,1
1537913197585024,6,-2,-2,0,-2,-2,-13,2
1537913197585024,-6,-1,-2,-2,1,-3,-7,-7
1537913197598985,7,-1,0,0,-4,5,13,2
1537913197598985,0,3,1,3,-4,6,27,4
1537913197605967,0,-1,-5,-2,-6,-8,-25,-6
1537913197605967,2,-1,0,-2,-6,-4,7,3
1537913197620927,-9,2,3,2,2,3,13,-5
1537913197620927,2,-1,-2,-2,6,-3,-16,3
1537913197629903,-4,-3,1,-2,5,7,18,-4
1537913197629903,7,12,2,-3,-22,-9,-7,3
1537913197643866,-9,-3,-1,-3,-3,-10,-6,0
1537913197643866,3,1,-2,-2,4,4,3,1
1537913197644864,-2,-5,-2,1,0,-4,18,7
1537913197644864,5,0,1,-1,6,1,4,-5
1537913197666803,-3,5,2,-1,1,0,-1,11
1537913197666803,-2,-2,-3,-4,-8,-3,-12,-8
1537913197667801,0,-2,1,0,1,-3,-3,-2
1537913197667801,-1,-2,-2,-1,-8,1,-2,-1
1537913197680766,16,-2,-2,-1,-1,0,-14,-8
1537913197680766,-1,-4,-3,0,0,-5,-3,-1
1537913197689742,-2,1,0,1,-2,2,-6,-1
1537913197689742,-4,-3,0,0,8,4,12,-1
1537913197704702,6,-3,-2,-1,2,6,4,-4
1537913197704702,1,-2,-2,-1,1,-4,-19,-8
1537913197704702,0,-1,-2,-7,-19,-4,-17,-3
1537913197704702,-2,-7,-3,-3,-8,-8,-4,0
1537913197718664,10,1,-1,-1,-8,3,-1,-4
1537913197718664,-6,-3,-3,1,8,2,7,3
1537913197725646,-4,7,0,2,6,5,-10,8
1537913197725646,-4,-14,-3,0,3,-1,10,-9
1537913197740606,-7,3,0,1,2,-8,-14,-4
1537913197740606,8,1,3,-3,-18,-2,8,-1
1537913197749582,0,1,-1,3,7,-3,0,-4
1537913197749582,-2,0,-1,-3,6,8,0,2
1537913197764542,8,0,1,2,-2,-5,7,8
1537913197764542,2,5,1,-3,-1,4,-24,-6
1537913197764542,3,-12,-1,0,1,0,20,-4
1537913197764542,1,-3,-2,-1,-2,-7,-14,6
1537913197778505,-6,7,-2,-3,5,-1,1,-2
1537913197778505,0,24,5,4,1,12,4,9
1537913197786484,1,-32,-5,-5,-2,-1,10,9
1537913197786484,5,10,0,-3,2,3,0,-10
1537913197801444,-3,-5,-2,-3,0,-12,-2,-1
1537913197801444,-1,-2,0,0,3,-6,-1,-6
1537913197809423,-5,13,1,6,-1,6,15,10
1537913197809423,-1,2,-1,0,11,1,-18,-4
1537913197824383,2,16,-4,-8,-8,4,18,10
1537913197824383,-5,-27,2,1,11,2,-2,-5
1537913197825381,1,45,10,4,-3,17,11,-7
1537913197825381,0,-61,-12,0,2,-7,5,27
1537913197838346,1,-9,-2,-6,-15,-9,-15,-19
1537913197838346,-4,2,-1,2,5,3,20,6
1537913197854305,0,24,3,3,8,-2,-56,0
1537913197854305,2,-13,-1,1,-5,-5,-1,-15
1537913197861285,-10,1,-1,-2,0,-10,-44,-4
1537913197861285,4,6,-9,-7,-16,-3,-16,4
1537913197869263,-1,-17,-1,1,13,-2,4,3
1537913197869263,2,16,0,-3,-16,-8,8,-1
1537913197883225,-20,-12,1,4,7,4,1,9
1537913197883225,2,-18,-2,2,8,-7,-3,-24
1537913197892201,-16,68,-1,-5,-5,-4,24,4
1537913197892201,12,-94,-11,-5,-2,-4,-57,-1
1537913197898185,-4,37,8,1,-11,-5,20,13
1537913197898185,-16,-23,-6,6,19,10,4,11
1537913197906163,12,1,-11,-11,-23,-12,-6,1
1537913197906163,-22,39,7,8,16,14,32,18
1537913197921124,8,-5,-6,-7,0,-6,0,-17
1537913197921124,3,-22,-4,-3,-12,-1,6,-27
1537913197929103,4,-20,1,0,12,-1,-59,17
1537913197929103,22,21,1,-2,-15,-22,-26,-16
1537913197944062,4,-3,-3,-1,-2,1,-4,-37
1537913197944062,-12,31,0,2,3,-1,22,36
1537913197952042,8,-26,6,-2,3,1,-8,-22
1537913197952042,-3,17,2,-2,-5,2,10,-13
1537913197959024,-3,12,5,9,19,15,-14,14
1537913197959024,12,-23,-5,-11,-16,-16,-4,13
1537913197966005,-9,-3,1,5,5,6,18,-8
1537913197966005,-11,31,16,10,16,28,13,2
1537913197980966,14,-24,-12,-8,-3,-26,1,-10
1537913197980966,-5,21,5,-1,-12,11,10,19
1537913197988944,-5,-17,-6,-4,1,-14,19,11
1537913197988944,-2,19,0,2,9,4,-14,-1
1537913198003904,-5,-14,-6,-1,-4,13,51,-1
1537913198003904,-5,18,6,4,12,11,-1,-17
1537913198011882,-4,-5,2,4,5,-1,37,23
1537913198011882,21,11,-3,-7,-15,-3,-2,-38
1537913198018863,-17,-24,2,4,16,15,-19,-11
1537913198018863,16,-2,-10,-6,-3,-13,-28,-16
1537913198025845,-8,15,2,-2,-22,-11,12,-10
1537913198025845,-9,32,7,6,14,15,35,21
1537913198040806,23,-82,-6,0,5,0,-20,40
1537913198040806,14,38,-2,-4,-33,-15,-3,-23
1537913198049781,1,19,1,4,17,26,-4,26
1537913198049781,-2,-17,-8,-10,-22,-37,-25,-32
1537913198063743,9,-26,-4,-4,0,8,-17,-11
1537913198063743,-5,-7,5,7,19,13,-2,28
1537913198071721,9,-2,-2,-2,4,-8,-25,-14
1537913198071721,-9,18,1,0,-17,19,43,32
1537913198087678,2,6,-9,-8,-18,-32,-56,-18
1537913198087678,-6,7,3,-2,4,-1,0,-15
1537913198088675,-1,-21,-2,-2,-6,-6,32,1
1537913198088675,-1,-1,-6,0,25,7,-5,7
1537913198100644,-4,2,6,5,-9,4,-16,0
1537913198100644,3,3,0,-3,-16,-1,39,-12
1537913198109619,0,-13,-7,-3,10,7,-8,-15
1537913198109619,6,0,-3,-1,3,3,0,4
1537913198123582,6,22,8,5,8,5,39,16
1537913198123582,-7,6,0,-2,9,-13,-33,-5
1537913198131561,28,-3,-7,-8,-34,-34,-52,-33
1537913198131561,-4,-26,-10,0,2,10,38,-12
1537913198147518,-11,39,13,3,-3,3,-12,23
1537913198147518,-1,-7,3,1,14,4,-32,-7
1537913198148516,-3,11,-1,-2,-8,-8,14,-19
1537913198148516,-3,18,-4,0,4,7,-17,1
1537913198161481,4,12,-6,-2,8,-17,-39,3
1537913198161481,19,-29,-5,-5,-17,8,37,-5
1537913198169460,-12,-14,0,-9,-30,-30,27,10
1537913198169460,-20,18,4,7,16,7,-28,-35
1537913198183422,1,7,-1,-2,-7,-3,30,-20
1537913198183422,-2,-20,-3,1,11,10,7,4
1537913198199380,-8,5,1,4,4,-9,-36,45
1537913198199380,-9,1,8,2,6,26,36,-5
1537913198207359,2,-3,-6,4,7,7,-29,19
1537913198207359,-6,-12,-6,-4,-15,-16,47,42
1537913198208356,17,-9,-12,-16,-33,-42,-46,-60
1537913198208356,-10,-3,2,-3,-2,-27,7,26
1537913198221322,1,30,-2,5,13,27,2,11
1537913198221322,-30,95,19,9,5,5,29,-6
1537913198229302,18,-57,-15,-6,19,30,56,22
1537913198229302,20,69,2,-9,-29,-40,-52,-25
1537913198243264,-20,14,6,8,18,32,42,15
1537913198243264,12,-8,-10,-8,-20,-22,-7,-39
1537913198252240,-11,4,7,16,56,52,52,64
1537913198252240,29,-18,-18,-26,-76,-71,-77,-59
1537913198267201,-17,-2,2,-3,-11,-9,7,-29
1537913198267201,-5,-51,-1,6,30,33,-14,33
1537913198268198,-14,9,11,10,21,18,-10,35
1537913198268198,-6,-14,-7,-4,5,14,7,4
1537913198290137,11,-39,-4,-10,-16,-11,24,0
1537913198290137,-17,6,-11,-2,12,8,-25,-29
1537913198291134,-18,80,43,33,38,70,88,29
1537913198291134,40,-13,-45,-49,-74,-77,-70,-57
1537913198303103,-24,76,11,1,-4,-6,-41,-21
1537913198303103,-33,81,-3,13,16,41,49,21
1537913198312079,49,-54,-28,-18,-15,3,22,59
1537913198312079,-43,93,21,18,36,6,12,-45
1537913198326041,4,23,-5,-8,-21,3,54,37
1537913198326041,-6,-11,-16,-8,-10,-23,6,-1
1537913198335018,-9,1,-6,4,9,-6,-30,-5
1537913198335018,-17,-25,10,10,10,31,62,0
1537913198341001,31,-67,-18,-14,-16,-50,-55,10
1537913198341001,-18,-14,31,15,11,13,14,33
1537913198349977,2,-3,-8,-3,-16,-46,-100,-64
1537913198349977,-6,-16,12,6,31,43,78,58
1537913198363941,1,14,-3,-4,-22,-24,-12,-91
1537913198363941,1,-29,-10,-7,-12,-36,-33,-1
1537913198372917,-3,46,30,16,6,16,36,17
1537913198372917,17,73,-4,-8,-3,-7,4,0
1537913198385883,-2,-79,6,12,29,48,36,40
1537913198385883,33,1,-4,-10,-8,-23,-92,-14
1537913198394858,-13,22,-12,-1,-13,2,57,-37
1537913198394858,-20,46,0,19,66,53,-13,37
1537913198400842,66,-93,-15,-34,-80,-55,-54,-31
1537913198400842,6,37,3,-5,-10,-23,-33,-69
1537913198409820,-15,69,21,14,8,21,2,-44
1537913198409820,29,-73,-17,-9,-17,-12,51,3
1537913198423781,-22,80,4,10,25,14,24,31
1537913198423781,10,-37,-2,1,9,13,3,37
1537913198432758,15,6,-15,-16,-10,-11,-39,-19
1537913198432758,-9,-35,11,13,3,3,-18,19
1537913198446721,-21,12,14,26,69,74,58,2
1537913198446721,32,7,-20,-28,-42,-30,-37,-30
1537913198453702,-16,-9,-3,-7,-40,-14,-52,3
1537913198453702,-9,-32,10,5,1,-4,3,51
1537913198460683,-2,12,-5,-8,-1,-27,-3,23
1537913198460683,-35,100,31,35,69,68,4,-9
1537913198469658,40,-100,-48,-39,-50,-50,-31,30
1537913198469658,30,51,-3,-9,-22,-43,-83,-32
1537913198483620,-10,56,7,15,17,27,44,30
1537913198483620,-5,16,4,5,-10,-1,63,33
1537913198492596,19,-24,-4,-11,-18,-14,-43,-78
1537913198492596,-17,-26,8,10,8,15,30,40
1537913198514538,-11,18,-5,-9,1,-4,0,-10
1537913198514538,13,-52,-9,-2,-22,11,4,12
1537913198516533,-11,-2,9,6,12,9,36,13
1537913198516533,-15,-28,-5,-2,8,10,-13,-5
1537913198521519,-8,8,2,12,1,11,-4,-6
1537913198521519,12,-27,-8,-23,-38,-46,-25,-3
1537913198530495,-6,-3,-5,4,12,7,29,-20
1537913198530495,-8,6,6,11,7,5,-14,11
1537913198543460,-3,-4,1,-2,12,10,5,-4
1537913198543460,2,-9,-4,1,9,-1,-5,9
1537913198552437,-12,20,4,2,-2,-15,-3,-3
1537913198552437,-14,-3,3,5,31,49,5,27
1537913198567396,6,-22,-13,-11,-16,-19,28,-24
1537913198567396,19,-3,-5,-7,-32,-36,-18,12
1537913198569391,-20,11,4,11,16,3,6,-10
1537913198569391,1,-11,-2,-10,-20,-8,16,13
1537913198581359,-5,9,2,-2,-10,4,-7,6
1537913198581359,-7,0,0,-3,6,12,11,-2
1537913198590335,-2,1,3,6,20,0,5,9
1537913198590335,-15,18,-2,4,3,18,5,-3
1537913198603301,30,-34,-11,-5,-2,3,6,-1
1537913198603301,5,5,2,-3,-3,-16,2,-33
1537913198612277,-6,25,7,0,1,9,0,14
1537913198612277,7,-16,-8,3,-8,-16,0,-4
1537913198627237,-13,29,2,-5,-3,-4,-15,-8
1537913198627237,-7,-16,-5,6,13,13,10,9
1537913198629233,1,-15,-2,-2,-16,-1,4,1
1537913198629233,5,9,2,-2,0,-5,-3,-8
1537913198641199,-11,2,-3,7,-23,-12,-9,-3
1537913198641199,-10,-7,0,-5,-10,4,5,0
1537913198650176,-8,9,-1,-1,0,-2,-7,-6
1537913198650176,8,-11,-1,-3,-26,-13,3,0
1537913198664138,-21,11,4,1,20,16,-5,-2
1537913198664138,-2,-9,-5,8,34,-1,-14,-4
1537913198672118,-7,5,-1,-18,-14,1,1,6
1537913198672118,-9,-10,-1,2,-13,-7,3,-4
1537913198687076,0,3,-1,0,22,-10,-7,-2
1537913198687076,-6,8,2,4,5,13,4,0
1537913198689071,-6,-7,0,4,13,2,1,-1
1537913198689071,1,-5,3,0,8,-17,4,4
1537913198701039,-10,10,1,0,-8,0,1,1
1537913198701039,2,-2,-4,-5,2,-5,-3,-4
1537913198710015,1,-1,-3,4,-16,-6,-8,0
1537913198710015,4,-8,-2,-11,1,-3,2,0
1537913198723977,-3,5,2,9,-6,-1,-2,1
1537913198723977,6,-6,-3,-6,3,2,-3,1
1537913198732953,-2,-4,1,3,12,2,8,0
1537913198732953,-2,5,-1,-3,2,-3,-6,-4
1537913198747913,9,3,0,1,-6,4,-5,0
1537913198747913,0,0,0,-1,7,4,6,-3
1537913198748911,-1,0,-2,-1,4,-1,-3,-3
1537913198748911,-2,-5,0,1,7,3,0,-7
1537913198760879,3,2,-1,-4,1,-9,-5,-2
1537913198760879,-7,-1,1,3,-10,-3,0,0
1537913198769855,5,1,-1,-6,-1,1,4,5
1537913198769855,-6,-9,-4,5,10,4,-1,3
1537913198783817,3,0,-2,-13,-12,-8,-6,-3
1537913198783817,-6,1,2,5,4,-4,3,3
1537913198792793,11,0,-4,-2,1,3,2,0
1537913198792793,8,-1,-1,-2,-8,0,-6,-8
1537913198806756,-1,2,-3,2,0,-8,-5,-3
1537913198806756,1,-4,0,0,0,3,3,3
1537913198813737,9,-1,0,3,-2,-2,3,0
1537913198813737,-2,-3,-2,-12,5,-2,-3,-8
1537913198820719,2,1,0,1,-1,-1,-4,1
1537913198820719,5,0,1,2,4,-8,4,-1
1537913198835679,2,-3,-2,0,-5,-1,-6,2
1537913198835679,-3,0,1,3,-2,3,6,0
1537913198843657,-5,0,-1,1,8,-4,-5,-6
1537913198843657,-3,-1,2,-1,13,3,0,-1
1537913198852634,3,0,-2,-12,4,-6,-4,0
1537913198852634,0,-2,1,2,0,-1,-1,2
1537913198866598,1,-1,-1,-2,-4,-1,-2,0
1537913198866598,-3,-3,-2,0,-5,2,2,0
1537913198873578,0,1,-1,3,2,1,-4,-2
1537913198873578,11,4,1,1,-2,1,10,3
1537913198881557,2,-6,-6,-7,4,3,-14,-3
1537913198881557,10,2,-2,-1,-10,1,-1,1
1537913198889536,-6,0,-1,-1,-1,1,1,-3
1537913198889536,7,-4,-1,-1,-4,-1,0,1
1537913198903498,0,3,1,4,-9,-3,0,-3
1537913198903498,0,-2,-1,-4,-10,0,0,0
1537913198912475,0,-2,-2,1,-1,13,-2,1
1537913198912475,17,5,-2,-3,-11,-1,6,-1
1537913198926437,-4,0,0,-1,-2,-6,-9,-6
1537913198926437,3,0,0,-1,-9,1,-3,-3
1537913198933418,-5,0,1,4,6,-3,3,-2
1537913198933418,-2,-5,-4,-1,-1,-1,-4,-1
1537913198941398,-3,1,0,1,-2,2,6,1
1537913198941398,3,1,-2,0,0,-3,-1,-4
1537913198950373,-4,0,-1,4,0,-4,-10,1
1537913198950373,1,0,0,2,5,3,-3,1
1537913198964336,4,1,-2,-2,-3,-3,1,1
1537913198964336,-2,-1,0,5,-2,-2,0,-1
1537913198972314,3,-3,-3,-7,3,-1,3,-4
1537913198972314,-7,-1,1,1,-9,-2,-5,-5
1537913198987274,0,1,0,-2,13,2,2,2
1537913198987274,3,0,-2,-2,-6,1,1,-1
