timestamp,emg1,emg2,emg3,emg4,emg5,emg6,emg7,emg8
1537905340135416,1,0,-8,-7,-2,-1,-1,1
1537905340135416,0,2,11,3,0,0,0,-2
1537905340135416,-3,6,21,8,0,-1,0,-3
1537905340135416,3,4,-25,1,1,0,-1,3
1537905340136413,-1,-24,3,-14,2,0,0,2
1537905340136413,-1,-16,-9,10,3,0,-1,-3
1537905340140402,-2,5,3,-9,-13,-6,-4,0
1537905340140402,1,5,23,10,0,-1,0,-1
1537905340156359,-2,0,-28,5,2,1,-2,-3
1537905340156359,-2,-3,3,-9,-1,0,-1,0
1537905340157356,2,6,0,1,0,-1,-3,-2
1537905340157356,-2,-6,-19,-4,-2,0,0,-4
1537905340165335,-1,-2,10,8,3,0,0,0
1537905340165335,5,21,18,-4,0,-1,0,3
1537905340179298,-1,-13,-42,2,4,1,-1,1
1537905340179298,-1,19,17,-9,2,-2,1,-4
1537905340184285,-3,-12,-2,-15,-9,-5,-3,0
1537905340184285,-3,1,13,-1,2,1,0,-1
1537905340199245,-2,-5,16,1,-2,0,-1,-2
1537905340199245,0,-5,-16,5,1,1,-2,0
1537905340210215,1,0,-8,5,3,1,0,-1
1537905340210215,1,6,-2,-8,-6,-4,-1,0
1537905340222183,2,-4,2,-11,0,0,-1,2
1537905340222183,-4,-5,-14,-5,0,-2,-1,-1
1537905340262076,0,2,2,17,3,-1,0,1
1537905340262076,0,5,14,6,0,-1,0,2
1537905340264071,-2,-14,-29,-17,-3,-1,-1,-2
1537905340264071,0,8,5,3,1,-3,0,0
1537905340267063,0,-7,-10,-6,2,0,-1,1
1537905340267063,-2,-7,1,16,2,1,-1,-2
1537905340268061,-3,5,6,-1,1,-2,-1,-2
1537905340268061,0,1,-22,-7,-5,0,0,1
1537905340274044,0,-3,5,5,4,0,0,-2
1537905340274044,-2,-5,-5,-22,-5,-1,0,-5
1537905340283020,-2,2,17,1,-7,-4,-3,0
1537905340283020,4,13,0,20,5,2,0,1
1537905340296983,0,6,11,-6,-3,-1,-1,-2
1537905340296983,-4,-20,0,2,3,0,-1,-3
1537905340303964,1,-4,-43,-2,3,1,1,-1
1537905340303964,-2,-3,32,0,1,-2,-2,-1
1537905340310946,1,7,7,6,-2,-1,-1,0
1537905340310946,3,6,14,-9,-3,-3,-1,3
1537905340334882,0,2,-12,-3,-3,0,0,1
1537905340334882,-5,-19,8,14,3,-1,-2,-4
1537905340334882,-4,0,-1,-8,-1,0,0,-2
1537905340334882,1,2,-5,-5,-2,-1,-2,0
1537905340349842,0,4,13,1,-3,-3,-1,-3
1537905340349842,4,4,-11,-14,-1,1,1,3
1537905340349842,0,-3,3,0,-5,-1,-2,1
1537905340349842,-3,0,-9,5,-1,-1,-2,-3
1537905340371783,1,4,5,6,4,0,-1,0
1537905340371783,-4,1,-1,5,2,0,0,-1
1537905340372781,1,-12,-15,-12,-8,-3,-2,0
1537905340372781,-3,10,25,5,1,2,0,-1
1537905340394722,-2,-9,-42,-9,-4,-1,-2,1
1537905340394722,0,-10,-7,-8,-1,0,-2,5
1537905340395719,-2,5,6,3,4,0,0,1
1537905340395719,-1,0,-18,-5,-7,-5,-1,2
1537905340409682,0,2,63,9,4,1,-1,0
1537905340409682,-3,0,11,-8,-4,-3,-1,-2
1537905340410679,1,0,-36,-2,0,-1,-2,0
1537905340410679,-1,-2,1,7,5,-1,0,-2
1537905340431623,-1,15,-1,-18,-11,-2,0,-3
1537905340431623,0,3,-5,-10,-5,-1,-3,-1
1537905340432621,2,2,14,5,1,0,0,-1
1537905340432621,-3,-10,-22,-7,5,1,0,-2
1537905340454562,-2,-6,22,20,2,-1,-2,-1
1537905340454562,0,-3,12,-11,0,-1,-1,-1
1537905340455559,1,0,-48,-16,-4,0,-1,2
1537905340455559,2,2,0,9,-1,0,-1,-1
1537905340469522,0,-1,0,-4,5,0,0,0
1537905340469522,-1,12,16,7,-3,-2,1,-2
1537905340470520,-6,-29,-6,-1,5,1,1,-3
1537905340470520,2,19,1,0,-6,-3,-1,1
1537905340507420,1,-6,12,8,1,1,0,0
1537905340507420,0,-1,-36,0,0,-2,-1,-1
1537905340508419,0,7,21,-7,-4,-2,-1,-1
1537905340508419,2,-3,-12,-3,1,0,-1,0
1537905340514402,-4,-3,2,-1,-3,-1,0,-2
1537905340514402,-3,-6,18,1,-3,1,-1,-4
1537905340515399,0,1,-13,-17,-3,0,0,0
1537905340515399,1,1,5,7,-1,0,-3,-1
1537905340529362,-2,-4,-8,2,-1,-2,-1,-3
1537905340529362,-2,-6,-1,-6,0,0,-1,-1
1537905340537340,-1,4,-1,13,0,-1,1,-1
1537905340537340,0,2,9,-7,0,-1,-1,2
1537905340560280,1,-2,-2,-17,-5,-2,-1,1
1537905340560280,1,0,-17,8,2,1,-1,-2
1537905340561277,-2,9,30,7,3,-2,-1,-2
1537905340561277,-3,-24,-23,-19,-9,-3,-1,1
1537905340574242,-1,7,-9,4,4,2,-1,-2
1537905340574242,-2,-7,-14,-12,-1,-1,1,1
1537905340575240,2,-9,-28,15,4,0,-1,1
1537905340575240,2,3,32,4,1,0,1,-1
1537905340589202,-1,-3,-11,-2,-2,0,0,2
1537905340589202,0,-1,14,0,-3,-3,-3,-2
1537905340590199,-1,14,14,1,0,0,-1,-2
1537905340590199,-3,-10,-31,-1,1,-1,-1,-1
1537905340612140,0,-2,38,8,0,-1,1,1
1537905340612140,-1,2,-39,-9,1,-2,0,1
1537905340613138,-1,-3,1,-10,-6,-2,-3,-2
1537905340613138,-1,5,8,8,1,0,-1,2
1537905340643058,1,3,0,-1,2,1,0,0
1537905340643058,2,3,11,-1,-1,-1,-2,0
1537905340643058,-1,2,-4,-2,-1,0,-1,-1
1537905340643058,-1,-8,2,-3,-1,1,0,-3
1537905340649042,-1,2,-8,8,0,-3,-4,-3
1537905340649042,-2,-14,-12,-8,4,0,0,-1
1537905340657020,-1,-2,15,-3,-9,-3,-3,-1
1537905340657020,0,7,-2,5,2,0,0,0
1537905340671981,0,-2,3,-11,-1,0,-2,0
1537905340671981,-1,-2,-3,17,1,1,0,0
1537905340679959,2,5,-8,-14,1,-1,0,1
1537905340679959,1,2,1,-9,-2,-1,1,0
1537905340694919,1,-2,-8,7,0,-1,-2,0
1537905340694919,-3,5,19,1,-2,1,0,-3
1537905340695917,0,1,-17,-3,1,-2,1,3
1537905340695917,-2,1,24,9,-1,0,-1,-1
1537905340708882,-1,-13,-29,-1,3,0,-1,2
1537905340708882,1,13,45,-9,-11,-2,0,-1
1537905340716861,-3,-10,-11,3,-1,1,-2,-4
1537905340716861,2,8,-10,-6,-2,-1,0,-1
1537905340731820,0,1,12,0,0,0,-1,-2
1537905340731820,-1,-3,-17,-4,0,-1,-2,0
1537905340732818,-1,-7,3,0,-2,-2,-3,-2
1537905340732818,2,-2,-15,8,2,0,-1,1
1537905340755757,1,3,-9,-10,-3,-1,-1,-1
1537905340755757,0,-7,-9,2,-1,-2,-1,0
1537905340755757,0,4,4,0,0,-1,-1,0
1537905340755757,-4,-1,11,-3,-1,-1,-2,-3
1537905340768722,-3,-2,0,-2,-3,-1,-1,-2
1537905340768722,1,7,-14,1,2,1,-2,-1
1537905340776701,1,-7,24,8,0,1,1,0
1537905340776701,0,6,0,-21,-8,-3,-1,-1
1537905340791662,-1,0,-8,2,1,0,-1,3
1537905340791662,-3,-3,12,-2,-2,-3,-2,-1
1537905340792658,0,-2,-28,3,1,1,0,0
1537905340792658,2,1,-4,2,2,0,0,0
1537905340815597,2,4,4,-4,-4,-2,0,0
1537905340815597,0,-2,12,5,2,-1,0,1
1537905340815597,-3,0,5,-1,-2,0,-1,-2
1537905340815597,-2,-3,2,-2,-1,0,0,-1
1537905340837538,1,3,13,2,0,-1,0,-1
1537905340837538,1,-5,-20,-1,1,-2,-1,-1
1537905340838535,0,6,14,3,-1,-1,-1,0
1537905340838535,-2,10,-18,-10,-3,-4,-1,-2
1537905340852498,-2,2,6,-2,1,1,0,0
1537905340852498,0,1,2,11,-2,-1,1,0
1537905340852498,0,0,3,-12,-6,-1,0,-1
1537905340852498,0,4,5,3,0,1,-1,-1
1537905340875437,-1,-13,-8,-6,-2,-1,0,-3
1537905340875437,-2,10,-12,-2,0,-1,0,-3
1537905340876434,0,-8,5,1,1,0,0,-1
1537905340876434,-1,-5,2,2,-1,0,0,0
1537905340888402,0,4,-13,-1,-2,-1,-2,2
1537905340888402,0,-6,-3,-3,-1,0,-1,1
1537905340897378,0,-1,2,0,0,-2,0,0
1537905340897378,-1,-5,-3,3,-1,-2,1,-1
1537905340912338,-2,-5,3,4,0,-2,0,0
1537905340912338,-1,2,0,0,-1,0,1,-2
1537905340912338,-1,5,0,-8,-3,-2,-3,1
1537905340912338,-1,-8,-5,0,2,1,-2,1
1537905340935277,0,4,1,-1,-2,0,0,-2
1537905340935277,2,1,0,0,-1,-1,-1,0
1537905340936274,-1,1,1,1,0,2,0,-3
1537905340936274,-2,-6,-4,-2,1,-1,0,-1
1537905340949240,-3,4,17,4,0,-1,-1,-2
1537905340949240,-1,4,-19,-3,0,-1,-1,1
1537905340957220,-2,-5,11,-1,1,-1,-1,-1
1537905340957220,0,3,-3,0,-2,1,-2,-1
1537905340972178,-1,-3,-3,-4,-2,0,0,-2
1537905340972178,0,2,9,-4,-3,-2,-1,-1
1537905340973175,-1,2,-14,0,-2,0,-2,0
1537905340973175,1,-1,0,0,1,-2,-1,-3
1537905340995117,2,11,8,1,0,0,0,1
1537905340995117,-2,-10,3,-1,-1,0,-1,-1
1537905340996114,-1,2,0,6,2,-1,0,-2
1537905340996114,0,-5,-14,-11,-8,-3,-1,1
1537905341009080,-1,-5,-10,1,2,0,-1,0
1537905341009080,0,2,2,0,-1,2,0,0
1537905341017059,-2,-2,12,0,0,-3,-4,0
1537905341017059,0,4,-10,3,7,1,-1,-2
1537905341032018,-2,-10,-8,-6,-7,-3,-1,-2
1537905341032018,-3,-1,38,-3,-3,-1,-2,-4
1537905341033016,2,8,-18,2,2,-4,-1,3
1537905341033016,-2,-16,-71,6,18,3,-2,-2
1537905341062935,0,2,74,3,-7,1,1,1
1537905341062935,-3,-5,-28,-37,-22,-14,-8,-4
1537905341063933,0,19,87,7,-12,-8,-5,-6
1537905341063933,-1,-8,-70,-6,0,-6,-8,-5
1537905341077896,3,0,-7,23,27,8,0,7
1537905341077896,0,-2,3,-19,-4,-7,-4,-3
1537905341078893,-5,-15,-23,-28,-27,-4,2,-2
1537905341078893,-1,9,59,28,52,22,11,0
1537905341091859,-5,9,0,-52,-23,-1,-5,-9
1537905341091859,-1,1,52,8,16,14,8,-2
1537905341092856,5,-18,-128,-82,-87,-48,-11,5
1537905341092856,0,11,114,23,29,13,3,6
1537905341114797,5,11,15,81,23,-4,0,2
1537905341114797,5,21,-23,26,28,4,-5,3
1537905341115794,-10,-22,-20,127,106,32,8,-7
1537905341115794,-2,3,45,-117,-103,-31,-3,-5
1537905341137736,15,19,-77,-23,-22,-16,1,14
1537905341137736,-1,-8,40,67,37,12,7,4
1537905341138733,3,19,39,-48,-43,-3,-2,3
1537905341138733,-7,-3,-69,127,103,30,6,-3
1537905341151698,-7,-7,-37,-105,-2,-1,-9,-14
1537905341151698,-3,-9,-50,-92,-85,-42,-16,-5
1537905341152696,9,24,14,-6,89,43,22,11
1537905341152696,-3,15,47,-25,-80,-31,-10,-6
1537905341174638,-4,29,114,54,17,10,0,-3
1537905341174638,8,9,-74,88,90,32,7,15
1537905341175635,20,14,-64,-81,-67,-6,2,21
1537905341175635,-6,-21,51,-21,79,28,0,-2
1537905341197576,-15,-15,-12,21,-34,-26,-1,-13
1537905341197576,-14,5,67,-37,-60,-7,-7,-19
1537905341198573,-4,4,-5,-37,-1,-12,-12,-9
1537905341198573,14,12,10,92,-6,-12,1,7
1537905341212536,-17,-58,9,-62,-59,-13,-9,-10
1537905341212536,-8,-8,102,-57,-12,-5,0,-2
1537905341212536,-7,-8,-91,93,21,12,1,-5
1537905341212536,5,7,8,-59,-23,-10,-5,2
1537905341233480,0,-25,37,50,68,19,4,1
1537905341233480,2,15,17,-6,62,18,6,-1
1537905341242456,-7,22,15,-7,-95,-60,-20,-13
1537905341242456,-2,6,-94,-23,-1,4,0,1
1537905341257416,6,13,55,10,16,1,4,1
1537905341257416,-3,3,-124,11,4,7,0,1
1537905341263400,7,-2,33,-3,42,20,5,3
1537905341263400,-3,21,13,-13,-17,-7,-4,-3
1537905341280354,-1,-8,-39,-23,-39,-13,-7,0
1537905341280354,3,-52,44,6,-3,1,3,0
1537905341281352,-5,-38,41,7,8,1,0,-9
1537905341281352,-2,-53,-23,-10,-34,-10,-3,0
1537905341304290,0,-28,-4,13,29,18,6,0
1537905341304290,4,-25,-35,-17,-26,-15,-4,3
1537905341305288,-3,3,5,14,16,11,3,-1
1537905341305288,-1,8,10,-2,-14,-3,-1,-2
1537905341317256,2,-6,-52,-11,3,5,1,3
1537905341317256,-2,6,-16,18,4,-2,0,-3
1537905341332216,-6,-25,34,7,0,-2,-2,-5
1537905341332216,1,-62,13,-14,5,3,1,1
1537905341340195,0,-46,-22,4,-8,0,-2,-2
1537905341340195,3,-10,-12,2,-20,-9,-1,1
1537905341342189,-1,-37,39,0,14,6,1,-2
1537905341342189,-2,-9,-12,-3,-2,-2,0,-2
1537905341354157,2,7,-30,4,6,3,1,3
1537905341354157,2,-22,4,-1,-13,-5,0,-1
1537905341370114,-4,-58,6,-3,11,3,1,0
1537905341370114,-3,-16,-11,-1,-2,-1,-1,-6
1537905341377096,1,-33,-12,-2,-16,-7,-1,0
1537905341377096,-8,-40,10,2,3,0,-1,-12
1537905341391058,-13,-7,11,4,0,1,0,-10
1537905341391058,20,34,-5,3,4,0,2,25
1537905341400035,1,72,-2,-7,-7,-1,-1,2
1537905341400035,4,70,-6,-5,-11,-5,-1,2
1537905341402029,-6,56,1,3,11,2,0,-7
1537905341402029,-7,45,2,-1,-9,-2,-2,-3
1537905341413997,-1,46,-11,-1,8,3,2,-4
1537905341413997,2,21,-2,0,5,1,1,4
1537905341422973,1,15,0,-3,-8,-4,-2,3
1537905341422973,-5,12,4,-5,-6,0,-2,-6
1537905341436936,3,4,-9,7,4,0,0,4
1537905341436936,-6,-3,-1,2,-3,0,0,-2
1537905341443918,3,-2,10,-1,8,3,1,5
1537905341443918,-1,-15,4,0,3,1,2,-4
1537905341459874,4,-2,-14,-12,11,0,2,2
1537905341459874,0,-8,-10,11,-23,-8,-5,-1
1537905341461869,0,-7,-2,-4,-7,3,-1,0
1537905341461869,-4,-5,-2,1,-12,-5,-4,-6
1537905341482813,-1,0,2,-1,10,1,1,0
1537905341482813,1,-13,5,0,13,5,2,3
1537905341483810,1,3,3,1,2,0,0,0
1537905341483810,-1,18,-5,-6,-4,-3,0,-3
1537905341496776,1,30,1,0,-8,-5,-1,2
1537905341496776,-2,35,3,6,8,3,0,-2
1537905341511736,1,28,-2,-8,-10,-5,-2,-2
1537905341511736,3,19,4,-7,11,7,2,3
1537905341520712,-4,23,8,16,-14,-5,-4,-2
1537905341520712,0,14,-16,-5,-4,0,-3,-1
1537905341521709,1,13,-33,-4,1,-1,0,4
1537905341521709,-3,10,14,3,1,1,-1,1
1537905341542653,0,7,17,1,0,-1,-1,0
1537905341542653,-4,-5,0,-30,-10,-5,-2,-2
1537905341544648,3,1,14,1,9,4,-1,4
1537905341544648,2,-13,-17,1,-5,-4,-1,1
1537905341556616,-1,-21,6,3,1,-1,0,-2
1537905341556616,-2,-11,2,11,5,1,1,-2
1537905341563598,3,-7,5,-8,-4,-4,0,0
1537905341563598,-3,-18,-6,-1,-4,-1,-1,-4
1537905341580552,-1,-10,-7,-2,1,1,-2,-1
1537905341580552,2,-5,0,0,-2,-2,0,1
1537905341581549,-2,-3,-1,-2,-3,1,-1,-4
1537905341581549,-1,-4,6,7,2,1,-2,-1
1537905341602493,-2,-8,-12,-5,-3,1,1,-2
1537905341602493,0,-4,-3,-3,-2,-1,0,1
1537905341608478,-5,-1,44,11,5,5,0,-6
1537905341608478,5,-1,-68,-16,-17,-11,-2,4
1537905341616456,-7,-17,-3,-6,2,1,0,-4
1537905341616456,3,18,-29,0,10,8,3,0
1537905341625432,-1,12,107,15,4,0,-2,-4
1537905341625432,-11,-18,-95,-58,-57,-18,-8,-11
1537905341649368,14,22,-74,2,8,6,3,15
1537905341649368,-1,-11,38,-3,0,-4,-4,3
1537905341650365,6,-7,-10,34,40,11,4,4
1537905341650365,-17,35,91,25,9,3,1,-12
1537905341662333,-1,29,27,-79,-65,-23,-10,-18
1537905341662333,2,-102,0,29,37,21,12,13
1537905341664328,-13,34,-41,-6,0,-2,-3,-9
1537905341664328,5,-57,65,1,41,3,-5,11
1537905341676296,-9,28,25,17,-13,-9,-4,-12
1537905341676296,8,51,-122,-52,-74,-19,-5,11
1537905341685272,24,23,84,50,34,16,8,19
1537905341685272,5,30,103,70,41,9,2,2
1537905341700232,13,20,-63,-37,16,8,0,15
1537905341700232,-21,-22,63,-25,-36,-15,-9,-25
1537905341702227,-22,-22,-21,-74,-44,-12,-7,-19
1537905341702227,16,62,47,18,-18,3,11,9
1537905341723171,-3,-49,-55,36,35,12,5,1
1537905341723171,1,46,22,51,31,4,-1,0
1537905341724168,-8,12,2,-82,-33,-11,-7,-9
1537905341724168,-15,5,35,64,1,1,-1,-19
1537905341736136,9,28,-27,-55,3,5,8,16
1537905341736136,6,6,-8,68,9,3,2,9
1537905341753091,4,48,14,10,9,-1,-3,4
1537905341753091,3,-44,-109,-34,-7,-2,-1,5
1537905341760072,-13,-27,-7,-7,-13,-6,-4,-9
1537905341760072,3,-18,-29,-2,1,-4,-3,0
1537905341762067,0,-115,23,32,5,-4,0,0
1537905341762067,-14,-29,58,-62,-11,0,-4,-16
1537905341783011,0,-30,1,21,4,2,4,6
1537905341783011,0,-9,54,-27,5,1,2,-5
1537905341784008,3,-22,-66,30,0,-2,0,7
1537905341784008,4,4,12,-4,1,1,-2,3
1537905341795976,-6,-5,44,49,24,6,-3,-7
1537905341795976,0,7,11,-50,-15,-7,-5,-4
1537905341805950,-2,-47,-41,-9,-15,-6,0,-1
1537905341805950,-2,-40,-46,-8,5,2,1,-1
1537905341819912,-2,-59,35,10,0,-6,-4,-3
1537905341819912,-2,-41,-35,18,21,7,3,0
1537905341821907,2,14,-16,-13,-27,-10,-3,-1
1537905341821907,3,29,-14,-2,4,1,0,3
1537905341842851,-1,-13,55,30,4,0,-2,-4
1537905341842851,1,37,-51,-19,-7,-2,0,0
1537905341843848,-5,57,-7,-9,8,3,1,-1
1537905341843848,1,54,-17,-2,-2,-3,-1,2
1537905341856813,0,60,23,3,-7,-6,-3,2
1537905341856813,-4,30,17,-4,2,-1,-2,-4
1537905341865789,2,26,-7,9,3,2,2,0
1537905341865789,2,11,-25,-4,-7,-1,0,4
1537905341879752,-4,1,1,-3,0,3,-3,-6
1537905341879752,1,10,19,10,4,0,0,0
1537905341881747,2,11,-15,-7,-6,-3,-1,2
1537905341881747,0,-12,2,3,14,3,1,1
1537905341902691,1,10,-6,3,-6,-2,-2,0
1537905341902691,-3,1,17,2,-2,-1,1,-2
1537905341903688,0,-8,-3,2,2,0,0,-1
1537905341903688,-3,-18,-11,0,3,2,0,-3
1537905341916653,3,0,3,0,-7,-4,-3,3
1537905341916653,-3,-3,4,1,-1,-3,-2,-3
1537905341925630,-1,-8,-8,-7,-5,-1,0,-2
1537905341925630,-2,-9,-7,2,-1,-1,1,-2
1537905341939592,-2,-3,3,0,2,-1,1,-2
1537905341939592,3,1,9,-7,-4,-2,0,3
1537905341947571,-1,-10,-1,21,12,4,0,0
1537905341947571,0,-2,-10,-12,-20,-5,-3,-1
1537905341962531,-1,-5,-2,-5,-1,-1,0,0
1537905341962531,1,-12,5,0,3,-1,-2,-1
1537905341964526,-1,-8,-2,2,3,1,0,-3
1537905341964526,3,5,-7,-6,-6,-4,-1,3
1537905341976494,-2,1,-3,-2,-7,-3,-1,-3
1537905341976494,0,-3,3,0,-4,-1,0,-1
1537905341985470,-2,-3,3,-4,17,4,3,0
1537905341985470,0,1,0,-12,-30,-8,-3,-1
1537905341999432,-3,6,-6,8,-4,-2,-1,-2
1537905341999432,-2,2,-10,5,1,-1,-3,-1
1537905342006413,-1,2,-1,-22,-2,0,-2,-1
1537905342006413,1,0,-4,7,1,-3,-2,1
1537905342022371,3,6,14,1,6,2,1,2
1537905342022371,-1,7,5,-2,0,2,-1,0
1537905342024366,-1,2,-9,-2,-8,-3,0,-1
1537905342024366,0,8,2,4,0,-2,-1,0
1537905342036334,-1,6,-4,-5,-4,-2,-1,-2
1537905342036334,-1,6,2,5,4,3,-1,2
1537905342045310,0,1,0,3,-2,-2,-1,0
1537905342045310,-1,2,-2,1,10,5,1,1
1537905342067251,1,-1,-4,-5,-4,0,-2,-1
1537905342067251,-1,4,1,-5,1,1,1,-2
1537905342069246,-2,2,1,11,2,-2,-2,0
1537905342069246,-2,-7,-4,-4,-2,-2,-2,-3
1537905342082211,-1,-2,-5,3,3,1,0,1
1537905342082211,0,-5,7,-1,-3,0,1,-1
1537905342084206,-1,0,-5,6,-4,-2,-1,-1
1537905342084206,-1,-6,-7,3,6,-2,-1,0
1537905342096174,0,-7,-3,-5,-2,-1,1,0
1537905342096174,-1,-7,3,8,1,-1,1,-1
1537905342105150,2,-5,-3,-7,-5,-4,0,0
1537905342105150,-2,-10,-1,-2,3,1,0,0
1537905342120110,-1,-3,1,-3,0,-1,-1,-3
1537905342120110,-1,-4,0,-2,0,-1,-1,-2
1537905342122104,0,-2,-1,4,-1,1,-1,-1
1537905342122104,-1,-5,1,2,4,0,1,-2
1537905342143048,-3,1,-1,0,3,2,0,-4
1537905342143048,2,8,-3,-9,-11,-5,-3,1
1537905342144046,-1,1,-1,-1,-3,-2,0,0
1537905342144046,-2,2,-2,-5,-1,2,-1,-1
1537905342156013,-1,0,-3,0,0,-1,0,-1
1537905342156013,-3,-4,-3,-3,2,1,0,-2
1537905342164989,-2,6,2,0,-6,-4,-2,0
1537905342164989,-1,-3,4,7,1,3,1,0
1537905342179950,0,1,-2,-4,-1,-2,-1,0
1537905342179950,0,-2,0,7,5,0,-1,-1
1537905342181944,1,-6,-4,-11,-9,-3,-1,-1
1537905342181944,-1,-4,1,-2,2,0,-1,-2
1537905342202888,-1,-2,-2,4,2,1,0,0
1537905342202888,0,0,-2,-2,-2,-1,-2,0
1537905342203886,0,-3,1,2,3,4,0,-1
1537905342203886,-1,-2,-2,0,1,0,2,0
1537905342225828,1,-2,-3,-8,-4,-2,-2,0
1537905342225828,-1,-1,-3,-1,-4,-3,-2,-3
1537905342226825,-1,3,6,8,0,0,0,-1
1537905342226825,0,1,-1,5,2,-1,-1,-2
1537905342239789,-2,3,0,-5,-2,-1,-1,0
1537905342239789,-5,4,-4,-2,3,0,0,0
1537905342241785,-1,-1,-1,3,-3,-3,-2,1
1537905342241785,-1,3,-1,4,4,2,-1,-1
1537905342262728,1,2,2,-2,-3,0,1,2
1537905342262728,4,6,1,1,-1,-2,0,0
1537905342270707,-3,0,-1,-4,0,1,0,-1
1537905342270707,-1,-1,-4,-3,-1,-2,-1,-2
1537905342285667,-2,2,0,2,3,0,-1,-2
1537905342285667,-1,-2,1,-10,-6,-4,-1,-1
1537905342286664,1,4,-6,-3,2,1,0,0
1537905342286664,0,-2,0,5,1,-1,-2,0
1537905342300627,-1,-2,2,0,0,1,-2,0
1537905342300627,-3,-3,3,5,1,0,1,-1
1537905342301625,0,-4,-6,-2,-1,1,-1,-1
1537905342301625,-1,-2,-2,-7,-3,-2,-2,1
1537905342325561,-4,-1,-1,3,0,-1,-1,-2
1537905342325561,-1,-2,0,1,3,1,1,0
1537905342326558,-1,-2,1,0,-2,-3,-2,-2
1537905342326558,1,0,8,-7,-5,-4,-2,-3
1537905342329550,0,-1,-8,0,-1,-1,-1,-1
1537905342329550,-1,-3,2,3,4,1,-1,0
1537905342347502,-2,-2,2,-4,-3,-2,-2,-4
1537905342347502,2,2,-1,-1,-5,-3,-2,2
1537905342351491,-4,-9,16,-1,-8,-3,0,-4
1537905342351491,-1,-5,-28,4,1,2,-1,-1
1537905342375427,-2,-7,3,0,0,0,1,-2
1537905342375427,-2,3,9,1,-3,-2,1,-3
1537905342376424,-4,1,-2,5,3,1,1,-5
1537905342376424,-6,-14,18,-15,-5,-2,0,-4
1537905342389390,-3,-5,1,-7,-5,-7,-4,-4
1537905342389390,-6,-15,-48,-9,2,2,0,-8
1537905342397369,0,-30,43,9,-17,-4,-1,1
1537905342397369,0,4,-13,32,23,4,3,-4
1537905342412328,-11,-29,14,-8,-33,-11,-4,-8
1537905342412328,3,-30,-62,-13,18,10,3,2
1537905342419310,-9,18,-20,-58,-61,-20,-7,-5
1537905342419310,-9,-2,63,21,35,11,1,-11
1537905342442248,0,16,-4,-1,-12,-3,2,-3
1537905342442248,3,28,-22,-44,-69,-22,-12,2
1537905342444243,-7,-31,33,77,91,30,10,-1
1537905342444243,-8,-6,-87,-48,-64,-20,-9,-5
1537905342449230,-5,4,33,9,17,-4,-5,-5
1537905342449230,-5,-12,-30,46,-1,3,5,-3
1537905342458206,2,-4,-59,-46,-53,-20,-8,-1
1537905342458206,0,-22,74,58,68,26,12,4
1537905342471171,6,11,12,-53,-26,-8,-4,1
1537905342471171,-1,-12,17,16,34,10,0,1
1537905342480147,-3,32,86,-9,29,14,6,-1
1537905342480147,-4,19,-18,-91,-47,-21,-6,-6
1537905342503086,-2,-6,-99,-24,-16,1,-2,2
1537905342503086,-6,-14,40,101,75,14,5,-1
1537905342504083,0,13,-37,-55,-108,-40,-14,-2
1537905342504083,5,-43,46,54,49,18,6,6
1537905342518046,-1,-26,-8,45,26,6,2,2
1537905342518046,5,-20,31,1,-8,-5,-1,2
1537905342519044,-10,-22,102,50,59,14,2,-10
1537905342519044,-4,-96,-127,-63,-32,-11,-1,-5
1537905342531011,12,-69,-46,-20,-36,-6,-2,11
1537905342531011,-5,-57,23,0,9,2,0,-3
1537905342539988,1,-13,7,7,9,3,1,2
1537905342539988,0,43,36,42,20,3,-1,-1
1537905342554948,-5,41,-6,35,33,10,5,-3
1537905342554948,-2,63,10,-54,-31,-12,-2,-4
1537905342561930,4,23,-37,-10,21,8,2,2
1537905342561930,-1,41,-15,-2,-29,-6,-3,2
1537905342584869,-1,20,7,7,18,5,3,-1
1537905342584869,0,18,26,-1,-17,-5,-3,0
1537905342586864,1,0,-22,-9,13,3,-1,2
1537905342586864,1,4,-14,12,4,0,-1,3
1537905342591852,-1,8,29,-17,-13,-1,0,-2
1537905342591852,-2,-5,15,-8,-3,-2,-2,-2
1537905342600826,0,-24,-42,3,5,3,0,0
1537905342600826,2,-1,7,-7,-11,-3,-2,0
1537905342614789,-4,-24,19,12,12,4,0,-1
1537905342614789,0,-13,-2,-16,-5,-3,-2,0
1537905342621771,0,-17,-21,10,7,3,1,-1
1537905342621771,-4,2,10,3,-8,-3,-2,-3
1537905342628751,5,19,12,13,13,1,0,3
1537905342628751,3,14,-3,-7,1,3,0,7
1537905342637739,3,16,-7,5,-5,-3,-2,2
1537905342637739,5,24,8,7,0,-1,-5,-4
1537905342651689,-9,11,-2,-1,6,2,0,-2
1537905342651689,3,2,3,-9,-3,-2,0,0
1537905342660665,3,9,-5,2,-1,-2,-2,1
1537905342660665,-8,3,-3,-2,1,2,1,2
1537905342674628,0,4,1,-2,-1,-2,1,5
1537905342674628,13,15,8,-2,-4,-3,-8,-8
1537905342688590,-8,-11,-6,5,5,3,-1,-6
1537905342688590,-12,-7,-2,0,1,-1,-1,0
1537905342697566,-3,5,6,7,-2,-4,-3,-5
1537905342697566,-1,-6,1,-1,1,2,3,-2
1537905342699562,4,-3,-11,0,-1,-1,1,6
1537905342699562,3,6,0,-5,-6,-1,0,5
1537905342712527,3,0,1,-1,-3,-2,1,5
1537905342712527,2,6,-1,0,0,-1,0,3
1537905342727487,-4,-4,-9,-4,-3,-2,-2,-5
1537905342727487,4,8,6,5,-3,-3,1,4
1537905342734468,-2,-4,0,7,10,4,-1,-8
1537905342734468,-1,5,-1,-10,-8,-3,0,2
1537905342741450,0,-3,2,11,3,-2,-2,1
1537905342741450,0,1,0,-2,1,2,-1,-2
1537905342757407,3,-4,-3,-6,1,0,2,1
1537905342757407,-7,-2,1,-7,-8,-5,-2,-2
1537905342759402,-2,4,2,-1,1,-2,-1,-2
1537905342759402,10,6,0,12,4,-3,-1,3
1537905342771369,-2,1,0,-5,-4,-3,-6,-3
1537905342771369,-3,0,-4,-3,1,0,0,0
1537905342780346,2,4,0,2,-1,-1,-1,0
1537905342780346,5,6,-3,-9,-3,2,-2,1
1537905342794308,-8,-3,2,-4,-4,-5,-2,-4
1537905342794308,-2,3,4,13,7,1,1,0
1537905342801289,0,5,-5,-5,-5,0,0,-2
1537905342801289,-3,1,-3,-3,-3,-4,-5,-4
1537905342818244,-4,6,3,0,2,3,0,-1
1537905342818244,9,6,-2,-8,-3,-2,-1,2
1537905342819241,3,2,-2,6,5,1,2,3
1537905342819241,0,-1,0,4,-1,-1,-2,-1
1537905342831210,0,0,0,-2,0,-1,1,-1
1537905342831210,-7,-2,-2,-3,-2,-2,-3,-4
1537905342840185,1,-5,-2,-1,-7,-3,-1,1
1537905342840185,-2,-7,0,-2,-1,0,1,1
1537905342863123,5,-6,0,1,1,2,0,1
1537905342863123,0,-5,-2,-5,-4,-2,0,0
1537905342864121,2,-5,-1,-4,-2,-1,-1,-2
1537905342864121,-3,-2,2,-3,-2,-3,-1,-2
1537905342878083,1,-7,-2,3,5,2,-2,1
1537905342878083,-3,-5,2,0,-5,0,-1,-2
1537905342879081,1,-2,-3,-4,-2,-5,-1,-1
1537905342879081,-2,0,-2,-2,-4,-3,-1,-2
1537905342891048,-1,-6,0,-2,-1,-2,-1,-1
1537905342891048,-5,-3,1,4,5,2,3,-1
1537905342900025,2,4,-1,-4,-3,-2,-1,2
1537905342900025,-1,-9,-1,-2,0,-1,-1,-1
1537905342914985,1,1,1,1,3,3,2,1
1537905342914985,-4,-7,-1,5,3,-1,-3,-1
1537905342920969,0,-4,-4,-5,-9,-3,-3,0
1537905342920969,1,3,-1,-3,-3,-2,0,0
1537905342937924,2,7,0,-1,1,0,-1,1
1537905342937924,-1,8,-1,-2,3,0,-2,-3
1537905342938921,-3,4,1,5,4,3,1,-3
1537905342938921,4,10,-2,-6,-7,-3,-1,4
1537905342951887,2,1,-2,1,-2,-1,-2,2
1537905342951887,-3,-3,-1,1,-3,-1,1,-1
1537905342958869,1,3,-1,0,3,1,-1,2
1537905342958869,-8,-1,1,2,1,0,-1,-8
1537905342974827,-2,-2,1,2,3,1,0,-2
1537905342974827,0,2,-1,-5,-7,-7,-3,-2
1537905342981807,0,-2,0,1,1,0,0,1
1537905342981807,1,0,-3,-1,0,-1,-1,1
1537905342998761,2,5,1,1,-2,-2,0,1
1537905342998761,-2,2,1,-3,2,3,-1,-2
1537905342999758,0,2,2,13,11,1,1,-1
1537905342999758,-7,-8,-5,-7,-5,-3,-1,-5
1537905343011726,-1,4,-2,-27,-6,0,1,-1
1537905343011726,0,-2,-10,5,-11,-2,-2,0
1537905343018707,-1,1,-3,-28,18,7,2,-2
1537905343018707,3,29,81,88,1,-3,1,0
1537905343034665,3,-10,-61,-11,-22,-8,-5,-2
1537905343034665,-1,-25,-6,-23,40,16,8,7
1537905343041647,-1,1,16,-7,-42,-18,-9,-3
1537905343041647,-6,16,34,7,114,46,19,-5
1537905343057603,2,6,-40,-68,-103,-63,-26,-2
1537905343057603,1,-10,5,43,104,30,12,5
1537905343059599,1,16,-11,-55,-95,-38,-15,1
1537905343059599,2,-7,18,4,51,20,2,1
1537905343071566,6,34,11,-57,-46,-7,1,2
1537905343071566,1,10,-18,9,-43,-20,-11,-1
1537905343080543,-5,-3,36,127,127,43,17,0
1537905343080543,-1,16,-40,-67,-84,-35,-15,-4
1537905343094505,-10,-9,68,127,127,50,17,-4
1537905343094505,5,16,-6,-115,-7,1,5,6
1537905343101486,-5,0,-31,-90,-83,-39,-16,-9
1537905343101486,-1,-20,-10,19,18,5,1,0
1537905343117444,-3,-10,-6,65,14,5,5,-1
1537905343117444,1,1,2,33,1,1,-3,-3
1537905343119439,2,7,-1,21,20,11,5,5
1537905343119439,2,-18,-29,-44,-28,-14,-4,2
1537905343131406,-2,-16,4,-29,11,2,0,-1
1537905343131406,-3,-8,23,17,-14,-4,-2,-4
1537905343140382,3,-46,-14,-43,28,7,5,2
1537905343140382,0,-45,-27,-45,-42,-16,-6,0
1537905343154345,0,-44,14,96,80,25,7,0
1537905343154345,-7,-29,-8,-108,-128,-45,-16,-9
1537905343161326,-1,-22,-1,15,21,9,3,-1
1537905343161326,0,19,-11,29,15,2,2,1
1537905343177283,-2,17,-2,-7,-16,-8,-2,-4
1537905343177283,-2,25,7,15,32,11,4,-2
1537905343179278,2,17,-2,8,-2,-4,-1,2
1537905343179278,1,17,-4,-6,-24,-7,-1,2
1537905343191246,-1,33,6,-23,-7,1,-1,-1
1537905343191246,0,21,-6,29,0,-4,-1,0
1537905343200222,-2,14,3,-2,-1,5,1,-1
1537905343200222,3,12,-3,1,0,-3,-1,3
1537905343222163,0,10,-3,-31,-11,-4,-4,0
1537905343222163,-1,1,2,24,17,4,1,0
1537905343229145,-1,4,-5,9,-7,-6,-2,-1
1537905343229145,0,1,-3,-4,4,2,0,1
1537905343245102,1,-5,0,-10,-3,-2,-1,2
1537905343245102,-1,0,3,14,-2,-4,-2,0
1537905343247097,-2,0,4,13,9,4,0,-2
1537905343247097,0,-10,-6,5,-6,-4,-1,-1
1537905343259065,-1,-6,0,-14,-8,-2,-1,1
1537905343259065,1,-5,-2,12,3,0,0,1
1537905343275023,-5,-3,-1,-1,4,3,0,-6
1537905343275023,-2,-9,-3,4,5,5,4,0
1537905343282004,-2,-1,-3,-15,-11,-7,-2,1
1537905343282004,-1,1,1,5,3,-3,-10,-2
1537905343288985,-1,2,0,1,-2,-4,-5,-2
1537905343288985,-7,-4,-2,-1,-5,-4,-4,-5
1537905343304942,3,2,1,-5,-1,3,4,2
1537905343304942,0,1,-1,6,1,1,4,1
1537905343306937,0,8,2,-3,-3,1,3,1
1537905343306937,0,1,0,7,4,1,11,-3
1537905343318905,-1,3,-4,-12,-4,34,-3,-1
1537905343318905,1,-2,3,11,11,16,23,7
1537905343327882,-2,-3,-3,-6,-12,-45,-2,-6
1537905343327882,3,-2,-5,-11,-6,-2,-11,3
1537905343341844,0,-2,2,4,4,6,5,-3
1537905343341844,-5,-5,-2,-1,-3,-7,-12,-3
1537905343348825,-1,-2,0,6,8,15,12,2
1537905343348825,-4,-4,-1,1,-7,-13,-8,-6
1537905343364783,1,-2,-1,-7,-6,-3,-3,0
1537905343364783,0,-3,-1,1,2,6,-1,-1
1537905343366778,1,-3,-3,1,4,2,-1,2
1537905343366778,-3,-3,-1,13,5,-5,-4,-4
1537905343387722,1,0,-3,-4,-6,-5,-11,1
1537905343387722,-2,-3,-2,-3,-3,-6,9,1
1537905343388720,0,-6,1,8,4,2,0,0
1537905343388720,3,4,0,3,2,13,-9,-5
1537905343401684,-1,-2,-5,-12,-16,-17,-5,-6
1537905343401684,-3,4,2,14,-2,-11,-5,-3
1537905343416645,-1,3,-1,-2,-3,9,2,1
1537905343416645,-1,-1,3,-1,8,6,10,3
1537905343425621,0,1,-1,-1,-2,-14,-4,-1
1537905343425621,2,4,-2,-5,-4,-3,-7,-3
1537905343426619,0,1,1,1,1,10,-2,-1
1537905343426619,0,1,-1,-1,-4,-4,1,1
1537905343455540,-5,2,1,4,4,-9,-1,-1
1537905343455540,0,3,-1,-5,-1,6,-2,-3
1537905343456538,0,3,-1,-2,-3,3,-3,-1
1537905343456538,2,6,-4,-8,-4,-6,1,3
1537905343462522,-3,-3,-1,1,1,2,0,-2
1537905343462522,-2,2,-1,1,0,-2,-3,-2
1537905343468506,-1,1,-1,-3,-2,-2,-5,-2
1537905343468506,2,-5,-1,3,0,-2,-4,2
1537905343485460,1,-11,-1,-2,-1,-2,2,-3
1537905343485460,-1,-12,-1,-2,-4,-2,-4,-3
1537905343486458,-3,-9,0,-4,-1,-2,-4,-1
1537905343486458,-2,-6,-1,1,-1,4,1,1
1537905343507402,-1,-6,0,4,3,-1,4,-1
1537905343507402,1,0,-1,-5,-4,-7,-3,-3
1537905343509397,-1,-9,-2,-2,-1,2,0,-1
1537905343509397,-2,-8,-1,-4,-3,-2,1,-1
1537905343521365,-1,-6,1,-1,-1,-2,-1,1
1537905343521365,0,-13,-2,1,1,-1,-2,-2
1537905343530342,0,-2,0,1,1,2,-2,-3
1537905343530342,-1,1,-1,-4,-6,-2,1,-1
1537905343545300,1,4,1,-1,2,-2,-1,-2
1537905343545300,-1,7,0,0,2,2,0,1
1537905343546298,-1,5,0,0,3,0,2,1
1537905343546298,2,7,-2,-7,-5,-3,0,2
1537905343568240,0,1,2,3,-3,-2,-2,0
1537905343568240,0,-3,-1,2,2,1,0,-2
1537905343569238,-1,1,-5,-16,-7,-4,-4,-3
1537905343569238,1,4,-1,-11,16,6,3,-2
1537905343581205,-1,-1,3,18,-23,-12,-4,-3
1537905343581205,-4,3,1,-7,28,10,3,0
1537905343590181,6,24,11,14,-28,-10,-1,2
1537905343590181,-5,-33,-15,-20,29,13,3,-5
1537905343605141,-6,24,-13,-41,-55,-20,-9,-3
1537905343605141,2,14,6,-1,-33,-9,-4,-4
1537905343607136,-8,-41,-16,-44,36,15,4,-2
1537905343607136,-4,10,-18,-9,-85,-36,-18,-7
1537905343628079,5,-5,-16,-29,-16,-4,-2,6
1537905343628079,-5,10,18,32,18,3,-1,-4
1537905343629078,0,16,-1,61,31,10,3,0
1537905343629078,8,10,5,-12,31,9,9,8
1537905343641045,-2,-2,2,17,18,5,2,-2
1537905343641045,-2,2,-5,-30,-13,-7,-5,1
1537905343650021,-1,-3,19,58,44,16,2,0
1537905343650021,-5,0,-18,-71,-48,-12,-6,-5
1537905343664982,-1,11,11,22,16,4,4,0
1537905343664982,1,8,-8,19,6,2,1,1
1537905343666977,1,-1,4,-17,3,1,-1,0
1537905343666977,3,1,11,43,4,2,0,1
1537905343687919,1,-9,0,-18,20,7,2,-1
1537905343687919,-4,-23,-10,-22,-16,-6,-3,-3
1537905343688916,0,-9,-7,-12,-23,-10,-2,-1
1537905343688916,-3,-9,7,7,12,2,-1,-3
1537905343701881,1,-16,-1,6,-2,-1,0,0
1537905343701881,0,-10,1,18,19,6,4,-1
1537905343709861,-1,-17,-4,-16,-25,-9,-5,-3
1537905343709861,-2,-26,2,18,6,2,1,0
1537905343724820,-3,-40,5,13,22,6,3,-4
1537905343724820,1,1,-2,1,-6,-4,-1,-1
1537905343726816,1,17,-5,-19,-14,-7,-4,-1
1537905343726816,-1,11,2,11,9,6,1,-2
1537905343747759,-1,12,-3,-5,-2,0,-1,-2
1537905343747759,-1,4,-3,-5,0,-2,-1,0
1537905343748756,-2,16,-4,-2,-14,-6,-1,-2
1537905343748756,0,22,5,18,16,5,2,2
1537905343761722,-2,17,2,-2,3,0,-2,1
1537905343761722,1,5,-4,-5,-4,-1,0,2
1537905343770698,1,5,-1,-3,-4,-1,1,1
1537905343770698,-1,-1,0,5,-4,-2,-4,-1
1537905343785658,2,4,0,-4,6,4,1,1
1537905343785658,-1,-4,-3,-6,2,7,2,3
1537905343786656,-1,-9,-1,3,11,79,3,1
1537905343786656,1,1,9,11,-1,-47,4,6
1537905343807599,3,5,-6,-14,-23,-7,-3,0
1537905343807599,2,-4,0,5,6,18,-5,1
1537905343809595,0,-6,-4,-12,-8,39,8,2
1537905343809595,1,1,-3,1,-9,-60,-26,-5
1537905343837520,-5,-3,2,6,14,36,14,-3
1537905343837520,2,6,-3,-1,-10,-51,-10,-1
1537905343839515,-1,1,-3,-5,2,13,11,1
1537905343839515,-2,5,0,-1,0,30,4,-2
1537905343845499,-1,6,-1,3,4,-20,-1,4
1537905343845499,-3,-2,-1,-2,0,29,3,-4
1537905343846496,0,-1,-1,0,-5,-33,-6,-1
1537905343846496,-2,-4,0,1,1,9,3,1
1537905343867440,1,-3,-3,-1,-6,-16,-11,-2
1537905343867440,-2,-7,0,2,2,14,8,1
1537905343869435,0,-5,-1,-7,-11,-32,-8,0
1537905343869435,0,-2,-2,2,-1,1,-1,0
1537905343890378,-1,-4,0,2,2,19,5,-1
1537905343890378,-1,-2,1,0,3,-5,-3,-2
1537905343891376,-3,1,0,3,-3,-26,-6,-4
1537905343891376,0,-1,-3,-9,-2,24,2,-2
1537905343905338,-3,0,-1,0,0,-2,-3,-1
1537905343905338,0,0,0,-1,-4,-6,-2,0
1537905343906336,-2,-1,-2,2,-2,-12,-7,-5
1537905343906336,0,-2,0,0,3,17,4,1
1537905343927280,-1,-1,0,6,7,-1,-1,-1
1537905343927280,-1,-3,-3,-5,-1,-7,0,-1
1537905343929274,0,-5,0,2,-4,-1,0,-3
1537905343929274,-2,-2,1,-1,1,5,-1,-2
1537905343941242,0,-1,-2,6,3,-8,-2,0
1537905343941242,-1,-2,0,-5,-3,7,1,-1
1537905343950218,-4,0,-1,0,1,-5,-2,2
1537905343950218,-2,1,0,1,6,5,4,-3
1537905343965177,-1,-2,0,-6,-7,-4,-10,-6
1537905343965177,-1,1,0,3,0,2,0,-2
1537905343966175,0,3,-3,-2,-5,-9,-1,1
1537905343966175,0,6,0,-1,-3,1,1,0
1537905343988116,-1,0,-2,2,-1,5,0,0
1537905343988116,-2,3,-1,1,-1,-2,0,-2
1537905343989114,1,-2,1,2,4,-4,0,0
1537905343989114,0,-7,0,3,2,6,-1,-3
1537905344001081,0,1,-1,-4,0,-3,0,0
1537905344001081,-1,-3,-3,1,-2,-2,0,0
1537905344010058,0,-3,-2,-6,-3,-6,0,-2
1537905344010058,1,-6,0,1,4,6,1,-1
1537905344025017,0,-3,0,0,2,1,2,-1
1537905344025017,1,0,0,-2,-6,-7,-1,0
1537905344027012,-2,-2,1,3,5,3,0,-2
1537905344027012,0,3,-2,-8,-7,-6,-2,1
1537905344046959,-4,-6,0,1,-3,-4,-3,-2
1537905344046959,0,0,-1,-3,0,2,0,-1
1537905344047956,-1,1,-2,-2,1,-6,-2,-2
1537905344047956,-3,-1,1,0,-4,-1,-1,-2
1537905344069897,2,1,0,-3,1,2,2,1
1537905344069897,-1,-2,0,1,2,1,-1,0
1537905344069897,-4,-2,1,3,1,-2,-2,-5
1537905344069897,-2,1,-2,2,0,1,1,-1
1537905344084858,-1,-1,-2,-1,-1,-1,0,1
1537905344084858,-4,-1,2,2,3,2,0,-2
1537905344084858,5,3,-2,-4,-6,-1,0,6
1537905344084858,-2,-2,1,2,1,1,-1,-2
1537905344106799,-2,-2,-1,0,2,1,0,-3
1537905344106799,2,-2,-5,-7,-9,-6,-3,0
1537905344107796,-2,-3,-1,-1,1,0,-1,-3
1537905344107796,1,-2,-3,0,-1,2,0,-1
1537905344129738,2,2,1,2,0,-1,0,2
1537905344129738,-1,0,-2,-6,-6,-3,-1,-2
1537905344129738,1,-2,-3,-2,1,-1,-1,-1
1537905344129738,-3,0,-1,-2,-1,-2,-2,-1
1537905344144698,-2,0,1,0,3,1,1,-3
1537905344144698,1,0,-1,-5,-3,-5,-2,-1
1537905344144698,0,-2,-2,2,-2,-2,0,-3
1537905344144698,1,-1,-1,-4,-1,1,0,0
1537905344167636,0,-3,-1,-1,-3,-2,-2,-2
1537905344167636,0,-2,0,-2,0,0,2,1
1537905344168634,-3,-6,3,3,3,2,0,-3
1537905344168634,0,2,-2,-4,-3,-3,-3,0
1537905344190575,-3,-1,0,0,-2,0,-3,1
1537905344190575,1,2,0,1,1,-1,-1,-2
1537905344190575,-1,0,1,0,2,1,-2,1
1537905344190575,-1,0,0,0,2,1,1,-1
1537905344204537,-3,-1,-2,-1,3,-1,0,-2
1537905344204537,-4,-2,0,4,0,1,0,-2
1537905344205535,0,1,-2,-6,-7,-4,-2,-1
1537905344205535,-1,-3,-3,-1,-2,-1,-2,-2
1537905344235455,0,0,-2,-4,0,0,-1,0
1537905344235455,1,-1,0,5,7,5,2,1
1537905344235455,0,-1,-2,1,0,-1,-2,-2
1537905344235455,-3,1,0,-3,-7,-3,-1,-1
1537905344250415,1,1,-1,-6,-5,-3,-3,-2
1537905344250415,-1,-4,-1,4,4,1,-1,-1
1537905344250415,-1,-1,-4,-4,-6,-3,0,-1
1537905344250415,-1,-2,1,3,5,2,-1,-2
1537905344264378,1,2,-1,-4,-2,-2,0,2
1537905344264378,-2,-2,4,5,8,3,-1,-2
1537905344265375,-1,-2,-14,-27,-24,-9,-4,-2
1537905344265375,-3,-4,1,11,8,2,0,-2
1537905344287316,0,-2,-2,-16,9,6,3,0
1537905344287316,3,6,6,10,2,-1,-4,-1
1537905344287316,-4,-3,-3,39,7,3,-2,-5
1537905344287316,-4,-15,-24,-38,-56,-22,-9,-3
1537905344309258,-1,-21,15,12,23,12,4,2
1537905344309258,-5,-7,-21,-56,-44,-15,-6,-7
1537905344310255,0,-1,10,20,31,12,7,0
1537905344310255,11,32,3,-47,-2,1,3,7
1537905344324218,-8,-38,33,2,-25,-15,-10,-6
1537905344324218,4,12,-13,-24,9,2,-2,3
1537905344325216,5,-1,-45,15,13,4,2,10
1537905344325216,-3,3,14,0,4,3,-1,-1
1537905344347157,4,17,15,52,67,26,11,3
1537905344347157,-1,8,11,-43,-6,-7,0,-3
1537905344348154,-7,-2,1,-57,-34,-14,-8,-10
1537905344348154,1,9,3,106,32,8,3,1
1537905344369098,-6,5,-16,-63,-46,-15,-7,-6
1537905344369098,-3,-10,4,22,10,6,0,0
1537905344370095,0,1,-2,17,29,7,2,1
1537905344370095,-2,-17,-2,-12,-6,-8,-3,0
1537905344394031,1,1,-4,25,7,-1,-1,-1
1537905344394031,-2,-8,-7,9,8,3,3,0
1537905344395028,0,-3,8,-6,-10,-3,-2,-1
1537905344395028,-4,-15,3,7,7,3,0,-5
1537905344406996,0,0,-16,-19,-12,-5,-2,-1
1537905344406996,-5,-12,-4,11,-6,-2,-2,-1
1537905344407994,-3,-16,14,-1,-10,-3,-2,-2
1537905344407994,-3,-29,1,-9,4,1,1,-3
1537905344429935,-1,-27,-15,-7,-13,-3,0,-2
1537905344429935,-2,-19,4,13,-2,-1,-2,-3
1537905344429935,-1,11,10,7,4,3,1,-2
1537905344429935,-2,1,-4,-9,5,3,-1,-3
1537905344452874,2,18,-10,-7,-15,-9,-3,1
1537905344452874,-3,3,5,16,2,-1,-1,-1
1537905344452874,-3,20,3,-11,-6,-2,0,-3
1537905344452874,-1,21,-5,-5,-1,1,-1,-1
1537905344466836,0,13,-1,8,-1,1,-1,-1
1537905344466836,-1,6,0,5,2,1,0,-1
1537905344467834,0,0,0,-5,-4,-2,0,2
1537905344467834,-4,-5,2,-2,0,-1,1,-3
1537905344489775,-1,5,-3,1,-1,1,-1,1
1537905344489775,1,3,-4,-1,-3,-2,-3,0
1537905344489775,-1,-9,2,-5,-4,0,-2,1
1537905344489775,-3,-2,3,3,5,2,2,2
1537905344504735,-2,3,-4,-5,1,1,1,1
1537905344504735,-1,0,1,2,5,0,3,3
1537905344504735,0,-5,2,1,0,-1,-2,-2
1537905344504735,3,1,0,-5,1,-2,-2,2
1537905344526677,3,3,-3,2,1,1,0,3
1537905344526677,3,-1,-2,-3,-6,-1,0,4
1537905344527674,-1,-3,2,5,3,0,1,1
1537905344527674,0,3,-3,-6,-2,1,0,0
1537905344549616,1,7,2,7,0,-3,0,1
1537905344549616,2,1,3,-3,6,5,2,1
1537905344550614,5,9,-4,-15,-11,-3,-1,4
1537905344550614,3,10,-3,-9,-12,-6,-4,1
1537905344564577,2,8,-5,-11,-10,-2,-2,-1
1537905344564577,0,3,0,0,0,-1,-3,-1
1537905344565575,4,9,1,4,1,-2,-3,1
1537905344565575,4,5,0,2,4,2,-1,1
1537905344586518,3,3,-1,-4,0,-1,-3,2
1537905344586518,-2,-1,-2,5,-1,-2,-1,-2
1537905344594497,1,1,0,1,0,-2,-2,1
1537905344594497,-2,2,-2,-2,-4,0,-2,-4
1537905344609457,-2,2,0,6,4,-1,-2,-2
1537905344609457,2,-2,0,0,-3,-1,-1,-1
1537905344610455,0,-4,0,-2,1,0,-2,-1
1537905344610455,0,-3,-2,-6,1,1,-3,0
1537905344624416,0,5,0,1,-5,-3,-2,-1
1537905344624416,-2,-6,-3,0,-2,0,0,-3
1537905344632395,-3,-7,-1,3,-3,1,-1,-3
1537905344632395,1,3,-3,-4,-5,-4,-1,3
1537905344647355,-3,-1,1,11,2,0,-1,-3
1537905344647355,-2,-2,1,12,6,-2,-2,-3
1537905344647355,1,-3,-1,-13,-5,0,-2,0
1537905344647355,1,-4,-2,-6,0,0,1,-1
1537905344669296,-1,-4,1,-2,0,-1,-1,-1
1537905344669296,-1,-1,-2,3,3,-1,1,-2
1537905344670294,-4,-7,2,2,1,-2,0,-2
1537905344670294,-5,-4,2,5,0,-1,-1,-3
1537905344684256,-1,0,-3,-9,-5,-3,-1,0
1537905344684256,-1,1,1,1,-1,0,-2,-3
1537905344685254,0,-3,-3,4,2,0,0,-2
1537905344685254,-3,-4,1,2,0,1,0,-5
1537905344707195,1,4,-1,-2,-1,-2,-1,-1
1537905344707195,1,2,-2,-4,-7,-4,-2,1
1537905344708192,-2,-3,0,0,2,1,0,0
1537905344708192,0,1,-2,-4,-2,-3,-1,0
1537905344730133,-3,-10,-2,-4,-6,-2,-1,-1
1537905344730133,1,2,0,0,-1,-2,-1,1
1537905344731130,-1,-1,-1,-6,-3,-3,0,-2
1537905344731130,-1,-2,-2,3,-1,-1,-1,0
1537905344744096,0,-5,-1,-3,3,1,0,-1
1537905344744096,0,0,-1,-11,-11,-2,-2,0
1537905344745093,-2,4,-1,-4,-1,-3,0,2
1537905344745093,-2,-3,-1,0,-1,0,0,-1
1537905344767034,-2,0,-2,1,1,0,-1,-1
1537905344767034,-3,1,-1,0,4,2,-1,0
1537905344768032,0,3,1,4,0,0,-1,-3
1537905344768032,2,0,1,-2,-3,-1,-1,0
1537905344788976,-2,-8,-2,-4,-2,-1,-1,-2
1537905344788976,-2,0,1,1,-1,2,-1,-3
1537905344789973,-2,2,-2,-3,-2,-1,-2,0
1537905344789973,-3,-1,0,7,4,2,-1,-1
1537905344805931,-1,3,-2,-5,-10,-3,-2,0
1537905344805931,0,-3,0,0,2,0,-1,-1
1537905344806928,1,6,0,-3,-3,-1,-1,-1
1537905344806928,0,1,-1,0,1,2,-2,-2
1537905344826875,1,1,3,1,2,2,1,-1
1537905344826875,0,4,0,3,7,3,2,1
1537905344827872,-2,0,4,-13,9,0,1,-2
1537905344827872,0,-4,-6,-20,3,-1,0,-1
1537905344849814,-1,-2,-2,19,-35,-12,-6,-1
1537905344849814,0,7,2,32,3,3,-1,1
1537905344850811,-3,3,12,2,42,11,3,-3
1537905344850811,1,9,-11,-47,-70,-20,-7,-2
1537905344872752,-1,-13,-11,36,18,0,-1,-4
1537905344872752,-5,-5,-10,-96,-2,4,2,0
1537905344873750,-1,5,-8,28,-32,-14,-8,2
1537905344873750,-2,2,3,32,7,-3,-3,-5
1537905344886716,4,4,-2,-37,-25,-7,-3,2
1537905344886716,-2,-2,-11,25,-9,-9,-4,-1
1537905344887713,1,-4,-5,42,87,27,11,5
1537905344887713,-3,5,44,25,-31,-7,-3,1
1537905344910651,-3,11,-30,-35,-31,-9,-4,-2
1537905344910651,0,8,26,-21,7,3,2,-1
1537905344910651,-2,3,-6,-28,-11,-1,-2,-1
1537905344910651,-1,3,-6,27,19,3,2,-1
1537905344923616,-2,-1,9,1,14,7,3,2
1537905344923616,-2,-3,-1,30,11,2,-1,-1
1537905344931594,-1,-8,-4,-13,-25,-8,-2,-3
1537905344931594,-2,-9,-9,-24,10,4,-1,-1
1537905344946554,-1,-7,5,-24,7,3,0,-1
1537905344946554,0,-11,-7,10,4,1,0,0
1537905344947552,0,-11,5,4,-25,-8,-3,-2
1537905344947552,2,-20,-8,-13,9,2,2,0
1537905344970491,1,-31,7,28,24,5,1,-1
1537905344970491,0,-32,0,17,-10,-5,-2,-4
1537905344970491,-1,-35,0,-5,-14,-6,-1,-4
1537905344970491,1,-4,-4,0,8,2,1,-2
1537905344983456,-1,22,1,1,3,1,0,-1
1537905344983456,0,31,-3,-7,-5,-4,-2,-1
1537905344992433,-2,20,-3,-12,-11,-1,-1,-1
1537905344992433,-2,8,-4,5,12,2,1,-1
1537905345015371,-3,11,8,7,2,-1,-1,-2
1537905345015371,-2,7,-1,-3,-3,1,-4,-1
1537905345016368,1,7,-3,5,-2,-3,-1,0
1537905345016368,0,5,1,9,7,1,-1,1
1537905345030331,1,3,0,1,3,3,0,2
1537905345030331,1,4,-1,1,0,-2,-1,-1
1537905345031328,-1,-1,-4,-1,-6,-4,-2,-1
1537905345031328,-1,-4,-4,-5,-1,-1,-1,0
1537905345044293,-2,-2,1,-5,3,2,0,-1
1537905345044293,0,0,0,4,2,0,1,1
1537905345052272,-3,1,0,4,-3,-4,-1,-2
1537905345052272,-2,-5,-2,-2,5,2,2,0
1537905345067232,2,0,0,3,4,-2,2,0
1537905345067232,-3,-4,2,6,0,1,-2,-2
1537905345067232,4,2,-4,-8,-7,-2,-2,2
1537905345067232,-2,-1,-1,0,5,0,1,1
1537905345090170,-5,-4,1,15,5,2,-2,-5
1537905345090170,4,3,-5,-11,-9,-7,-2,6
1537905345091168,1,4,-1,-3,-3,1,-1,1
1537905345091168,0,-2,-1,7,2,-1,0,-2
1537905345104133,0,2,0,-3,1,0,1,0
1537905345104133,-1,-2,-2,16,7,-1,-1,-2
1537905345112112,-4,-6,-6,-24,-27,-9,-3,-4
1537905345112112,-2,0,-2,-5,-5,-2,-1,-1
1537905345127072,-1,-3,-1,-1,0,-2,-1,0
1537905345127072,-1,-1,-1,-6,1,1,0,-1
1537905345128069,1,4,1,9,5,3,1,3
1537905345128069,-1,1,-4,-10,6,3,-3,-2
1537905345150010,-1,0,-1,2,-10,-5,-2,1
1537905345150010,-2,0,-1,5,-5,-2,-1,0
1537905345151008,-3,-3,1,1,-2,-4,-2,-3
1537905345151008,-2,-1,-1,3,-2,-1,-1,-2
1537905345163973,1,-1,-2,-4,0,-1,-1,0
1537905345163973,1,-1,-1,-2,1,-1,1,2
1537905345171951,-1,-3,3,2,3,1,0,-2
1537905345171951,3,-3,-1,4,3,0,-1,1
1537905345186911,-2,-3,-1,-5,3,1,-1,0
1537905345186911,-1,0,-3,3,-9,-4,-1,1
1537905345187909,0,-1,-1,0,5,4,0,-2
1537905345187909,-3,-5,-2,-3,-6,-3,-1,-1
1537905345217829,1,1,-1,0,3,0,0,1
1537905345217829,1,2,0,-8,-8,-4,-1,-2
1537905345218826,-1,-3,1,5,6,1,1,-1
1537905345218826,2,0,0,-1,-4,-1,-1,0
1537905345232789,-4,-5,0,1,-1,1,-2,-1
1537905345232789,-2,-4,-4,-14,-6,0,-2,-2
1537905345233786,-1,-2,-1,4,-2,-2,-2,-2
1537905345233786,3,2,-1,-5,-6,-2,0,2
1537905345246751,-2,-6,0,2,4,2,0,-2
1537905345246751,-2,-3,0,3,2,3,1,-2
1537905345247749,0,2,-1,-4,-2,-2,-2,2
1537905345247749,0,0,-2,-6,0,-2,-2,-1
1537905345277669,-1,1,0,1,1,-1,-1,-2
1537905345277669,0,1,-2,-1,0,-1,0,1
1537905345278667,0,-2,-3,-5,-4,-2,-2,-2
1537905345278667,0,-3,0,8,6,2,0,-2
1537905345292629,-1,0,1,-1,1,1,1,0
1537905345292629,3,3,-1,-4,-3,-2,-1,-1
1537905345293626,-1,-3,-1,0,-1,2,-1,2
1537905345293626,-1,1,-2,-4,-4,-3,-1,0
1537905345306592,0,2,-1,-2,-3,1,1,-4
1537905345306592,-1,0,1,2,2,-1,0,-1
1537905345307589,2,4,-2,2,-1,-2,0,-1
1537905345307589,-2,2,-2,2,-2,-3,-1,1
1537905345330527,0,2,-1,-7,-5,-2,-1,1
1537905345330527,-3,-3,-1,1,1,1,0,-3
1537905345330527,-2,0,-1,2,5,1,0,-2
1537905345330527,-3,-7,0,2,0,-1,0,-1
1537905345360448,-1,-3,-3,-4,-4,-4,-4,-2
1537905345360448,-2,-5,0,-1,0,0,-1,-3
1537905345360448,0,1,-1,-4,-3,-1,-2,-1
1537905345360448,0,1,1,1,2,3,2,0
1537905345367429,0,2,0,2,0,0,0,-2
1537905345367429,-1,1,-2,-1,0,-1,0,0
1537905345367429,0,0,-2,-1,-2,-1,-2,0
1537905345367429,-3,-2,0,0,2,1,1,-2
1537905345390367,0,-2,-2,-4,-2,-3,0,-1
1537905345390367,0,-1,-1,-1,-2,-4,-2,0
1537905345390367,-2,-2,1,0,0,0,0,-1
1537905345390367,1,0,-1,-1,-1,1,2,1
1537905345412309,0,3,2,-7,1,-1,0,2
1537905345412309,-5,-7,4,19,7,0,0,-3
1537905345413306,0,-1,-12,-34,4,-1,-1,-2
1537905345413306,1,-3,6,32,-6,-4,-3,-1
1537905345427269,-2,1,14,17,13,4,2,-2
1537905345427269,-3,6,3,29,0,-2,-3,-2
1537905345427269,3,-5,-7,-14,-7,-3,2,4
1537905345427269,-3,27,36,27,39,7,1,-5
1537905345450208,7,-7,-31,-18,3,0,1,8
1537905345450208,2,13,-21,-22,-52,-16,-7,-1
1537905345451205,5,-4,4,12,50,19,9,9
1537905345451205,1,-8,-13,-77,-43,-16,-8,-2
1537905345472149,-5,4,-9,-62,-70,-19,-8,-6
1537905345472149,-1,-13,20,0,108,43,14,5
1537905345473146,-6,-3,-18,107,-42,-17,-7,-6
1537905345473146,4,25,13,-93,-72,-27,-9,-1
1537905345495088,-1,11,15,-37,61,15,4,-1
1537905345495088,-5,2,-48,-33,-67,-23,-9,-4
1537905345496085,-4,7,-3,48,48,15,2,1
1537905345496085,-4,-4,21,43,-4,-2,0,0
1537905345510048,-3,9,-4,37,4,1,-2,-4
1537905345510048,0,4,44,67,12,5,0,-1
1537905345511045,0,2,-2,-113,-85,-24,-9,-2
1537905345511045,1,-18,-32,3,25,12,5,3
1537905345532986,0,-27,-2,-2,-26,-9,-1,0
1537905345532986,3,-41,1,-13,13,6,2,-1
1537905345532986,0,-55,10,25,28,7,4,-2
1537905345532986,1,-52,-2,57,6,1,0,-3
1537905345546949,0,-40,-2,48,17,3,2,1
1537905345546949,-3,-6,2,2,-9,-7,-3,-5
1537905345547947,-4,26,-1,-29,-9,-4,-3,-3
1537905345547947,0,34,-15,-7,-4,-1,-1,-1
1537905345569887,-2,31,15,22,22,10,3,-1
1537905345569887,0,23,-8,-17,-2,-3,0,1
1537905345571882,-1,23,6,1,-9,-6,-2,-2
1537905345571882,-5,13,-5,4,25,11,2,-1
1537905345592826,1,16,-1,12,-2,-3,0,-1
1537905345592826,1,5,1,-12,-11,-4,-1,1
1537905345598810,1,1,-1,-15,-1,0,0,-2
1537905345598810,-1,-4,1,15,17,4,0,0
1537905345605792,0,0,-5,-13,-12,-4,-3,0
1537905345605792,1,0,-4,-7,-11,-3,-3,2
1537905345614768,-1,0,9,10,15,4,1,0
1537905345614768,1,-2,-8,-6,0,0,0,0
1537905345629728,0,-4,1,4,-9,-6,-4,2
1537905345629728,-4,-1,-1,-4,2,-1,-1,-2
1537905345637707,-2,-1,3,5,8,4,1,0
1537905345637707,2,-3,-5,-6,0,-1,-2,4
1537905345652666,1,-1,-3,-8,-6,-2,-1,0
1537905345652666,-3,-2,4,8,13,4,2,1
1537905345653664,-5,-2,-3,-10,-8,-7,-5,-2
1537905345653664,0,-4,-4,-4,-5,-3,-2,-2
1537905345666629,-1,-3,3,7,5,5,2,0
1537905345666629,4,1,-4,-6,-3,-4,-1,2
1537905345675606,1,1,1,1,-1,1,-1,-1
1537905345675606,-2,-4,-1,1,6,1,0,-1
1537905345690565,-2,2,-1,2,-4,-2,-1,-4
1537905345690565,2,5,-3,-9,-5,-3,0,1
1537905345691564,-1,1,-1,-4,-2,-2,-1,-1
1537905345691564,-2,2,-3,6,6,1,-1,1
1537905345712506,-1,0,-2,0,-2,-1,-2,-2
1537905345712506,-1,-4,-2,-4,-6,-2,-1,-2
1537905345714501,2,1,2,-4,-1,0,1,0
1537905345714501,1,1,-2,1,10,7,5,1
1537905345726470,-2,-2,-3,3,-11,-6,-2,-2
1537905345726470,3,-1,1,2,4,0,0,1
1537905345735445,-4,-5,-4,0,-7,-3,-4,-5
1537905345735445,-1,1,2,-4,-1,1,0,0
1537905345750405,0,-2,0,-1,5,2,-1,-1
1537905345750405,-3,-5,0,3,-1,-1,0,-3
1537905345751403,3,2,1,-5,-2,-3,1,1
1537905345751403,2,-2,-3,-3,-7,-3,-2,-1
1537905345772347,0,-1,1,-2,2,2,-2,0
1537905345772347,-1,0,0,2,2,2,0,-1
1537905345774341,1,0,-2,2,1,-1,-1,0
1537905345774341,-3,-4,1,0,-5,-3,-2,-3
1537905345786309,-1,4,-3,0,5,1,0,3
1537905345786309,-2,2,-2,-3,-7,-6,-2,-2
1537905345795285,-3,-2,2,11,3,1,-2,-2
1537905345795285,-1,-1,-4,-6,-3,0,-1,1
1537905345810246,-1,0,0,-4,-3,-1,-1,1
1537905345810246,-2,0,1,2,4,4,1,0
1537905345811243,0,1,0,-1,1,-1,-2,1
1537905345811243,1,-1,-1,-1,2,-2,0,0
1537905345832187,-1,-4,0,3,-4,-4,-3,-3
1537905345832187,-3,-4,-3,1,1,1,-1,-4
1537905345834182,2,-1,-2,-5,0,1,0,1
1537905345834182,0,-1,0,1,-1,0,0,-3
1537905345846150,-1,-4,-1,0,2,2,-1,0
1537905345846150,-3,-3,-2,-2,-4,-2,0,-2
1537905345855126,-1,-1,-2,-5,-3,1,0,0
1537905345855126,1,0,0,1,2,0,-1,-1
1537905345870085,-2,-5,-1,1,0,-1,-1,-1
1537905345870085,1,0,-1,-3,-4,-3,0,0
1537905345871083,0,-3,-1,0,0,0,0,1
1537905345871083,0,-6,-1,-2,-2,-2,-1,1
1537905345893024,-2,-2,1,2,0,0,0,-1
1537905345893024,2,1,-2,-7,-4,-3,-3,1
1537905345894021,0,-2,0,0,0,-3,1,-1
1537905345894021,-1,-3,-1,5,2,0,-1,-3
1537905345914966,-4,-2,-1,-4,-5,-3,0,-4
1537905345914966,-2,-3,1,4,4,0,0,-3
1537905345916960,-1,1,-2,-2,-4,0,-1,-2
1537905345916960,0,3,-1,-4,-4,-2,-1,0
1537905345929925,4,2,-1,-1,-1,0,-1,2
1537905345929925,-2,-1,1,1,-1,1,0,-2
1537905345935909,0,4,0,0,-2,-1,1,-2
1537905345935909,-2,2,-2,2,1,1,0,-2
1537905345952864,-2,-1,-2,-4,-5,-3,-2,0
1537905345952864,0,2,0,-2,1,2,1,0
1537905345953861,0,0,1,2,3,0,-1,0
1537905345953861,-2,-2,-1,0,-4,-4,-3,-1
1537905345965829,0,-1,-3,-4,-4,0,-2,-2
1537905345965829,2,3,-1,-4,-5,-2,-1,2
1537905345981787,-1,-2,1,0,3,2,-1,-2
1537905345981787,-1,-2,1,-2,0,2,1,-1
1537905345989765,-2,0,0,2,0,1,0,-1
1537905345989765,1,-2,-2,-4,-2,0,-1,1
1537905346003728,1,-3,-1,0,0,-1,0,-3
1537905346003728,-1,1,-1,-5,-5,-2,0,1
1537905346019685,-1,1,8,14,11,3,2,0
1537905346019685,3,0,-7,-51,10,3,3,2
1537905346021680,-4,-5,-7,39,-40,-17,-6,-4
1537905346021680,0,0,-2,-41,18,9,1,1
1537905346026667,6,15,-5,25,-27,-11,1,3
1537905346026667,-7,-12,15,19,22,7,1,-4
1537905346042624,-2,0,30,11,27,4,1,-2
1537905346042624,-1,-6,-60,-24,-64,-21,-7,-2
1537905346049605,-1,-5,9,-29,54,18,8,-2
1537905346049605,4,-1,-22,-25,-15,-6,-4,4
1537905346056587,4,-4,1,18,53,20,9,10
1537905346056587,-1,17,38,48,-40,-12,-4,-2
1537905346072544,-4,-6,-6,51,34,7,-3,-3
1537905346072544,0,17,-23,-47,-44,-13,-2,-1
1537905346074539,1,7,-15,12,-24,-3,-2,1
1537905346074539,0,3,37,100,70,19,8,2
1537905346086506,-7,0,-5,-52,-113,-33,-11,-10
1537905346086506,-3,-6,-2,-34,23,8,1,-1
1537905346095483,-3,-1,-44,-36,-4,-3,-2,-1
1537905346095483,1,0,29,21,28,6,2,0
1537905346110443,2,4,5,-49,-28,-8,-3,1
1537905346110443,1,-4,24,56,27,4,1,-1
1537905346116427,0,-5,-11,-78,-18,-6,-3,-2
1537905346116427,3,-6,-8,-8,4,0,-2,0
1537905346132384,-2,-9,3,-1,21,4,0,-1
1537905346132384,-3,-7,-1,37,-6,-4,-3,-2
1537905346134379,-1,-5,3,-27,10,5,2,-3
1537905346134379,-1,-7,-9,-13,-10,-6,-1,-1
1537905346146347,0,-11,0,10,-1,-2,0,3
1537905346146347,-3,-13,-8,1,-7,-1,0,-2
1537905346155323,-3,-10,16,33,9,1,0,-2
1537905346155323,-2,-11,-3,-26,-7,-1,-1,-2
1537905346169285,-1,-5,-12,4,12,5,0,-2
1537905346169285,-1,11,8,18,-11,-3,-2,-3
1537905346176267,2,11,5,-3,-5,-5,-3,1
1537905346176267,-3,11,-11,-13,-8,-3,-3,-4
1537905346192224,-2,8,-2,6,6,1,1,0
1537905346192224,0,7,3,2,-5,-3,-2,1
1537905346194219,-4,4,4,9,-8,-2,-2,-2
1537905346194219,0,3,-9,-18,3,3,-1,0
1537905346215163,-1,0,2,12,14,3,1,2
1537905346215163,-1,-2,2,4,-9,-6,-2,-1
1537905346216160,-1,-2,-1,4,-1,-1,0,0
1537905346216160,-2,-4,-2,-6,-3,0,-1,0
1537905346229125,0,-1,0,1,2,-2,-1,-1
1537905346229125,-3,-3,-3,9,0,0,-1,0
1537905346236107,0,2,0,-2,-7,-4,-2,1
1537905346236107,-3,-4,-1,-3,10,4,1,-1
1537905346253061,1,-1,-2,-3,-5,-2,-2,-1
1537905346253061,0,2,-3,2,1,1,2,0
1537905346254059,0,-2,2,5,5,3,1,-1
1537905346254059,2,4,0,8,2,-4,-2,1
1537905346275003,-3,-3,-4,-2,3,2,-1,-2
1537905346275003,-1,1,1,-1,1,0,-1,-2
1537905346276998,-2,-3,2,6,6,3,-1,-2
1537905346276998,0,-2,-6,-13,-9,-4,-3,-3
1537905346288965,1,3,-6,16,17,3,1,2
1537905346288965,3,3,3,-2,-22,-5,-2,1
1537905346295947,-3,-4,1,10,-2,-5,-3,-2
1537905346295947,-1,-1,-2,-9,-2,-1,-1,-3
1537905346312901,1,2,0,5,4,-1,-1,1
1537905346312901,-3,-3,-1,-5,0,2,-1,-1
1537905346313899,-1,2,-2,-3,-3,-3,-1,-2
1537905346313899,1,-2,-1,0,-2,0,1,-1
1537905346334843,1,0,0,-6,-3,-3,0,-1
1537905346334843,1,-1,1,9,11,2,0,-2
1537905346336838,0,2,-2,-6,-10,-5,-2,-2
1537905346336838,-3,-3,-2,-3,-4,0,-3,-1
1537905346348805,1,-1,1,-8,-1,2,1,0
1537905346348805,-1,-1,-2,1,2,-3,-3,0
1537905346357782,-2,1,-1,4,-1,-1,-1,-1
1537905346357782,-2,-3,-2,-8,-2,-1,-1,-1
1537905346372741,-2,-4,-2,3,-1,-2,-1,-1
1537905346372741,2,-3,-4,-9,-7,-2,-2,2
1537905346373739,-2,0,0,-1,-1,1,-1,-2
1537905346373739,0,0,1,4,0,-1,-1,0
1537905346402662,0,1,-2,-5,-2,2,-2,0
1537905346402662,-1,2,-2,2,0,-3,0,-2
1537905346403659,-1,-4,0,-1,-3,-1,-1,-2
1537905346403659,0,0,-4,-6,-4,-1,-1,1
1537905346408646,0,-1,0,1,-1,0,0,-2
1537905346408646,-2,-3,0,1,4,1,-3,-1
1537905346417622,0,-4,0,-3,-3,-1,-2,-2
1537905346417622,-3,-1,1,0,1,0,0,0
1537905346432582,0,1,-1,-5,-5,-2,-1,-1
1537905346432582,0,-1,-1,4,0,1,1,0
1537905346434576,2,0,-2,-7,-4,0,0,0
1537905346434576,-2,-4,-1,2,1,0,-3,-2
1537905346455520,0,-2,2,5,1,0,0,-1
1537905346455520,-2,1,2,-1,0,0,0,-2
1537905346456518,-1,-1,2,2,2,0,-1,-2
1537905346456518,1,-2,-11,-8,-2,-1,1,0
1537905346469483,0,-5,-4,-2,-5,-3,0,-2
1537905346469483,0,-7,1,0,1,1,0,2
1537905346476464,-2,-6,0,-1,-2,1,-1,0
1537905346476464,-3,-1,3,1,-1,0,-1,-4
1537905346492423,2,3,0,2,-1,-1,0,0
1537905346492423,-1,2,-3,-9,-1,-1,-2,-2
1537905346494417,-1,3,-4,11,-1,-2,0,1
1537905346494417,0,1,4,-5,-2,0,-1,-1
1537905346515361,-3,-1,-3,3,0,0,0,-3
1537905346515361,1,-1,-1,0,1,0,0,-1
1537905346516358,0,1,4,11,11,4,0,-1
1537905346516358,-1,2,-6,-37,3,0,0,0
1537905346529323,-3,0,0,27,-12,-7,-2,-2
1537905346529323,-2,4,5,-22,-12,-4,0,-1
1537905346537302,-4,-5,-1,-3,20,8,2,-2
1537905346537302,3,3,-13,4,-19,-10,-2,1
1537905346552262,-2,4,40,-1,-2,1,-2,-2
1537905346552262,-1,-5,-33,21,52,16,6,-1
1537905346554257,-1,0,-2,10,-49,-22,-11,-3
1537905346554257,-1,-1,15,-70,-56,-12,-4,-2
1537905346575201,0,9,-13,-96,-23,-11,-5,-1
1537905346575201,1,-6,-28,43,49,13,3,7
1537905346576198,-1,0,-4,-18,-3,0,-3,4
1537905346576198,4,0,-8,39,34,6,2,6
1537905346589163,-2,6,18,37,22,6,2,-2
1537905346589163,-4,7,22,-44,-55,-14,-6,-5
1537905346605120,0,9,-11,29,59,19,8,1
1537905346605120,-5,6,10,-71,-66,-22,-9,-7
1537905346613099,2,-1,-37,-27,30,14,3,2
1537905346613099,-1,4,14,50,-7,-8,-4,-3
1537905346614096,3,-7,6,20,1,1,1,3
1537905346614096,-2,-6,3,34,3,0,-2,-2
1537905346643019,-2,-14,-6,17,3,-1,-2,0
1537905346643019,-1,-13,-1,-39,-13,-3,0,-2
1537905346644017,0,-6,4,-7,-15,-4,-1,-1
1537905346644017,0,-11,-4,28,30,7,3,-3
1537905346649003,-1,-22,-10,-9,-11,-2,-2,-2
1537905346649003,1,-15,3,7,-7,-2,0,0
1537905346657979,-1,-20,1,-13,-6,-4,0,-3
1537905346657979,0,-17,-7,16,19,6,2,0
1537905346672939,0,-3,-2,8,-15,-6,-3,0
1537905346672939,0,11,7,-5,-3,-1,-1,-2
1537905346674934,-2,23,-4,-12,-6,-3,-1,0
1537905346674934,-2,27,-3,7,6,1,1,-2
1537905346694880,0,18,4,8,-1,-2,0,0
1537905346694880,-1,3,3,-1,2,1,-2,0
1537905346696875,-1,-2,-6,-16,-8,-5,-3,0
1537905346696875,0,-4,1,17,23,8,2,-1
1537905346708843,1,-5,-2,-2,-12,-6,-2,2
1537905346708843,-3,-2,-1,-1,4,2,-1,1
1537905346717819,0,2,-2,-6,-10,-4,0,0
1537905346717819,1,2,3,3,9,2,1,3
1537905346732779,-1,-1,0,14,6,3,0,1
1537905346732779,0,3,0,-8,-6,-5,-1,-1
1537905346733777,1,-1,4,0,7,4,0,-1
1537905346733777,-4,-7,-9,-1,-7,-2,-1,-1
1537905346754720,-1,-3,-3,14,-5,0,-2,-1
1537905346754720,0,2,-1,-6,-6,-3,-1,-1
1537905346756715,-2,0,-1,-2,-4,-4,0,-2
1537905346756715,-1,-3,-1,4,9,3,0,0
1537905346768683,0,5,3,0,-8,-4,-2,0
1537905346768683,0,1,-1,-1,-4,-4,-2,0
1537905346777659,-3,-2,-1,-3,-1,3,-1,-1
1537905346777659,-1,1,1,6,6,2,1,-1
1537905346792620,-1,5,-1,2,-3,-3,-1,-1
1537905346792620,1,3,0,6,4,2,1,1
1537905346793617,-2,3,-1,-1,0,0,-1,0
1537905346793617,1,4,-1,-16,-6,0,-1,0
1537905346815558,-3,-2,-1,2,3,0,1,-1
1537905346815558,-2,0,1,10,4,1,1,-1
1537905346816555,-1,-3,-4,-2,-4,-5,-2,1
1537905346816555,-1,-4,3,5,-4,-1,-2,1
1537905346828523,1,-2,0,-15,3,1,-1,1
1537905346828523,-1,-3,-1,18,-5,-2,-1,1
1537905346837500,1,0,-2,-12,-6,-4,-2,-3
1537905346837500,-1,-2,1,3,2,0,-1,-1
1537905346852459,-1,-5,-1,-5,0,1,0,-1
1537905346852459,2,-2,-2,-4,-2,-1,0,0
1537905346854454,-1,-4,1,8,8,2,1,-1
1537905346854454,2,-3,-7,-1,-10,-6,-3,-1
1537905346875399,-1,-1,-1,0,3,0,0,-2
1537905346875399,0,1,-1,-9,-4,-1,-3,1
1537905346876395,0,-3,-1,2,-1,0,-1,0
1537905346876395,-2,0,0,3,3,0,0,-1
1537905346888363,0,1,0,0,2,-3,-1,0
1537905346888363,-2,0,-2,-6,0,0,0,-3
1537905346897339,0,-1,-4,-14,-10,-5,-2,0
1537905346897339,1,1,1,4,2,-1,0,1
1537905346920278,1,0,-1,-2,1,1,0,0
1537905346920278,-2,-1,1,0,-1,-2,0,-1
1537905346921275,-1,0,2,0,0,0,-1,-1
1537905346921275,0,0,-1,3,1,-2,0,-1
1537905346942220,0,-2,-3,-3,-3,-3,-1,-1
1537905346942220,1,-2,-3,-10,-4,-2,-1,-2
1537905346944214,-1,-3,0,3,5,3,2,-1
1537905346944214,1,-4,-1,-1,-8,-3,-4,-2
1537905346957179,-1,-2,0,-2,-4,-2,-1,-1
1537905346957179,-3,-2,0,2,7,3,0,-2
1537905346959175,1,3,0,4,-1,-2,0,2
1537905346959175,-3,0,-1,-9,-3,0,-2,-3
1537905346972140,-1,0,-2,0,-1,0,0,-1
1537905346972140,0,-1,-1,-3,2,0,0,-3
1537905346979121,2,1,1,-1,-4,0,-1,0
1537905346979121,-2,0,-2,10,6,0,0,-2
1537905346995078,-1,-2,1,6,6,1,-1,0
1537905346995078,0,-2,-1,-6,6,1,2,2
1537905346996076,-1,-5,-4,7,-21,-9,-3,-2
1537905346996076,-1,1,-2,-7,0,-1,-2,0
1537905347009041,-1,2,2,-17,18,7,1,0
1537905347009041,-3,-3,-10,-40,-23,-4,-2,-1
1537905347024998,-2,1,-7,23,-27,-12,-3,-2
1537905347024998,-1,0,0,-10,14,7,1,0
1537905347032977,-3,-7,2,40,-3,-4,-1,-3
1537905347032977,-4,-10,-5,37,-2,-5,-3,-5
1537905347033974,2,0,-7,-88,2,9,4,3
1537905347033974,-4,-3,-15,-61,-14,-8,-6,-3
1537905347062897,5,18,12,3,-53,-16,-3,3
1537905347062897,5,11,23,-9,11,4,-1,6
1537905347063894,-3,-5,6,114,73,19,3,-1
1537905347063894,-1,4,1,-70,-68,-17,-4,-2
1537905347077857,0,9,-6,-42,-15,-3,-1,1
1537905347077857,-1,11,-11,31,9,1,3,0
1537905347078854,-1,7,1,4,-12,-4,-4,-3
1537905347078854,0,4,12,31,33,12,5,0
1537905347091820,1,4,-9,-30,19,6,-1,1
1537905347091820,-1,7,9,46,5,0,0,1
1537905347098801,-1,-7,-8,-26,-16,-8,-2,-3
1537905347098801,2,-7,-1,32,14,2,0,0
1537905347114758,-3,-13,-4,11,-5,-2,-1,-4
1537905347114758,2,-11,-3,-11,11,3,-2,0
1537905347116753,3,-8,6,-19,1,0,1,0
1537905347116753,1,-14,-1,20,-5,-5,-1,-1
1537905347137697,-2,-26,0,-3,6,1,0,-3
1537905347137697,-1,-29,0,-21,-4,2,1,-2
1537905347138695,-1,-19,-2,-4,-7,-4,-1,0
1537905347138695,-1,-10,0,16,-1,-1,-1,0
1537905347159638,-1,1,-3,9,13,5,0,-1
1537905347159638,-1,22,-3,-3,-5,-3,-1,-2
1537905347161633,-1,34,-1,-3,-9,-5,-3,-1
1537905347161633,0,21,0,12,11,3,1,-1
1537905347174598,-4,12,3,6,8,2,1,1
1537905347174598,-2,1,-4,-12,-12,-5,-2,-2
1537905347176593,0,-2,0,-11,-2,-1,0,0
1537905347176593,0,2,1,5,7,1,2,0
1537905347197537,2,-1,-6,-3,-8,-3,-1,0
1537905347197537,-4,-4,-1,-3,-5,-2,-2,-1
1537905347199531,0,-1,2,-3,8,4,0,1
1537905347199531,0,-4,-2,10,0,-5,-2,-4
1537905347220475,-1,-4,-1,2,-4,-2,-1,-3
1537905347220475,-1,-1,-2,9,7,1,0,0
1537905347221473,-2,1,3,-9,4,3,2,-1
1537905347221473,1,-1,0,12,1,-2,-1,2
1537905347235435,0,-2,-4,-9,-12,-5,-3,1
1537905347235435,-1,1,1,-12,-11,-4,-1,0
1537905347236433,-3,-2,3,3,6,0,-1,-1
1537905347236433,1,-1,-10,-18,-16,-4,-3,0
1537905347256379,-2,2,0,6,1,-1,-1,-4
1537905347256379,3,1,-2,-1,0,-1,-1,0
1537905347265356,-2,-3,2,-2,3,0,2,-2
1537905347265356,-2,0,0,17,6,-2,-1,-2
1537905347271339,2,6,0,-8,5,2,-1,1
1537905347271339,-1,0,-4,-7,-7,-2,-1,-3
1537905347280315,0,2,2,9,0,0,1,-2
1537905347280315,0,1,-1,6,16,7,3,-1
1537905347302257,0,2,-7,-4,-18,-8,-2,1
1537905347302257,0,1,1,-7,-8,-3,-2,0
1537905347304251,-2,-3,-2,-4,-2,1,-1,-3
1537905347304251,-2,0,2,-5,9,3,0,-2
1537905347317217,-1,-3,1,8,0,1,1,0
1537905347317217,-2,-3,0,-2,6,2,2,0
1537905347319212,0,-1,-4,-2,-9,-5,-2,-1
1537905347319212,1,-1,1,-5,-6,-1,-1,1
1537905347331179,-1,-8,2,7,12,3,1,0
1537905347331179,0,-7,-3,-9,-5,-4,-2,-2
1537905347340155,0,-6,-2,2,-1,-1,0,0
1537905347340155,-3,-3,2,2,-2,-2,-1,-2
1537905347355116,0,1,0,4,8,0,1,1
1537905347355116,1,0,-4,-2,-9,-2,-1,0
1537905347356113,-1,0,-2,-3,-7,-2,-3,-1
1537905347356113,-2,-2,-1,-6,-4,-1,0,-1
1537905347378054,-4,-2,0,5,7,1,-2,-1
1537905347378054,-2,-3,2,1,2,1,1,0
1537905347379052,0,-2,-3,-5,-1,-1,-1,0
1537905347379052,-2,0,1,1,-2,-2,-1,-1
1537905347392017,-1,-1,2,2,0,-1,-1,0
1537905347392017,-2,-3,-1,5,6,3,0,-2
1537905347407974,1,-1,-4,-1,-3,-4,-2,0
1537905347407974,-2,-2,2,2,3,1,-1,0
1537905347414955,1,-2,-3,-3,-2,-1,-1,-2
1537905347414955,-1,-2,0,-2,-2,-1,0,-1
1537905347416950,-2,1,1,-1,-2,-1,0,1
1537905347416950,1,-2,-1,-1,1,-1,-1,0
1537905347437894,-2,-5,-1,1,0,0,-3,-2
1537905347437894,-2,-6,-3,2,1,-2,-2,-1
1537905347438891,0,0,2,-1,1,-1,0,-3
1537905347438891,0,-2,0,1,11,3,1,0
1537905347450859,-3,0,-2,0,-5,-3,-3,-4
1537905347450859,-2,1,-3,-17,-9,-3,-2,-4
1537905347459835,1,-1,10,5,19,7,0,-2
1537905347459835,-3,-4,-6,-17,-38,-13,-7,-5
1537905347474796,-1,-2,-11,-26,-9,-3,0,-2
1537905347474796,2,2,-1,-33,-22,-6,0,0
1537905347476790,-2,0,19,37,38,9,0,-1
1537905347476790,2,5,16,73,13,3,6,0
1537905347497734,2,1,-1,-49,50,12,0,4
1537905347497734,-2,0,-15,14,-12,-6,-4,-2
1537905347498732,-4,-4,-31,-2,-47,-17,-7,-3
1537905347498732,-1,5,23,-1,-2,0,-3,0
1537905347511697,4,4,-36,-8,24,13,5,4
1537905347511697,0,14,40,71,31,7,1,1
1537905347519675,-2,4,-8,-34,-15,-6,-2,-1
1537905347519675,1,12,-21,-44,-25,-11,-6,0
1537905347534635,-7,4,2,-1,-8,-3,0,-6
1537905347534635,1,5,-2,15,24,7,-1,-1
1537905347536630,1,10,4,-11,-11,0,-1,-1
1537905347536630,1,2,2,20,18,5,1,1
1537905347557574,1,-6,13,10,-23,-9,-3,-2
1537905347557574,-1,-6,-15,-43,-4,-2,0,1
1537905347558572,1,-15,0,-4,-6,-4,-1,-1
1537905347558572,0,-17,-8,1,5,0,-2,-1
1537905347580513,2,-20,3,16,7,3,1,0
1537905347580513,-3,-43,-1,-4,-10,-6,-3,-1
1537905347581510,0,-38,-1,17,-3,-1,0,-1
1537905347581510,-1,-32,-3,-30,10,4,1,-2
1537905347595473,2,11,4,8,-19,-9,-2,-4
1537905347595473,1,33,0,4,-8,-3,-1,-3
1537905347596470,-2,33,0,-13,7,2,2,-1
1537905347596470,-3,22,-4,6,5,2,0,-3
1537905347617414,-3,13,6,9,-10,-5,-2,-2
1537905347617414,1,12,-3,-1,1,0,0,2
1537905347619409,1,9,-1,-2,12,4,1,3
1537905347619409,-2,2,-4,-7,-9,-5,-3,-2
1537905347631377,-2,0,4,19,-5,-2,0,1
1537905347631377,-1,-2,-2,-19,4,2,0,0
1537905347646337,-2,-6,2,15,9,1,2,1
1537905347646337,0,-4,-5,-12,-14,-3,-2,1
1537905347655313,0,-4,3,-2,-2,-3,-1,0
1537905347655313,-1,-4,5,13,21,6,2,-2
1537905347656310,0,-5,-15,-46,-47,-14,-6,-1
1537905347656310,1,0,2,6,10,3,-1,-1
1537905347676257,-1,-1,1,1,1,-1,-1,0
1537905347676257,-1,-5,-2,-4,-3,0,2,0
1537905347685233,0,1,4,11,13,3,0,0
1537905347685233,0,4,-5,-14,4,1,3,2
1537905347691217,-2,0,1,0,-19,-7,-2,-2
1537905347691217,-1,-3,-3,-10,-7,-1,2,-2
1537905347700193,-4,0,0,7,7,-3,-2,-3
1537905347700193,-2,4,-2,3,-2,-3,-2,0
1537905347714155,0,2,1,-10,-1,2,0,0
1537905347714155,-2,3,-2,3,-7,-3,-1,0
1537905347721137,-1,6,4,3,9,4,1,1
1537905347721137,1,5,1,-6,5,0,1,2
1537905347738091,-2,2,-2,12,3,-1,-2,1
1537905347738091,3,1,-1,-12,-18,-7,-5,-1
1537905347739089,0,-1,-3,7,3,3,1,1
1537905347739089,-2,-6,1,7,7,1,0,-1
1537905347751057,0,-4,-2,-4,-2,1,-1,-1
1537905347751057,1,-5,2,-18,0,-1,0,2
1537905347760033,-1,-7,3,16,10,2,1,-1
1537905347760033,2,-3,1,0,-4,-4,0,1
1537905347774994,-1,-5,1,13,5,-1,-2,-3
1537905347774994,-3,-4,1,7,-1,1,1,-2
1537905347776988,-3,-4,-5,-3,0,-2,-1,-2
1537905347776988,-1,-1,6,6,37,16,6,1
1537905347797932,-2,2,-2,-2,-30,-15,-6,-3
1537905347797932,-3,0,14,23,28,6,2,0
1537905347798929,-1,-6,-13,31,39,12,4,1
1537905347798929,-4,-1,-26,-68,-75,-20,-10,-5
1537905347819873,-3,-6,-10,-34,33,10,1,-1
1537905347819873,-3,0,-4,7,-67,-24,-9,-5
1537905347821868,3,9,27,-20,-14,-4,-4,0
1537905347821868,5,6,-5,5,36,7,1,5
1537905347834833,5,8,11,26,57,15,6,5
1537905347834833,-3,-10,-74,-48,-81,-28,-12,-4
1537905347840817,0,-3,-13,58,41,12,6,0
1537905347840817,4,2,-7,75,-47,-15,-7,-1
1537905347857772,4,10,37,-61,6,8,2,4
1537905347857772,1,9,34,42,59,17,6,1
1537905347858770,-4,3,-16,-86,-40,-11,-5,-4
1537905347858770,-3,0,-8,21,28,7,1,-1
1537905347871734,-2,0,-12,26,-41,-15,-6,-4
1537905347871734,1,-6,10,25,32,11,3,0
1537905347879713,-1,-13,-3,-17,-12,-5,-3,-2
1537905347879713,-1,-6,12,-10,11,5,3,0
1537905347894673,-2,-16,-7,-15,-25,-9,-2,-4
1537905347894673,0,-17,-1,-16,6,2,2,0
1537905347902652,1,-33,1,15,-1,-1,-1,-1
1537905347902652,-1,-33,8,-15,-16,-6,-3,-3
1537905347917612,-2,-18,-5,34,8,2,2,-1
1537905347917612,-1,19,-5,-4,7,3,-1,-3
1537905347918609,-1,29,4,-3,-9,-3,-1,-1
1537905347918609,-3,23,4,8,9,0,0,0
1537905347931574,-5,17,-7,-7,-7,-2,-1,-2
1537905347931574,0,14,3,-5,10,2,-1,0
1537905347946535,0,12,3,-13,-13,-3,-3,1
1537905347946535,-2,6,0,-10,-1,-1,-2,-1
1537905347962492,0,3,-4,9,2,1,1,-1
1537905347962492,4,-2,7,-14,6,5,2,2
1537905347964487,-2,-5,-3,4,-23,-8,-4,-2
1537905347964487,-4,-7,-3,-8,-1,-1,0,-1
1537905347977452,-3,-5,0,2,-1,-1,-2,-2
1537905347977452,3,-2,1,2,6,0,0,3
1537905347979446,-1,-3,-1,-7,5,1,-1,-1
1537905347979446,-2,2,3,-6,-1,-2,-1,0
1537905347991414,0,1,-7,8,-6,-4,-3,-1
1537905347991414,-5,-2,-2,0,1,1,0,-2
1537905348000390,1,4,3,0,0,-2,-1,1
1537905348000390,-3,0,0,10,-2,-2,0,-3
1537905348014354,0,2,-1,1,7,3,0,2
1537905348014354,-2,-4,-3,-4,-5,-1,-1,-1
1537905348021335,0,2,2,4,2,-1,0,0
1537905348021335,-1,-3,1,-6,0,0,-1,-2
1537905348039286,-2,-4,0,2,0,0,1,-1
1537905348039286,2,2,0,3,9,2,0,3
1537905348044273,-3,0,-2,-5,-15,-8,-3,-2
1537905348044273,0,2,-2,11,7,0,-1,-1
1537905348054246,-1,1,-1,2,-8,-1,-2,-2
1537905348054246,-5,-2,-1,-4,5,-2,-2,-3
1537905348056241,-1,-1,2,6,7,3,0,0
1537905348056241,4,0,-2,0,12,-1,2,2
1537905348067212,0,-3,-5,-9,-23,-7,-3,-1
1537905348067212,-3,-7,-2,7,6,2,1,-5
1537905348074193,-1,-5,-2,0,2,-3,1,-1
1537905348074193,-5,-4,1,-1,3,4,-1,-5
1537905348089153,-4,-4,1,3,10,2,1,-2
1537905348089153,-5,-4,0,-7,-11,-4,2,1
1537905348098130,-3,-9,-2,4,5,3,2,0
1537905348098130,-3,-4,1,-6,-4,0,0,-1
1537905348104114,1,1,2,2,2,1,0,-2
1537905348104114,-2,-2,-1,0,-6,-2,-1,-3
1537905348113090,1,2,1,-1,1,1,-1,0
1537905348113090,-2,2,1,3,2,-1,1,2
1537905348127053,-3,-6,-2,-2,0,0,0,-2
1537905348127053,-1,-8,-3,-5,-3,0,-2,-2
1537905348134034,4,-2,2,-3,23,9,5,6
1537905348134034,-3,-12,-6,-26,-42,-12,-6,-4
1537905348148994,-2,-8,-8,-17,-20,-8,-2,-2
1537905348148994,1,-5,-2,-3,-7,-1,-1,0
1537905348155975,-1,-7,-1,-10,0,0,-1,1
1537905348155975,0,-3,6,5,14,7,1,0
1537905348172929,2,2,3,14,23,7,3,3
1537905348172929,1,-2,-1,25,-16,-6,-1,-2
1537905348173927,2,5,-5,-32,-4,-3,-2,1
1537905348173927,0,4,-8,-12,-19,-6,-2,-1
1537905348186892,-2,6,12,27,26,8,1,1
1537905348186892,3,10,12,-30,1,2,3,3
1537905348200855,4,7,-2,87,48,11,5,2
1537905348200855,3,28,0,-73,-60,-19,-5,-1
1537905348209831,5,7,21,8,34,8,0,7
1537905348209831,3,7,-44,84,12,-1,-1,4
1537905348215815,0,-2,15,50,40,13,3,1
1537905348215815,0,-6,-24,1,6,-1,-4,-1
1537905348223793,3,-2,-9,-24,-61,-19,-7,0
1537905348223793,-3,-11,-16,3,-10,-3,-2,-3
1537905348232769,0,5,26,-31,32,11,3,1
1537905348232769,0,-1,-19,65,-8,-2,0,1
1537905348246732,-3,-4,6,-71,82,27,9,0
1537905348246732,-1,5,4,-43,-100,-41,-16,-5
1537905348253713,-6,-6,-17,-26,-30,-12,-5,-8
1537905348253713,0,3,21,-7,40,10,4,-1
1537905348269671,-1,0,-19,6,-19,-5,-2,-1
1537905348269671,-5,-2,6,-14,23,8,1,0
1537905348276652,-1,-4,-7,-9,-18,-7,-1,-4
1537905348276652,4,-3,14,-33,-4,0,1,4
1537905348292610,-1,-12,-4,24,-10,-3,-2,-1
1537905348292610,0,-31,3,7,28,10,3,-1
1537905348293608,1,-29,1,-12,-32,-11,-4,0
1537905348293608,0,-30,-4,20,21,7,0,-2
1537905348306573,-3,0,-7,4,-19,-6,-3,-4
1537905348306573,1,27,9,-17,15,6,2,1
1537905348313554,-3,21,-9,-11,-15,-5,-3,-3
1537905348313554,-2,16,-1,2,-3,-2,-1,-1
1537905348329512,-1,9,-1,8,-5,-3,0,-1
1537905348329512,0,12,7,-6,7,3,0,2
1537905348336493,-3,11,-6,0,-7,-3,-1,2
1537905348336493,-3,5,3,12,14,2,1,-2
1537905348352451,0,6,-5,10,-8,-3,-2,2
1537905348352451,0,-2,0,1,14,3,-2,1
1537905348354447,-2,-4,-2,-7,-13,-3,-4,-3
1537905348354447,-3,0,4,-6,11,1,0,-2
1537905348367410,0,-3,-4,-3,-19,-5,0,-3
1537905348367410,-1,-11,3,-3,3,1,-1,-3
1537905348373396,0,0,-3,1,-8,-3,-3,-1
1537905348373396,-1,1,7,-1,6,2,-1,0
1537905348389352,-4,-3,-4,27,22,6,2,-6
1537905348389352,-2,-1,-6,-48,-28,-11,-3,-2
1537905348396333,-4,4,3,-3,-10,-2,0,-4
1537905348396333,0,-2,-1,4,3,0,0,-1
1537905348412290,-2,-4,-2,-3,-5,-1,-2,-2
1537905348412290,-1,-1,4,9,16,6,2,1
1537905348414285,-2,-2,-3,-2,1,-1,-2,-1
1537905348414285,1,1,-2,-3,-5,-4,0,3
1537905348427250,0,1,-1,-11,-4,-1,-1,0
1537905348427250,-3,0,0,6,-5,-3,-1,-3
1537905348435228,0,4,0,-5,1,2,1,-1
1537905348435228,-1,2,-2,14,1,-3,-2,-1
1537905348449191,-1,4,5,-6,-4,-3,-1,0
1537905348449191,-1,2,-3,6,13,4,-1,-3
1537905348456172,0,0,-1,-6,-5,1,0,2
1537905348456172,-1,-1,8,73,29,6,1,0
1537905348472129,-1,-1,-9,-34,-17,-7,-5,-3
1537905348472129,-1,-1,0,14,-1,-1,0,2
1537905348474124,-1,-6,-2,-14,-1,-2,-1,0
1537905348474124,-1,-6,0,-9,6,4,-1,-1
1537905348486092,2,-4,5,24,4,-1,0,1
1537905348486092,2,-6,1,8,8,2,0,0
1537905348495068,1,-2,-4,2,2,-1,-1,-1
1537905348495068,0,-1,-5,-19,-15,-6,-3,-2
1537905348509031,-1,0,-1,1,-4,-1,-1,-3
1537905348509031,-1,2,-1,-14,-2,1,0,-1
1537905348516012,-2,3,2,8,1,0,-2,-1
1537905348516012,-2,-1,-1,-14,-7,-1,0,-2
1537905348532967,0,4,-2,-5,-8,-4,1,0
1537905348532967,0,5,2,5,5,1,-1,0
1537905348533965,0,2,-1,0,1,-1,1,-1
1537905348533965,0,0,-3,1,1,2,-1,1
1537905348545932,1,-3,-1,-6,-8,-5,-2,1
1537905348545932,0,-3,0,-1,2,0,0,0
1537905348554909,-2,-8,-3,-3,0,-1,-1,-2
1537905348554909,1,-4,-1,1,-13,-5,-1,-3
1537905348569869,-1,-17,-1,4,25,10,2,2
1537905348569869,2,-10,-3,-4,-23,-9,-4,0
1537905348575854,1,-11,-3,-3,-6,-2,-1,-1
1537905348575854,0,-1,1,2,-1,0,-1,-1
1537905348592808,-4,2,3,5,10,3,0,-2
1537905348592808,2,8,-3,-5,3,0,1,0
1537905348593806,-1,9,1,4,3,2,-1,1
1537905348593806,0,11,-4,-14,-6,-5,-2,1
1537905348606772,-3,7,-1,9,-3,0,-2,1
1537905348606772,-1,6,10,0,24,7,0,-1
1537905348622728,1,1,-16,-24,-53,-16,-4,-1
1537905348622728,-4,-2,3,35,23,5,0,-1
1537905348629708,-4,0,-10,-45,-24,-4,-4,-5
1537905348629708,-1,0,2,-4,4,1,-1,-1
1537905348636690,1,1,1,-18,12,4,1,0
1537905348636690,1,-2,0,53,5,-1,2,1
1537905348652647,-1,-1,-11,-78,-50,-13,-5,-2
1537905348652647,-1,-4,23,66,98,30,9,3
1537905348653645,-4,-1,19,-48,-96,-33,-13,-6
1537905348653645,-4,-21,-44,-37,-9,-5,-4,-7
1537905348666610,18,25,-7,59,-21,0,4,19
1537905348666610,-7,-24,-56,-92,-58,-27,-11,-3
1537905348675587,0,0,33,99,121,38,12,4
1537905348675587,-5,-4,-2,-102,-76,-25,-11,-9
1537905348689548,-5,1,13,8,-2,0,-4,-4
1537905348689548,5,11,-2,-14,6,5,2,1
1537905348696530,0,7,-15,56,47,11,0,1
1537905348696530,-3,18,9,-20,7,4,0,-3
1537905348712487,-4,15,-2,5,15,1,1,-5
1537905348712487,-1,15,16,33,-6,0,0,1
1537905348714482,-4,-6,-7,-37,-9,-6,-4,-6
1537905348714482,4,-2,12,-3,3,2,2,3
1537905348726450,0,-22,0,39,12,0,-2,0
1537905348726450,-1,-14,12,-10,-12,-3,-2,-3
1537905348735426,0,-17,-17,3,-12,-4,-3,-2
1537905348735426,1,-41,1,6,23,9,5,2
1537905348749388,-4,-65,-1,-35,12,-2,-1,-3
1537905348749388,-2,-32,-13,14,-25,-7,-3,-3
1537905348756370,2,11,-1,-11,-5,0,0,-2
1537905348756370,-1,36,6,18,9,4,0,1
1537905348772327,-4,27,0,3,16,3,1,-4
1537905348772327,-1,32,5,3,-1,1,3,0
1537905348774322,-1,22,-4,-15,-10,-6,-1,0
1537905348774322,0,14,6,7,5,0,0,3
1537905348786290,-2,10,1,8,4,0,-1,0
1537905348786290,1,-3,0,-2,0,0,2,3
1537905348795266,-1,-8,-4,-19,-19,-4,-1,1
1537905348795266,-2,-6,-6,-6,-4,-4,-3,-3
1537905348809229,0,-2,6,-3,-5,0,-1,-2
1537905348809229,-1,4,5,13,-2,0,-2,-2
1537905348833164,-3,-7,-6,-12,9,5,1,-2
1537905348833164,2,-1,-2,-7,-9,-5,-3,0
1537905348834162,-1,3,2,-17,-4,-1,-1,0
1537905348834162,-1,2,3,20,7,2,0,-2
1537905348835159,2,0,2,-12,8,0,0,4
1537905348835159,0,-3,-4,-6,-8,-3,-2,-1
1537905348846129,1,3,1,12,11,3,1,0
1537905348846129,-1,0,1,-2,-4,-2,-2,-2
1537905348855106,-1,-6,-5,8,-14,-4,-2,-3
1537905348855106,0,-2,0,20,0,2,1,0
1537905348869069,0,2,-2,-23,-20,-8,-2,-2
1537905348869069,-1,0,5,-8,3,0,-2,-1
1537905348876050,-2,-5,-1,11,9,4,1,1
1537905348876050,-1,-3,3,22,10,2,-1,-3
1537905348899986,1,1,-1,18,4,0,0,1
1537905348899986,-3,-3,-8,-13,1,-1,-1,-1
1537905348901981,0,6,6,9,3,1,1,2
1537905348901981,-1,4,-3,-14,-9,-3,0,1
1537905348913950,-2,2,0,9,11,3,2,0
1537905348913950,0,0,-2,-7,-4,-3,-1,0
1537905348914947,0,-2,0,13,2,0,-2,-2
1537905348914947,0,-2,-1,-38,-12,-1,-1,1
1537905348935891,-1,-4,-1,8,-4,-2,-2,-3
1537905348935891,2,-3,0,4,-4,-2,0,2
1537905348944867,-2,-7,-2,-1,-5,-2,0,-2
1537905348944867,-1,-3,3,29,11,3,1,0
1537905348959826,-2,-2,-2,-22,5,-2,-1,-2
1537905348959826,-1,-2,-2,-15,-16,-4,-2,-1
1537905348959826,0,-5,-2,0,-10,-4,-1,-3
1537905348959826,-2,-1,-4,-1,-3,-3,-2,-3
1537905348981769,-1,-4,1,40,17,4,0,0
1537905348981769,-1,-5,-5,-7,-12,-4,-1,-1
1537905348982767,0,-5,-1,-38,-14,-5,-3,-1
1537905348982767,0,-7,-1,-3,3,1,0,0
1537905348996728,-1,2,4,19,-2,0,0,-2
1537905348996728,-2,0,-4,-15,3,0,-2,-1
1537905349004708,-2,6,4,10,5,0,-2,-1
1537905349004708,-2,3,-5,-1,-2,-2,-1,-2
1537905349019667,-3,2,-3,-11,-4,-1,-1,0
1537905349019667,0,4,4,11,8,1,-1,0
1537905349019667,0,-2,-3,-2,1,-3,-1,0
1537905349019667,0,-3,1,-8,-3,-1,0,-1
1537905349041607,1,-7,2,-5,-2,-2,0,-1
1537905349041607,0,-12,13,-2,-2,-1,-2,-4
1537905349042605,0,-10,-28,2,-1,-2,-2,-2
1537905349042605,0,-1,34,-5,28,10,4,3
1537905349056567,-2,-8,-37,-22,-61,-20,-7,-4
1537905349056567,-1,14,33,6,2,1,0,-4
1537905349064546,1,12,10,-10,-3,-1,-2,1
1537905349064546,-2,-4,-54,1,1,2,1,-1
1537905349079506,1,7,21,4,14,2,-2,2
1537905349079506,-3,-16,-38,-9,2,-1,0,1
1537905349080503,-4,-7,3,-1,-5,-3,-1,-3
1537905349080503,-1,3,39,6,1,0,0,-1
1537905349110423,-4,-12,-24,-8,2,0,0,-2
1537905349110423,0,14,-42,2,-3,-2,0,-1
1537905349110423,1,-8,19,11,11,3,0,1
1537905349110423,0,-7,-16,2,-8,-3,1,0
1537905349116407,-1,0,16,-11,4,1,-1,-2
1537905349116407,2,-7,-3,5,-1,-2,-2,1
1537905349124386,1,39,-10,7,3,1,0,2
1537905349124386,0,1,10,0,-8,-4,-3,-2
1537905349139348,-2,1,10,2,3,1,0,2
1537905349139348,0,-1,-2,-1,0,0,2,-2
1537905349140345,-4,-8,-1,-6,-4,-1,0,-3
1537905349140345,-3,3,1,-3,-5,-3,-3,-2
1537905349162285,1,9,-5,3,7,2,0,2
1537905349162285,-3,-6,-12,-2,-1,0,-2,-2
1537905349163283,-1,2,37,4,-1,-1,-1,-4
1537905349163283,2,-5,-5,3,0,-2,-1,2
1537905349176249,0,-4,3,-1,4,0,1,1
1537905349176249,1,1,-36,-4,-1,1,-2,0
1537905349184227,-3,-8,-2,-3,-2,-1,-2,-3
1537905349184227,1,1,-29,1,1,0,0,1
1537905349199187,1,-6,15,-7,-8,-3,-1,0
1537905349199187,0,4,42,9,1,-2,-1,-2
1537905349200184,0,2,11,-2,3,-1,-1,1
1537905349200184,-2,-3,-42,-7,-3,-1,-1,-3
1537905349222125,-1,2,29,3,2,0,0,1
1537905349222125,0,7,-15,-3,-4,-2,0,0
1537905349222125,0,-11,-10,-7,-5,-1,0,-2
1537905349222125,-3,-6,20,3,4,4,-2,-3
1537905349236087,6,8,-16,5,2,-2,1,0
1537905349236087,-3,-4,13,-4,-5,-1,3,0
1537905349244066,-10,7,-23,-4,-3,-4,-16,-44
1537905349244066,-1,-1,18,-6,-6,-4,-1,5
1537905349259027,2,15,27,2,6,2,1,1
1537905349259027,-2,-15,-36,-1,4,2,4,17
1537905349260024,4,-16,1,4,0,-1,4,12
1537905349260024,-6,13,50,8,3,1,-1,-11
1537905349281965,10,49,-42,0,0,-2,-1,6
1537905349281965,-6,-45,-22,-5,-1,-1,-1,17
1537905349282962,-1,-24,4,1,1,0,-1,-10
1537905349282962,-4,-4,3,-4,-6,-4,-4,-5
1537905349296925,-1,-9,9,4,4,0,0,3
1537905349296925,0,7,-31,-1,-2,-2,-5,-10
1537905349297923,0,7,41,0,0,1,2,6
1537905349297923,4,8,18,1,-3,0,4,11
1537905349319864,-3,-4,-17,-2,0,-1,-3,-11
1537905349319864,0,-7,10,2,2,-2,-3,-7
1537905349319864,-5,-11,-13,-6,-3,-4,0,4
1537905349319864,0,19,-21,4,0,-2,-6,-2
1537905349341806,0,1,35,-2,-5,-4,-5,-9
1537905349341806,-1,1,17,-3,2,1,0,0
1537905349342803,5,6,-25,0,1,1,4,17
1537905349342803,-1,-16,-27,-9,-2,-2,2,-13
1537905349356765,-10,-6,14,5,4,1,-16,-17
1537905349356765,4,-6,-6,-8,-9,-7,-2,1
1537905349357763,-3,8,23,3,-1,1,-2,-7
1537905349357763,3,28,-23,-7,-7,-3,0,14
1537905349379704,-8,-38,-27,-6,2,4,5,-10
1537905349379704,3,23,41,6,0,-2,-2,-6
1537905349379704,-2,-25,-14,-2,1,2,0,8
1537905349379704,-1,1,-23,-8,0,0,-1,0
1537905349402643,0,2,-1,10,1,2,6,20
1537905349402643,-3,4,-22,-8,2,3,-3,-7
1537905349403640,0,8,-9,15,10,2,2,3
1537905349403640,3,-11,34,-6,-17,-7,-5,3
1537905349416606,-2,-7,-37,-6,2,-1,0,-7
1537905349416606,-2,-20,10,0,-2,-1,1,1
1537905349417603,1,19,21,4,5,1,-2,-2
1537905349417603,-2,-8,21,5,7,2,1,-11
1537905349439544,2,10,-55,-12,-7,-3,-1,8
1537905349439544,0,-23,-3,4,1,1,-5,-31
1537905349440542,-1,8,-9,-3,-2,-1,4,13
1537905349440542,-5,-11,5,3,1,0,-3,-14
1537905349461485,0,7,-2,-8,-3,-3,0,2
1537905349461485,2,24,34,7,4,1,0,-1
1537905349462483,0,-7,-35,-2,-5,-4,-2,18
1537905349462483,-1,-5,-13,-4,1,-2,-1,-34
1537905349485421,-5,8,18,1,-2,-3,-8,-21
1537905349485421,-7,-17,13,-1,0,0,0,5
1537905349485421,3,-2,-28,-2,-3,-1,-1,-11
1537905349485421,0,3,-10,7,5,1,5,25
1537905349499384,0,10,29,5,1,0,1,3
1537905349499384,5,1,-37,-28,-8,-2,-2,-1
1537905349500381,-2,3,-1,22,0,-1,1,3
1537905349500381,-5,-27,36,-6,-11,-5,-5,1
1537905349522322,0,-10,-33,-10,2,0,1,3
1537905349522322,-3,-1,15,11,4,0,-1,3
1537905349522322,1,3,5,-38,-11,-3,-1,-2
1537905349522322,0,1,42,8,8,4,0,0
1537905349545261,2,17,-48,6,-1,-2,0,-2
1537905349545261,-3,2,38,-3,1,-1,2,10
1537905349545261,0,-14,-7,4,3,0,-2,-7
1537905349545261,-6,7,-2,1,1,-2,-4,2
1537905349559223,-2,-16,38,-8,-6,-1,0,7
1537905349559223,2,29,-4,11,1,1,-2,-2
1537905349560221,-2,-7,-7,-1,-2,-1,-3,-5
1537905349560221,-2,-5,-18,-4,-4,-2,-1,3
1537905349582162,1,-18,20,9,2,3,1,6
1537905349582162,3,11,-34,3,2,0,-1,-2
1537905349583159,-3,-14,20,1,-1,-1,0,-5
1537905349583159,0,3,-19,-9,-2,0,1,4
1537905349596125,-1,-3,14,3,3,1,1,0
1537905349596125,0,0,8,-5,-10,-3,-2,-2
1537905349604103,-1,0,-11,-6,-1,0,0,2
1537905349604103,2,4,13,19,7,0,0,3
1537905349628039,0,-12,-29,2,1,0,-1,0
1537905349628039,-5,6,38,5,-7,-4,-1,-3
1537905349628039,3,3,-12,-6,0,-1,-2,1
1537905349628039,-1,19,-31,-3,0,1,-3,1
1537905349642003,1,6,34,-9,4,0,0,-2
1537905349642003,0,-12,30,22,1,2,1,3
1537905349643000,0,14,-47,-6,-4,-1,1,-1
1537905349643000,0,-15,9,-4,-6,-2,-1,1
1537905349655965,-4,-11,-22,-9,-3,-2,0,-1
1537905349655965,-1,-2,11,-2,3,0,-1,0
1537905349663943,-2,1,13,8,2,1,-1,-4
1537905349663943,-1,-11,11,-2,1,0,0,-2
1537905349678904,2,11,-26,-4,-4,-1,-1,1
1537905349678904,-3,4,58,3,-1,-2,1,-1
1537905349679901,-1,-11,-37,-3,0,0,0,-2
1537905349679901,1,6,-11,-7,-1,0,0,3
1537905349702839,0,-8,-14,2,-4,-2,-1,0
1537905349702839,-1,-11,-31,-2,2,-1,-1,-2
1537905349702839,0,13,68,1,0,-1,0,0
1537905349702839,1,-12,-25,-5,4,1,1,1
1537905349715805,-1,11,9,10,-3,-3,-2,-2
1537905349715805,2,3,-4,3,3,0,2,0
1537905349731762,-1,-4,0,-10,-5,-2,-2,0
1537905349731762,4,6,-6,-2,0,-1,-1,-3
1537905349739741,-4,-17,43,22,-4,-3,1,0
1537905349739741,0,8,-46,-21,5,5,1,2
1537905349739741,-3,-3,-3,-5,-9,-4,-1,-1
1537905349739741,1,7,25,-8,-2,0,-1,-2
1537905349762680,1,1,-29,5,2,0,-2,-3
1537905349762680,-1,-7,-1,-13,-3,-1,-1,0
1537905349763677,-1,-4,0,7,5,2,-1,1
1537905349763677,-3,0,0,-2,-3,-2,-1,-2
1537905349784621,1,1,17,-2,0,-1,-1,0
1537905349784621,-2,-2,-15,5,-2,-2,-1,-2
1537905349785618,-2,2,37,4,1,0,-1,-2
1537905349785618,-2,-1,-52,-14,0,-1,0,0
1537905349799581,-1,-11,9,6,-1,0,0,1
1537905349799581,-1,12,-8,-2,0,0,-1,-1
1537905349800578,0,-4,15,5,1,0,-2,-2
1537905349800578,-2,-11,-17,6,1,1,0,-1
1537905349822520,-3,4,12,-11,-5,-2,0,-1
1537905349822520,0,-3,16,7,6,-1,-2,2
1537905349823518,1,7,-24,-6,-2,-2,0,0
1537905349823518,0,-9,-6,3,-2,-3,-1,-2
1537905349836483,-1,14,15,-5,0,0,0,0
1537905349836483,-3,-20,-16,0,-5,-2,-2,-1
1537905349844461,0,1,9,5,2,0,-1,0
1537905349844461,-2,-2,-9,0,-1,0,-1,-1
1537905349867400,1,11,10,-11,-3,-2,0,-2
1537905349867400,-3,-18,-13,13,1,1,-2,0
1537905349868397,1,0,-10,-7,-4,-3,-2,0
1537905349868397,3,25,9,-8,-9,-5,-2,0
1537905349882360,-3,-31,-4,-4,5,0,-2,-2
1537905349882360,2,16,-22,-1,-4,-3,1,0
1537905349883357,-3,-9,7,-1,1,0,0,-2
1537905349883357,0,7,-7,8,0,-1,-1,0
1537905349896322,-1,0,9,-10,0,1,-1,-2
1537905349896322,-4,-17,-24,-7,-3,-3,-1,-4
1537905349904301,-1,11,8,15,2,1,0,-1
1537905349904301,0,-6,11,-18,-3,-1,1,-1
1537905349919261,-1,-3,-4,-1,-5,-1,0,-1
1537905349919261,1,24,14,-2,1,-1,-1,0
1537905349920259,0,-3,6,6,0,-3,0,-1
1537905349920259,-3,-8,7,12,4,2,-1,-1
1537905349942201,-1,-13,-39,-1,2,0,0,0
1537905349942201,4,39,42,-8,-6,-1,-1,-2
1537905349943199,-6,-21,-12,-2,-2,-1,0,0
1537905349943199,-1,2,-2,3,2,1,-2,1
1537905349964142,-4,-4,14,4,4,-1,-4,-1
1537905349964142,-1,10,4,-7,-7,-2,-1,0
1537905349972121,-1,2,-38,-6,-2,0,0,-1
1537905349972121,-2,-16,26,9,-1,-2,-2,0
1537905349979102,1,3,-11,6,-2,0,2,0
1537905349979102,-3,-11,5,-5,3,0,-2,-2
1537905349980100,1,6,2,-7,-5,-2,-3,0
1537905349980100,-2,-13,10,9,-2,-2,-1,0
1537905350010020,-1,12,-10,-8,0,-1,0,-2
1537905350010020,4,1,-21,2,1,0,-1,0
1537905350011018,0,-11,17,-2,4,1,-1,-2
1537905350011018,-3,2,-5,3,-1,-1,-1,-4
1537905350024980,-2,-17,-8,-11,-2,1,-1,1
1537905350024980,-3,-5,-1,13,-5,-4,0,-1
1537905350025978,-1,-22,2,1,0,1,0,1
1537905350025978,0,8,3,-6,1,0,-1,0
1537905350039941,2,8,4,0,-1,-2,0,-1
1537905350039941,-2,-14,-10,5,2,1,-1,0
1537905350039941,2,12,-16,7,0,-1,0,-1
1537905350039941,1,0,-13,-8,-3,0,0,1
1537905350062877,1,1,6,-9,2,0,-1,-2
1537905350062877,-1,2,3,2,-5,-4,-1,1
1537905350062877,-1,8,16,-2,-2,-4,-1,-2
1537905350062877,-1,-4,-18,-6,-4,0,-1,-2
1537905350084818,-3,-12,3,-1,-1,-2,-1,-1
1537905350084818,-2,6,-13,4,5,0,0,-2
1537905350085816,0,-4,13,-1,6,2,-1,-1
1537905350085816,0,13,4,7,-3,-2,1,-1
1537905350099778,1,-13,7,-3,-3,-2,-1,2
1537905350099778,-4,-19,-24,-6,1,0,-1,-1
1537905350099778,0,16,-1,-15,-6,0,0,0
1537905350099778,-2,-17,-33,9,5,-3,-2,-3
1537905350122717,6,36,27,8,-3,-3,-1,2
1537905350122717,-2,9,-27,-4,-1,2,0,-1
1537905350123715,-1,-6,12,1,-1,-1,1,1
1537905350123715,-5,-1,11,16,1,1,-1,0
1537905350144659,1,7,-30,-24,-10,-2,1,0
1537905350144659,-3,-16,20,-1,3,2,1,0
1537905350145656,-1,10,6,4,-1,1,0,-1
1537905350145656,2,-3,-15,-4,1,3,2,1
1537905350159619,3,12,4,6,6,1,0,2
1537905350159619,1,-15,-2,1,1,1,1,2
1537905350159619,1,14,12,2,-8,-2,-1,-1
1537905350159619,-1,-26,20,-20,-4,-2,-2,2
1537905350182558,-2,-12,-14,11,4,-1,-1,1
1537905350182558,2,1,25,-8,-4,-1,0,2
1537905350183556,2,20,-40,-3,5,2,1,1
1537905350183556,1,-1,1,-4,-1,-1,0,3
1537905350204499,1,6,7,6,-2,-1,-3,0
1537905350204499,-1,12,17,-1,0,1,-2,-1
1537905350205497,3,1,7,11,0,-3,-1,2
1537905350205497,7,16,0,-7,-1,-2,-2,3
1537905350220457,1,9,-32,-17,-3,0,-3,1
1537905350220457,-3,-8,9,1,-2,-3,-2,0
1537905350221454,-2,-19,10,-5,0,-1,-2,-1
1537905350221454,0,17,-25,11,3,0,1,0
1537905350242398,-2,-5,15,-5,-3,0,-1,-3
1537905350242398,5,15,-26,-8,-7,-3,-1,2
1537905350243395,-3,-3,2,-2,2,-1,-2,0
1537905350243395,0,-6,6,1,-4,-2,-1,-1
1537905350264339,-5,3,6,1,3,1,-2,-2
1537905350264339,2,9,-9,7,-2,-3,-1,0
1537905350272317,-1,-7,-14,-12,-2,-2,-1,-1
1537905350272317,0,1,11,-2,0,-1,0,-2
1537905350287277,-1,3,4,4,-1,-3,0,-2
1537905350287277,0,5,-3,-7,1,0,0,-1
1537905350288275,0,-2,-7,13,1,0,-1,1
1537905350288275,-1,1,13,-5,-3,-2,-2,-2
1537905350302237,-4,-7,-7,1,-6,-2,-2,-4
1537905350302237,1,6,2,-14,-2,-1,-3,-2
1537905350303235,-3,-3,-8,3,0,0,-1,-1
1537905350303235,-5,0,20,-2,-1,0,-1,-3
1537905350325177,2,-21,-17,5,2,-2,-1,1
1537905350325177,-4,-3,-4,6,0,-1,0,-1
1537905350326177,1,-1,-19,-21,-3,-1,-1,-1
1537905350326177,-4,-3,27,15,5,2,0,-4
1537905350339140,-2,-2,15,4,-2,-2,0,-2
1537905350339140,1,-3,-20,-2,1,1,0,-1
1537905350340138,1,4,-1,-2,3,1,0,-1
1537905350340138,2,24,-19,-6,-2,-2,0,-1
1537905350363076,-3,-11,39,12,3,2,0,-3
1537905350363076,-2,-3,-3,-10,-1,-1,0,0
1537905350363076,-2,-13,-10,0,-1,-1,-1,-1
1537905350363076,-1,6,17,-11,-5,-2,-1,-2
1537905350392995,0,7,4,-9,-2,0,1,0
1537905350392995,-2,-7,-13,10,3,-3,-3,-1
1537905350392995,-1,6,4,3,-4,-2,-2,-2
1537905350392995,-2,-1,-18,-7,-1,0,0,-1
1537905350398980,-1,-3,41,8,2,-1,-2,-1
1537905350398980,1,1,-24,3,4,1,2,-1
1537905350399978,-4,-11,0,-10,1,-1,-1,-2
1537905350399978,-3,-18,-1,4,-4,-2,-1,-1
1537905350422916,1,9,-12,-3,-3,-2,1,-3
1537905350422916,0,10,36,0,-2,0,-1,-3
1537905350422916,0,-6,2,-1,-1,0,-1,-1
1537905350422916,-4,-17,-18,0,0,0,0,0
1537905350444859,1,16,3,0,0,-2,-1,2
1537905350444859,-1,-9,-5,-11,-3,-1,-2,-1
1537905350445856,0,10,6,8,3,-1,0,-1
1537905350445856,-2,6,24,8,-3,-2,-2,-2
1537905350458822,0,-14,-22,-8,1,-1,1,1
1537905350458822,0,6,12,15,-2,0,1,-3
1537905350467795,-1,1,-11,-10,-8,-3,-1,-2
1537905350467795,5,14,-1,6,3,-1,1,1
1537905350489736,-1,0,14,-3,-4,-1,-2,-1
1537905350489736,-4,-6,-16,18,3,2,-1,-3
1537905350491732,0,1,-41,-37,2,1,0,1
1537905350491732,0,-7,4,-3,-11,-5,-2,0
1537905350504696,1,-9,-15,-1,-2,-1,0,0
1537905350504696,-3,-12,18,-13,-1,-2,-2,1
1537905350506691,3,17,14,13,-4,-1,-1,-1
1537905350506691,-2,-8,-20,-4,1,-2,0,1
1537905350527635,1,3,-9,4,3,1,0,0
1537905350527635,-1,6,13,-6,-4,-2,0,0
1537905350528633,-3,-11,-3,8,2,1,0,-1
1537905350528633,0,12,-16,-12,0,0,-1,-1
1537905350542595,-4,-13,-5,0,-3,-1,-1,-2
1537905350542595,4,20,12,-5,-2,-2,0,2
1537905350543593,-2,-11,-1,7,-2,0,-1,-1
1537905350543593,2,10,12,13,4,2,1,-1
1537905350565533,-2,-11,-23,-6,3,0,-3,-2
1537905350565533,0,23,20,5,-1,1,-1,-1
1537905350566531,-2,-12,-9,-18,-5,-1,-1,-3
1537905350566531,0,13,19,2,3,1,-1,-1
1537905350578499,1,-1,-39,-9,-3,-2,-3,1
1537905350578499,1,-17,2,-3,-1,-3,-3,0
1537905350587475,2,1,13,12,0,-1,-1,1
1537905350587475,-5,-12,10,-4,0,-1,-1,-2
1537905350602435,-2,-2,-10,-4,0,1,1,-2
1537905350602435,-3,6,8,7,2,1,-2,-2
1537905350604430,-1,2,9,6,-5,-4,-1,-1
1537905350604430,0,-15,-29,-12,-3,0,-1,0
1537905350624376,-3,-2,0,9,0,0,0,1
1537905350624376,-1,-9,-7,-2,0,-1,-1,0
1537905350631357,-4,-3,13,-8,-3,-2,-1,-1
1537905350631357,-1,-13,-6,-1,-1,0,-1,-1
1537905350638339,1,9,-5,4,0,-3,-2,-1
1537905350638339,1,-2,-5,1,2,0,1,-2
1537905350647315,-4,-8,-8,5,-2,-1,0,-3
1537905350647315,3,10,-12,-3,0,-1,-1,1
1537905350670253,0,2,37,17,-1,-2,-2,0
1537905350670253,-2,-11,-26,-22,-3,-2,0,0
1537905350671251,1,3,-10,8,5,1,0,-3
1537905350671251,2,3,-7,-10,-6,-2,-3,0
1537905350685215,0,-3,-2,3,0,-1,0,0
1537905350685215,-1,-10,8,2,-5,1,1,-1
1537905350686211,0,24,31,-2,-1,-2,-1,0
1537905350686211,0,4,-11,4,0,0,-1,0
1537905350699176,-1,0,-14,-1,2,1,0,-1
1537905350699176,-3,-12,6,-12,-6,-2,-2,-1
1537905350707155,0,12,3,-11,-5,-1,-1,-1
1537905350707155,-4,-13,-9,-2,1,-1,0,-1
1537905350722115,-1,21,12,0,0,1,1,-2
1537905350722115,0,-3,4,0,-4,-3,-2,-2
1537905350724110,0,-5,-4,21,6,-2,0,0
1537905350724110,-1,-7,7,-17,-9,-4,-2,0
1537905350745053,-2,1,-1,-6,1,-1,1,-1
1537905350745053,-3,-3,5,7,1,0,-1,-1
1537905350746051,1,-8,-15,-10,-2,0,0,1
1537905350746051,1,13,4,10,4,1,0,-2
1537905350759017,1,-4,5,-3,0,0,1,1
1537905350759017,-2,-10,-2,-2,1,0,-1,-2
1537905350767992,0,-1,10,5,-1,-1,-2,-2
1537905350767992,-2,-14,-25,-6,-1,-1,1,-2
1537905350782952,-1,6,-2,-3,0,-2,-1,0
1537905350782952,1,7,5,-1,-4,-2,0,0
1537905350783950,-1,-27,-10,11,5,0,1,1
1537905350783950,-1,12,8,-13,-5,-2,-1,-1
1537905350804893,0,-5,5,-3,-1,0,-1,-3
1537905350804893,-3,-6,11,-6,2,2,-1,0
1537905350806888,1,4,-39,4,-6,-2,-2,2
1537905350806888,-3,4,11,6,2,2,0,-2
1537905350818856,-2,-10,-7,3,-2,-2,-1,0
1537905350818856,2,16,3,2,2,-2,-1,-1
1537905350827832,-5,-12,9,-13,0,1,-2,-2
1537905350827832,-3,-12,-1,18,3,-1,0,-2
1537905350842792,-2,-6,-16,-27,-9,-3,-1,-3
1537905350842792,2,10,-7,13,3,-1,-1,1
1537905350843790,0,-2,9,-9,-7,-1,-1,-1
1537905350843790,1,-1,29,6,2,1,-1,1
1537905350864734,0,4,-31,-4,4,2,-1,0
1537905350864734,-1,1,-4,5,-3,-2,-1,-1
1537905350866729,2,0,23,-7,-6,-2,0,-2
1537905350866729,0,4,-20,-12,1,1,-1,0
1537905350887672,0,6,-7,3,0,-1,-3,-1
1537905350887672,2,-7,13,-3,-6,-1,-1,-2
1537905350888670,-1,3,6,9,4,2,1,0
1537905350888670,-2,-9,9,14,1,-2,-1,-1
1537905350902632,1,-2,10,-6,-3,-1,1,0
1537905350902632,1,11,-29,6,-2,-2,-1,0
1537905350903629,-2,-22,6,-8,-3,0,-1,1
1537905350903629,0,7,-12,-3,1,0,-1,-1
1537905350924573,-1,-12,12,9,0,-1,-1,0
1537905350924573,0,-13,-17,-4,0,-2,-2,-1
1537905350926568,1,0,-13,5,-2,-2,-1,0
1537905350926568,2,2,1,-5,1,-2,1,1
1537905350947513,-2,-11,-4,11,0,-1,1,-1
1537905350947513,-1,6,9,0,2,-1,0,0
1537905350948510,-3,6,3,-8,-2,-3,-2,-4
1537905350948510,2,-13,-72,-3,0,1,-2,3
1537905350962472,1,16,20,3,-1,0,0,1
1537905350962472,-1,-14,5,-7,-2,0,0,-1
1537905350963470,-2,-11,-2,8,4,0,-1,0
1537905350963470,-3,4,21,0,-3,-2,0,-3
1537905350985411,-2,3,8,-2,-2,0,0,0
1537905350985411,-1,-13,-5,-10,-4,-1,0,2
1537905350986408,0,16,-24,-2,1,0,2,0
1537905350986408,0,5,39,6,3,1,-2,-2
1537905351015331,-2,-31,-13,4,-5,-3,-2,-3
1537905351015331,0,34,3,2,-2,-1,-2,-1
1537905351016329,-1,-2,-8,2,-2,1,-1,-1
1537905351016329,-2,-6,4,-6,0,-2,-2,-1
1537905351022313,4,5,0,-7,-3,0,-1,0
1537905351022313,-4,-18,-8,7,4,0,-1,0
1537905351028297,0,0,5,-11,-7,-3,0,-1
1537905351028297,-2,10,-8,7,1,1,-1,-2
1537905351044254,-4,-4,-3,-13,-2,-1,-3,-3
1537905351044254,1,2,5,-3,0,-1,0,-1
1537905351052232,-2,4,17,11,2,1,0,-3
1537905351052232,2,-1,2,-8,-2,-1,1,1
1537905351067192,-1,9,2,3,0,-3,-1,-1
1537905351067192,-1,-10,-12,-17,-4,0,0,-2
1537905351069187,0,8,1,14,0,-1,-1,0
1537905351069187,1,-3,8,-4,-1,-1,0,0
1537905351082153,-2,-3,-7,7,3,0,0,0
1537905351082153,-2,6,6,5,-4,0,-3,1
1537905351089134,4,24,-11,-13,1,2,2,-1
1537905351089134,2,7,0,11,-1,-1,-1,1
1537905351105091,-3,-19,15,1,3,-1,-2,1
1537905351105091,-2,-9,-27,-7,4,0,0,0
1537905351107086,1,-17,9,5,-1,-1,0,2
1537905351107086,-3,25,2,-1,-3,0,-2,-3
1537905351128030,1,7,-28,-6,1,1,0,-1
1537905351128030,-1,17,30,6,-2,-3,1,1
1537905351129027,-1,-1,-6,-11,-1,-2,-1,-3
1537905351129027,-1,-9,-2,2,1,-1,-1,-3
1537905351149971,-1,5,26,3,-3,0,0,1
1537905351149971,-1,-4,-13,-7,-4,0,-2,-2
1537905351151965,-2,12,7,4,2,0,-2,0
1537905351151965,0,-6,-4,10,0,-1,0,1
1537905351164932,-2,-10,-6,-21,-9,-3,-1,-1
1537905351164932,3,10,-4,6,-2,0,-1,-1
1537905351166926,-4,-13,0,-1,3,0,-1,1
1537905351166926,-1,-3,4,8,1,1,-1,-1
1537905351187870,2,7,15,-12,-3,1,0,0
1537905351187870,0,-9,-12,-12,-3,-3,-1,-2
1537905351188867,1,13,-18,6,-2,-3,0,0
1537905351188867,-1,-10,2,-3,-1,-2,-1,-1
1537905351201832,0,-2,1,1,-1,-1,-1,-1
1537905351201832,-4,-29,17,16,4,2,-1,-1
1537905351208815,-5,-13,-15,-22,-4,-1,-3,-2
1537905351208815,0,1,-24,-12,-4,-2,-1,-1
1537905351224771,1,3,14,4,0,-1,-2,1
1537905351224771,-2,-2,-1,6,0,-1,-1,1
1537905351226766,-2,0,-3,0,1,-2,-1,-1
1537905351226766,-1,-6,4,-4,-4,0,0,-3
1537905351247710,-1,9,-1,3,-2,-3,-2,-3
1537905351247710,-2,-1,-12,-9,4,0,-1,-2
1537905351253694,1,-1,6,11,-5,-1,-1,2
1537905351253694,-1,-5,-6,-26,-5,-3,-2,1
1537905351261673,0,-1,19,6,3,0,0,0
1537905351261673,0,-1,-31,-2,0,0,1,-2
1537905351268654,0,6,5,7,7,1,1,1
1537905351268654,0,-11,1,-12,-8,-3,-1,-1
1537905351283614,1,5,-6,4,1,-1,-2,0
1537905351283614,-1,-6,18,3,-1,0,0,-2
1537905351292591,-3,-9,-12,-12,0,0,0,-3
1537905351292591,-3,-9,21,8,-4,-2,-2,-4
1537905351307550,3,1,-9,5,3,-1,-3,0
1537905351307550,3,26,44,3,1,1,1,0
1537905351308548,0,-16,-22,2,3,0,0,1
1537905351308548,0,-6,-10,-4,-3,-2,-2,1
1537905351321512,-5,-3,-14,-6,-5,-1,0,-3
1537905351321512,0,0,50,11,1,0,-2,0
1537905351328494,-1,-7,-38,-5,-4,-3,-1,-3
1537905351328494,3,11,31,4,4,1,0,0
1537905351345449,-1,-6,-35,-2,-1,1,-1,0
1537905351345449,0,-2,45,-2,-4,-1,0,0
1537905351346446,2,-1,16,1,-3,0,0,-1
1537905351346446,-1,3,-32,-5,0,0,0,1
1537905351367390,-3,-2,-21,-1,-1,-1,1,2
1537905351367390,-5,-5,-8,-6,-1,-1,-1,-2
1537905351369385,-4,2,18,-1,-1,-2,-2,-4
1537905351369385,-4,-5,-4,4,3,1,-1,-1
1537905351381353,1,0,2,-2,-3,-2,0,-2
1537905351381353,2,-6,-30,-7,-1,0,0,2
1537905351390329,3,0,16,8,0,-1,-2,2
1537905351390329,0,2,-10,-8,1,0,0,0
1537905351405289,-1,-7,16,10,2,-1,1,2
1537905351405289,-3,3,-24,-4,-1,-2,-1,-1
1537905351406287,2,-6,-1,-5,-6,-2,-2,1
1537905351406287,-3,-4,11,-4,-1,-3,-2,-1
1537905351427230,0,10,-11,-6,1,1,-1,-1
1537905351427230,0,0,-10,10,0,-1,-1,-1
1537905351429225,-5,-1,-3,10,4,1,0,-2
1537905351429225,-1,4,12,-11,0,0,1,0
1537905351441193,3,7,11,6,1,1,0,0
1537905351441193,0,-2,-15,-1,-3,-3,-3,2
1537905351450169,-1,5,-10,-3,-3,-2,-3,-1
1537905351450169,-2,0,7,15,-2,-1,-1,-2
1537905351465130,-1,4,6,-3,1,0,0,-3
1537905351465130,4,0,-20,-7,0,3,-1,-1
1537905351466127,-3,-8,26,-5,-3,-2,-1,-2
1537905351466127,0,-3,5,8,0,0,0,0
1537905351488069,-1,-1,-13,-8,3,0,-1,-1
1537905351488069,-3,10,4,-6,-2,0,-1,-2
1537905351489066,0,0,-19,-4,-4,-1,-1,0
1537905351489066,-1,-7,-3,0,1,-1,0,0
1537905351501033,-1,-2,5,-2,-4,-2,-1,0
1537905351501033,-2,-3,-5,-4,-1,-3,-1,-2
1537905351510011,-1,5,3,-1,3,1,0,-1
1537905351510011,-3,-3,-2,8,0,0,-1,-2
1537905351524969,0,6,32,1,2,1,0,0
1537905351524969,-1,-7,-41,9,0,0,-1,2
1537905351530953,1,2,-3,-27,-6,-3,-1,0
1537905351530953,1,5,-11,-4,-2,1,-1,1
1537905351554889,-1,-17,8,2,-1,-1,-2,-3
1537905351554889,1,5,7,4,-3,-1,-2,0
1537905351556884,0,-4,9,4,1,-1,0,0
1537905351556884,-2,-7,-1,9,0,1,0,-2
1537905351560873,0,22,1,-3,1,0,0,-2
1537905351560873,2,1,-16,-8,-1,2,2,2
1537905351569849,0,-16,0,1,-3,-1,-2,1
1537905351569849,0,10,4,-9,-2,-1,-2,0
1537905351584809,0,-9,-4,11,1,0,-1,0
1537905351584809,-1,-5,3,-2,-1,-2,-2,-1
1537905351586804,1,12,9,-7,3,2,1,0
1537905351586804,0,4,-13,5,-4,-3,-2,-3
1537905351607747,0,0,4,-6,-3,0,-2,-1
1537905351607747,0,3,10,5,-2,0,0,0
1537905351608745,-1,-3,1,-8,2,1,-2,-1
1537905351608745,0,-2,-16,-5,-1,-3,-2,1
1537905351620713,-3,-10,-15,10,-2,-2,0,2
1537905351620713,-1,-3,3,-16,-1,-2,0,0
1537905351637668,0,2,18,13,0,-2,0,0
1537905351637668,2,10,-15,-8,-2,0,0,-2
1537905351644649,-3,-13,-9,-6,1,1,0,0
1537905351644649,-2,1,40,14,4,0,0,-3
1537905351646643,0,4,-31,-48,-14,-4,-1,0
1537905351646643,3,-3,14,-1,0,-1,0,0
1537905351666590,0,-5,-8,-3,-3,-2,-2,0
1537905351666590,-3,-12,3,-5,-1,0,0,0
1537905351674569,3,20,4,23,6,1,-1,-2
1537905351674569,-5,-38,24,3,0,-2,1,-2
1537905351681550,-4,-5,-29,-10,-3,0,1,0
1537905351681550,-4,-11,-10,8,3,-2,-2,-3
1537905351690526,-1,9,5,11,0,0,-3,-1
1537905351690526,0,-11,-3,-6,-3,0,-1,2
1537905351705486,-4,4,15,2,-1,-2,-2,-2
1537905351705486,-1,-4,6,-10,-1,-1,0,-2
1537905351706484,-2,4,-29,0,0,-1,0,-3
1537905351706484,1,20,7,5,0,-1,-2,-1
1537905351727428,-2,-18,-5,-7,-3,-2,-1,0
1537905351727428,2,6,-2,-3,-3,-1,-1,0
1537905351729422,-1,-1,19,4,3,1,-1,0
1537905351729422,-1,17,14,2,1,1,1,-3
1537905351741390,2,0,-29,-2,2,0,-1,-1
1537905351741390,-2,6,-15,-1,-2,-2,-2,-1
1537905351750366,-1,-16,9,9,0,1,1,1
1537905351750366,-1,1,3,-3,1,0,-2,0
1537905351765326,2,11,9,2,-1,-1,3,-1
1537905351765326,-3,-6,17,2,-1,-2,-1,-2
1537905351766324,0,-15,-83,-11,-3,-3,1,-2
1537905351766324,0,3,21,0,0,0,0,0
1537905351787268,1,7,3,8,1,-1,-2,0
1537905351787268,0,1,10,-3,-1,0,-1,1
1537905351789263,-5,-6,20,-2,-4,-3,-1,-3
1537905351789263,1,-4,-38,7,2,-1,2,-1
1537905351810207,2,-2,18,1,0,0,-1,2
1537905351810207,-1,4,5,-3,-2,0,-1,-2
1537905351811204,-2,-5,21,8,0,0,-2,-1
1537905351811204,-1,-3,-34,-7,-1,-1,-1,-2
1537905351824169,5,20,24,3,2,-1,0,0
1537905351824169,-2,-8,-3,-2,-4,-3,-1,-1
1537905351831150,-7,-4,-3,3,1,-1,1,-2
1537905351831150,-4,-14,-64,-10,-5,-2,-2,0
1537905351847108,0,12,24,0,-1,0,-1,-2
1537905351847108,1,-2,-11,-3,-1,0,0,2
1537905351849103,4,1,-2,2,0,-1,0,0
1537905351849103,-6,1,47,0,-2,-2,-2,-6
1537905351870047,4,-5,-42,9,8,4,3,5
1537905351870047,4,0,-5,-6,-2,-3,0,-1
1537905351878028,3,-2,0,4,-2,4,1,4
1537905351878028,1,1,-8,-6,-1,-2,2,1
1537905351885008,-12,-9,3,-9,-4,9,-1,-7
1537905351885008,-4,1,-10,7,-2,-18,-8,-3
1537905351887002,-1,3,3,3,1,-3,-1,2
1537905351887002,13,0,3,-6,2,21,3,23
1537905351914929,-14,0,9,-3,-9,-45,-25,-30
1537905351914929,17,5,-13,1,2,-1,7,1
1537905351916923,-12,-1,14,0,-2,-6,-29,-24
1537905351916923,-5,2,2,-2,-2,-1,29,32
1537905351928890,4,3,0,-3,1,17,1,-2
1537905351928890,5,3,-10,-4,-1,2,-39,-6
1537905351937865,3,-2,4,-1,-1,-3,22,-11
1537905351937865,-5,1,8,-5,0,0,-2,-13
1537905351943849,3,12,-22,-8,0,5,6,5
1537905351943849,-11,-16,-13,4,1,-4,7,4
1537905351950831,5,16,8,2,-1,4,-2,11
1537905351950831,0,-10,-44,2,-10,-8,-14,-5
1537905351967785,-1,-16,16,10,7,2,7,13
1537905351967785,-2,13,-4,-2,-7,3,-4,-8
1537905351968783,2,-13,27,-12,3,4,5,10
1537905351968783,-4,1,7,7,6,-3,-4,-10
1537905351989726,-1,-11,12,-3,-5,-2,-6,-7
1537905351989726,-12,-13,-54,-17,-5,4,13,3
1537905351991721,7,7,-10,5,-1,-2,-3,-1
1537905351991721,3,20,53,5,0,-4,-5,-6
1537905352003689,1,-12,-61,-13,6,5,4,4
1537905352003689,-1,10,64,27,0,2,6,2
1537905352019647,-5,3,54,3,-2,-1,3,1
1537905352019647,3,-3,-54,-2,5,2,-7,-1
1537905352027625,2,13,52,8,-6,-1,2,3
1537905352027625,-5,-19,-55,-24,0,2,3,1
1537905352028622,-1,3,6,-2,-2,-1,-4,-3
1537905352028622,-1,2,35,-1,-2,-1,-2,-6
1537905352048569,0,-6,0,12,2,1,-1,1
1537905352048569,3,11,-2,-10,-2,-2,2,-2
1537905352057545,4,-2,-6,-12,-3,-1,0,4
1537905352057545,-5,-1,14,0,2,0,-2,-4
1537905352063529,-2,-8,-23,-8,-6,-5,0,-1
1537905352063529,2,1,13,9,3,0,-1,-2
1537905352072505,1,5,-5,8,4,3,0,1
1537905352072505,-4,-11,-17,-16,-10,-3,-1,-6
1537905352087465,1,0,-10,2,-4,-3,-3,1
1537905352087465,1,0,17,0,1,3,4,3
1537905352088462,-7,-18,-9,5,4,-1,0,1
1537905352088462,3,3,-23,-8,1,-2,-3,-3
1537905352110404,-7,-4,10,5,-5,-1,0,-1
1537905352110404,3,14,56,10,3,0,-1,1
1537905352111401,-5,-2,-21,-4,-2,0,1,-1
1537905352111401,-1,0,15,-3,-8,-4,-3,-4
1537905352123369,1,-23,-32,-9,-2,-1,0,0
1537905352123369,1,6,-29,-11,0,0,-1,0
1537905352132345,-1,3,5,11,4,0,-2,-2
1537905352132345,1,-1,29,7,3,1,-1,1
1537905352147305,-1,5,26,-4,-3,0,-2,-4
1537905352147305,-4,-7,-10,-2,-1,-2,1,-2
1537905352149300,2,0,-24,2,-2,1,1,2
1537905352149300,0,-3,-7,0,-2,-1,-2,1
1537905352170244,-5,3,-1,-2,-1,-1,0,-1
1537905352170244,1,6,-7,-2,-4,0,-1,-1
1537905352171241,0,3,6,1,-4,-3,-2,-1
1537905352171241,-5,-7,-1,-4,3,-1,0,-3
1537905352192186,1,7,6,-15,-3,-1,-1,-2
1537905352192186,-6,-4,18,-5,3,0,-1,-3
1537905352194181,4,6,-11,5,0,-2,-1,3
1537905352194181,1,-4,-5,3,-2,-1,-1,1
1537905352215125,-1,-2,-2,-4,0,-1,1,-1
1537905352215125,-4,-4,-12,-3,-1,0,0,-3
1537905352216122,-3,1,28,14,6,0,-1,-3
1537905352216122,2,4,-5,-8,-2,-1,0,-1
1537905352230086,0,-12,19,5,1,1,1,0
1537905352230086,1,-2,-25,0,-2,-1,-1,1
1537905352231083,-2,-8,-22,-10,-4,-1,-1,-1
1537905352231083,0,7,4,7,3,0,-1,-2
1537905352244048,1,17,0,-2,-2,-1,1,0
1537905352244048,-1,-4,15,4,0,0,-2,0
1537905352251029,-4,-16,-28,-9,0,0,-3,-3
1537905352251029,-2,2,4,3,0,0,-1,-1
1537905352267983,-2,0,-6,-6,2,0,0,1
1537905352267983,2,-10,-3,8,-5,-1,0,2
1537905352268980,0,6,1,-5,-3,-1,-1,0
1537905352268980,-5,-10,8,-5,-6,-4,-2,-5
1537905352297903,4,0,-23,12,3,-1,-1,1
1537905352297903,-5,-7,-2,-11,-2,-3,-1,-1
1537905352298901,0,8,3,-10,-6,-1,-1,-1
1537905352298901,-1,-2,13,8,3,-1,-2,-2
1537905352303887,1,-2,-2,-7,-5,-1,-2,-1
1537905352303887,2,12,-1,12,6,0,1,0
1537905352312863,-2,-24,17,0,-5,-2,-1,0
1537905352312863,-3,-11,-16,1,3,0,0,-3
1537905352327824,0,5,-7,13,-1,-2,-3,-1
1537905352327824,-2,-1,14,-2,0,0,-1,-1
1537905352328821,2,3,-21,-1,6,2,1,2
1537905352328821,-1,11,5,-5,-7,-1,1,0
1537905352349764,-3,-10,6,-3,-5,-2,-2,-1
1537905352349764,0,-4,-15,-5,-3,0,-1,0
1537905352351759,-3,2,-11,-9,-3,-1,-2,-1
1537905352351759,-3,-5,35,3,-1,0,-1,-3
1537905352363726,3,10,-29,0,3,1,1,2
1537905352363726,0,-5,-3,-3,-3,-2,-2,-1
1537905352372702,-1,1,3,-4,-1,0,1,-1
1537905352372702,2,-6,-18,0,-1,-2,-1,-1
1537905352387662,0,-4,8,-3,-2,-1,-1,-1
1537905352387662,-1,8,8,-2,-2,-1,0,-1
1537905352388660,-6,-13,-18,3,-1,0,0,0
1537905352388660,-2,1,0,-3,-1,0,-1,1
1537905352409604,-1,0,11,-5,-1,-2,0,0
1537905352409604,2,3,-18,1,0,1,0,-1
1537905352411599,2,-1,20,-2,-3,-1,-1,1
1537905352411599,0,1,-1,0,-1,-1,-2,0
1537905352423567,-2,1,9,20,8,5,1,1
1537905352423567,-4,-7,1,-17,-3,-2,1,-1
1537905352432543,-2,6,18,-6,5,-2,-4,-5
1537905352432543,3,6,-3,16,-1,0,-1,1
1537905352447503,0,-8,-30,9,0,-1,-3,-2
1537905352447503,-1,0,10,-28,-25,-10,-4,-1
1537905352448501,-2,-2,9,26,43,10,1,-2
1537905352448501,2,7,-22,7,-34,-8,2,2
1537905352470442,-9,-13,-11,-92,23,12,-4,-7
1537905352470442,2,10,53,79,-29,1,3,2
1537905352471439,-3,-10,-90,-49,-79,-33,-11,-3
1537905352471439,-1,-3,103,42,50,12,1,0
1537905352483407,-3,-10,-50,-66,-44,-13,-3,-3
1537905352483407,4,23,14,-61,-10,-1,-7,-2
1537905352492383,8,-10,-65,33,58,28,11,13
1537905352492383,1,3,-19,-7,-26,-9,-5,5
1537905352507343,2,9,31,0,23,13,10,9
1537905352507343,-3,6,26,77,51,12,6,-6
1537905352513327,-4,14,37,-98,-51,-22,-8,-4
1537905352513327,-5,8,1,2,4,0,1,-7
1537905352530282,4,13,-92,-2,-16,-8,-6,1
1537905352530282,-1,-7,-17,-50,7,0,-2,1
1537905352531279,1,13,60,75,6,1,1,-1
1537905352531279,-2,-5,-45,-43,-5,1,-3,-1
1537905352543247,-4,9,68,43,0,-4,0,0
1537905352543247,0,-14,-26,-14,0,-3,-3,-1
1537905352552223,1,-5,-8,2,8,5,1,0
1537905352552223,-1,-11,21,-11,0,-1,-3,-3
1537905352575162,1,-11,-14,18,-9,-7,-2,1
1537905352575162,-1,-18,-22,6,5,-1,0,0
1537905352576160,-1,-8,16,-10,0,0,-1,-2
1537905352576160,-3,-8,-8,14,-1,-3,0,-4
1537905352590122,-3,-3,37,15,3,-2,1,-4
1537905352590122,0,-7,-10,-13,-6,-3,0,-1
1537905352591119,-3,1,12,14,0,2,0,-1
1537905352591119,-1,0,-10,-6,-1,1,2,-1
1537905352604084,2,2,-2,8,4,-3,-1,1
1537905352604084,0,-5,-5,0,0,1,1,0
1537905352613061,-1,1,2,3,-6,-7,-1,-2
1537905352613061,-1,-2,-19,1,6,2,-1,-1
1537905352627023,-2,-1,22,2,-2,0,-1,-4
1537905352627023,-3,0,-2,11,3,-1,-1,-1
1537905352634004,1,3,4,0,4,1,1,0
1537905352634004,0,-4,-14,-11,-1,3,0,0
1537905352649961,-1,0,22,4,-6,-3,-2,-2
1537905352649961,-1,0,-21,1,4,0,-2,0
1537905352650959,3,8,5,5,-4,3,1,2
1537905352650959,1,-2,-1,-2,5,-2,-2,0
1537905352663924,1,1,-1,3,-5,2,0,-1
1537905352663924,-2,-4,6,-1,-5,-3,-1,0
1537905352678884,-2,-1,18,-4,-5,-8,-4,-4
1537905352678884,-1,-6,-16,-7,-6,-1,-1,0
1537905352686863,3,7,-5,11,7,4,0,0
1537905352686863,-1,-3,-5,-2,-1,1,3,0
1537905352693844,-1,2,1,4,13,3,0,0
1537905352693844,-4,2,14,-1,-7,0,-3,-2
1537905352717780,-1,-2,0,0,-8,-4,-2,0
1537905352717780,0,1,-8,-1,7,0,-4,-1
1537905352718777,-3,0,-3,-5,-19,-5,-2,-4
1537905352718777,1,-2,-5,3,10,4,1,-1
1537905352732740,1,3,8,0,-5,-3,-1,-2
1537905352732740,1,1,0,2,3,1,-1,0
1537905352733737,1,-4,-6,-5,-3,1,-2,2
1537905352733737,-1,4,-2,1,1,0,-2,0
1537905352746703,-1,2,1,5,-5,-4,-1,2
1537905352746703,-2,0,6,2,2,-1,-1,-2
1537905352753684,0,2,21,-4,13,3,1,-3
1537905352753684,0,-2,-44,7,-7,-5,-2,-1
1537905352769641,1,6,52,13,1,-4,0,2
1537905352769641,0,-4,-29,-5,-1,-1,2,3
1537905352771636,-1,-3,2,-5,3,3,1,-1
1537905352771636,0,-1,17,3,11,5,1,0
1537905352792580,-4,-8,15,6,-2,-3,-2,-6
1537905352792580,1,-8,-86,-19,-5,-2,-3,-1
1537905352793577,1,2,80,-11,7,3,1,2
1537905352793577,0,12,48,22,-3,0,-1,-1
1537905352807540,3,-2,-21,54,36,17,7,4
1537905352807540,-12,-18,-43,-86,-69,-23,-8,-13
1537905352815519,1,-2,-51,29,4,7,6,4
1537905352815519,-3,1,58,1,-21,-11,-7,-4
1537905352829482,6,3,-110,-36,20,0,0,9
1537905352829482,14,33,127,40,11,4,6,11
1537905352831476,-9,-10,-20,69,21,4,1,-9
1537905352831476,-2,-43,-111,-65,-27,-16,-9,3
1537905352852420,0,20,105,49,27,5,-2,-4
1537905352852420,0,3,61,77,-15,-8,-4,-5
1537905352854415,-1,15,10,-95,-28,-13,-4,-1
1537905352854415,-9,-15,-83,-5,-24,-5,-4,-10
1537905352866383,5,26,71,15,-9,-2,-1,5
1537905352866383,-2,7,82,113,123,61,15,4
1537905352875360,-20,-6,-8,-97,-93,-31,-17,-23
1537905352875360,7,36,-104,24,-79,-37,-11,2
1537905352890320,8,5,35,-24,0,6,8,12
1537905352890320,1,3,52,16,26,13,0,2
1537905352891318,3,-9,18,55,33,7,-1,4
1537905352891318,-2,-20,60,-9,48,16,7,-3
1537905352912262,-5,-15,-52,-25,-17,-8,-3,-9
1537905352912262,2,-8,-48,-23,-22,-16,-4,-1
1537905352914257,1,-22,-20,9,16,3,1,2
1537905352914257,-1,-18,4,-11,8,2,3,-1
1537905352926258,-5,-20,4,-2,-17,-4,-3,-4
1537905352926258,-6,-19,-38,-30,-13,-9,-3,-5
1537905352935201,4,0,-32,2,1,0,1,3
1537905352935201,1,14,57,17,22,14,5,4
1537905352957141,-6,-5,-15,-4,-10,-5,-4,-5
1537905352957141,-4,1,-18,-26,-13,-8,-1,-3
1537905352959137,4,16,-12,6,1,-1,0,5
1537905352959137,4,10,27,13,18,6,1,2
1537905352972101,-5,-29,-11,-9,1,-3,-3,-5
1537905352972101,0,3,-29,-22,-21,-12,-6,-1
1537905352974096,4,5,12,7,-4,-2,1,7
1537905352974096,-5,-3,21,4,16,8,0,-3
1537905352986063,-2,-1,-22,-13,-12,-4,-2,-3
1537905352986063,1,-2,-1,-3,-3,-2,0,-1
1537905352995040,-2,-1,2,15,10,5,0,-1
1537905352995040,1,11,11,-6,4,-1,1,0
1537905353009999,-2,9,-4,-4,-5,-3,-1,-4
1537905353009999,0,8,1,-15,-9,-5,-1,-1
1537905353010997,0,-2,-22,13,8,1,-4,1
1537905353010997,1,9,4,9,7,-1,1,3
1537905353032938,-1,1,3,-1,0,1,-2,-1
1537905353032938,2,1,-10,-15,-14,-7,-3,4
1537905353033936,1,-1,0,0,5,1,0,-2
1537905353033936,-2,3,26,2,4,1,-1,-2
1537905353045904,-4,0,6,-1,1,-1,0,-2
1537905353045904,-2,-6,-18,1,2,0,-1,-1
1537905353060865,1,0,10,4,-1,0,1,1
1537905353060865,2,-1,-1,4,1,1,0,2
1537905353069840,-3,-2,1,-11,-5,-2,-1,-4
1537905353069840,1,0,-4,-8,-3,-4,-2,1
1537905353071835,0,-1,0,10,7,4,0,-2
1537905353071835,1,3,5,-9,-4,-3,0,0
1537905353092778,0,1,1,-7,-9,-4,-2,2
1537905353092778,2,1,-20,3,-2,0,0,1
1537905353093776,2,2,-1,0,-2,-3,-1,1
1537905353093776,-3,1,5,-1,6,2,-1,-3
1537905353105743,-1,1,21,15,19,6,2,-2
1537905353105743,-4,7,20,6,-5,-7,-3,-4
1537905353114719,0,10,-30,-26,-23,-2,0,1
1537905353114719,1,-9,-40,-9,6,3,0,0
1537905353129679,-5,-13,-6,-37,-5,-4,-2,-6
1537905353129679,6,-2,-10,45,17,6,3,7
1537905353131674,-12,-9,10,-11,19,2,1,-11
1537905353131674,4,3,-20,-83,-20,-6,-4,-1
1537905353152618,9,0,32,106,11,-1,0,10
1537905353152618,-5,-8,-75,-128,-24,-10,-7,-5
1537905353153615,-7,-21,-57,22,-12,-3,-5,-6
1537905353153615,8,19,118,-4,-17,-4,2,9
1537905353166580,-10,-18,-48,-26,16,10,1,-8
1537905353166580,8,25,88,89,63,22,10,5
1537905353174559,-4,15,39,-69,-72,-29,-13,-9
1537905353174559,-5,-4,-85,15,17,9,2,-2
1537905353189519,1,32,35,-14,-27,-14,-6,0
1537905353189519,-9,16,-29,-4,-26,-5,-1,-7
1537905353191514,4,43,57,25,40,18,7,5
1537905353191514,-3,7,2,10,-1,-4,-2,-5
1537905353212458,-1,-11,-49,-24,-2,0,0,1
1537905353212458,-4,1,21,3,-3,-8,-5,-5
1537905353213455,8,-31,-104,-18,22,8,5,9
1537905353213455,2,-9,5,29,-19,-9,-4,2
1537905353226421,2,-33,12,1,1,0,0,2
1537905353226421,0,-94,13,-21,-11,-4,-1,-2
1537905353235397,2,-95,22,10,-9,-4,-1,-2
1537905353235397,-3,-58,12,11,16,6,2,-5
1537905353250357,-5,-11,-64,-20,-9,-2,-1,-4
1537905353250357,-4,40,10,0,-7,-1,-2,-5
1537905353251355,1,46,14,17,3,0,1,0
1537905353251355,-4,31,1,-1,11,2,2,-3
1537905353272299,-2,45,24,-3,-5,-4,-2,-2
1537905353272299,2,24,-18,-2,-11,-5,-2,3
1537905353274295,-1,20,5,7,11,5,0,0
1537905353274295,-3,13,11,4,3,0,0,-1
1537905353286261,2,4,-9,-9,-12,-3,-2,1
1537905353286261,0,1,-5,2,3,2,2,0
1537905353301221,0,0,21,3,7,1,0,1
1537905353301221,1,3,4,-1,-9,-4,-3,0
1537905353310197,2,-22,-7,1,3,0,-1,0
1537905353310197,-3,-11,2,-5,0,0,-1,-2
1537905353311194,-1,-1,16,7,2,-2,-1,-1
1537905353311194,-1,-2,-8,0,-3,-2,-3,-2
1537905353341114,2,-6,1,-4,-1,0,-2,1
1537905353341114,1,6,0,-3,-1,-3,-1,1
1537905353343109,-5,-13,-8,-2,-4,0,-1,-2
1537905353343109,1,19,7,4,1,-3,0,1
1537905353358068,-1,7,4,0,0,-1,1,-1
1537905353358068,3,34,4,1,-3,1,-2,-5
1537905353359067,2,-7,24,-7,-7,-3,-3,2
1537905353359067,3,9,-24,-12,5,2,0,2
1537905353362058,-2,-11,2,1,-3,-1,-2,0
1537905353362058,-3,3,-11,-1,-4,-3,-1,1
1537905353370036,-2,-4,10,-4,11,3,1,-4
1537905353370036,-7,-23,-14,0,-24,-8,-4,-4
1537905353384996,6,14,20,13,3,2,1,3
1537905353384996,0,-9,-18,-19,-6,-3,-1,0
1537905353385994,4,0,7,3,0,1,1,1
1537905353385994,-2,-17,-4,-4,7,3,-1,2
1537905353398959,-3,-1,-22,-6,2,0,-3,-8
1537905353398959,-1,-15,8,5,-3,-2,-1,0
1537905353407935,4,39,2,8,6,1,2,2
1537905353407935,-5,-12,-9,2,4,5,8,15
1537905353421898,-9,3,10,-2,-6,-4,-17,-32
1537905353421898,5,-5,4,0,1,0,0,4
1537905353428879,-4,10,6,-2,-5,-3,0,5
1537905353428879,6,16,-8,4,3,1,0,1
1537905353444836,3,13,2,-7,-4,1,4,6
1537905353444836,-2,2,7,-6,1,1,0,0
1537905353446831,-3,1,13,16,1,-1,-3,-6
1537905353446831,3,3,23,3,3,1,-2,0
1537905353458799,5,-7,-37,-7,9,4,4,13
1537905353458799,4,-3,7,11,-3,-2,-2,4
1537905353467775,3,-17,26,-8,-2,-2,1,4
1537905353467775,0,-27,-7,3,0,-3,-3,-4
1537905353481738,0,-26,-4,-14,-7,-3,2,5
1537905353481738,-1,-20,4,16,11,3,1,1
1537905353488719,2,-21,-18,-25,-11,-3,-3,-4
1537905353488719,3,10,14,18,4,1,-3,-3
1537905353504676,2,-13,-10,-18,-9,-1,2,3
1537905353504676,-2,12,-3,3,0,-1,-2,-2
1537905353506671,-3,30,-7,3,3,0,-2,-1
1537905353506671,-1,49,-6,-1,5,1,-2,-4
1537905353518639,-3,10,21,9,-3,-3,2,5
1537905353518639,3,10,16,-2,-1,-2,-2,0
1537905353527615,6,26,-36,-3,3,1,1,8
1537905353527615,-1,-8,-6,-10,-6,-2,-1,1
1537905353541578,3,16,20,9,3,1,-1,2
1537905353541578,-2,-19,-26,-19,-5,-1,0,-2
1537905353548559,4,-1,6,16,6,1,-1,2
1537905353548559,4,-15,-17,-6,-3,-2,-1,-1
1537905353564517,-2,3,14,-1,-1,-4,-2,1
1537905353564517,-1,-11,-7,-2,-2,-1,-1,-1
1537905353566512,-2,-10,-2,11,-2,0,-2,-2
1537905353566512,-1,1,31,-21,-10,-5,-1,-2
1537905353578480,0,-2,-14,0,5,1,-1,1
1537905353578480,3,12,4,3,1,0,-1,0
1537905353587456,-7,-9,-13,-6,-3,-3,-3,-4
1537905353587456,-5,-2,8,13,6,2,-2,-3
1537905353601418,-4,8,7,-5,-5,-4,0,-3
1537905353601418,2,7,-18,-3,-3,0,0,1
1537905353608399,2,-5,1,4,2,0,-2,-2
1537905353608399,-1,2,-10,-8,0,0,-1,-1
1537905353625355,0,15,24,12,0,0,-1,0
1537905353625355,-3,-26,-38,-5,2,-1,-1,-4
1537905353626352,-3,1,13,-4,-1,0,1,1
1537905353626352,6,13,14,2,-1,-1,-1,1
1537905353638320,-1,-12,-10,2,2,0,0,-1
1537905353638320,-4,4,-11,4,1,0,-1,-1
1537905353647296,3,-5,-10,-3,-1,0,0,1
1537905353647296,-2,-5,3,-1,-1,1,-1,1
1537905353662255,4,1,-4,-11,2,-2,1,0
1537905353662255,-4,-5,10,22,-4,-2,-1,-3
1537905353668240,-6,-14,-17,-8,-4,-2,-3,-3
1537905353668240,-3,6,1,5,2,0,-2,-2
1537905353685194,-4,-4,-7,-5,-1,1,0,-2
1537905353685194,-3,-6,17,-5,1,-1,2,-4
1537905353686191,-2,1,-3,5,2,1,2,-2
1537905353686191,-2,-12,-8,-5,-2,-2,0,-4
1537905353698159,-4,10,-4,7,3,0,-1,-2
1537905353698159,-3,-4,38,-2,-1,-3,-2,-1
1537905353707135,-4,-1,-26,0,-5,-2,-1,-4
1537905353707135,-1,-2,-36,-7,1,1,0,4
1537905353722095,1,3,9,0,-4,-3,-1,-1
1537905353722095,0,9,8,1,0,-1,-2,-2
1537905353728079,0,-7,23,11,1,-1,-1,-3
1537905353728079,-1,-6,-14,-15,0,0,1,-4
1537905353746032,0,8,9,7,-4,-2,-3,1
1537905353746032,-2,-4,4,-5,-2,0,0,1
1537905353751018,-2,0,-1,6,2,-1,-2,-1
1537905353751018,0,10,-4,-10,3,0,-1,-3
1537905353758997,-2,-8,-6,15,-8,-3,-2,-1
1537905353758997,0,-9,1,-9,1,1,-1,-1
1537905353767973,3,13,-1,0,-1,1,0,0
1537905353767973,-3,1,1,10,0,-1,1,-2
1537905353782933,-1,-5,0,-17,-1,-2,-1,-1
1537905353782933,-5,-7,-21,-2,-3,-2,1,0
1537905353788917,-2,5,-15,-10,-1,0,-1,-3
1537905353788917,1,5,33,8,2,2,0,1
1537905353803877,0,-8,-4,-2,2,-1,1,-2
1537905353803877,-3,7,-14,7,1,-1,-1,-1
1537905353810858,-4,-13,5,-9,-2,-3,-2,-1
1537905353810858,-7,-36,-11,-5,-6,-3,-2,-6
1537905353826816,3,5,-31,-1,5,2,0,3
1537905353826816,3,2,6,-4,-4,-4,-2,0
1537905353827813,2,13,13,2,-3,-2,0,0
1537905353827813,-4,-5,14,7,-1,0,-2,-3
1537905353842773,-4,-16,-45,-6,1,1,1,-2
1537905353842773,3,0,63,18,2,3,2,-3
1537905353848757,4,18,-29,-12,-4,-1,-1,5
1537905353848757,3,-5,8,9,-1,-2,0,1
1537905353863717,-3,6,3,-1,0,1,0,-2
1537905353863717,-2,-24,-17,-9,1,-1,-1,-1
1537905353870698,-5,-9,27,1,-4,-2,-1,-2
1537905353870698,1,0,-24,15,5,1,-1,1
1537905353887653,3,24,22,-12,-8,-2,-2,0
1537905353887653,0,-18,-38,-2,-5,-1,-2,0
1537905353887653,1,12,35,4,2,0,2,-1
1537905353887653,4,-9,51,2,2,0,1,2
1537905353902613,-3,-26,-26,3,-2,-2,-2,-6
1537905353902613,-3,23,-43,-8,7,2,0,3
1537905353908597,3,-13,-30,-3,0,2,-1,1
1537905353908597,-4,6,7,-5,-3,-3,-1,-2
1537905353923557,0,-5,16,2,3,2,-2,-3
1537905353923557,1,4,16,-3,-9,-3,-2,-5
1537905353931536,-1,-5,-15,3,1,-1,0,-5
1537905353931536,0,5,-17,4,-2,0,-1,-1
1537905353946496,2,17,15,-12,-6,-3,-1,-1
1537905353946496,-5,-30,-20,-7,-3,-2,-1,-1
1537905353947495,3,15,18,8,3,0,0,1
1537905353947495,3,-3,0,1,-1,-3,-1,0
1537905353962453,-3,-4,-1,6,2,0,1,-2
1537905353962453,2,25,38,-5,-1,-1,-2,-1
1537905353968437,-3,-25,-64,-8,-4,-3,-3,0
1537905353968437,1,3,17,1,-1,-1,-1,-1
1537905353983397,-1,2,-34,1,-1,0,-1,1
1537905353983397,3,9,33,9,2,0,-1,2
1537905353991375,-1,-4,10,-15,-8,-1,-1,-1
1537905353991375,-4,7,-22,-8,1,1,-2,-4
1537905354006335,1,1,6,12,1,-5,-2,2
1537905354006335,0,0,0,-1,-1,0,-1,-1
1537905354007333,-5,-5,-2,2,6,0,0,-3
1537905354007333,3,0,3,-6,-7,-1,-1,-1
1537905354022293,-3,-6,11,19,1,0,-1,0
1537905354022293,-4,2,-18,-41,-8,-2,0,0
1537905354028277,-1,3,14,-1,-1,-2,-2,-2
1537905354028277,-3,-1,-12,-8,-2,-1,-2,-1
1537905354043237,-5,-15,9,1,-3,-2,-2,-4
1537905354043237,6,19,-5,20,3,1,0,5
1537905354051216,1,3,-5,-8,-1,-2,-1,0
1537905354051216,-4,-19,17,0,-4,-1,-2,-2
1537905354067173,0,13,-5,-10,1,1,0,1
1537905354067173,0,-6,22,11,4,0,-1,-1
1537905354067173,-3,-10,-9,-3,-1,-2,1,-3
1537905354067173,4,20,-1,7,0,-2,-1,2
1537905354082134,-6,0,77,-7,-2,-1,-3,-4
1537905354082134,9,29,-11,3,4,1,2,4
1537905354089116,-1,-28,-29,-3,-2,0,0,1
1537905354089116,-6,11,25,6,0,-2,-2,-7
1537905354104076,-9,-30,-75,-19,-1,-1,-1,-3
1537905354104076,4,14,7,0,-1,-3,-2,-2
1537905354111058,2,4,34,10,1,-1,-2,-2
1537905354111058,-1,-2,-28,-11,-4,1,-1,1
1537905354127014,13,5,-17,5,5,4,1,10
1537905354127014,-9,-13,2,1,-3,-5,-1,0
1537905354127014,4,2,-3,-7,-6,-6,-6,-11
1537905354127014,4,-3,6,6,8,20,25,70
1537905354142971,-5,-1,5,-2,-6,-15,-18,-65
1537905354142971,-16,-6,-26,-8,-10,-35,-9,-10
1537905354156933,1,-5,24,1,-4,-20,-50,-11
1537905354156933,-8,1,-11,4,2,4,39,0
1537905354163914,11,1,-7,-1,3,13,-22,19
1537905354163914,-14,-3,7,4,0,10,28,-12
1537905354170896,4,3,11,-1,0,2,-24,-16
1537905354170896,-1,1,-3,-5,0,-7,-14,-9
1537905354186853,12,10,-5,7,13,11,26,20
1537905354186853,-5,-5,7,-7,-13,-5,2,-15
1537905354187850,-9,0,11,-4,4,7,7,15
1537905354187850,-4,0,-23,12,-7,-6,-19,-8
1537905354202810,2,-5,-44,-12,-3,-2,5,-2
1537905354202810,12,-11,-32,17,20,13,-3,26
1537905354208795,0,-3,-2,-22,-15,-3,17,6
1537905354208795,0,16,18,0,0,-3,-7,-14
1537905354223755,-2,8,73,14,2,-3,2,4
1537905354223755,-2,-36,-66,-27,-6,2,-11,-8
1537905354239712,2,38,85,30,13,7,13,10
1537905354239712,-7,-16,-9,-8,-5,-7,-9,-23
1537905354254672,10,11,-41,15,8,3,1,16
1537905354254672,0,-7,-27,-17,-22,-3,-7,2
1537905354254672,-5,19,-22,-20,-7,-2,8,-8
1537905354254672,-1,-32,2,-3,0,-1,-3,-1
1537905354277610,-6,6,32,4,-2,-3,1,-2
1537905354277610,1,1,-67,-1,1,0,-3,-3
1537905354278608,-1,3,7,4,3,2,8,0
1537905354278608,10,3,36,-10,-7,-7,-10,-13
1537905354291573,-9,-15,-18,-12,-2,0,-1,0
1537905354291573,-5,6,46,6,0,2,-5,-9
1537905354292571,0,-11,-34,-1,-2,-1,4,8
1537905354292571,-1,2,-8,1,4,0,-5,-6
1537905354314511,-3,0,8,-1,-7,-4,1,-4
1537905354314511,3,4,30,4,2,2,0,4
1537905354314511,1,-2,6,7,5,5,5,-7
1537905354314511,-2,-5,-46,-7,-1,-4,-4,-2
1537905354328474,-2,6,15,-5,-6,-3,1,7
1537905354328474,-2,-1,8,0,1,1,0,2
1537905354336453,0,-4,13,2,0,1,7,-4
1537905354336453,2,4,-54,-1,0,-2,-5,-10
1537905354351413,1,5,3,-3,-4,-2,-3,1
1537905354351413,1,-13,5,3,3,2,-2,-7
1537905354352411,0,-3,26,8,0,-1,2,12
1537905354352411,1,3,-22,-4,-3,-1,1,1
1537905354374352,-8,-10,37,-9,-4,-2,-1,-11
1537905354374352,8,8,-44,1,2,1,2,10
1537905354375349,-1,-4,-55,1,-3,-2,-3,-3
1537905354375349,-3,-3,17,0,2,1,0,2
1537905354388315,0,4,-19,1,-1,0,0,1
1537905354388315,-5,-12,61,-3,1,-2,1,-1
1537905354396293,-6,-1,-16,0,-1,0,-1,-5
1537905354396293,1,2,-7,-4,0,0,0,-1
1537905354411253,1,2,30,1,-2,-1,0,4
1537905354411253,1,9,-7,-1,-1,0,1,2
1537905354412250,0,-3,-5,-1,-4,-1,-3,-7
1537905354412250,1,-5,8,4,2,2,3,5
1537905354434192,-3,7,-4,-11,-11,-4,3,22
1537905354434192,4,7,-7,3,5,4,2,6
1537905354435189,-2,-14,17,2,6,2,1,3
1537905354435189,-1,0,4,-6,-3,-2,0,3
1537905354448154,0,-7,-22,6,5,1,-3,-8
1537905354448154,-3,5,27,4,-2,-2,-3,-7
1537905354457130,2,-2,-5,-1,1,0,0,7
1537905354457130,-4,-4,9,0,-2,-2,-3,-6
1537905354472091,-1,2,10,0,2,0,-1,-6
1537905354472091,0,-3,-3,3,-1,1,-1,2
1537905354472091,-3,3,-9,10,2,-2,-2,-4
1537905354472091,-1,1,12,-12,-7,0,0,0
1537905354494032,-1,0,-37,-3,-1,1,-1,-4
1537905354494032,-4,20,51,-6,0,1,2,-2
1537905354495030,7,-6,-47,-9,-10,-3,0,6
1537905354495030,-2,6,25,3,0,-2,-3,-1
1537905354508993,-6,-17,-55,-3,2,0,2,-3
1537905354508993,-3,2,50,-2,-4,-2,-5,-5
1537905354516971,-5,9,-6,0,0,-1,0,-6
1537905354516971,4,-6,6,0,1,-1,0,2
1537905354531931,2,-2,-4,2,1,-1,-1,-3
1537905354531931,1,0,-9,-7,-2,-2,-4,-2
1537905354532929,-1,-4,23,-2,-3,-2,-1,3
1537905354532929,3,16,-31,2,2,-1,-2,-1
1537905354553872,-6,-9,-2,-1,0,-1,-6,-18
1537905354553872,5,-8,-12,-3,-1,-4,-3,-4
1537905354554870,-3,7,17,2,-2,-1,-2,-3
1537905354554870,-3,-2,4,1,-4,-3,0,0
1537905354584790,2,-5,14,1,-2,-1,-2,-4
1537905354584790,2,22,5,9,2,-1,0,1
1537905354585787,1,-10,-39,-9,2,0,0,0
1537905354585787,-1,1,28,5,0,-1,-2,-6
1537905354591771,3,0,-16,-5,-4,-2,1,6
1537905354591771,-4,-11,-14,-7,2,1,1,1
1537905354592769,0,3,57,1,-6,-3,-1,-3
1537905354592769,-3,-4,-13,4,5,2,2,1
1537905354622688,0,0,-7,2,5,1,1,4
1537905354622688,1,0,-13,4,-5,-1,-2,-1
1537905354622688,-2,-10,-20,-19,-5,-1,-1,-3
1537905354622688,0,-6,1,-5,-4,-2,-1,1
1537905354637648,-1,4,50,1,0,-1,-2,-3
1537905354637648,1,0,-15,3,3,0,0,-1
1537905354637648,-1,9,-12,3,1,0,-1,0
1537905354637648,-5,-15,6,9,0,-1,-2,0
1537905354651611,1,-4,-7,-12,-4,-2,3,5
1537905354651611,-1,-11,-5,3,-1,-1,-4,-6
1537905354652609,2,-1,-16,1,-1,-2,1,0
1537905354652609,0,6,43,0,2,2,0,-1
1537905354674549,-4,-4,-71,-10,-1,-1,-1,-1
1537905354674549,-1,-8,18,8,0,-1,1,2
1537905354675548,5,11,-25,-1,-1,0,0,3
1537905354675548,-1,-1,-1,-3,-2,-2,0,-2
1537905354697488,-2,-4,23,5,-7,-3,0,0
1537905354697488,-1,2,-13,-6,1,1,3,0
1537905354698485,-5,-10,5,5,7,1,-2,-4
1537905354698485,1,5,-15,2,-3,0,0,0
1537905354711451,4,8,21,11,3,1,-2,3
1537905354711451,-4,3,-1,-3,-4,-1,-1,-1
1537905354712448,1,-9,-9,-5,-3,-1,-1,0
1537905354712448,-1,0,11,-2,-1,-1,0,1
1537905354735386,1,3,7,1,-2,-1,0,1
1537905354735386,-4,4,27,1,-1,-1,-4,0
1537905354735386,-4,-3,-9,1,2,0,0,-1
1537905354735386,3,-1,-39,-6,-3,-2,0,-4
1537905354757328,-1,2,62,-5,-5,-2,1,3
1537905354757328,4,-11,-10,-1,1,0,0,-1
1537905354758325,-5,1,-25,-1,-3,-1,0,0
1537905354758325,-6,-7,7,-3,1,-1,-2,0
1537905354771291,4,5,4,0,-1,-3,-2,-8
1537905354771291,-1,2,-26,-7,-2,-1,0,1
1537905354772288,4,0,42,9,1,0,1,4
1537905354772288,-1,1,-5,1,2,0,-1,-4
1537905354795227,-2,-3,13,-3,-4,-2,-1,-2
1537905354795227,2,7,27,1,-1,1,1,-2
1537905354795227,2,2,-46,-9,-1,-1,1,7
1537905354795227,0,-6,26,-1,2,1,-1,-1
1537905354817168,0,1,-23,3,1,1,-1,2
1537905354817168,-6,-8,-8,1,0,-4,0,-3
1537905354818166,-10,5,58,4,-3,-3,-4,-11
1537905354818166,2,-7,-67,-7,2,2,3,3
1537905354832128,0,-4,17,-2,0,-1,-2,1
1537905354832128,3,5,-17,-4,-4,-3,-1,0
1537905354832128,-1,-3,10,0,0,1,0,-3
1537905354832128,-2,0,-3,5,-2,-1,-1,-1
1537905354855067,0,1,-7,4,4,1,2,1
1537905354855067,0,-5,-20,-5,-2,-1,-1,0
1537905354856064,-4,-8,4,-3,-1,-2,-1,-4
1537905354856064,-1,13,3,3,-1,-3,-1,-2
1537905354884987,-5,-4,36,1,-1,-1,0,1
1537905354884987,8,-12,-10,-1,2,-1,-1,3
1537905354885984,0,1,2,-3,0,0,2,2
1537905354885984,-1,-7,-21,-1,-3,-1,-2,-1
1537905354899947,-3,12,-7,0,1,0,-2,-3
1537905354899947,-4,0,6,3,-1,0,-1,0
1537905354900944,0,-4,-4,1,0,0,0,-1
1537905354900944,3,5,24,2,-1,0,1,2
1537905354914907,3,-2,0,-3,-2,-2,0,-1
1537905354914907,-10,-6,-27,-10,-4,-4,-5,-16
1537905354915904,2,-4,-21,12,7,1,1,12
1537905354915904,-4,6,33,-21,-9,-3,-1,1
1537905354937846,2,-2,-8,1,-1,-2,-1,-1
1537905354937846,1,1,12,3,-2,0,-2,1
1537905354937846,-2,-2,2,-4,-2,-1,-1,-5
1537905354937846,1,-3,-12,-2,0,1,0,0
1537905354951809,-3,-8,-15,1,-1,-1,2,0
1537905354951809,-1,2,-18,0,2,1,1,0
1537905354952806,1,2,11,-3,-3,-2,-1,-3
1537905354952806,-1,1,-14,9,4,-1,1,0
1537905354974747,0,10,0,-1,-5,-1,-2,-3
1537905354974747,3,-15,-10,-4,-2,-2,1,4
1537905354975746,0,14,41,1,1,1,-2,0
1537905354975746,-2,-2,-16,-1,3,1,0,-3
1537905354997686,-1,-2,-13,5,0,0,-1,-3
1537905354997686,-2,7,18,2,-1,-1,0,1
1537905354997686,-1,-4,-13,-6,-3,0,1,1
1537905354997686,2,3,18,2,-6,-3,-2,0
1537905355011649,-3,-2,-25,-7,1,0,-1,0
1537905355011649,1,-5,12,2,0,-1,0,4
1537905355012647,-8,-4,-23,-1,-1,-1,-3,-6
1537905355012647,-3,1,11,-1,-2,-1,0,-2
1537905355034587,-5,-14,31,-4,-1,-1,-2,-3
1537905355034587,0,6,-12,1,-4,-1,0,2
1537905355035585,6,3,-14,4,0,-2,-1,2
1537905355035585,1,-5,56,-7,-2,-1,0,1
1537905355057526,-2,-13,-52,5,-4,-2,-2,-1
1537905355057526,-3,0,11,-2,3,0,-2,1
1537905355058524,-3,-3,-3,8,1,-1,0,-2
1537905355058524,-4,1,0,-4,0,-1,-2,-6
1537905355071489,3,11,40,0,0,1,0,0
1537905355071489,1,0,-11,0,-1,0,0,-1
1537905355072486,0,0,-4,0,-1,-1,-1,-1
1537905355072486,2,-6,-25,-4,-5,-2,-2,-1
1537905355095425,-2,-1,-5,-3,-1,-2,-2,-2
1537905355095425,-2,4,29,4,2,-2,-1,-3
1537905355096423,-2,-6,-26,-11,-4,-1,-3,-4
1537905355096423,5,1,-19,4,0,-1,0,3
1537905355117367,1,6,5,4,3,-2,-1,2
1537905355117367,-3,-4,21,-2,-2,0,-1,-3
1537905355118366,-2,-6,3,1,0,-1,-1,-1
1537905355118366,-3,3,0,-4,-2,-1,-1,-3
1537905355131331,-2,-11,-10,-4,-4,-3,-1,0
1537905355131331,-2,-1,-51,-3,2,0,-1,-2
1537905355139309,4,10,46,8,-1,0,2,2
1537905355139309,-2,-2,-16,-10,-1,-1,-2,-5
1537905355155264,-1,1,0,1,-2,-1,1,0
1537905355155264,-5,-4,-4,2,-2,-1,-1,-2
1537905355156262,-2,-5,-29,-4,-1,-2,-1,-1
1537905355156262,1,0,3,6,-1,-1,-1,2
1537905355177205,1,2,-9,-3,1,0,-2,0
1537905355177205,-5,-8,-3,-4,-2,-1,0,-5
1537905355178203,0,14,17,-3,3,0,-1,-1
1537905355178203,2,2,6,5,-7,-4,-1,4
1537905355191169,1,0,26,-7,-2,1,-1,-2
1537905355191169,-1,-1,-55,-1,-1,-3,1,0
1537905355199147,-2,-7,21,-2,-5,-1,-3,-3
1537905355199147,1,-2,-37,7,8,3,1,1
