timestamp,emg1,emg2,emg3,emg4,emg5,emg6,emg7,emg8
1537912605219454,-3,-4,-21,-4,1,7,0,0
1537912605219454,-1,-2,-3,-3,-4,0,0,-2
1537912605220452,0,-4,-3,-1,2,-1,0,-2
1537912605220452,-1,7,26,3,-1,-6,-4,1
1537912605224442,-1,3,5,2,0,4,-1,-3
1537912605224442,-1,4,-1,4,-2,-2,-4,-4
1537912605225439,1,2,-43,-7,-2,1,0,-1
1537912605225439,-1,-21,7,-5,-2,0,3,-1
1537912605230425,-3,-3,-29,-5,-2,-3,-1,-2
1537912605230425,1,-8,-15,-10,-5,-3,0,1
1537912605242393,2,-7,9,-5,0,0,0,-4
1537912605242393,-1,0,-8,2,1,-1,-2,-4
1537912605245385,1,3,26,6,-1,-2,0,0
1537912605245385,-3,5,14,4,-1,-3,-2,-2
1537912605260345,-1,10,10,4,-11,-9,-4,-1
1537912605260345,-1,17,43,6,16,15,4,-2
1537912605270319,-3,-5,-18,2,-1,-10,-4,-2
1537912605270319,1,-10,-39,-8,1,-1,-1,-1
1537912605277300,3,-3,0,-7,-6,-4,-1,2
1537912605277300,1,7,8,1,-2,-2,-3,-2
1537912605293257,-2,2,11,-1,-1,2,0,-3
1537912605293257,0,-1,5,0,2,-5,0,0
1537912605299241,-3,-8,-14,-2,1,3,-1,2
1537912605299241,-3,-12,-11,-5,0,3,2,-1
1537912605346116,-1,-12,-3,2,-1,-5,0,-3
1537912605346116,2,7,-1,3,-12,-7,0,1
1537912605347113,1,3,1,4,10,-2,-1,-1
1537912605347113,-3,-9,-4,-7,-10,-10,-3,-2
1537912605348111,-1,0,3,1,2,-2,-2,0
1537912605348111,-2,-6,-4,-1,-6,-2,-9,-5
1537912605350105,4,2,3,-2,-5,0,5,5
1537912605350105,1,2,-1,0,7,1,2,2
1537912605359081,0,1,-2,-4,-3,-2,-2,-2
1537912605359081,1,-1,1,1,0,-8,-2,1
1537912605365065,-4,0,0,2,-4,6,-3,-3
1537912605365065,-1,-2,-2,-1,0,5,4,0
1537912605374041,1,0,-1,0,-7,-18,-7,1
1537912605374041,-1,0,-1,-2,10,12,3,-2
1537912605388004,3,-1,0,1,-5,-11,3,3
1537912605388004,-2,-4,-2,-3,0,8,1,1
1537912605396980,-4,3,1,-1,0,0,-4,-2
1537912605396980,-3,-9,66,10,1,-5,-2,-3
1537912605402964,-5,12,-45,-3,1,-2,-7,-6
1537912605402964,4,0,-32,-12,-6,-3,3,1
1537912605418921,5,-9,-11,-9,-4,7,7,5
1537912605418921,-3,-5,-5,-4,6,3,-4,-2
1537912605425903,-4,-13,30,2,-17,-9,-4,-5
1537912605425903,1,9,21,13,10,24,9,4
1537912605434879,-6,5,-10,-6,2,-23,-17,-14
1537912605434879,5,0,-9,1,-2,-5,8,8
1537912605447844,-4,-3,4,1,0,-7,-7,-6
1537912605447844,-2,2,-8,-1,4,-10,-13,-2
1537912605456820,-5,-4,5,-1,-13,11,-2,-7
1537912605456820,1,0,-12,-2,-9,-5,-2,1
1537912605462804,0,-2,-2,-3,2,5,4,2
1537912605462804,-5,-4,1,-5,0,1,-1,-7
1537912605479759,3,-2,5,4,7,7,6,2
1537912605479759,-1,2,-10,-3,0,-3,-1,-1
1537912605494718,0,-1,-6,-5,0,-1,3,1
1537912605494718,-1,-4,8,1,-3,-5,-4,-2
1537912605495716,1,3,2,3,-1,3,4,3
1537912605495716,-2,0,-16,-4,-3,4,-1,-2
1537912605507684,1,-3,3,-1,0,-3,0,2
1537912605507684,2,1,4,3,-1,-5,-2,0
1537912605516660,-1,2,-2,0,2,3,-1,0
1537912605516660,2,1,-6,-1,1,2,3,2
1537912605522644,-2,-2,2,-3,3,6,0,1
1537912605522644,0,1,4,5,-4,-13,-5,-2
1537912605539599,2,3,-1,-1,3,6,7,7
1537912605539599,-1,-2,-3,-1,6,-2,-1,0
1537912605545583,2,-1,1,0,3,-2,-3,1
1537912605545583,0,-1,-1,3,-4,-9,-4,-2
1537912605554559,1,0,2,1,2,3,4,3
1537912605554559,-3,-2,-1,-2,-6,-8,-5,-6
1537912605567524,0,-1,-4,0,6,2,-2,-3
1537912605567524,0,-3,-1,0,2,1,1,3
1537912605576500,-2,-3,1,-2,-1,-4,-4,-3
1537912605576500,1,1,-4,-1,-1,-2,-3,1
1537912605583481,-1,-1,-1,0,0,-3,1,1
1537912605583481,-3,-3,1,-4,-7,-4,-3,-3
1537912605599439,-2,-3,-3,-2,-1,2,-1,-4
1537912605599439,-2,2,-1,3,-1,-4,-6,-3
1537912605605423,-1,-6,2,-5,-5,15,3,2
1537912605605423,-2,-6,-1,1,1,-1,1,0
1537912605614399,0,23,0,0,-6,-2,1,3
1537912605614399,1,-19,0,-2,3,6,2,3
1537912605628361,0,20,-2,0,0,-3,-2,-1
1537912605628361,-2,-9,1,-2,0,1,-1,-3
1537912605637337,-2,-12,-4,1,6,1,0,0
1537912605637337,-3,0,-5,-3,0,0,0,-3
1537912605650303,-1,-8,1,-2,-3,-1,-1,-1
1537912605650303,0,5,-1,-1,2,4,2,0
1537912605659279,-1,3,2,1,-5,-12,-5,-3
1537912605659279,-1,2,-2,-2,6,16,3,1
1537912605665263,-1,-3,-1,0,2,-1,-1,1
1537912605665263,-1,6,1,-3,-10,-6,1,-1
1537912605674239,-2,-6,-1,-1,14,10,1,-2
1537912605674239,-1,-1,-2,-1,-5,-7,0,0
1537912605688201,-3,-3,-3,-5,0,8,0,-4
1537912605688201,0,1,-1,-1,3,9,3,2
1537912605697178,-3,-5,-1,0,-1,0,-6,-3
1537912605697178,-1,3,-1,-2,2,-1,1,0
1537912605710143,0,1,4,3,-16,-20,-7,-1
1537912605710143,0,-1,-1,0,1,1,2,1
1537912605719119,0,-3,-1,0,-3,-4,-3,-1
1537912605719119,-2,2,-1,-3,1,7,3,-1
1537912605725103,1,0,1,1,-5,-7,1,3
1537912605725103,-3,-1,-1,-4,-3,-2,0,-2
1537912605734079,3,1,2,3,-1,-2,1,1
1537912605734079,-2,-1,-4,-4,-3,-3,-3,-4
1537912605748042,2,-2,-1,-1,2,0,-1,2
1537912605748042,-4,-1,-1,-1,3,5,-2,-4
1537912605757018,-1,0,-1,2,5,4,2,1
1537912605757018,0,-6,0,0,-7,-6,-1,1
1537912605770980,-2,4,-1,-1,1,2,-1,-3
1537912605770980,1,6,-6,0,-2,-7,-7,-2
1537912605778960,1,-3,1,-1,-8,-3,2,1
1537912605778960,-1,-3,-2,-2,13,10,1,-2
1537912605785941,3,-4,2,1,8,6,4,2
1537912605785941,1,-2,3,1,0,-4,-2,0
1537912605793919,0,3,-3,1,-1,3,2,0
1537912605793919,2,2,2,1,-10,-8,-3,0
1537912605807882,-2,-3,-2,-2,3,0,-2,-2
1537912605807882,0,-1,-1,-1,-2,-5,-3,-2
1537912605816858,-1,-3,-3,-4,-7,-9,-5,-4
1537912605816858,-4,2,0,0,5,2,0,-4
1537912605830820,0,-2,1,1,1,-2,-2,0
1537912605830820,-1,-2,-2,-2,-3,3,-1,-3
1537912605839796,-2,-1,-1,0,1,1,2,1
1537912605839796,3,4,2,2,-2,2,0,1
1537912605845780,-3,-3,-2,0,4,-9,-3,-2
1537912605845780,-2,-2,0,-2,-4,7,4,2
1537912605854757,0,0,-2,-3,-14,-3,-1,1
1537912605854757,-1,-16,-5,-1,-2,-4,-1,1
1537912605867722,-4,22,-2,-7,-1,7,-5,-8
1537912605867722,0,-5,2,0,-1,2,3,1
1537912605876698,0,-4,-1,-3,0,-6,-3,-2
1537912605876698,1,0,-1,2,-3,2,-1,0
1537912605891659,-5,-12,-4,-2,-6,-17,-5,-5
1537912605891659,1,3,4,5,9,-5,-4,1
1537912605906619,-6,0,-5,-7,-1,11,2,-4
1537912605906619,-4,-2,-2,-5,-9,-6,-7,-4
1537912605906619,-1,-4,-1,-1,0,-4,-4,-2
1537912605906619,0,-2,-3,1,1,-4,0,-1
1537912605914598,-1,2,1,0,4,-1,2,1
1537912605914598,2,15,5,4,-5,-10,-2,3
1537912605927563,1,-4,-2,1,10,24,13,1
1537912605927563,-1,-4,-1,-2,-8,-11,-6,1
1537912605936539,1,-3,8,-1,-4,0,-1,-1
1537912605936539,-2,0,-7,-1,6,5,0,-1
1537912605951499,1,-3,0,1,-5,-6,-1,3
1537912605951499,-2,0,0,2,7,3,4,2
1537912605958480,-1,13,-4,-6,-7,12,3,-2
1537912605958480,2,-14,-2,-4,0,2,0,0
1537912605965464,4,25,4,1,7,1,0,5
1537912605965464,-6,-14,-2,-6,-10,-11,-5,-7
1537912605980423,-12,-12,-11,-3,16,10,-8,-11
1537912605980423,4,2,-2,-7,3,8,6,7
1537912605988400,-14,-19,-14,-27,-6,22,5,-11
1537912605988400,-2,4,1,7,-1,-8,-6,-6
1537912605997375,6,11,14,11,-7,-6,0,4
1537912605997375,-3,3,-2,0,-9,-24,-14,-6
1537912606010341,-4,-14,-14,-25,12,24,11,1
1537912606010341,1,4,5,23,-1,-20,-8,5
1537912606019317,7,2,16,17,2,11,5,-1
1537912606019317,0,3,7,1,0,12,7,5
1537912606025301,-6,-3,-24,-44,-4,-13,-8,-1
1537912606025301,-7,-12,-23,-9,-2,3,-6,-11
1537912606040260,11,2,27,44,2,-21,-9,4
1537912606040260,5,18,26,21,28,30,26,14
1537912606048239,0,-2,6,6,-18,-28,-19,-7
1537912606048239,-18,-17,-26,-32,5,21,0,-20
1537912606057215,-11,-8,-31,-1,5,-37,-6,-10
1537912606057215,2,2,2,-8,25,60,14,6
1537912606070181,11,1,7,20,8,24,10,16
1537912606070181,-7,-20,-2,-23,-12,-29,-18,-3
1537912606079157,-3,28,-5,-20,-1,5,-1,-1
1537912606079157,0,-4,-3,2,-11,-22,-9,-8
1537912606085141,9,2,14,2,-4,0,7,5
1537912606085141,1,-3,-11,12,11,10,-4,-3
1537912606100101,-3,-5,12,21,-25,-16,-3,-6
1537912606100101,-5,23,8,-4,22,4,3,-2
1537912606108080,0,-10,9,36,-7,-6,8,-2
1537912606108080,5,18,27,7,-1,-14,-2,10
1537912606117056,-17,-25,-35,-37,-13,14,-12,-11
1537912606117056,5,-9,-29,-21,-25,-17,-4,4
1537912606131019,7,4,7,13,5,11,7,6
1537912606131019,-1,4,7,-22,-27,-17,5,-1
1537912606138001,-5,-4,0,-23,13,-3,-6,-2
1537912606138001,-21,-16,-6,7,-60,-9,-8,-24
1537912606145979,15,5,-2,8,14,-18,0,14
1537912606145979,12,4,-4,-28,-39,14,9,10
1537912606160939,9,23,42,21,-17,-20,1,12
1537912606160939,11,3,-1,34,41,8,8,-1
1537912606167921,-17,-8,10,20,-2,-10,-1,-6
1537912606167921,-11,-19,-51,-28,-13,4,6,0
1537912606177895,8,-13,-26,-19,10,29,-1,7
1537912606177895,14,12,35,36,5,-12,2,8
1537912606190859,5,16,32,46,50,58,24,2
1537912606190859,-2,6,29,23,22,-41,-36,4
1537912606197841,-21,-6,-3,-39,63,48,-5,-29
1537912606197841,-16,-28,-48,-23,-20,-34,-25,-14
1537912606205819,0,5,-10,-16,4,-38,-22,-4
1537912606205819,-1,-1,1,-12,-49,15,22,1
1537912606220778,2,2,-6,-2,-8,2,8,7
1537912606220778,-8,-5,-13,-53,-21,-29,-18,-8
1537912606227759,-22,-43,-43,-65,-26,9,-3,-16
1537912606227759,33,58,57,91,7,-4,3,13
1537912606236735,45,21,63,89,45,28,37,36
1537912606236735,9,16,13,16,32,9,6,12
1537912606250698,-19,-15,-25,-9,-49,-43,-24,-10
1537912606250698,-4,-26,-32,-20,47,28,17,16
1537912606257680,-18,-20,-15,-20,-45,-43,-24,-32
1537912606257680,9,2,13,-7,13,22,8,7
1537912606265658,4,13,5,3,56,15,12,17
1537912606265658,5,-3,31,-50,-43,-3,-14,-4
1537912606280620,-4,1,-67,6,1,11,10,-4
1537912606280620,-2,-1,-8,7,19,17,11,-2
1537912606287600,8,2,14,34,36,0,-5,-3
1537912606287600,-16,0,13,-24,37,25,18,-3
1537912606296577,-5,-16,-5,-5,-23,-42,-16,11
1537912606296577,14,11,15,28,-20,-25,-16,-4
1537912606311537,17,22,36,34,-9,44,20,5
1537912606311537,2,1,8,24,-19,-79,-21,4
1537912606318518,-19,2,-11,-40,-21,14,-11,-15
1537912606318518,-12,-22,-19,-27,-23,-17,-12,6
1537912606333478,2,2,-24,-23,-22,-3,-6,-13
1537912606333478,-1,-9,-18,-1,9,-9,1,-11
1537912606340459,-3,-27,-1,-8,-11,6,-5,1
1537912606340459,-10,26,9,8,-2,-13,4,-1
1537912606357414,3,4,8,-8,-7,-25,-5,1
1537912606357414,-9,-5,-12,-3,27,38,10,-11
1537912606358413,8,-2,-8,-8,-22,-22,-7,14
1537912606358413,0,-11,6,3,-2,8,6,2
1537912606371377,-11,-5,-4,-11,-17,-18,-8,-13
1537912606371377,1,3,1,19,18,25,5,-2
1537912606378358,2,13,14,4,16,6,7,4
1537912606378358,-16,-17,-25,-45,-11,-5,-7,-9
1537912606393319,4,-1,-10,15,-20,-25,-9,2
1537912606393319,22,20,30,38,25,11,9,12
1537912606400300,5,-1,12,12,25,15,14,7
1537912606400300,-8,-2,-2,-3,-22,-12,-6,-8
1537912606417253,-11,-6,-7,-13,-10,0,-3,-4
1537912606417253,-9,-7,-14,-7,-20,-4,-15,-11
1537912606418250,4,2,-2,-7,2,-4,4,8
1537912606418250,-3,-2,-4,1,15,7,-1,-5
1537912606431215,-3,-9,5,-4,-10,12,3,0
1537912606431215,1,9,-12,-4,-6,-13,-3,-4
1537912606445178,2,10,1,-3,-7,-9,1,-1
1537912606445178,0,-8,5,7,0,8,3,2
1537912606454154,0,2,7,0,-1,12,-4,-2
1537912606454154,-4,-10,-9,-5,0,-3,-1,-3
1537912606460138,-4,-3,1,-1,5,18,7,0
1537912606460138,4,3,6,2,-4,-4,2,-1
1537912606477093,2,-1,1,-2,-3,-6,-2,6
1537912606477093,-3,0,-6,0,-3,26,9,2
1537912606478091,-3,-5,-1,-5,-1,-25,-14,-8
1537912606478091,5,1,5,5,1,2,7,4
1537912606491057,-2,2,-3,-8,-7,-12,-1,-2
1537912606491057,-2,-3,-4,0,5,9,-2,-2
1537912606498038,-2,-3,1,2,-3,2,1,-3
1537912606498038,1,-4,-2,-2,-2,1,0,3
1537912606513994,-1,2,-1,-3,0,-3,-2,-2
1537912606513994,0,1,1,1,-5,-4,0,1
1537912606519978,-1,-4,-1,0,8,24,5,-3
1537912606519978,-4,-2,-2,0,11,-20,-12,-9
1537912606536933,1,4,-1,0,2,1,4,1
1537912606536933,0,-2,-2,-1,-7,-14,-3,4
1537912606537930,3,0,0,-1,-5,0,5,5
1537912606537930,-5,-3,-1,-3,1,6,-4,-7
1537912606550895,-1,3,0,-1,1,-11,-5,-1
1537912606550895,-3,-1,-2,-4,-21,-12,-1,-5
1537912606557877,0,1,0,3,6,6,-1,0
1537912606557877,2,0,2,3,0,2,2,3
1537912606573834,-1,-3,-1,-2,-3,0,0,0
1537912606573834,-3,-1,-2,-1,8,13,1,1
1537912606580815,1,1,2,0,-2,-7,0,0
1537912606580815,0,-1,0,1,-2,6,0,0
1537912606596773,-2,-2,-3,-4,-3,-2,1,1
1537912606596773,2,-1,0,3,4,0,3,3
1537912606597770,-2,-3,-1,-2,1,1,-3,-5
1537912606597770,-4,-1,-1,-2,-2,0,4,6
1537912606610735,2,2,2,2,3,5,5,4
1537912606610735,-2,-2,-1,-2,-1,-5,-10,-7
1537912606617717,1,-3,-2,-1,-5,-10,-2,0
1537912606617717,-1,1,1,-2,-4,-1,-3,-4
1537912606633674,1,-1,0,-1,-3,-2,1,8
1537912606633674,-2,-1,-2,-2,5,10,3,-5
1537912606640655,-2,1,0,0,-1,1,4,-2
1537912606640655,-2,-4,-2,-1,-1,1,1,-1
1537912606656612,0,-2,0,2,9,1,-5,-2
1537912606656612,2,-1,0,1,-1,-6,-1,0
1537912606658608,-9,-5,-2,-6,4,10,-4,-9
1537912606658608,3,2,0,0,2,1,2,3
1537912606670575,-4,-1,-1,-3,-19,-13,-5,-8
1537912606670575,3,2,-1,1,5,4,3,5
1537912606679551,0,0,-1,-1,-4,-7,-1,1
1537912606679551,0,0,0,1,-1,2,1,1
1537912606693514,0,0,1,0,3,2,0,-1
1537912606693514,0,-2,-2,-2,2,1,0,-1
1537912606700495,0,-1,-2,0,-7,-8,-2,1
1537912606700495,-2,0,-1,0,2,2,-2,-2
1537912606716453,-3,-2,-4,-2,-3,-10,-4,-4
1537912606716453,-2,0,1,0,0,5,0,0
1537912606718448,0,-1,-1,-1,0,0,-2,3
1537912606718448,-1,1,1,1,-4,-6,-4,-3
1537912606730415,0,-1,-1,-2,-3,1,-2,-2
1537912606730415,3,1,1,2,3,-2,2,2
1537912606739391,-3,-1,-1,-4,-4,-5,-3,-2
1537912606739391,1,-1,1,1,1,1,1,2
1537912606753354,-1,-1,-2,-1,0,-5,-4,-2
1537912606753354,-2,-1,0,1,5,2,0,1
1537912606760335,1,-1,0,1,-10,-9,-4,0
1537912606760335,0,-1,0,1,-1,4,-2,-4
1537912606777290,1,-2,0,-1,0,0,1,0
1537912606777290,0,-1,0,0,3,-4,0,1
1537912606778288,1,2,0,2,6,2,3,3
1537912606778288,-1,0,-1,-4,1,-4,-1,-1
1537912606790255,1,0,-2,1,-4,3,3,3
1537912606790255,-1,0,0,-5,-2,5,-1,1
1537912606799231,-1,1,-1,1,1,-2,-4,-3
1537912606799231,-3,-2,-4,-3,-1,0,2,-2
1537912606813194,-1,-1,-1,0,1,-9,-2,0
1537912606813194,-5,-2,-4,-5,-4,11,3,-5
1537912606820176,3,1,0,-4,-8,10,15,12
1537912606820176,0,-3,-4,-6,7,15,-3,-7
1537912606837130,-2,0,-1,-2,-12,-12,-8,-6
1537912606837130,3,3,-1,3,3,4,3,4
1537912606838128,1,0,0,0,-1,-1,0,3
1537912606838128,0,1,0,1,4,3,6,3
1537912606850095,2,-1,-1,2,12,2,0,2
1537912606850095,-1,0,0,0,0,-5,0,-4
1537912606859072,-4,-3,-3,-2,5,1,-4,-6
1537912606859072,1,1,3,3,-2,-8,0,3
1537912606874031,0,-2,-2,-1,5,6,-3,-2
1537912606874031,0,-1,0,1,-5,-14,-3,0
1537912606880016,-1,-2,-1,0,1,0,-3,-5
1537912606880016,-2,0,-3,-1,-3,-5,-1,0
1537912606895973,-2,-1,-2,-3,-9,8,1,-2
1537912606895973,-3,-1,-3,-3,-1,-9,-3,-5
1537912606902954,0,2,1,0,-2,-2,1,1
1537912606902954,0,-1,-1,-1,-7,-7,-3,1
1537912606910933,-3,-3,-3,-5,-5,5,-1,-4
1537912606910933,-1,-3,-3,0,-6,-9,-7,-1
1537912606918911,-3,-2,-2,-4,0,9,-1,-5
1537912606918911,0,-2,-2,-2,-2,0,2,1
1537912606933872,-2,0,0,1,3,0,1,0
1537912606933872,0,-1,1,0,1,-2,0,0
1537912606940853,0,-1,0,-1,-5,-15,-5,-2
1537912606940853,1,0,0,5,-5,-7,-5,2
1537912606955813,-2,-3,-1,-3,1,-1,-2,-1
1537912606955813,-2,-3,-1,0,-3,0,-1,-3
1537912606962794,-1,1,0,1,-6,-5,-1,1
1537912606962794,-1,0,-1,-1,-1,-2,-4,0
1537912606970773,0,1,-1,1,3,-5,-1,2
1537912606970773,-1,0,0,-2,-1,3,0,-2
1537912606979749,0,0,0,1,2,-1,0,-2
1537912606979749,-1,-2,-2,-2,1,2,0,0
1537912606993712,-1,-1,0,0,0,3,2,-1
1537912606993712,0,-1,-2,-2,2,6,1,-3
1537912607000693,0,0,-2,0,-1,2,2,2
1537912607000693,-3,-3,-3,-1,8,-5,-7,-6
1537912607015653,0,-1,1,0,-3,6,1,3
1537912607015653,-2,-2,-3,-5,2,4,-2,-2
1537912607022635,0,0,-1,-1,1,-7,-2,-1
1537912607022635,1,0,2,2,1,4,2,0
1537912607030613,-3,1,0,0,3,-1,1,-2
1537912607030613,-1,-2,-5,-6,0,9,8,4
1537912607039589,-1,-2,-1,0,-4,-4,-1,-3
1537912607039589,2,0,-2,0,-3,1,0,1
1537912607053551,1,0,-1,-2,-4,-6,-4,0
1537912607053551,2,2,2,3,1,-1,1,3
1537912607060533,-3,-2,-3,-1,3,3,-3,-3
1537912607060533,-1,-1,-3,-4,-4,2,1,-2
1537912607076490,-2,0,0,-2,-2,-4,-4,-3
1537912607076490,-1,-1,-2,1,-1,0,-4,-2
1537912607083471,1,-1,-1,0,4,4,0,1
1537912607083471,-2,0,1,-2,-5,-10,-2,-2
1537912607099429,-2,-1,-1,-2,-1,-3,-3,-4
1537912607099429,-1,-3,-3,1,-1,0,0,0
1537912607100426,-1,-2,0,-1,0,1,-1,0
1537912607100426,0,0,-1,-1,0,4,3,1
1537912607113392,0,0,-1,0,-1,0,1,0
1537912607113392,-1,1,1,2,-1,-6,-1,4
1537912607120373,-3,-2,-2,-3,-5,-1,-2,-4
1537912607120373,-3,-1,-2,-1,10,3,-2,-2
1537912607136331,2,0,0,1,-1,-3,-1,1
1537912607136331,-1,-1,-1,-2,1,2,-3,-2
1537912607143312,-1,-2,-1,-2,3,-1,-3,-2
1537912607143312,-3,-1,0,-2,-12,-3,0,-2
1537912607159269,3,-3,-1,-4,-8,-14,1,3
1537912607159269,-7,-5,-4,-7,0,10,-1,-7
1537912607160267,3,0,-1,1,-2,-1,1,5
1537912607160267,-3,-2,-2,-2,2,3,-3,-4
1537912607173232,-1,-1,0,2,-1,-3,2,2
1537912607173232,0,-1,1,0,-5,-5,-1,1
1537912607180213,0,0,1,-1,-10,-2,3,-1
1537912607180213,-2,0,0,0,-1,0,-3,-2
1537912607196171,-1,-1,-2,0,3,1,-3,0
1537912607196171,0,0,0,1,0,-3,-1,0
1537912607203152,0,0,1,0,5,4,6,4
1537912607203152,-3,-1,-3,-3,-7,-9,-9,-8
1537912607219109,-2,-2,0,-2,-9,-2,1,0
1537912607219109,-1,-1,1,-1,-2,0,-1,-2
1537912607221104,0,-2,0,0,-3,-5,-4,-2
1537912607221104,-1,-2,-1,-1,2,9,4,1
1537912607234069,-1,1,-2,-1,0,3,0,-1
1537912607234069,1,0,-2,0,1,-3,-1,0
1537912607241051,0,-1,-1,-1,-10,-2,1,2
1537912607241051,-1,-1,-1,-1,-3,-8,-3,1
1537912607256011,-3,0,0,-3,4,9,-4,-6
1537912607256011,1,2,1,3,0,-5,0,2
1537912607262992,1,-1,0,0,-1,-10,-5,0
1537912607262992,0,-3,-1,-2,0,-1,2,-1
1537912607278950,-3,0,-1,0,0,-2,0,-1
1537912607278950,2,1,0,0,-5,-5,-2,-3
1537912607280945,-3,-1,-3,-1,3,2,-3,-1
1537912607280945,0,0,0,-1,-5,-4,-3,1
1537912607293910,-1,-3,-2,-1,0,-3,-1,-2
1537912607293910,-2,-2,0,1,1,5,0,-2
1537912607300891,-1,0,0,0,7,5,2,-2
1537912607300891,2,2,1,2,4,-7,2,2
1537912607315851,0,-2,-3,-2,0,5,-4,-5
1537912607315851,3,2,1,1,-2,-3,-1,1
1537912607322833,-1,-3,-1,-2,0,-1,-2,0
1537912607322833,-1,0,-2,-2,-3,1,1,1
1537912607339787,-3,1,-1,0,-1,-5,-4,-3
1537912607339787,0,1,-1,0,-2,-4,0,-1
1537912607340786,-2,-3,-3,-1,2,6,0,0
1537912607340786,-1,2,0,2,0,4,1,0
1537912607353751,-1,-1,-2,0,-6,-7,-1,0
1537912607353751,0,-2,-2,-3,-5,-1,-3,1
1537912607360733,-2,0,0,-1,-1,-1,1,-2
1537912607360733,1,-3,-1,-2,1,-2,-1,1
1537912607375692,0,-1,1,0,-3,-5,0,0
1537912607375692,-3,-2,-1,-2,3,7,3,-1
1537912607382674,2,1,1,1,-2,-9,-4,1
1537912607382674,-2,0,-1,-1,0,2,-1,-1
1537912607399627,0,0,2,2,0,-1,2,1
1537912607399627,-1,-1,-1,-3,-3,-8,-4,-5
1537912607400625,-2,0,0,1,0,2,-1,0
1537912607400625,0,-2,-1,1,0,1,0,0
1537912607421568,-3,0,-2,0,2,1,-4,-4
1537912607421568,-1,0,-1,0,-1,-1,0,1
1537912607421568,1,1,0,0,0,-1,0,-1
1537912607421568,-2,-1,-2,0,-6,-5,-5,-6
1537912607435531,1,-2,-4,-1,1,0,0,1
1537912607435531,-1,-1,0,-1,1,2,-1,0
1537912607443510,-1,-3,-1,-2,-7,-3,-2,-3
1537912607443510,-2,1,0,-1,2,1,-1,-3
1537912607458470,0,1,0,1,0,2,0,1
1537912607458470,0,-1,0,1,-2,-4,-2,0
1537912607459467,0,-2,-3,-1,-4,-1,1,0
1537912607459467,-2,-2,-1,-1,-4,0,-1,0
1537912607474427,-1,-1,-2,-2,-1,-2,0,-1
1537912607474427,-2,0,-2,0,-2,-3,1,0
1537912607480411,0,-1,-1,-4,0,2,2,0
1537912607480411,0,0,-1,-1,2,0,0,1
1537912607495371,0,2,-1,0,-2,3,4,1
1537912607495371,-1,-3,-2,-2,1,-1,-4,-1
1537912607503350,-3,-2,-1,0,1,-2,-5,-3
1537912607503350,1,2,-2,-1,-7,-10,-1,-4
1537912607518310,-2,0,1,-1,2,3,-3,-3
1537912607518310,-2,-2,-3,-2,-4,-2,-1,-1
1537912607519308,-3,-2,-1,-2,1,5,-1,-2
1537912607519308,1,-2,0,-1,1,-1,1,3
1537912607534269,-1,0,0,-1,2,1,0,0
1537912607534269,-1,0,0,-3,-13,-6,-4,-4
1537912607540252,2,-1,1,-1,0,-1,1,1
1537912607540252,0,1,-1,0,-1,4,0,2
1537912607555212,-1,-1,-1,-2,3,3,0,0
1537912607555212,0,-1,-1,1,1,3,1,2
1537912607563191,0,2,-1,1,0,0,0,0
1537912607563191,-1,-1,1,-1,0,4,1,-3
1537912607578151,-1,-1,0,-2,-5,-2,-2,0
1537912607578151,-1,0,1,1,13,3,1,2
1537912607579149,-2,-1,2,-1,-3,-4,-2,0
1537912607579149,-3,-2,-3,-2,-1,-2,-2,-2
1537912607594109,1,-2,0,0,1,2,1,-1
1537912607594109,-1,-2,0,0,-3,-1,1,-2
1537912607600092,-1,-3,-3,0,0,0,0,1
1537912607600092,-1,-1,0,0,5,2,-2,3
1537912607615051,-3,-3,-3,-3,1,-1,-3,-2
1537912607615051,0,0,0,0,-1,-4,-1,0
1537912607623030,-1,-1,-2,0,0,-4,-2,-3
1537912607623030,3,0,-2,-1,0,4,1,0
1537912607638987,2,-1,-1,0,-3,-1,2,2
1537912607638987,-1,-1,-2,-3,-2,-3,-1,-2
1537912607638987,-1,-2,0,0,-2,-2,-2,-3
1537912607638987,-2,-1,0,-1,-2,-2,-1,0
1537912607653947,0,-1,0,0,-2,-2,-1,-1
1537912607653947,-2,0,-1,-1,-2,3,-2,0
1537912607659931,-1,-1,-1,-1,-1,1,1,-2
1537912607659931,-1,-3,0,-1,-1,-3,-2,-2
1537912607675888,-2,-1,-2,1,2,0,1,-2
1537912607675888,-1,0,-1,-1,-1,2,-3,-1
1537912607682869,-1,2,0,0,0,-1,-2,-1
1537912607682869,1,-3,1,0,-1,-3,-1,-2
1537912607698826,-1,-25,13,4,-1,-1,1,-1
1537912607698826,-1,28,-12,0,-1,-2,-2,-2
1537912607698826,2,11,-2,-3,-4,-2,-1,-1
1537912607698826,-1,-13,-15,-6,-1,1,3,1
1537912607714784,-2,-3,1,-3,0,1,0,0
1537912607714784,-3,-20,6,0,0,0,-2,0
1537912607720768,-1,0,3,3,-1,-1,0,-2
1537912607720768,-2,9,4,2,-1,-2,-2,-1
1537912607736725,-1,1,-3,-1,-1,0,-1,-1
1537912607736725,0,-4,-1,-1,-2,-2,1,-1
1537912607742709,-1,2,-3,0,1,-1,0,-1
1537912607742709,0,-3,2,-1,0,-1,-1,-1
1537912607758667,0,4,-5,-1,0,-1,0,0
1537912607758667,-1,-1,0,1,0,0,-1,-2
1537912607759665,-1,-3,-2,-4,-2,-1,1,-1
1537912607759665,-2,-4,-1,1,-1,1,-2,-1
1537912607774625,1,7,-1,-1,-2,-2,-3,-1
1537912607774625,-1,-1,1,-1,-2,-2,-1,-2
1537912607780609,-3,-8,1,2,1,-1,-1,2
1537912607780609,-2,1,0,2,-1,0,-3,-2
1537912607795569,-2,4,-4,-3,-2,-1,0,0
1537912607795569,1,-5,0,-3,-2,-1,3,0
1537912607802550,-1,-3,-2,0,1,0,-1,-1
1537912607802550,-1,3,1,-1,-1,0,0,-3
1537912607817511,-1,2,-1,-2,-2,-1,-1,-1
1537912607817511,2,-3,4,2,0,0,-2,-1
1537912607825489,-1,-2,0,-3,-1,-1,-1,0
1537912607825489,0,-1,5,-1,0,-1,-1,0
1537912607834466,-1,0,6,1,1,-3,-2,-2
1537912607834466,-2,-19,-15,-2,0,-3,-1,-1
1537912607840450,0,16,-8,-4,-3,-1,-1,-1
1537912607840450,1,-1,2,0,1,-2,-1,1
1537912607855410,-2,6,24,1,-1,2,1,1
1537912607855410,0,6,4,7,2,-1,-2,-3
1537912607863387,-4,-38,-33,-2,-1,-1,0,-1
1537912607863387,-2,23,-25,-14,-7,-6,-2,2
1537912607878347,3,1,6,-5,-2,-1,-1,0
1537912607878347,-3,5,53,13,5,1,-2,0
1537912607885329,19,-8,-34,17,5,3,-2,-2
1537912607885329,-23,6,-97,-24,-7,-3,-1,-3
1537912607894305,-10,-44,-74,-30,-7,0,3,2
1537912607894305,-2,-8,-6,-18,-2,3,6,2
1537912607900289,2,1,66,10,6,2,0,1
1537912607900289,6,0,52,13,4,-1,-5,-1
1537912607915248,-1,8,14,12,2,-2,-3,-3
1537912607915248,0,52,111,42,5,-1,-7,-5
1537912607923228,-5,-2,-90,17,2,-2,-6,-7
1537912607923228,8,14,82,-4,-3,-3,-3,-5
1537912607938189,3,-5,-114,-35,-15,-3,4,5
1537912607938189,6,-42,44,-44,-4,7,10,8
1537912607945170,-10,-38,-36,-16,-2,3,4,5
1537912607945170,-2,-23,52,23,9,2,0,-1
1537912607954146,5,43,86,33,9,0,-8,-5
1537912607954146,1,51,2,10,-5,-5,-5,-5
1537912607960131,-6,6,42,-3,-4,-1,0,-1
1537912607960131,-4,-19,-78,-20,1,1,1,-2
1537912607975089,0,-21,-12,2,-2,-2,-1,0
1537912607975089,1,-12,-9,10,1,0,0,-1
1537912607991046,-2,23,22,0,-1,-2,-1,-2
1537912607991046,5,1,-6,-5,-4,-2,-1,1
1537912607998027,-2,-1,8,9,4,0,-2,-2
1537912607998027,-6,-9,-33,-16,-3,-2,-3,-1
1537912608005008,0,9,-21,-8,-5,-2,-1,-1
1537912608005008,0,-22,-57,-10,-5,2,3,-1
1537912608020965,0,8,20,-3,-1,0,-1,-2
1537912608020965,-3,-17,-18,2,1,-2,1,0
1537912608021963,1,10,25,0,-1,-2,-1,0
1537912608021963,2,14,40,11,1,0,1,1
1537912608034928,-2,-2,15,11,4,-1,-1,0
1537912608034928,1,-1,-52,-7,-5,-2,-4,-1
1537912608042907,-2,1,-14,-22,-7,-2,-2,0
1537912608042907,-4,-9,-4,3,-1,1,0,-2
1537912608057867,0,-11,6,-1,2,-1,2,-1
1537912608057867,1,-1,0,6,0,-1,0,0
1537912608065846,-1,2,-3,-1,-1,1,-2,0
1537912608065846,-1,-3,20,4,0,0,-2,0
1537912608080805,1,14,34,12,0,-2,-4,-4
1537912608080805,3,-6,-68,-15,-4,-1,0,-1
1537912608081803,-2,-12,-15,-16,-4,-1,2,0
1537912608081803,1,2,13,1,0,-1,1,3
1537912608095765,-2,-2,13,0,1,-1,-1,-1
1537912608095765,-2,7,-9,4,1,-1,-5,-3
1537912608102747,0,5,77,18,2,0,-1,-3
1537912608102747,-4,-6,-49,-2,-3,-3,-2,-1
1537912608117707,2,-16,-21,-18,-3,-2,1,3
1537912608117707,-7,-12,-19,-6,-3,-2,0,-3
1537912608125685,1,16,9,-1,2,2,4,1
1537912608125685,1,4,37,11,0,-1,-1,-1
1537912608140646,-4,9,9,5,-3,-4,-4,-2
1537912608140646,1,-13,-7,0,1,-1,0,1
1537912608141643,2,-5,6,6,0,1,-3,-1
1537912608141643,0,16,13,-2,0,-1,0,-2
1537912608155606,0,-13,31,15,3,0,3,-1
1537912608155606,-4,1,-77,-22,-7,0,-4,-2
1537912608162587,-2,-20,-53,-24,-3,1,3,1
1537912608162587,-2,-16,-13,-8,-3,-1,-1,1
1537912608177547,0,7,12,-3,0,0,-1,-1
1537912608177547,1,16,74,23,4,-1,-2,-3
1537912608185526,0,12,22,12,2,0,-1,-2
1537912608185526,2,4,17,7,0,-2,-1,-2
1537912608201483,-1,-3,-1,4,-2,-1,-2,0
1537912608201483,-1,-11,-34,-9,-3,-1,1,2
1537912608201483,-2,-1,-23,-5,-1,-1,0,-2
1537912608201483,1,-9,-19,-13,-3,1,0,3
1537912608215446,-3,9,18,1,1,1,-1,-1
1537912608215446,-2,-13,14,8,0,-1,-4,0
1537912608223424,-2,-13,-43,-11,-5,-4,-3,-2
1537912608223424,1,3,15,4,2,0,1,-2
1537912608238384,-1,6,-29,-5,-1,-2,1,0
1537912608238384,0,9,59,10,2,0,0,-1
1537912608245366,0,10,25,12,2,-1,0,0
1537912608245366,0,2,8,-4,-2,0,-2,1
1537912608261323,1,-3,-61,-14,-4,1,-1,-3
1537912608261323,-2,-9,-46,-15,-3,-4,0,-2
1537912608261323,-2,-19,23,8,1,0,1,1
1537912608261323,0,10,-32,-9,-2,-2,-1,-1
1537912608275286,0,0,12,-6,1,1,2,0
1537912608275286,2,7,32,9,3,1,1,0
1537912608283264,-1,0,20,5,0,0,-2,-1
1537912608283264,-3,3,6,5,0,-3,-3,-3
1537912608298224,-2,-3,-10,-1,0,-2,1,0
1537912608298224,0,1,-7,-2,-2,1,0,-2
1537912608305206,-1,-4,-1,-6,-1,-2,-1,2
1537912608305206,-3,-9,0,3,1,0,0,-1
1537912608321163,0,5,-4,0,-1,-1,-3,-1
1537912608321163,0,-4,-12,-4,-1,-1,0,0
1537912608322160,3,6,16,0,-1,0,1,-1
1537912608322160,-1,1,1,2,-1,-1,-2,-1
1537912608335126,-1,-1,-11,-2,-1,-1,-2,-2
1537912608335126,-3,-9,1,-4,-1,-1,-3,-2
1537912608351083,-1,6,1,-2,0,1,-1,-2
1537912608351083,1,7,0,2,3,1,-1,-1
1537912608358064,0,-12,-9,-4,-4,-1,1,0
1537912608358064,-1,1,5,-2,-1,-1,-1,0
1537912608365046,-1,2,1,1,-1,-2,-1,-1
1537912608365046,-1,-4,-2,-1,2,0,0,-3
1537912608381003,-1,2,4,-1,0,0,-2,0
1537912608381003,0,1,-11,-2,1,-2,1,1
1537912608382000,0,-1,-4,-4,-1,0,-2,0
1537912608382000,-1,-5,0,-1,1,3,0,-2
1537912608394966,0,1,2,0,-1,-5,-1,-1
1537912608394966,-1,0,3,3,0,-2,0,-1
1537912608402944,-2,0,2,0,1,6,3,0
1537912608402944,2,-2,-2,-1,-1,-2,0,-2
1537912608417904,-1,0,-1,-2,-2,-1,-4,0
1537912608417904,-1,-3,-4,-1,0,-1,0,0
1537912608425883,-1,-5,4,1,0,-2,-2,-1
1537912608425883,-2,0,1,2,-1,-2,-1,1
1537912608440844,1,7,-3,-2,0,2,2,-2
1537912608440844,1,-4,1,-2,-1,-1,-2,1
1537912608441841,-2,0,1,1,-2,-4,-4,-4
1537912608441841,-3,-20,-4,-1,-1,0,0,0
1537912608455803,-1,12,-1,0,-1,-1,-2,-2
1537912608455803,-1,-3,4,-4,-1,2,0,-1
1537912608462785,0,-1,-8,-2,-1,-1,0,1
1537912608462785,-1,-6,-11,-3,-3,-3,-4,-1
1537912608477744,2,-4,4,0,1,0,1,2
1537912608477744,1,3,-2,3,2,0,1,0
1537912608485723,-1,1,2,-2,-3,-3,-2,-1
1537912608485723,-2,2,2,0,0,-2,0,1
1537912608500683,-2,-7,-4,-4,1,-1,0,0
1537912608500683,-3,-1,-1,-3,-1,0,-4,-2
1537912608501680,1,-2,-8,-3,-1,-2,-1,1
1537912608501680,4,9,4,2,-3,-3,0,-1
1537912608515643,0,0,5,5,1,2,3,1
1537912608515643,-1,-4,-1,-1,-2,-1,-1,0
1537912608522624,-3,1,6,1,2,-2,-4,-2
1537912608522624,-1,-2,-11,-4,-2,2,2,-3
1537912608537585,-1,-14,4,3,-1,0,0,-2
1537912608537585,-4,12,-5,-4,-1,-1,-1,-2
1537912608545563,0,6,9,1,-3,-1,-3,-2
1537912608545563,5,-3,-17,-3,0,1,1,3
1537912608561521,-1,-9,-4,-1,0,0,0,0
1537912608561521,0,-5,5,1,-2,0,-2,0
1537912608561521,-2,2,-1,-2,-1,0,0,-1
1537912608561521,-1,4,11,1,-1,-4,-2,-1
1537912608575483,-2,1,-3,-4,-2,3,-1,-3
1537912608575483,1,-1,-1,1,-1,-2,-3,-1
1537912608582464,-1,0,-2,-5,-5,-1,1,-1
1537912608582464,-1,-2,5,3,0,-3,-3,0
1537912608597425,0,0,-6,0,-3,0,-1,2
1537912608597425,0,-2,-1,-3,-2,0,1,1
1537912608605403,-1,-3,-3,3,2,0,-2,-3
1537912608605403,1,0,0,0,3,8,5,4
1537912608629339,0,1,1,-1,-2,-6,-5,-4
1537912608629339,0,0,-2,0,1,3,1,-2
1537912608630337,1,-1,-3,1,-4,-17,-11,-3
1537912608630337,-3,1,5,2,1,-1,-1,0
1537912608635323,0,3,1,-1,7,10,4,4
1537912608635323,0,-3,-3,-1,-5,-5,-3,-2
1537912608643302,-2,-2,-3,-2,2,5,1,-2
1537912608643302,-1,1,2,2,-2,-8,-2,-3
1537912608658262,-2,-1,-2,-2,-4,-4,-3,-2
1537912608658262,0,0,-3,1,-5,-4,1,1
1537912608665243,-2,-2,-3,-3,-1,2,1,-1
1537912608665243,-3,-1,-1,-4,-1,6,-2,-2
1537912608681200,1,0,-1,1,-2,-4,1,-1
1537912608681200,-1,-3,-2,-1,1,3,3,0
1537912608682198,-2,-1,0,0,-7,-5,-1,-1
1537912608682198,0,0,0,0,1,-3,1,-1
1537912608695163,-3,-2,-2,-3,-2,2,-2,-2
1537912608695163,2,3,0,1,2,1,2,1
1537912608703142,2,1,-2,-2,3,4,2,2
1537912608703142,-1,0,-3,-1,-3,-1,-1,1
1537912608718102,1,5,-4,0,1,-2,0,1
1537912608718102,0,-4,0,-2,-2,-2,-3,-3
1537912608725083,-2,-3,-4,-1,-3,-1,0,-2
1537912608725083,-2,-8,0,-2,-2,1,-2,-3
1537912608740043,-3,-1,1,-1,-3,-1,-4,-1
1537912608740043,-2,0,-3,-1,-2,1,-2,-2
1537912608749019,-1,-4,0,1,3,-2,2,2
1537912608749019,-4,-1,-1,-2,-6,-1,-1,-4
1537912608755003,0,-1,0,-3,2,3,0,0
1537912608755003,-2,-1,-1,2,2,-1,-1,0
1537912608762982,3,0,-2,0,-1,1,0,0
1537912608762982,2,1,-1,0,-2,-2,-2,-2
1537912608785921,0,-1,-1,0,-1,-3,-1,-1
1537912608785921,-1,-2,1,-1,-1,-1,2,-1
1537912608786919,-1,-1,-2,-3,-1,0,1,1
1537912608786919,-4,3,-2,1,0,0,-2,-2
1537912608800882,-1,-2,-1,1,-1,-4,-1,-1
1537912608800882,0,1,-2,1,5,5,-2,1
1537912608808862,3,1,0,0,-1,4,7,2
1537912608808862,-2,-3,-3,-4,0,-1,-4,-1
1537912608815842,1,-2,0,1,-2,-6,-1,-1
1537912608815842,-1,-1,-1,-2,1,2,1,-2
1537912608822823,0,1,-3,-1,-2,-5,-1,0
1537912608822823,-1,1,3,0,1,1,-1,-3
1537912608837784,-2,-3,-3,-1,10,1,0,1
1537912608837784,0,-2,-3,-1,-6,-7,-6,-2
1537912608845762,-1,-3,-1,-2,-1,1,-2,-3
1537912608845762,-1,-1,-1,1,-3,-5,-3,0
1537912608860723,0,0,-3,-2,-3,-2,0,0
1537912608860723,-1,-2,0,-2,-3,-6,-2,-3
1537912608868701,-3,2,1,1,-1,-3,-2,-3
1537912608868701,-2,-3,0,-2,-9,-9,-4,-3
1537912608875683,-1,-2,-1,-1,8,13,0,-2
1537912608875683,1,0,-2,0,0,-1,-2,0
1537912608882663,0,1,-2,-2,-1,1,1,3
1537912608882663,0,0,-1,-1,-9,-4,1,0
1537912608897622,-3,-3,-3,-2,-3,-1,-3,-4
1537912608897622,-3,-1,-1,-4,-4,1,0,-2
1537912608905601,-2,-2,-1,0,3,7,0,-3
1537912608905601,-1,-2,-1,-4,1,-3,2,0
1537912608920561,-3,-2,-1,-5,-8,0,0,-3
1537912608920561,-1,0,-1,-1,0,-4,-2,2
1537912608928540,1,1,3,4,2,-6,-2,3
1537912608928540,-2,-3,-4,-5,2,16,8,2
1537912608943499,1,0,4,1,-2,-2,-1,-1
1537912608943499,-1,-3,-2,-2,-2,-1,1,-1
1537912608944497,-2,-1,0,0,2,-4,-3,-4
1537912608944497,1,1,1,2,6,1,-1,-1
1537912608958460,0,-1,-3,-2,-3,0,1,1
1537912608958460,1,0,-1,-2,-3,1,2,1
1537912608965441,0,-2,-2,-1,-2,-1,-2,-1
1537912608965441,-1,-1,-1,1,2,-3,0,0
1537912608980402,1,1,0,3,2,-1,-1,1
1537912608980402,-3,-1,-1,-1,7,-2,-3,-4
1537912608988381,-2,-2,-2,-3,-3,2,0,-2
1537912608988381,1,-2,0,0,0,-3,-2,-2
1537912609003342,0,0,0,0,-3,-4,-2,-1
1537912609003342,0,-3,-1,-1,-3,1,0,0
1537912609004338,-1,-1,0,-2,-2,-1,0,-1
1537912609004338,-1,1,-1,-1,-1,0,-1,-1
1537912609018301,0,-2,0,-1,-2,-3,0,0
1537912609018301,-1,-1,0,-1,-5,-2,-1,-3
1537912609025282,-1,-3,-2,-2,-2,3,0,-1
1537912609025282,0,1,-1,-1,0,-1,-4,-3
1537912609040243,1,1,0,2,-3,-4,0,0
1537912609040243,0,1,-2,-1,6,10,5,2
1537912609048222,-1,0,1,2,3,-8,-5,-2
1537912609048222,-2,-3,-3,-5,-4,3,-4,-4
1537912609063182,-3,-3,-3,-1,4,4,-1,-4
1537912609063182,3,0,2,2,2,0,0,1
1537912609064180,1,-1,-3,0,3,-1,-1,-1
1537912609064180,0,0,0,1,-1,-5,-2,2
1537912609078140,-3,-2,-1,-1,-5,-4,-2,-3
1537912609078140,-1,-1,-1,0,-5,-2,-2,-2
1537912609085122,-3,-2,-3,-5,1,6,-1,-2
1537912609085122,1,3,2,3,-9,-15,-3,0
1537912609100081,1,-2,0,-3,0,2,1,1
1537912609100081,-1,-1,1,0,-3,1,2,0
1537912609109057,0,1,0,-1,-6,-2,0,-1
1537912609109057,0,0,0,0,2,-4,-2,0
1537912609124017,1,1,-2,0,-2,-2,0,2
1537912609124017,-1,-1,-3,-2,2,2,-1,-1
1537912609124017,0,0,0,-1,-15,-6,0,0
1537912609124017,-2,-4,-2,-1,4,6,2,-1
1537912609137979,0,-1,-1,-1,-3,-1,-1,0
1537912609137979,-2,-1,-3,-2,-6,-5,-5,-4
1537912609145958,-2,-1,0,3,13,-1,-2,-1
1537912609145958,-1,-3,-1,-3,-1,6,3,0
1537912609159921,0,-1,0,-1,-8,2,1,-3
1537912609159921,0,0,-3,-1,0,0,-1,0
1537912609168897,-2,0,0,0,-3,2,0,0
1537912609168897,0,0,-1,-1,-1,-2,-1,0
1537912609183857,-3,0,1,1,1,-8,-3,0
1537912609183857,-2,-2,1,1,-1,-1,0,1
1537912609183857,2,-1,-3,-2,-3,1,0,-4
1537912609183857,-1,-1,1,0,-2,1,1,-1
1537912609197820,-1,1,-2,-2,-1,2,1,1
1537912609197820,-3,0,-1,-1,-6,-7,-4,-5
1537912609205799,-1,-2,-1,-3,6,7,2,0
1537912609205799,0,1,-2,2,0,-3,2,0
1537912609220759,-3,-2,-2,-2,2,2,-1,-3
1537912609220759,-1,-2,0,-1,1,0,0,1
1537912609228737,0,-1,1,0,-3,-6,-2,2
1537912609228737,-2,-1,-1,2,-4,-14,-5,-2
1537912609243698,-4,-3,-4,-4,3,11,0,-7
1537912609243698,-3,-3,-3,-4,0,4,1,-4
1537912609244695,0,0,0,0,-3,5,1,1
1537912609244695,-3,0,-2,-1,-8,-6,-4,-1
1537912609257660,0,1,0,3,3,-7,-1,2
1537912609257660,-2,-1,0,1,0,-1,-1,-1
1537912609265639,1,-3,-1,-1,-4,-4,1,0
1537912609265639,-1,-3,-4,-4,3,18,5,0
1537912609280599,1,1,0,0,-1,-4,-2,-1
1537912609280599,0,0,0,-1,-1,0,1,2
1537912609288578,0,0,-1,0,1,-6,-3,1
1537912609288578,0,-2,0,1,3,0,-1,0
1537912609303538,0,-2,-1,0,-1,1,0,0
1537912609303538,0,-1,1,1,1,1,4,1
1537912609304535,-2,-3,-3,-5,-7,-11,-2,-5
1537912609304535,-1,-1,1,-2,3,4,-1,-1
1537912609317500,0,-2,-1,0,-2,-2,-1,0
1537912609317500,1,1,0,-1,-1,-3,-3,-1
1537912609326477,-2,1,-1,2,1,3,1,-2
1537912609326477,-1,-2,-2,-4,-1,2,-2,-3
1537912609340439,2,1,2,0,-4,-8,-1,5
1537912609340439,2,0,2,2,-9,-10,-3,-3
1537912609348418,-1,-1,-2,-3,4,7,2,-2
1537912609348418,0,0,0,1,0,-5,-2,0
1537912609363377,-1,1,-1,-2,-5,-1,-1,-1
1537912609363377,-2,-2,-1,2,1,-3,-3,-1
1537912609364375,1,0,-1,-1,-7,-4,-3,0
1537912609364375,-2,-2,-1,-2,1,5,1,0
1537912609378338,-2,-2,-1,0,-2,-4,0,-3
1537912609378338,-2,0,-1,-2,2,3,1,0
1537912609386316,-1,-2,-1,1,2,-2,1,0
1537912609386316,-1,0,0,1,1,1,-2,0
1537912609400279,1,-1,-1,0,0,2,-3,0
1537912609400279,0,-1,-2,-2,1,2,-1,-2
1537912609408259,-1,-1,-2,0,1,0,0,-1
1537912609408259,2,1,0,0,-2,-3,0,2
1537912609423218,-2,0,-1,-1,0,0,0,-2
1537912609423218,-1,0,-2,0,-1,0,0,-2
1537912609424215,1,2,0,-1,1,-1,-3,0
1537912609424215,-1,-4,-1,-1,-1,-1,1,0
1537912609438177,-3,-1,-1,0,1,-2,-1,-1
1537912609438177,-1,-2,-2,-2,2,0,2,1
1537912609446156,-2,-1,-1,-1,0,-1,-5,-2
1537912609446156,1,1,2,1,1,-3,-1,-2
1537912609460118,2,-2,-1,-1,-3,0,1,3
1537912609460118,-1,0,-1,-1,-1,-1,-2,0
1537912609468097,-1,0,-1,0,-6,-1,-1,-1
1537912609468097,-3,-3,-5,-3,3,6,1,-3
1537912609484054,-2,1,1,0,0,-3,-3,-2
1537912609484054,-2,-2,-1,-3,2,1,-3,-4
1537912609484054,0,0,-1,0,-1,-6,0,2
1537912609484054,0,-1,0,-1,-1,3,-1,-1
1537912609498017,1,0,-1,3,-2,-11,-4,-3
1537912609498017,1,-3,-3,-3,1,5,4,1
1537912609505996,-3,-3,-1,-4,0,6,2,-1
1537912609505996,2,0,0,0,-3,-5,0,1
1537912609519958,0,0,0,1,2,-3,-1,-2
1537912609519958,0,0,0,-1,-2,-3,-2,1
1537912609528934,-2,-2,-1,0,2,0,0,-2
1537912609528934,-1,0,-2,0,0,-1,0,1
1537912609543894,-1,-3,-2,-3,-2,3,1,-1
1537912609543894,-2,-2,0,1,-1,-4,-5,0
1537912609543894,0,0,-1,-2,1,6,2,-1
1537912609543894,1,-1,-1,1,0,-7,1,2
1537912609557858,1,-2,-1,-1,2,3,-1,-3
1537912609557858,0,1,-1,-1,-4,1,0,-1
1537912609565836,-4,-2,-2,-2,9,9,-1,-4
1537912609565836,-2,1,-1,-3,-4,0,0,-1
1537912609580796,-3,1,0,-1,-3,-5,-1,1
1537912609580796,0,1,1,0,-2,-3,0,-1
1537912609588774,1,-2,-1,1,-3,-6,-2,-1
1537912609588774,1,0,-2,-1,0,3,1,-2
1537912609603734,-2,-3,-2,-1,-2,-12,-6,-2
1537912609603734,-3,-2,-4,-3,1,12,0,-2
1537912609604732,0,1,0,-1,-2,-5,-1,-1
1537912609604732,-3,-2,-1,-1,-2,-2,0,-2
1537912609617697,2,-2,0,-1,0,1,3,2
1537912609617697,1,2,1,1,-2,-6,-6,-2
1537912609625676,-1,-1,0,0,-5,-3,0,-1
1537912609625676,-1,-2,0,0,0,2,-1,-1
1537912609640636,-1,0,-2,0,0,5,1,-2
1537912609640636,-2,-1,-1,-1,-1,-2,1,1
1537912609648615,-1,0,0,-3,-1,3,1,0
1537912609648615,1,-1,0,-1,-2,-5,-3,0
1537912609663574,-1,-3,0,-1,-1,1,1,0
1537912609663574,-2,-2,0,-2,-1,2,0,-2
1537912609664572,-1,0,0,-1,-4,-3,-2,1
1537912609664572,0,0,0,1,2,-8,-4,2
1537912609677537,1,1,1,0,1,8,3,1
1537912609677537,-1,1,-3,-1,4,1,0,-1
1537912609686513,-1,1,-1,2,-6,-13,-5,-3
1537912609686513,-2,-5,-3,-4,-2,10,2,-1
1537912609700476,-1,1,-2,-2,-2,1,1,1
1537912609700476,0,-2,-1,-2,-2,-7,-4,-3
1537912609708455,-1,-1,0,-1,-3,1,1,1
1537912609708455,-2,1,-1,0,-2,-1,-3,-3
1537912609722417,-2,0,-1,0,-4,-5,-2,-2
1537912609722417,-2,-3,-1,-2,-6,-3,0,-1
1537912609731393,1,-1,-1,0,2,-2,-1,0
1537912609731393,-1,0,-1,1,-3,1,0,-1
1537912609737377,-1,-2,0,-3,0,-7,-2,-1
1537912609737377,0,0,-2,2,-2,-4,1,2
1537912609746353,0,0,-1,0,0,1,0,0
1537912609746353,0,0,0,0,-1,-4,-1,1
1537912609760316,-1,-1,-3,-1,1,4,-1,0
1537912609760316,1,-1,-1,0,0,-3,1,2
1537912609768295,-2,-1,-1,-1,0,2,1,-1
1537912609768295,-1,0,-3,-3,0,-3,-2,-2
1537912609783255,-1,-2,0,1,2,2,1,0
1537912609783255,0,1,2,-1,-11,-6,-2,1
1537912609791233,0,-2,-3,-1,-1,2,-2,0
1537912609791233,0,1,0,0,-1,1,0,-1
1537912609798214,0,-1,1,0,-6,-8,-1,1
1537912609798214,-2,-2,-3,-2,-1,4,2,-2
1537912609807191,1,1,-1,-1,1,-5,-2,0
1537912609807191,-1,-1,-2,0,0,0,-2,0
1537912609820156,-3,-2,-3,-4,-7,-7,-5,-6
1537912609820156,-2,-2,-2,0,-1,0,-2,-1
1537912609829132,0,0,-2,2,-2,-3,-1,-2
1537912609829132,-1,-2,0,-2,0,-2,-2,1
1537912609843095,-1,-2,0,0,3,6,0,2
1537912609843095,0,0,0,0,1,0,-1,-1
1537912609852071,-1,-3,0,1,1,5,-2,-1
1537912609852071,0,-1,0,-1,0,-6,0,1
1537912609858055,0,-1,-2,0,-4,-1,-1,-2
1537912609858055,0,-2,-1,-1,1,1,2,-2
1537912609867030,-1,-1,0,0,-2,-1,1,1
1537912609867030,-3,-4,-1,-2,-1,4,0,-2
1537912609879997,-3,-1,-2,-3,0,-6,-4,-4
1537912609879997,1,1,-1,0,-1,-4,-2,1
1537912609888972,-1,-2,-2,-4,2,6,2,-1
1537912609888972,-1,-1,0,-2,-1,-3,2,1
1537912609902935,1,-2,-2,-1,1,-1,-2,0
1537912609902935,0,-1,2,0,5,3,0,-2
1537912609911911,1,0,-1,0,-2,-1,1,0
1537912609911911,1,0,1,1,0,1,-1,-1
1537912609925874,2,-1,1,-1,1,4,3,2
1537912609925874,0,-1,-1,-1,-3,-3,-1,0
1537912609933852,0,-2,0,0,-2,-7,0,-1
1537912609933852,0,0,0,-1,-1,0,-1,0
1537912609940833,0,1,1,0,0,-1,1,0
1537912609940833,-1,-2,-2,-1,0,0,-2,-1
1537912609948812,0,-1,1,-2,-4,-7,-2,1
1537912609948812,-2,-2,-2,-2,0,-1,-1,-3
1537912609962775,-1,-1,0,0,1,1,-1,0
1537912609962775,-1,-3,-1,-1,-4,-4,-2,-2
1537912609971751,-2,0,-2,-1,1,1,-1,-3
1537912609971751,-2,-2,-1,-1,0,-1,-2,-1
1537912609986711,-1,-1,-1,-1,-1,2,0,2
1537912609986711,-1,-2,-1,-1,1,2,-1,0
1537912609987709,1,0,-1,-2,-2,-2,-1,-2
1537912609987709,1,0,-1,0,-1,1,-1,0
1537912610000675,-2,0,-1,0,0,0,0,-1
1537912610000675,-1,-1,-1,-2,-3,-4,-1,1
1537912610009652,-3,-2,-1,-1,-10,-6,-2,-1
1537912610009652,1,0,-2,0,0,2,3,3
1537912610022617,0,0,-1,-1,-1,2,-1,1
1537912610022617,1,0,0,1,1,-3,1,-2
1537912610031592,0,0,-1,-1,1,4,0,2
1537912610031592,1,-2,0,0,0,0,-3,-2
1537912610046552,-4,-1,-3,-2,-6,-2,1,-3
1537912610046552,0,0,-1,0,1,3,0,0
1537912610048548,1,-2,-1,2,5,-3,-1,1
1537912610048548,-2,-2,-2,-2,-4,1,5,1
1537912610060515,-1,0,0,2,3,1,-1,0
1537912610060515,-1,-2,-2,-3,1,3,1,-2
1537912610069490,-1,-3,-2,-1,2,1,0,-1
1537912610069490,0,0,0,2,-1,-4,-4,-2
1537912610082455,2,0,0,2,2,-6,-3,-3
1537912610082455,-2,-1,-2,-1,-1,3,0,-1
1537912610091431,1,2,0,-1,0,1,-1,0
1537912610091431,-1,0,0,0,0,-3,-2,-3
1537912610106391,-1,-3,-1,-2,0,2,0,-1
1537912610106391,-2,0,-1,0,-1,-2,0,1
1537912610108386,-2,-2,0,-1,-3,-3,-1,0
1537912610108386,-1,-2,-2,-3,1,4,3,0
1537912610120353,0,0,-1,1,-3,-5,-4,0
1537912610120353,-3,-3,-2,-3,-1,6,-3,-3
1537912610129330,-2,-1,-2,-5,-8,-12,-1,-1
1537912610129330,1,0,0,0,0,-2,-2,0
1537912610143292,-1,0,-1,0,-4,2,2,-1
1537912610143292,-1,0,-2,-2,-3,-4,-1,1
1537912610152269,-3,0,-2,-1,-2,0,-1,-2
1537912610152269,-2,-1,0,0,-2,-1,0,-2
1537912610166231,-2,-4,-3,-5,-7,-6,-1,-2
1537912610166231,-1,-1,-1,0,0,-2,-2,-2
1537912610168226,1,0,-1,-1,-3,-3,-2,-2
1537912610168226,0,-1,-1,-2,4,8,1,0
1537912610180194,0,-1,-1,-1,1,0,-3,-1
1537912610180194,-1,0,0,0,0,-2,2,0
1537912610189171,-2,-1,0,0,4,1,0,-1
1537912610189171,0,-1,0,2,-7,-11,-2,-2
1537912610212109,1,0,-1,-1,1,3,1,-1
1537912610212109,1,-1,2,2,-1,-1,0,3
1537912610213108,0,-1,1,0,4,4,-1,0
1537912610213108,-1,0,0,1,-2,-4,-1,0
1537912610227070,-1,-3,-2,-1,0,3,2,-1
1537912610227070,0,-2,0,0,-2,-5,-3,-2
1537912610228068,-1,0,-2,-1,1,4,1,-1
1537912610228068,-1,0,-3,-2,-3,0,1,0
1537912610240035,2,1,1,1,-2,-10,-4,-2
1537912610240035,-2,-1,-2,-3,2,12,3,-1
1537912610249011,0,0,-1,0,-6,-1,-2,-1
1537912610249011,-1,-2,-2,-1,-2,-1,0,0
1537912610262973,0,-1,-3,-1,5,3,0,-1
1537912610262973,0,-2,-1,0,-1,-6,0,-1
1537912610271950,-1,0,1,2,-1,-4,-2,0
1537912610271950,0,1,1,-2,-1,4,1,2
1537912610286910,-4,-2,2,0,1,1,-1,0
1537912610286910,1,0,-1,-1,-2,-3,0,0
1537912610287907,0,-2,-2,-1,-3,-5,-1,0
1537912610287907,-2,-2,0,-1,-2,-3,-6,-4
1537912610300872,2,0,-2,-1,3,4,1,2
1537912610300872,-1,-2,-1,-1,2,-2,-1,-1
1537912610309849,0,0,-1,-1,-3,-1,1,-1
1537912610309849,1,0,1,1,-1,-5,-5,-3
1537912610322814,-1,-1,-1,-1,-2,-1,0,0
1537912610322814,-1,-2,1,-1,2,2,-1,1
1537912610331789,0,-1,0,-2,2,3,2,2
1537912610331789,-2,-2,-2,-1,2,-3,-1,-2
1537912610346748,-1,2,0,-1,-3,0,-3,2
1537912610346748,-1,1,-1,0,-4,-3,-1,-1
1537912610347746,-2,-1,-1,-1,2,3,-2,-3
1537912610347746,0,-1,1,-1,-1,-1,1,1
1537912610360711,-1,-1,0,1,1,2,2,0
1537912610360711,-1,0,-1,0,-3,-5,-2,0
1537912610369688,0,-1,-3,-2,2,4,1,-1
1537912610369688,-1,-1,-1,-1,2,0,-4,-2
1537912610382652,-1,-2,-1,-2,-7,-4,-2,-5
1537912610382652,2,-1,1,-1,0,0,1,1
1537912610391628,-1,-2,0,1,2,3,-1,-1
1537912610391628,0,-2,-1,-2,-1,0,0,0
