timestamp,emg1,emg2,emg3,emg4,emg5,emg6,emg7,emg8
1537918638174814,-2,0,0,-1,10,-14,1,-2
1537918638174814,-9,-2,2,5,9,3,2,-10
1537918638181795,-2,0,-2,3,9,6,0,-3
1537918638181795,-5,-1,2,5,13,5,1,-5
1537918638183790,1,-1,3,8,24,9,-4,2
1537918638183790,2,-1,-2,2,54,26,-18,-6
1537918638184788,-22,-1,3,10,-3,-11,35,-8
1537918638184788,-9,-4,-6,-5,24,24,-27,-24
1537918638188776,18,1,-6,-18,-76,-65,54,2
1537918638188776,20,2,-7,-34,-113,-17,-20,8
1537918638202739,-17,-5,-5,6,73,69,-19,-2
1537918638202739,22,2,5,10,22,-25,-26,-10
1537918638210718,-25,-1,4,17,46,35,41,-19
1537918638210718,7,-9,2,16,58,85,2,28
1537918638216702,6,4,11,31,7,-20,18,12
1537918638216702,-12,-12,-35,-95,-109,-79,-20,-14
1537918638231663,-37,-10,-1,-10,82,40,-47,-4
1537918638231663,45,17,10,23,41,25,36,19
1537918638248616,-11,18,-5,-13,-62,-72,1,-22
1537918638248616,0,-2,23,60,127,54,-72,-13
1537918638255597,9,-13,-9,-40,-128,-54,49,-7
1537918638255597,-7,-11,-17,-41,-78,37,38,7
1537918638295490,12,-18,-8,-30,-84,-110,-95,45
1537918638295490,-15,3,-9,-8,7,15,36,-43
1537918638296487,-8,4,13,-13,-72,21,16,0
1537918638296487,-37,-17,6,66,30,-17,100,-7
1537918638299479,53,15,-4,19,127,-15,-73,29
1537918638299479,8,-11,-18,-49,-80,22,-17,8
1537918638300476,-18,-12,-5,-18,-68,-84,-24,-82
1537918638300476,3,15,10,16,40,73,-41,11
1537918638308455,19,9,31,65,53,-78,67,17
1537918638308455,-9,-6,-26,-59,-54,-118,2,-4
1537918638314439,7,4,5,27,127,121,10,4
1537918638314439,13,0,-5,-29,-42,-79,-15,-4
1537918638323415,-21,-1,-6,-9,-20,-3,5,-39
1537918638323415,-13,10,22,69,123,12,-16,0
1537918638336380,7,-1,-11,-41,-121,69,-73,-56
1537918638336380,36,-12,10,8,9,-67,68,52
1537918638345356,-14,20,2,38,2,27,14,-57
1537918638345356,-11,-10,-3,-26,44,57,-10,-1
1537918638368296,-27,-2,-12,-50,-41,-125,21,40
1537918638368296,3,9,-17,11,127,-43,-38,-58
1537918638369293,0,-13,-17,-41,-109,85,-3,12
1537918638369293,-4,-13,7,34,-2,-26,36,20
1537918638381261,-7,22,17,64,103,106,-28,-25
1537918638381261,21,-3,2,-20,-66,-62,-35,30
1537918638390236,-37,-20,-6,15,-55,91,29,0
1537918638390236,22,14,1,-25,9,71,-49,-6
1537918638405196,6,-4,10,1,-68,40,96,41
1537918638405196,-10,-5,-17,10,-61,88,-34,-21
1537918638407191,-22,-20,-39,-105,-52,-59,-57,-8
1537918638407191,0,12,16,80,23,-32,-5,27
1537918638428135,13,-10,-3,33,-66,-76,-14,-15
1537918638428135,-2,4,10,-22,23,127,-27,16
1537918638429133,9,8,14,37,35,64,55,13
1537918638429133,10,1,13,21,74,30,56,-23
1537918638442098,2,2,5,77,24,-126,-41,61
1537918638442098,3,-8,-9,-26,-47,57,30,-6
1537918638451074,12,7,-1,-48,-59,-83,-67,-11
1537918638451074,-3,4,-2,-5,65,-7,71,-4
1537918638466034,-8,-5,-24,-67,-36,-58,-83,-13
1537918638466034,-16,-9,3,-30,-20,6,62,-21
1537918638467031,8,1,10,57,127,1,-15,25
1537918638467031,7,3,-16,-14,19,-15,51,-16
1537918638487975,-1,-1,-18,-72,-35,-48,-19,-10
1537918638487975,3,5,-5,-16,-58,-34,-39,62
1537918638489970,-11,-3,11,24,-78,-54,13,-8
1537918638489970,16,9,12,30,-2,6,-2,45
1537918638501938,-3,-2,2,38,127,81,-1,11
1537918638501938,-2,-7,-5,-18,31,-61,-4,-21
1537918638510915,-38,15,7,7,-42,-37,9,-72
1537918638510915,16,-6,0,8,0,84,-32,17
1537918638525875,-2,-3,12,-28,-46,-81,9,-33
1537918638525875,-1,-8,-18,27,-43,76,-29,27
1537918638526874,15,-2,5,3,54,62,5,15
1537918638526874,-2,-11,-9,-38,-30,23,-41,-12
1537918638547816,-9,-1,6,102,-48,-6,57,13
1537918638547816,4,14,14,-70,-15,1,13,-2
1537918638549812,2,-5,-10,-1,21,-84,-18,4
1537918638549812,-16,-1,-11,-1,11,34,-32,-13
1537918638562775,20,-9,3,-3,23,74,-31,21
1537918638562775,-11,3,2,33,-9,-91,-11,-14
1537918638570754,14,6,18,4,77,127,100,11
1537918638570754,5,-4,3,1,-40,-54,-12,30
1537918638585714,8,4,-2,17,42,7,1,30
1537918638585714,-12,7,12,48,57,4,-8,-38
1537918638586711,5,-5,4,3,97,85,-37,7
1537918638586711,-14,-3,-5,15,-10,90,15,-25
1537918638607655,7,3,4,-18,44,58,-3,-4
1537918638607655,-1,0,13,85,39,24,-1,1
1537918638609650,11,5,-6,-6,108,-75,-4,-12
1537918638609650,-16,-15,-26,-80,-91,5,-43,0
1537918638621618,-13,-13,-13,-52,-40,-110,9,-21
1537918638621618,5,2,13,50,-45,86,-7,-22
1537918638630594,0,9,8,61,79,65,42,31
1537918638630594,2,10,-2,-71,-27,-103,-49,-4
1537918638645554,-4,0,7,21,-16,111,14,-9
1537918638645554,-7,-5,-16,-35,-13,-36,-26,4
1537918638646551,0,-4,-4,-2,-60,-15,48,-15
1537918638646551,-10,-5,8,7,-44,-72,29,-4
1537918638669490,11,6,8,23,78,0,15,23
1537918638669490,-9,0,6,29,55,66,-22,5
1537918638670487,-18,-9,-23,-47,-128,-60,36,-12
1537918638670487,1,0,17,44,127,-48,-32,-5
1537918638681458,-7,-3,-10,-14,8,-84,5,-39
1537918638681458,-11,-10,-21,-99,-98,-53,-38,-18
1537918638690434,-5,-6,-8,-33,-54,-40,-7,1
1537918638690434,0,2,6,82,-14,-16,-30,-21
1537918638705394,6,-8,-18,-92,-26,41,25,-4
1537918638705394,-7,4,-4,2,7,-21,4,24
1537918638707389,-5,-1,8,-2,-14,-21,-47,-7
1537918638707389,-1,0,9,58,42,55,25,-11
1537918638728333,3,-1,0,26,35,56,-7,19
1537918638728333,-3,-3,-6,-37,-15,-19,-44,-5
1537918638729331,-4,3,2,72,-14,60,48,-24
1537918638729331,11,-12,-1,-69,34,83,18,68
1537918638741298,-9,10,-6,1,-31,-24,-59,2
1537918638741298,-11,-1,0,-16,11,-83,65,-18
1537918638750275,9,-4,-3,34,31,79,-47,-10
1537918638750275,-5,0,8,20,-20,-17,-10,-19
1537918638765235,-7,-4,-2,-11,81,56,18,-2
1537918638765235,5,-7,-7,-15,-41,-49,-6,4
1537918638767231,13,4,-1,-15,59,8,-11,13
1537918638767231,9,4,3,31,-3,33,-11,1
1537918638788173,11,7,11,-25,12,-85,15,34
1537918638788173,0,-1,1,75,13,63,32,-18
1537918638789171,-14,-8,-9,-52,110,-45,31,10
1537918638789171,-20,-13,-29,-84,-128,-21,-36,-38
1537918638802135,4,2,9,42,67,3,-35,60
1537918638802135,5,1,7,3,96,-24,45,-20
1537918638811111,-6,-3,-6,-32,-79,-46,-18,13
1537918638811111,-16,5,14,41,30,-27,-3,-37
1537918638826072,18,-1,-4,15,-80,-21,-1,-18
1537918638826072,-4,2,5,-12,50,31,-10,3
1537918638827069,7,3,0,22,-64,83,20,13
1537918638827069,-4,-3,-7,-55,13,-48,12,-2
1537918638855991,-6,-5,-4,6,-102,30,5,-31
1537918638855991,11,9,14,76,127,-32,11,13
1537918638856988,-18,-14,-29,-106,-120,-39,-17,-12
1537918638856988,4,-4,-8,-5,17,-1,9,3
1537918638861976,20,9,10,34,99,45,-40,-9
1537918638861976,-2,-5,-5,5,-9,27,14,7
1537918638870951,-20,1,7,20,80,-12,-12,29
1537918638870951,4,11,8,29,-36,27,23,22
1537918638885911,-12,-9,-1,-10,-15,-33,-33,-30
1537918638885911,3,-2,-7,-31,-84,-56,23,-10
1537918638886909,1,6,4,4,0,-69,-33,-32
1537918638886909,-16,-18,3,34,-13,-28,66,16
1537918638907853,-1,3,-9,-44,-35,-36,0,-13
1537918638907853,-6,1,1,5,-36,13,-35,-4
1537918638909848,8,1,8,9,36,46,17,-8
1537918638909848,7,2,-4,4,-4,-48,-31,5
1537918638921816,-4,-3,1,21,61,49,42,-3
1537918638921816,9,3,7,4,40,-69,-3,15
1537918638930793,2,-2,-2,26,9,46,-17,1
1537918638930793,5,3,0,-1,11,19,-7,-8
1537918638945754,-7,-2,-5,-6,-8,-6,14,6
1537918638945754,-14,-5,-12,-53,4,18,-26,0
1537918638946750,6,-3,-3,-1,-49,-14,5,9
1537918638946750,-3,6,8,3,37,43,12,6
1537918638975673,1,-5,-5,5,-26,-85,40,4
1537918638975673,-2,0,-3,-4,-7,18,0,-18
1537918638976670,4,-1,4,1,-42,-5,12,2
1537918638976670,1,-2,-5,-5,-1,16,-8,-5
1537918638990633,-6,-2,-1,-5,4,12,0,4
1537918638990633,10,2,3,19,25,29,-8,15
1537918638991630,-3,2,2,3,36,24,35,-4
1537918638991630,6,5,4,4,11,-12,-44,-13
1537918639005593,9,-1,-1,12,-36,66,44,47
1537918639005593,-8,-6,-6,-8,-2,20,-44,-34
1537918639013573,-8,-3,-3,-12,-2,48,1,5
1537918639013573,16,-1,-9,-20,-19,31,4,-9
1537918639021549,-19,-8,-6,-27,-16,-47,-7,-30
1537918639021549,-1,-2,-2,-4,-26,2,-9,1
1537918639026535,-2,3,5,15,3,-3,-12,4
1537918639026535,-2,4,2,15,54,11,10,-5
1537918639034514,-2,-2,-1,7,15,-5,-1,1
1537918639034514,10,0,-5,-16,-18,7,14,62
1537918639049474,11,6,11,36,44,-3,-10,1
1537918639049474,-5,4,14,56,112,21,17,-20
1537918639056455,-11,-18,-31,-92,-85,-80,-17,18
1537918639056455,3,-7,-14,-27,-7,-9,-19,-13
1537918639065432,-2,-1,-2,-8,0,-15,24,-10
1537918639065432,-2,-2,2,-12,-22,49,-31,13
1537918639079394,-5,4,10,56,16,-33,-12,-14
1537918639079394,24,9,7,2,73,-25,47,24
1537918639088370,-7,-4,-7,-13,-36,9,0,-7
1537918639088370,22,2,-4,-16,-28,-22,-5,12
1537918639094354,-2,1,6,18,-10,10,-12,-14
1537918639094354,-7,3,7,15,10,18,-3,-12
1537918639109314,12,4,2,2,13,16,-21,19
1537918639109314,-4,-2,-7,-10,-35,-76,-9,8
1537918639116295,12,6,5,14,71,61,35,20
1537918639116295,-4,-2,-4,-7,-68,-39,-7,-14
1537918639125271,-4,-10,-10,-23,-17,-1,-28,-24
1537918639125271,-4,-2,-6,-39,-64,-24,-21,-11
1537918639139234,8,5,3,12,30,-12,7,7
1537918639139234,-1,0,0,-2,-26,24,2,-6
1537918639148210,-4,-1,1,16,3,-59,-11,-1
1537918639148210,2,4,6,24,61,102,-32,-10
1537918639154194,-3,2,4,12,-31,-43,87,-13
1537918639154194,11,-6,-8,-12,-15,50,-13,30
1537918639169154,-6,-2,-5,-14,-21,39,7,-10
1537918639169154,-2,-6,-13,-42,6,-55,7,8
1537918639177133,-5,0,3,1,16,67,-20,-11
1537918639177133,3,4,12,31,53,-36,-7,2
1537918639186109,-7,2,10,33,62,12,10,-2
1537918639186109,-12,-3,-3,3,-17,-65,8,-16
1537918639200073,11,3,-1,8,-10,10,-14,17
1537918639200073,-19,-4,-9,-32,3,-24,-15,-28
1537918639207054,3,0,-2,-8,-52,-26,-23,-1
1537918639207054,-3,1,9,23,88,55,11,4
1537918639222015,-8,-2,2,9,-54,50,-14,-26
1537918639222015,-1,1,0,8,-55,-41,11,-8
1537918639228996,-18,-12,-16,-49,2,-1,-18,-9
1537918639228996,12,0,-5,-19,-115,-1,19,31
1537918639236974,-2,-3,-3,-11,15,27,-5,0
1537918639236974,-6,-1,7,22,33,8,4,-11
1537918639252931,3,5,9,20,26,-34,2,-2
1537918639252931,-9,2,-7,-5,-37,-48,9,-8
1537918639258916,25,16,0,9,68,31,-24,22
1537918639258916,-30,-21,2,-1,-3,20,1,-52
1537918639267893,20,2,-4,-5,0,-17,5,61
1537918639267893,-9,-14,-2,2,-3,15,-22,-66
1537918639282850,-10,1,-3,-8,5,-6,-5,-10
1537918639282850,15,12,1,1,5,20,7,14
1537918639288834,1,0,-2,-7,-23,-16,26,13
1537918639288834,7,1,2,14,23,38,26,43
1537918639305789,10,-1,0,2,66,43,-13,-38
1537918639305789,-16,-5,-7,-26,-125,-109,-12,-49
1537918639306786,-4,-8,-4,-1,-36,37,-8,-3
1537918639306786,1,-2,-2,1,-28,-25,23,19
1537918639318754,-5,-2,5,8,48,-49,-9,9
1537918639318754,6,-5,-8,-7,18,43,41,29
1537918639327730,2,5,4,7,22,18,-1,-1
1537918639327730,-8,-2,-3,-4,-17,-42,-22,-17
1537918639342690,-10,-8,0,-1,9,28,-4,-4
1537918639342690,14,8,5,9,18,12,16,103
1537918639349671,-6,2,0,3,14,-32,-13,-38
1537918639349671,6,0,-1,2,13,18,1,6
1537918639365629,-10,-9,2,-2,-12,-19,-14,-11
1537918639365629,-7,-2,-4,-5,13,27,-8,-26
1537918639366626,3,-5,-4,-4,-8,-6,-7,49
1537918639366626,1,-1,1,2,5,5,6,20
1537918639379591,0,1,-3,-6,-19,3,0,-10
1537918639379591,-9,-3,-5,-2,-3,-7,-23,-28
1537918639388568,19,4,5,4,16,11,16,-13
1537918639388568,3,1,0,1,-5,-10,2,4
1537918639403528,-5,-4,-5,-8,-14,-11,3,10
1537918639403528,0,0,0,2,16,28,-2,-1
1537918639409512,0,-1,-2,0,6,-4,-10,-26
1537918639409512,-3,-2,-3,-3,-1,0,-7,-6
1537918639425469,3,1,0,-2,-12,0,9,2
1537918639425469,-2,1,1,5,24,25,-3,-5
1537918639427464,-5,-1,-1,-2,-14,-4,7,11
1537918639427464,-4,-1,-1,-3,-12,-15,-3,-11
1537918639439432,-5,-2,-3,-3,-6,0,1,0
1537918639439432,2,1,0,2,4,0,-2,-7
1537918639448409,-4,1,2,3,11,-3,-6,-5
1537918639448409,2,1,2,3,6,14,-6,2
1537918639462371,-3,0,3,10,62,6,-13,-2
1537918639462371,2,-3,-9,-20,-95,-79,7,12
1537918639469352,-2,0,-2,-2,-2,-2,-3,-7
1537918639469352,-6,-3,-3,-2,-4,-3,-3,0
1537918639485309,-2,-1,-2,-3,-5,4,-4,-4
1537918639485309,3,1,3,6,32,28,-7,-5
1537918639491293,-6,0,1,2,5,-3,2,-3
1537918639491293,7,-1,2,1,-3,0,4,2
1537918639499271,-2,0,-2,-1,-12,-9,0,6
1537918639499271,-1,-2,-2,1,12,21,8,-1
1537918639508247,-1,-2,-2,-3,-9,1,1,-19
1537918639508247,1,2,-1,0,11,10,4,17
1537918639522210,-7,-4,-1,0,-14,-3,4,2
1537918639522210,1,2,-2,0,5,2,-1,-4
1537918639530189,-5,-1,-1,1,6,-2,-3,-9
1537918639530189,4,0,-1,-3,14,13,-2,7
1537918639545149,-10,-4,-4,-7,-30,-65,-6,-8
1537918639545149,23,3,0,-2,-5,47,11,12
1537918639552130,-3,-2,1,4,5,2,11,-3
1537918639552130,-6,-1,1,5,10,-2,5,-5
1537918639559112,3,1,-2,-2,3,46,-3,-7
1537918639559112,-3,-1,-2,-5,-10,-19,-15,-3
1537918639568088,5,0,-2,-2,-8,-7,0,35
1537918639568088,-3,-3,0,-1,-1,9,1,11
1537918639582050,-4,-1,0,2,9,2,-3,3
1537918639582050,4,1,2,7,20,6,-2,-21
1537918639589031,-2,0,1,0,2,15,-14,-11
1537918639589031,-10,-1,-2,-2,-6,-24,3,-7
1537918639604989,11,-1,-3,-7,-8,7,1,9
1537918639604989,-4,0,1,2,8,3,-7,3
1537918639611970,-5,0,0,-3,-3,-15,-9,-10
1537918639611970,1,-2,-1,0,-4,1,-3,-4
1537918639618951,1,-1,-1,3,19,-29,-6,-7
1537918639618951,-5,0,0,1,3,58,7,-7
1537918639627928,2,-1,-2,-6,-33,-21,-3,-10
1537918639627928,-23,-2,1,0,-1,-14,-7,-26
1537918639641890,5,0,-2,-3,-14,50,1,-33
1537918639641890,-4,1,2,2,6,-40,-12,-46
1537918639648872,-8,-4,-5,1,16,38,5,10
1537918639648872,9,4,-3,-9,-10,-8,-10,-1
1537918639664829,-9,-2,0,-1,-3,-1,2,-9
1537918639664829,0,-2,-1,2,17,1,-1,5
1537918639671811,-9,0,3,7,6,4,3,-21
1537918639671811,7,-3,-4,-3,-2,-7,-10,4
1537918639687767,2,-1,0,0,4,-10,1,13
1537918639687767,-1,0,0,-1,-13,-16,4,17
1537918639689762,0,-2,1,-1,2,-20,5,8
1537918639689762,-5,-3,3,7,22,-3,2,-4
1537918639702728,13,-1,-6,-13,-17,20,-1,25
1537918639702728,-7,1,5,26,43,13,2,18
1537918639708712,-4,-6,-11,-25,-55,-55,-20,-28
1537918639708712,7,-4,-15,-29,-45,24,7,2
1537918639724669,-4,-3,-5,-20,-48,-23,-6,-15
1537918639724669,1,-1,0,-1,-14,-45,1,31
1537918639731650,7,1,6,16,50,37,9,16
1537918639731650,2,3,6,13,20,-5,5,-1
1537918639747608,-10,0,1,3,-1,15,1,-4
1537918639747608,-2,-1,-3,-4,11,5,-6,-6
1537918639749602,2,1,2,3,5,-8,-4,7
1537918639749602,2,0,0,-1,-9,7,6,13
1537918639762568,0,-1,2,6,13,-9,-2,-4
1537918639762568,-9,-3,0,-1,12,10,-2,-5
1537918639769549,4,-1,-3,-6,-5,-15,16,15
1537918639769549,-2,-1,0,1,-14,24,-4,-20
1537918639784510,4,0,-4,-3,-16,-38,-2,18
1537918639784510,-7,-2,-1,-7,-6,7,4,-13
1537918639791492,1,-1,-2,-1,3,22,-6,2
1537918639791492,-3,0,1,6,20,-38,-8,-1
1537918639808447,-3,2,1,2,0,17,10,6
1537918639808447,2,-3,-4,-6,-5,-47,-4,0
1537918639810441,-5,0,-1,-1,-7,1,-4,-12
1537918639810441,1,-2,-2,-3,-20,-34,-3,5
1537918639822409,-1,-1,-2,1,7,14,-3,2
1537918639822409,5,-3,-2,-4,12,2,-9,18
1537918639829390,-1,0,-1,0,-3,4,1,-3
1537918639829390,1,-1,-2,-1,-12,-15,3,2
1537918639845347,-2,0,0,2,5,-1,2,2
1537918639845347,0,-2,-3,-4,-16,8,-1,-2
1537918639851332,1,1,0,2,8,-1,-2,1
1537918639851332,-7,-1,1,2,3,25,1,-6
1537918639868288,-2,-2,0,3,13,-1,2,3
1537918639868288,-1,-2,-4,-8,-22,-10,-2,-2
1537918639869284,0,-1,-1,-2,0,7,-5,-3
1537918639869284,0,1,0,-1,6,1,3,3
1537918639882248,-2,0,0,2,3,-13,-3,-20
1537918639882248,4,0,-1,-1,-3,15,-2,8
1537918639889229,1,-1,-2,-1,2,15,2,-4
1537918639889229,-2,-3,-2,-2,-5,-5,-3,3
1537918639913165,-3,-2,1,0,9,8,2,5
1537918639913165,0,-1,-1,-3,-3,11,4,-7
1537918639914163,0,-1,-1,-2,-8,-51,-4,2
1537918639914163,0,2,0,2,7,36,6,-2
1537918639935107,-3,-1,-1,-3,-13,-13,0,0
1537918639935107,-1,0,0,0,3,4,-2,3
1537918639937101,0,-1,-1,0,5,0,-4,-1
1537918639937101,0,-1,-1,0,7,3,6,7
1537918639949069,8,0,1,1,-1,0,5,4
1537918639949069,-9,0,1,0,-4,5,1,-5
1537918639958045,15,3,2,4,21,12,-3,-1
1537918639958045,0,-3,-1,-6,-32,-26,-12,3
1537918639973006,-4,-3,-2,-1,-2,1,-13,-6
1537918639973006,2,-1,-2,-4,-9,-6,22,-3
1537918639975000,-7,1,5,5,7,13,-10,-2
1537918639975000,-1,1,-1,-1,7,1,-1,-12
1537918639995945,-6,-4,-3,-3,-3,-12,-9,-8
1537918639995945,1,1,-1,-1,0,2,-6,1
1537918639996944,0,0,-2,-3,-2,3,-7,-2
1537918639996944,-1,0,0,-1,2,-2,5,-3
1537918640008910,-11,-4,1,-1,-4,-2,-5,-34
1537918640008910,4,0,2,1,5,9,7,-6
1537918640017886,-17,-2,-2,-3,-5,0,10,30
1537918640017886,20,2,1,2,1,-3,-13,-8
1537918640032847,14,-1,-2,-2,-2,1,2,33
1537918640032847,-7,0,-4,0,1,1,-5,-16
1537918640034842,-7,-9,-1,-3,-8,-10,1,-4
1537918640034842,-8,3,1,1,6,-4,7,4
1537918640055785,-6,-2,-2,-3,4,18,24,-20
1537918640055785,5,-2,-2,-6,-19,-18,-16,-37
1537918640056782,-5,2,-1,1,-1,2,3,62
1537918640056782,9,0,1,0,2,5,9,-6
1537918640069747,5,1,-1,2,1,-11,-14,13
1537918640069747,-7,1,4,10,41,20,9,2
1537918640086703,-3,-3,-1,0,-6,-76,-10,-33
1537918640086703,-10,-3,-4,-12,-83,12,8,-7
1537918640092686,12,5,-3,-4,-7,-6,0,28
1537918640092686,3,-1,-2,-4,-13,4,11,9
1537918640092686,-6,-1,1,4,24,9,-10,-36
1537918640092686,1,0,2,6,39,12,-4,9
1537918640114627,-3,-1,2,-1,-3,-4,-2,3
1537918640114627,-10,0,-3,-1,1,-3,-12,-5
1537918640115624,13,10,1,3,8,26,14,-11
1537918640115624,-5,-10,-6,-2,2,-11,-7,14
1537918640137565,5,-3,4,1,0,11,5,-14
1537918640137565,-2,-3,0,-3,-2,-8,-8,9
1537918640138563,-4,-5,-3,-4,-13,11,5,-9
1537918640138563,-15,6,0,0,5,-1,8,21
1537918640152525,-14,-7,-2,2,3,-10,-13,-4
1537918640152525,4,11,1,1,-3,4,9,2
1537918640153523,20,11,-2,-6,-10,8,7,-12
1537918640153523,-12,-8,-4,-3,20,1,-19,-19
1537918640174466,-3,-5,-2,0,-15,9,12,18
1537918640174466,7,-3,-2,-2,-26,-45,14,57
1537918640175464,-10,-8,-4,-4,-9,20,4,-20
1537918640175464,-2,-3,0,-1,7,-6,-10,-2
1537918640197405,-5,1,-1,0,10,6,4,-14
1537918640197405,4,1,-2,0,8,15,-17,-15
1537918640198402,4,-2,-1,-2,-8,-18,-2,20
1537918640198402,6,1,0,1,2,-3,2,4
1537918640212365,4,5,1,-3,-5,-3,-4,7
1537918640212365,-11,-6,-2,1,-3,1,-3,-17
1537918640213363,-7,-1,4,5,12,11,2,-5
1537918640213363,1,-1,1,4,6,0,3,-19
1537918640243282,27,2,1,0,-2,-2,3,2
1537918640243282,-1,29,-1,8,-7,3,-4,-12
1537918640243282,17,-23,3,-28,-5,-2,1,6
1537918640243282,-38,6,6,15,-2,16,14,-13
1537918640257245,-15,-13,-8,4,29,-9,-4,-7
1537918640257245,-15,-3,5,21,52,71,12,-24
1537918640258243,20,21,13,21,-3,-24,3,21
1537918640258243,2,-41,-21,-36,-7,20,3,38
1537918640272206,4,44,0,-14,-4,-22,-3,-56
1537918640272206,-9,14,26,-1,-2,40,-16,-7
1537918640273204,11,17,-29,-7,-67,-53,16,9
1537918640273204,23,15,4,-1,17,10,-5,25
1537918640295146,-5,9,-21,-46,-62,-25,-19,-20
1537918640295146,-24,-78,-3,-4,15,34,-13,53
1537918640296143,-13,9,-27,-9,-5,20,8,-56
1537918640296143,33,47,16,5,14,-35,-9,15
1537918640317086,19,53,5,40,49,25,-6,-14
1537918640317086,-2,18,35,14,2,-24,-13,-31
1537918640318083,-10,-13,18,40,76,35,17,44
1537918640318083,-33,-9,-23,40,15,8,11,-6
1537918640332046,-20,-20,4,-72,-44,14,-5,-12
1537918640332046,62,14,-27,49,-76,-52,-11,40
1537918640333044,-14,4,10,-59,90,92,6,-49
1537918640333044,-50,-59,-17,-31,-98,-62,-37,-6
1537918640354984,11,8,12,14,32,-51,13,27
1537918640354984,-38,-41,-15,-45,47,-23,2,-21
1537918640355982,34,-39,-13,15,-43,-13,-30,38
1537918640355982,30,18,25,17,45,42,13,-26
1537918640376926,-20,-6,11,23,-1,29,-1,24
1537918640376926,-10,-9,-26,3,0,-6,-1,-16
1537918640377924,-9,-3,18,17,22,2,-2,-3
1537918640377924,6,10,-15,-6,-2,2,-4,-25
1537918640391886,-1,-15,4,12,-20,5,13,15
1537918640391886,-4,1,2,-3,20,1,6,-15
1537918640392884,-13,8,3,-6,-39,-37,-22,-9
1537918640392884,6,3,7,6,-18,-12,7,14
1537918640414825,3,-21,-13,-6,48,0,3,32
1537918640414825,1,13,-4,-29,-73,-28,-13,-52
1537918640415822,-5,-1,-5,-22,-44,-10,-5,12
1537918640415822,2,7,1,0,-8,-15,-4,-12
1537918640437763,-6,-11,3,26,32,53,14,-11
1537918640437763,18,9,-1,-8,11,-11,0,28
1537918640437763,-10,3,0,7,-11,-10,-10,-67
1537918640437763,11,-2,3,2,23,1,16,52
1537918640452723,-6,-7,1,7,0,1,-2,-10
1537918640452723,1,2,-1,-9,-8,7,12,34
1537918640452723,-7,-1,-3,7,7,-2,4,-22
1537918640452723,-18,-4,-1,-7,11,10,-9,-23
1537918640474664,9,-8,-4,-4,-26,-25,-7,10
1537918640474664,-7,4,0,0,-2,5,1,6
1537918640475662,2,2,1,9,21,10,-3,21
1537918640475662,-7,-5,-6,-12,-14,2,-8,-23
1537918640497603,-1,-1,0,0,-25,-29,9,12
1537918640497603,2,-4,-7,-6,-7,-5,-6,15
1537918640497603,1,-3,-5,-5,18,9,12,27
1537918640497603,7,2,0,-5,-22,-28,-6,-1
1537918640512563,-7,-5,-3,4,0,18,-14,-14
1537918640512563,-1,3,1,1,14,0,3,-16
1537918640513561,-5,0,0,2,0,5,-2,13
1537918640513561,1,1,2,1,11,-5,-12,-54
1537918640534504,13,18,0,1,1,-11,9,50
1537918640534504,1,-24,3,5,8,21,22,31
1537918640535502,26,-22,-7,-1,-20,-36,-20,54
1537918640535502,2,22,1,-3,11,2,-11,-21
1537918640557444,-20,-48,-6,-5,-12,0,-14,-10
1537918640557444,25,28,-4,-11,8,17,10,11
1537918640558441,0,-26,-2,-6,-6,-18,14,-1
1537918640558441,1,4,5,6,-10,-6,0,8
1537918640572403,3,-6,-5,20,14,8,-2,1
1537918640572403,21,21,0,-25,3,-14,-13,-1
1537918640573400,-31,-21,-8,-5,-30,1,-1,-24
1537918640573400,27,-13,-4,-18,6,16,26,33
1537918640595341,-5,35,5,4,-7,-1,-9,-43
1537918640595341,-4,2,7,23,13,-1,-17,22
1537918640595341,-36,12,8,29,30,26,13,-2
1537918640595341,22,4,-3,-3,26,-10,-1,26
1537918640617283,13,-17,-12,-26,-4,21,-3,9
1537918640617283,-32,-18,3,5,-76,-42,9,-25
1537918640618280,24,0,-14,-9,75,25,-16,-17
1537918640618280,-44,-47,1,-20,-61,-18,11,-26
1537918640632243,25,41,-1,27,-22,6,-3,21
1537918640632243,-3,-5,-5,-38,45,9,2,-21
1537918640633240,-30,-5,1,-19,-64,-15,1,0
1537918640633240,10,0,4,21,54,11,1,-41
1537918640655182,-4,-8,-6,-13,4,2,3,-1
1537918640655182,18,-12,17,35,8,-3,-18,1
1537918640655182,18,16,-10,19,15,-2,16,5
1537918640655182,22,46,2,4,18,13,-4,-11
1537918640678121,-28,-42,4,-5,-16,-14,-11,-12
1537918640678121,0,-4,-3,2,3,10,10,2
1537918640679120,5,0,4,21,26,-7,-18,2
1537918640679120,10,15,-9,-42,-57,0,-3,19
1537918640692085,-9,-2,1,-7,-11,-11,16,-15
1537918640692085,-5,0,-6,11,8,17,14,-19
1537918640693084,6,10,-4,-72,-50,-4,-18,-37
1537918640693084,-3,-5,-1,41,-8,-37,-18,56
1537918640715022,-6,11,9,-8,19,-5,-12,-34
1537918640715022,-6,5,-5,-2,-5,4,-8,25
1537918640715022,13,-2,10,23,15,19,18,-16
1537918640715022,-19,5,0,3,22,13,-6,-6
1537918640737960,0,-21,5,2,18,-2,6,0
1537918640737960,12,24,0,17,13,-1,-19,-25
1537918640738958,-16,12,10,30,7,2,7,0
1537918640738958,-27,-11,-8,-4,7,-7,-7,14
1537918640751923,21,5,-5,-13,-26,-1,5,19
1537918640751923,-13,-3,-11,-44,-16,-17,3,-23
1537918640752920,5,-8,-3,-20,-3,5,-1,26
1537918640752920,-6,-14,0,-3,-30,-9,2,-15
1537918640774861,-13,-12,-5,11,-12,-10,-10,-13
1537918640774861,-11,17,1,6,0,7,1,16
1537918640775859,16,17,2,3,2,2,13,-12
1537918640775859,-12,-23,2,3,18,5,-16,-16
1537918640797800,-4,-8,-4,5,6,4,-3,3
1537918640797800,-1,-17,0,7,9,0,5,9
1537918640798798,-6,12,2,0,13,25,5,8
1537918640798798,7,12,8,11,-12,-31,9,7
1537918640812760,23,47,2,14,8,-10,-14,-31
1537918640812760,-17,-48,-6,-24,14,2,27,68
1537918640812760,-1,31,-3,-7,-40,-3,-11,16
1537918640812760,-1,-8,-2,-16,-8,20,8,-1
1537918640834702,-8,15,-2,-9,16,0,-8,-35
1537918640834702,13,-21,10,56,5,-7,-11,-1
1537918640835699,-6,-16,-3,-24,13,-1,-11,-23
1537918640835699,17,-7,-2,4,10,-4,5,49
1537918640857641,2,-5,1,-11,9,50,12,6
1537918640857641,8,41,0,-17,-29,2,-1,-27
1537918640858639,-8,-25,-18,-20,-81,-115,-17,0
1537918640858639,12,14,-6,1,-13,10,-14,-16
1537918640871604,-17,-12,8,14,25,5,4,16
1537918640871604,-8,-8,2,14,39,26,8,-35
1537918640879583,27,38,12,8,19,17,-4,10
1537918640879583,6,52,5,-3,-7,-40,-14,-48
1537918640894542,16,-53,0,1,-13,3,5,41
1537918640894542,-9,-5,-17,-26,-20,-7,-9,-4
1537918640895541,5,-32,1,10,6,4,1,0
1537918640895541,5,-11,-9,-1,14,17,13,22
1537918640918478,3,35,7,-5,9,-8,-5,4
1537918640918478,-10,-3,-3,-8,-26,-18,-15,-27
1537918640918478,-6,-8,-1,6,0,-9,-15,-6
1537918640918478,1,-9,1,-2,11,18,6,12
1537918640932440,-9,13,4,6,23,6,6,68
1537918640932440,11,24,-10,-3,36,46,-10,-27
1537918640933438,7,-7,-13,-13,-80,-65,29,69
1537918640933438,-9,-18,-10,-19,-33,27,-7,-1
1537918640954382,-19,-26,-7,-12,-28,-19,1,-32
1537918640954382,-3,6,21,26,32,-27,-7,-4
1537918640955379,-2,11,-2,10,28,67,-11,-24
1537918640955379,-7,-18,-11,-15,-1,-27,-10,-26
1537918640978318,-8,30,-7,-11,-36,-37,-18,-49
1537918640978318,7,-41,-1,-3,3,6,5,18
1537918640978318,-32,-18,12,20,26,3,-11,-42
1537918640978318,3,-20,7,9,4,0,15,12
1537918640991283,-8,52,11,9,10,3,-25,-40
1537918640991283,5,-2,-12,-9,-22,-19,3,9
1537918641000260,-43,4,7,7,13,10,1,-7
1537918641000260,13,-2,0,1,6,9,-1,-2
1537918641015220,-2,-31,0,-1,9,3,3,3
1537918641015220,13,18,1,-4,-17,-3,-1,-3
1537918641015220,2,3,4,15,57,65,4,7
1537918641015220,-17,-8,-13,-5,-16,-54,-27,-22
1537918641038159,18,1,-1,-4,-24,12,18,25
1537918641038159,-17,-9,-9,-15,5,37,18,-2
1537918641039157,5,-4,-2,-4,-16,22,-4,-2
1537918641039157,-10,1,18,23,29,25,11,4
1537918641052122,4,-19,-17,-14,5,-39,0,-13
1537918641052122,-9,2,-4,-11,-38,-21,-1,20
1537918641060099,23,5,5,-2,31,18,-10,-3
1537918641060099,0,4,8,13,30,27,8,1
1537918641075059,-9,-3,0,5,-6,-9,4,17
1537918641075059,6,6,5,3,19,18,-8,-2
1537918641076057,-3,-3,-5,-5,-10,-26,2,-12
1537918641076057,-2,0,-4,-8,-15,2,6,4
1537918641097998,-7,-13,-9,-4,8,16,14,-4
1537918641097998,-3,-1,-4,-6,-13,-15,3,7
1537918641098996,2,-6,-2,1,-2,-9,15,1
1537918641098996,6,2,0,0,-6,0,21,-1
1537918641111961,-5,-3,-1,0,9,13,7,6
1537918641111961,9,0,-3,0,-1,-9,0,0
1537918641119939,0,0,-3,-6,-14,-21,-12,-1
1537918641119939,-9,1,2,-1,12,22,-18,-6
1537918641134899,4,-1,-2,1,0,-4,-13,7
1537918641134899,2,4,9,12,0,-8,-15,-2
1537918641135897,0,-3,-13,-16,-16,-14,-16,-5
1537918641135897,2,1,1,-1,5,7,-3,1
1537918641157838,7,0,0,-4,-3,4,-1,10
1537918641157838,-3,-1,-2,-2,-5,-19,-4,-11
1537918641158836,0,1,3,1,12,25,6,3
1537918641158836,0,0,-1,-4,-17,-29,3,3
1537918641171802,-2,-2,1,-1,-8,-6,3,4
1537918641171802,-1,3,2,-1,5,12,-1,-2
1537918641179781,0,-2,-1,-3,-6,-12,2,-2
1537918641179781,-4,2,1,1,7,5,-3,-5
1537918641194740,-4,-5,-3,-1,5,16,1,0
1537918641194740,-4,-4,-3,-4,-9,-15,-6,-7
1537918641195738,7,0,-1,3,5,3,3,10
1537918641195738,-7,-1,-4,-2,-3,0,0,-6
1537918641217678,1,-2,-2,1,-1,-8,-4,0
1537918641217678,0,-1,-1,-1,-3,0,-1,4
1537918641218676,-5,-2,0,0,-6,-12,-1,0
1537918641218676,6,0,-2,-1,1,6,0,0
1537918641231641,0,-4,-1,1,1,0,-1,3
1537918641231641,-2,-1,-1,-1,-5,-3,-1,0
1537918641239619,-2,-2,1,1,-5,-10,-2,1
1537918641239619,2,0,0,-2,-1,4,-1,3
1537918641254579,0,-3,-2,-1,0,3,0,0
1537918641254579,-4,1,1,1,-5,-7,0,-2
1537918641255577,-1,-1,1,4,15,6,-3,-2
1537918641255577,0,0,-1,2,-6,-8,4,3
1537918641277518,-2,-1,-4,-8,-16,5,-2,-1
1537918641277518,-1,-2,-2,-2,-3,-8,-2,-3
1537918641278515,-5,-2,1,-4,6,1,-2,-3
1537918641278515,-1,-1,0,-3,-16,-4,-2,-2
1537918641291480,0,-1,0,3,5,-11,0,4
1537918641291480,1,1,0,-3,-9,3,1,-2
1537918641299459,2,2,-2,0,6,-1,-1,-2
1537918641299459,-2,-1,0,0,8,11,-2,-1
1537918641314419,-3,-1,0,1,3,-2,0,-2
1537918641314419,-1,-2,-2,-2,3,3,-3,0
1537918641315417,0,-2,-3,-2,-5,-6,0,2
1537918641315417,-5,-3,-1,-2,2,3,-4,-6
1537918641338356,1,0,-2,1,-3,-1,-2,-4
1537918641338356,-1,0,0,0,4,-4,0,1
1537918641338356,-2,-2,1,-1,-10,-5,0,-2
1537918641338356,-2,-1,-1,0,-1,4,1,-7
1537918641360297,1,-1,1,-1,2,-1,0,-2
1537918641360297,-5,-2,-2,1,-1,-1,1,-8
1537918641361294,5,-3,-3,-4,-8,-6,-4,8
1537918641361294,0,-2,-2,0,4,2,0,-1
1537918641375257,2,-1,0,0,2,-3,-1,3
1537918641375257,2,0,-1,0,-1,-2,-3,0
1537918641375257,-1,0,-2,0,-7,0,2,-3
1537918641375257,2,-1,-2,-3,4,-2,-5,11
1537918641398196,-4,-3,0,-1,1,3,-1,0
1537918641398196,0,-2,-1,-1,-5,-7,0,0
1537918641399194,-3,-2,-2,-1,0,-3,-3,-4
1537918641399194,0,0,-2,1,1,4,0,7
1537918641420139,-3,0,-1,0,0,-9,-3,-1
1537918641420139,0,-1,0,1,0,20,1,0
1537918641421137,-5,-2,0,-3,-7,-7,-1,-8
1537918641421137,1,1,1,-1,0,1,0,-3
1537918641435098,-2,0,0,-1,-1,-2,-1,-4
1537918641435098,2,-1,0,-1,1,-5,-1,2
1537918641435098,-12,-2,0,0,-1,2,1,-5
1537918641435098,10,0,-2,-1,-1,-3,-3,10
1537918641458037,2,-1,1,-1,1,2,0,1
1537918641458037,2,-2,-2,-2,-1,-5,-4,3
1537918641459035,1,0,-1,-2,-1,1,1,2
1537918641459035,-5,-1,1,-1,-1,-3,0,-7
1537918641480976,3,-1,2,0,0,2,-1,4
1537918641480976,4,0,-1,4,27,25,-4,11
1537918641480976,-2,-1,3,16,64,-13,-13,2
1537918641480976,-7,0,-2,-11,-58,-69,21,-2
1537918641494937,8,-3,-4,-3,6,100,-10,-5
1537918641494937,-17,-9,-11,-17,-23,23,-12,-30
1537918641495934,16,-2,-12,-38,-66,-57,12,79
1537918641495934,-12,0,12,38,79,31,-10,35
1537918641517876,-6,-1,5,30,97,41,7,-12
1537918641517876,-6,0,2,-4,16,14,-40,-73
1537918641518873,0,3,5,-2,-89,13,40,67
1537918641518873,23,3,-27,-71,-128,56,14,25
1537918641540815,38,-10,-17,-44,-56,-35,2,98
1537918641540815,-15,-34,20,34,94,5,-12,-48
1537918641540815,-14,71,4,17,111,-17,-19,-58
1537918641540815,0,61,69,31,62,-39,-31,6
1537918641554777,-18,-21,-27,18,-12,19,27,-32
1537918641554777,29,-65,58,17,-3,-24,47,15
1537918641555775,-40,-49,-106,-32,-10,-20,-64,36
1537918641555775,3,8,49,15,15,28,-2,-8
1537918641577715,16,63,19,-10,-17,-31,-13,-20
1537918641577715,23,61,10,-3,-9,-23,30,17
1537918641578713,8,-83,20,9,14,16,1,-19
1537918641578713,35,-2,-11,-38,-41,-4,-67,-9
1537918641600654,-59,-26,-28,-23,-92,-32,-24,-30
1537918641600654,-28,27,-6,3,-19,-31,-7,-20
1537918641601652,85,34,28,31,66,65,32,5
1537918641601652,-27,29,-38,4,-12,-36,-5,-28
1537918641614617,10,-14,29,8,40,-35,31,11
1537918641614617,-17,-69,-20,-14,-57,33,-30,-29
1537918641615614,-18,13,-8,1,-30,-36,10,-4
1537918641615614,-7,-3,2,28,79,45,14,-7
1537918641637555,40,-3,31,6,24,-28,-11,-19
1537918641637555,-28,15,-48,-30,-22,5,-8,14
1537918641638553,-25,-19,26,-26,-49,28,-18,-40
1537918641638553,1,-20,-6,1,-5,-5,4,-57
1537918641660494,-19,3,-5,8,-1,21,36,95
1537918641660494,3,5,-4,9,54,-13,-19,52
1537918641661491,-3,28,22,15,-7,2,4,-39
1537918641661491,-22,-17,-26,-4,23,14,19,-33
1537918641674457,22,8,-6,14,36,2,-12,-17
1537918641674457,-4,-17,5,0,-6,-73,-24,-7
1537918641683433,-22,11,2,-3,14,25,5,-4
1537918641683433,28,-11,-14,-44,-113,-74,-5,-43
1537918641698393,-55,6,0,5,17,0,7,-13
1537918641698393,4,14,-24,-20,-29,4,-10,-35
1537918641699391,18,3,6,10,13,-24,-5,5
1537918641699391,-11,-12,9,26,60,32,25,12
1537918641720335,-11,-2,4,1,-9,5,-31,-11
1537918641720335,13,36,2,11,15,18,30,17
1537918641722330,-21,-16,6,9,6,-2,-2,-19
1537918641722330,-22,-43,-11,-2,7,-1,25,45
1537918641734298,-37,-42,-3,-7,-16,13,-7,-45
1537918641734298,51,57,18,3,1,12,16,38
1537918641743275,-6,-46,-14,6,5,-1,6,3
1537918641743275,10,24,-1,13,56,-23,-33,3
1537918641758233,6,15,-6,-11,5,85,13,-23
1537918641758233,4,-36,-15,-25,-55,-101,6,-4
1537918641759231,-24,-21,5,-10,-31,61,-18,-33
1537918641759231,39,9,-5,-7,-26,-28,5,74
1537918641780175,2,0,1,-4,7,-24,12,-32
1537918641780175,-25,-3,3,5,6,19,6,-18
1537918641782170,12,18,2,3,4,-2,-6,5
1537918641782170,-32,-12,-1,14,31,28,6,2
1537918641794137,2,-28,-2,0,-4,-31,-21,-6
1537918641794137,-24,41,-6,-5,0,31,12,36
1537918641803114,14,-7,17,2,4,-22,7,-22
1537918641803114,-13,-41,-28,-4,-4,20,3,15
1537918641818073,9,11,-1,0,-11,-23,-2,16
1537918641818073,30,10,-3,3,-2,8,-18,-9
1537918641819071,-24,32,31,23,59,-8,6,15
1537918641819071,-4,-6,-21,-6,-37,-41,-19,-24
1537918641841013,5,4,-11,-35,-28,-2,9,-13
1537918641841013,-27,-16,-9,-12,-71,-48,-4,-45
1537918641842011,24,11,2,-17,-5,32,1,26
1537918641842011,10,-10,14,0,4,-24,11,-9
1537918641853979,12,-3,-2,12,4,-15,-11,6
1537918641853979,-12,0,4,3,22,28,-1,-4
1537918641862956,6,5,-8,-2,-11,-1,9,-16
1537918641862956,-17,3,6,8,19,19,-11,-27
1537918641877915,-4,2,-1,5,4,6,-2,17
1537918641877915,14,21,11,11,22,19,19,33
1537918641879910,-9,-35,-19,-7,-10,-14,-12,-23
1537918641879910,-12,-8,-2,0,6,24,15,13
1537918641900853,-12,-9,4,-3,-10,-23,-9,-11
1537918641900853,18,-9,1,5,9,11,-2,28
1537918641901852,16,25,-5,-1,-5,-6,12,5
1537918641901852,-2,-15,4,-4,-13,21,7,44
1537918641913820,-3,7,5,11,44,38,-7,-39
1537918641913820,-16,-25,-2,3,-17,-23,4,-52
1537918641922796,14,-6,-9,-17,-21,-9,-5,64
1537918641922796,-22,-1,5,-7,-20,-18,3,-24
1537918641937754,-4,5,-3,-5,-26,-28,-5,20
1537918641937754,-2,-11,3,4,29,45,-3,22
1537918641939749,-6,5,-5,5,-3,-2,5,-34
1537918641939749,3,-1,5,6,25,-2,-8,-18
1537918641960692,33,-23,2,1,3,-6,8,14
1537918641960692,-37,34,2,-16,-22,-7,-15,-10
1537918641961689,30,16,-12,-3,7,-8,9,55
1537918641961689,41,22,11,2,-2,21,20,0
1537918641985626,1,8,3,9,4,-5,-3,-15
1537918641985626,0,-23,-13,4,10,8,-4,34
1537918641986623,-33,-6,-1,-1,-6,2,6,-38
1537918641986623,6,14,-4,-3,-6,5,-8,12
1537918641989615,5,11,3,-1,0,-11,6,-12
1537918641989615,-15,9,1,19,57,39,29,-30
1537918641999588,-12,-5,4,15,32,29,-26,-18
1537918641999588,-2,-1,-17,-43,-90,-43,-4,4
1537918642012553,-11,-13,-1,-11,-40,-23,-4,5
1537918642012553,-18,-8,1,1,2,-4,34,14
1537918642012553,61,19,14,15,29,27,-18,40
1537918642012553,-36,-3,16,18,38,14,-5,-37
1537918642028511,71,22,-20,-6,-15,-3,-5,40
1537918642028511,-3,0,11,0,5,5,-3,11
1537918642042473,-67,-18,-15,-3,-19,-17,-11,-34
1537918642042473,-6,-26,7,3,12,0,-3,1
1537918642049455,5,7,2,0,7,1,5,11
1537918642049455,14,-21,-6,0,-3,0,-10,-16
1537918642057434,28,11,2,-5,-24,-54,-1,24
1537918642057434,-7,19,2,-2,16,54,-4,0
1537918642072394,-24,-20,-5,2,5,-2,-16,-34
1537918642072394,30,13,-3,-19,-57,-54,20,52
1537918642073391,-13,-15,1,-19,-36,-2,21,-11
1537918642073391,11,-7,-15,2,24,32,-4,-18
1537918642086356,0,15,7,0,5,-2,-21,18
1537918642086356,-14,-22,1,11,17,21,4,4
1537918642094335,-6,-10,-8,-12,-7,-21,-3,26
1537918642094335,5,22,-3,-3,-7,-25,6,-23
1537918642109295,1,39,7,-1,-11,9,9,-1
1537918642109295,1,-18,6,11,0,-14,-39,-18
1537918642125252,7,-5,-5,-14,3,14,11,2
1537918642125252,-5,5,1,6,16,20,6,-2
1537918642132234,-10,-10,-2,0,5,-12,-4,1
1537918642132234,11,-27,-9,-9,0,17,6,9
1537918642133231,8,15,5,4,1,0,4,-22
1537918642133231,-16,-19,-5,-7,0,-21,-9,13
1537918642147194,-1,23,0,2,4,38,17,11
1537918642147194,16,10,-3,-2,20,52,-4,-5
1537918642154175,-4,-10,-4,-1,-18,-34,-10,-29
1537918642154175,0,-8,-6,-10,-32,-42,-3,2
1537918642169135,-21,-15,1,2,-14,-39,-1,-13
1537918642169135,8,10,1,-2,18,4,14,-3
1537918642177113,-8,-1,3,2,19,-23,-30,-23
1537918642177113,13,14,0,-4,-35,62,1,9
1537918642192073,-2,-5,0,2,5,1,-5,-10
1537918642192073,-4,-4,2,4,3,-22,-10,-2
1537918642193071,-7,0,-3,-2,0,0,-3,-9
1537918642193071,11,11,13,20,25,-10,2,-2
1537918642207033,6,0,-4,-2,15,13,8,16
1537918642207033,-48,-33,-4,-1,-10,-7,-18,-18
1537918642214015,45,-10,-9,-10,3,25,25,51
1537918642214015,-7,0,1,0,0,-8,-9,0
1537918642228975,-9,-41,-5,2,4,5,3,6
1537918642228975,-13,2,-3,-5,-7,-19,-5,-4
1537918642236953,5,0,0,6,-7,12,2,-19
1537918642236953,0,-18,-4,-1,7,-8,4,3
1537918642251914,5,13,5,0,2,-6,1,-1
1537918642251914,11,4,-1,-6,-10,-5,0,-3
1537918642252911,-21,-4,1,2,0,6,-2,-3
1537918642252911,14,18,1,0,4,1,13,5
1537918642266873,-17,-12,2,3,5,-1,2,-10
1537918642266873,20,16,0,-1,-5,1,-1,18
1537918642273855,-5,9,1,0,-2,5,-2,-10
1537918642273855,-1,-5,-3,0,7,2,-4,-6
1537918642288814,-4,0,0,1,14,2,0,0
1537918642288814,-4,-1,-6,-3,-20,-16,10,-8
1537918642297791,2,17,-3,-8,-11,-1,-7,-8
1537918642297791,-12,-23,-1,0,-2,-8,7,19
1537918642311753,5,1,-5,-5,-3,7,0,-1
1537918642311753,7,20,4,2,8,0,-10,4
1537918642319732,-15,-10,0,7,3,2,2,-16
1537918642319732,5,2,-3,1,-3,-2,-7,-13
1537918642326713,-13,-4,-2,-1,-2,-5,0,-13
1537918642326713,7,-1,-2,-2,-1,1,-3,12
1537918642333694,-6,3,1,-2,-6,-1,-3,-13
1537918642333694,2,1,0,1,3,-1,1,11
1537918642348654,0,0,3,2,-3,-9,-12,-4
1537918642348654,1,2,-4,2,14,23,20,-8
1537918642357631,-1,-2,-1,-3,-3,-3,1,3
1537918642357631,3,0,-4,-6,-12,-5,-6,-3
1537918642372590,-5,-5,1,9,42,-25,-10,-3
1537918642372590,-3,2,1,-5,-51,53,-1,-13
1537918642379573,0,-4,-5,-10,1,0,2,11
1537918642379573,0,-2,1,2,1,-7,-3,-3
1537918642386553,-3,3,-4,-6,-11,13,2,-11
1537918642386553,9,1,2,6,34,-22,-12,15
1537918642394532,-2,1,2,6,7,-1,9,-4
1537918642394532,0,1,0,-3,-8,9,-7,3
1537918642409492,-9,-1,-2,2,2,-4,3,-8
1537918642409492,4,2,-2,-3,-1,-12,-2,5
1537918642417471,-4,-2,-2,-2,-12,5,3,1
1537918642417471,-4,3,0,0,7,-11,-1,-6
1537918642431434,11,5,0,-1,-8,11,3,6
1537918642431434,-7,-3,-1,-4,-4,-14,-1,-8
1537918642439412,0,-3,0,1,-1,5,-2,0
1537918642439412,2,5,0,4,7,-3,0,-9
1537918642446394,0,-3,-3,-5,-12,0,0,6
1537918642446394,2,-1,0,-4,-5,2,-6,7
1537918642454373,-3,2,-1,1,6,-7,1,-4
1537918642454373,-3,-1,-1,-1,-1,0,3,-6
1537918642469334,8,-4,-3,-7,-13,-1,-7,18
1537918642469334,7,2,-1,-2,2,-9,-3,-3
1537918642477312,-10,-3,2,4,2,6,5,-16
1537918642477312,-1,-2,-2,-3,-3,-2,-2,-1
1537918642491274,-7,-1,0,-2,-7,4,3,-11
1537918642491274,-4,1,3,1,5,-4,-1,0
1537918642500250,7,-1,1,1,-2,-1,0,4
1537918642500250,-5,-1,-1,-2,-1,1,-3,-3
1537918642514212,1,0,1,0,0,-2,-2,-2
1537918642514212,-2,-1,-1,0,0,-4,-2,-4
1537918642523189,2,1,-1,-2,-2,3,-3,4
1537918642523189,-2,-1,-2,0,1,-8,-1,4
1537918642529173,-1,-1,1,1,-8,-3,2,1
1537918642529173,2,1,0,-2,3,13,0,-2
1537918642538149,-6,-3,1,6,28,23,0,-6
1537918642538149,4,-1,-4,-15,-50,-76,-4,1
1537918642552111,-3,-3,-4,-7,-39,6,2,-2
1537918642552111,0,-1,-2,-2,-4,-9,-1,2
1537918642560089,4,1,0,2,14,5,-6,15
1537918642560089,1,-2,2,5,25,22,-2,-1
1537918642574052,0,0,1,1,10,-6,0,0
1537918642574052,-4,-2,-1,-1,1,-3,-1,-3
1537918642583029,-2,0,-2,-2,-7,-2,0,-3
1537918642583029,-1,-1,0,2,6,13,0,-2
1537918642589012,4,0,-1,-1,-2,-4,-3,4
1537918642589012,-1,-1,-2,0,5,6,1,-2
1537918642597988,-2,-1,-2,-1,-8,-10,1,-1
1537918642597988,-1,-1,-1,-1,-3,4,1,-2
1537918642611951,-8,-2,1,1,8,5,0,-8
1537918642611951,2,1,-1,-1,-1,-7,-2,-2
1537918642620927,0,-1,1,-3,-11,-9,0,0
1537918642620927,-1,-1,-3,0,3,8,0,-2
1537918642633892,0,-2,-2,1,3,4,-2,11
1537918642633892,2,-2,-1,-2,-2,-3,-1,1
1537918642642868,-1,0,-1,-3,-8,-8,0,-2
1537918642642868,-3,-1,0,2,7,12,0,-3
1537918642648852,-2,0,0,-1,5,-2,1,-3
1537918642648852,1,0,-1,-2,-7,-11,-1,-1
1537918642657829,-9,-1,-1,-1,0,8,1,-11
1537918642657829,15,-2,-3,-2,-4,-7,-12,39
1537918642671791,-6,-2,0,-2,-1,1,0,-2
1537918642671791,2,1,1,1,1,2,-1,-1
1537918642680768,-4,0,0,2,2,0,3,-5
1537918642680768,-13,-2,1,0,-1,8,6,-23
1537918642693733,2,-1,0,-4,-2,-4,-1,-1
1537918642693733,0,-4,-3,0,-2,2,-2,11
1537918642702709,0,-1,1,-1,-3,-6,-1,1
1537918642702709,-1,0,1,0,-1,1,0,1
1537918642708693,0,0,-1,-1,2,-1,-1,3
1537918642708693,-7,0,0,-1,0,-6,0,-15
1537918642717669,1,0,-1,-1,-1,4,-3,6
1537918642717669,2,0,0,0,9,6,1,0
1537918642731632,1,0,-2,-2,12,13,-2,-4
1537918642731632,1,-3,-2,-2,-22,-10,0,8
1537918642740609,8,-3,-4,-1,8,-11,-10,12
1537918642740609,-3,3,-2,-3,-18,-4,2,-10
1537918642755569,3,-1,-3,-2,-8,-34,-3,7
1537918642755569,-15,-2,2,5,21,26,2,-9
1537918642756566,8,-1,-2,-7,-16,9,-3,16
1537918642756566,5,1,1,1,6,2,3,0
1537918642769531,-3,0,0,12,50,-7,-1,1
1537918642769531,1,-3,-2,-8,-25,39,5,0
1537918642778506,-12,3,-3,-7,-16,-7,-10,-38
1537918642778506,8,15,-2,-8,-15,-20,6,28
1537918642791472,6,-43,9,8,-1,15,-2,10
1537918642791472,16,20,-6,3,14,-41,-16,-8
1537918642800448,-12,-18,5,-8,-35,-5,2,-18
1537918642800448,-17,-19,-4,-6,-3,-6,5,-10
1537918642814410,-15,22,-4,0,-1,11,-1,-14
1537918642814410,8,6,-5,5,25,6,6,21
1537918642823387,26,24,2,4,10,-3,-10,-4
1537918642823387,-2,-7,3,5,4,-3,-5,-22
1537918642829371,9,10,8,0,1,15,9,10
1537918642829371,3,22,4,0,-7,-9,-7,-7
1537918642838346,-34,-28,-4,-1,-4,-10,16,-16
1537918642838346,-9,-3,8,5,0,10,-1,23
1537918642860289,6,17,-5,-4,-1,-3,-3,-15
1537918642860289,2,5,-5,-10,-16,4,-12,9
1537918642862285,6,5,-4,-1,8,-7,3,13
1537918642862285,-5,-13,-6,2,3,11,-6,-12
1537918642883227,-5,-26,-5,-2,6,30,5,-6
1537918642883227,-15,-14,-3,-9,-37,-36,6,-3
1537918642884224,9,-5,-2,-4,-3,-1,-5,-7
1537918642884224,-1,-12,-3,4,5,-5,-5,12
1537918642897190,5,16,-4,-3,-13,-38,-3,-4
1537918642897190,1,-16,2,4,12,9,-6,1
1537918642905168,-11,18,2,5,9,15,3,-10
1537918642905168,8,-5,-3,-1,-1,-16,-6,-9
1537918642920128,-7,0,2,2,-2,13,3,-13
1537918642920128,-8,-11,1,2,10,6,1,-1
1537918642922125,-3,-3,-3,1,-2,-7,-2,8
1537918642922125,-1,19,-2,1,7,7,0,-6
1537918642943068,-13,-18,-3,-3,-9,3,2,4
1537918642943068,-10,-6,3,0,1,-1,6,-27
1537918642944065,5,6,-3,3,9,2,1,12
1537918642944065,-4,-7,1,2,4,-23,0,-5
1537918642957029,-2,-4,-6,-14,-35,35,0,0
1537918642957029,4,2,-3,-5,-3,-7,2,-6
1537918642966005,18,3,-2,-1,-2,-7,-8,37
1537918642966005,-3,5,0,-2,-2,0,7,-10
1537918642979968,2,2,1,2,-1,-21,-5,-9
1537918642979968,-6,-4,3,6,25,23,2,9
1537918642986949,-6,-4,2,0,-12,-36,-3,-5
1537918642986949,5,1,-4,-6,-12,24,-2,-8
1537918643002906,0,8,-1,-2,-4,-15,3,10
1537918643002906,5,-5,-2,-3,-2,9,-5,11
1537918643004901,-1,-5,0,4,17,6,4,-5
1537918643004901,6,17,0,-1,0,0,-1,4
1537918643016869,-19,-19,-4,-1,-4,-6,0,-12
1537918643016869,-9,1,1,1,4,0,3,-4
1537918643025845,7,3,-1,-1,-3,2,-2,-2
1537918643025845,-7,-4,-3,-1,-2,-3,-3,-5
1537918643040806,15,-1,-3,-2,2,6,-8,26
1537918643040806,-1,33,3,2,-3,-10,2,2
1537918643041804,-10,-22,-4,3,7,7,-2,0
1537918643041804,-1,-5,-3,-5,-11,-6,4,2
1537918643062747,-4,2,-1,-2,-6,-16,-4,-14
1537918643062747,2,-13,-2,-1,-4,-6,1,-10
1537918643064743,-3,2,-1,-2,1,-13,2,-7
1537918643064743,-3,5,2,2,15,41,5,-6
1537918643076709,-1,-3,-1,1,2,-2,0,-3
1537918643076709,2,-3,-1,-3,-5,-9,-1,1
1537918643085686,-2,4,1,0,-4,6,0,-3
1537918643085686,-2,-10,-1,0,1,-8,-1,1
1537918643100645,-5,7,2,0,-1,-5,2,-10
1537918643100645,0,-10,-2,-2,1,5,-4,0
1537918643101643,-1,-3,1,1,3,7,2,4
1537918643101643,-1,2,-1,-2,-3,-6,-4,-8
1537918643122586,-6,-5,-1,2,3,9,4,-9
1537918643122586,12,-9,-1,-2,7,3,3,0
1537918643124581,-5,-18,0,3,-10,-15,2,-16
1537918643124581,4,21,0,2,9,6,0,5
1537918643136548,11,10,-2,-5,-9,-9,-6,-11
1537918643136548,6,-6,-3,-8,-28,-5,11,13
1537918643145525,-13,-17,-2,-3,2,11,1,-8
1537918643145525,13,-9,2,3,16,-22,-6,13
1537918643160485,0,5,-2,0,2,-20,-12,-11
1537918643160485,-15,-1,-1,4,3,65,6,1
1537918643161482,24,19,1,-3,-5,-17,-1,-1
1537918643161482,-23,-8,-3,-5,-8,10,5,8
1537918643183423,-4,-11,-1,2,1,-8,-13,0
1537918643183423,-3,3,1,0,4,-22,-1,-12
1537918643184421,-7,-2,1,3,7,10,0,2
1537918643184421,5,-3,0,2,7,12,-4,-3
1537918643196389,-5,1,0,-3,-10,-13,-6,4
1537918643196389,-3,-8,-3,1,10,5,3,-10
1537918643205365,3,7,-2,-2,1,4,1,10
1537918643205365,-1,-2,-1,-3,-7,-14,-3,-5
1537918643219327,3,8,0,-4,-11,4,7,7
1537918643219327,-3,-18,-4,-2,-2,-17,-8,-7
1537918643226309,-4,18,-3,-2,-2,7,0,-5
1537918643226309,5,-16,-5,1,0,0,-3,2
1537918643243264,-13,-29,-1,0,-1,6,0,10
1537918643243264,18,9,0,0,1,-7,-5,5
1537918643244262,5,4,-5,-5,-4,0,-6,28
1537918643244262,2,7,4,2,0,3,0,-7
1537918643265207,2,2,-1,-2,6,-30,2,-4
1537918643265207,1,4,-1,-9,-19,28,3,33
1537918643267203,0,-10,0,0,-13,2,-5,-21
1537918643267203,-13,-6,-1,3,17,-7,-2,-22
1537918643280168,7,5,0,-9,-41,-11,-1,8
1537918643280168,-8,12,0,-1,7,-20,-2,-18
1537918643287146,-15,-18,2,6,-2,2,-8,-8
1537918643287146,8,-1,-3,-1,2,3,7,12
1537918643303105,3,11,3,9,23,14,4,3
1537918643303105,8,5,-1,-1,0,-10,4,18
1537918643304102,5,22,0,0,5,11,8,11
1537918643304102,-43,-39,-6,-1,-7,-10,-10,-20
1537918643325045,24,4,3,1,7,11,-4,2
1537918643325045,-2,-2,-2,-4,-8,-16,-1,0
1537918643327040,2,-11,-3,0,14,12,4,5
1537918643327040,8,16,5,2,-6,-9,2,2
1537918643340005,-3,5,-4,5,23,13,4,-2
1537918643340005,-5,-15,-6,-5,-41,-19,-12,-8
1537918643342000,-5,5,1,-3,2,-23,3,-17
1537918643342000,33,9,-6,-13,-17,43,-15,39
1537918643362944,-10,-9,-3,-8,-13,-14,5,-5
1537918643362944,3,2,4,7,22,-6,-12,11
1537918643363941,-8,-4,0,-1,-5,-1,-7,-11
1537918643363941,-3,6,5,6,8,-12,9,-19
1537918643385882,0,2,-2,0,10,6,2,0
1537918643385882,-5,-3,-2,1,3,3,6,-5
1537918643386879,-7,6,-3,-2,-7,-9,-3,-2
1537918643386879,-10,-18,1,4,4,3,-4,-31
1537918643398847,14,48,2,0,-4,5,-8,25
1537918643398847,8,-18,1,2,0,-5,0,-7
1537918643415802,-16,-11,-2,-3,2,9,-6,-12
1537918643415802,-6,2,-2,0,-3,2,8,5
1537918643422783,-1,4,0,-4,-6,0,1,-1
1537918643422783,-13,5,-2,0,2,-5,-3,-10
1537918643424778,10,5,2,1,5,3,-1,9
1537918643424778,3,-5,-2,-3,2,-11,0,8
1537918643445722,-7,-3,3,3,-8,-23,1,-7
1537918643445722,-10,-5,-2,-6,-8,37,4,-4
1537918643446719,7,-9,-1,4,10,8,7,-9
1537918643446719,-10,6,-1,-2,-18,-36,-7,-6
1537918643458687,-13,-17,-12,-21,-42,19,8,-19
1537918643458687,-3,5,2,1,11,-10,0,-9
1537918643467663,0,-4,0,0,-3,8,-5,-12
1537918643467663,6,9,3,3,15,-7,-1,-3
1537918643482624,-5,-10,3,11,31,8,3,13
1537918643482624,-4,-5,-2,-4,-16,-3,2,-9
1537918643484619,-3,17,-2,-5,-3,-10,-2,6
1537918643484619,-6,-30,-4,0,-4,-3,-4,-6
1537918643505563,11,32,-1,0,3,7,-3,8
1537918643505563,-11,-12,-2,2,6,-5,-5,-7
1537918643506561,1,-1,-1,0,6,-5,15,19
1537918643506561,10,17,0,-2,-4,10,0,2
1537918643519525,-20,-33,-4,-2,0,5,0,-8
1537918643519525,8,19,5,2,7,-16,0,6
1537918643528501,13,18,-1,-2,-7,2,0,10
1537918643528501,-7,-17,-3,-2,-6,-6,0,2
1537918643542464,1,-15,-2,1,-3,5,-1,0
1537918643542464,-2,1,0,4,11,13,-2,2
1537918643544460,-2,-13,-2,-3,-21,-4,-3,8
1537918643544460,5,17,-1,-3,7,13,4,6
1537918643565403,1,-10,-3,3,9,-10,-7,5
1537918643565403,-5,-6,-4,-7,-25,-37,-3,-16
1537918643566400,3,3,-3,-8,-8,-23,-4,-3
1537918643566400,1,4,1,-1,-3,77,1,15
1537918643579366,-4,-3,1,-1,-6,3,-2,-24
1537918643579366,0,2,-2,-2,8,4,1,14
1537918643588341,-2,-8,-1,1,7,-1,-7,-19
1537918643588341,-1,4,-1,0,2,-21,-13,-13
1537918643603301,-4,-8,0,4,15,4,20,7
1537918643603301,6,7,0,2,-3,9,0,-10
1537918643604298,-6,-2,-1,1,-1,-4,-1,-6
1537918643604298,2,7,0,2,1,-6,-1,8
1537918643625242,0,9,1,-1,-11,-1,-8,-4
1537918643625242,8,-3,0,0,7,-4,1,10
1537918643627237,-5,-9,-3,-3,-1,7,0,4
1537918643627237,11,11,1,-1,-5,-12,3,3
1537918643639204,3,-4,-2,-3,1,0,-1,8
1537918643639204,-9,-5,0,1,2,-11,-4,-5
1537918643648181,3,0,1,-1,-1,6,0,3
1537918643648181,-1,-1,-1,-3,4,17,4,3
1537918643663141,1,0,-4,-6,-20,-33,-6,-4
1537918643663141,-6,-5,-2,-1,7,19,0,-15
1537918643664138,9,-3,-1,1,-1,-16,-6,16
1537918643664138,-2,0,-2,-2,-4,2,0,-7
1537918643685082,2,-2,2,1,-10,-18,1,-2
1537918643685082,-10,0,-4,-5,-8,8,1,-15
1537918643687077,-2,-3,1,-1,-1,10,3,4
1537918643687077,-4,-4,0,2,6,-6,-2,-6
1537918643699045,-1,-1,2,3,19,16,-10,-10
1537918643699045,-7,-2,-2,0,-3,-4,3,-3
1537918643708021,1,-1,1,0,3,2,-3,-10
1537918643708021,-4,-3,-3,-1,-3,-7,0,-4
1537918643722981,-2,0,-3,-1,3,-1,-1,-1
1537918643722981,2,-2,-1,-2,3,-5,-2,8
1537918643723979,1,1,0,-2,2,9,4,10
1537918643723979,-4,-1,-1,-3,-12,-16,1,4
1537918643745920,1,-2,0,0,4,6,6,5
1537918643745920,6,0,0,0,1,2,-3,8
1537918643746917,-4,-3,0,0,-3,1,0,-5
1537918643746917,-1,-2,-1,-3,-5,-8,0,-3
1537918643758885,-1,-2,1,1,3,6,1,4
1537918643758885,-1,-1,-1,2,3,1,-3,-2
1537918643767861,-2,-2,-2,-1,-2,-1,1,1
1537918643767861,0,-1,0,0,-9,-16,0,-1
1537918643782821,1,-1,-2,-4,7,21,-6,0
1537918643782821,3,-1,1,3,5,-23,-1,2
1537918643784815,-4,-3,-3,-2,-13,15,1,-2
1537918643784815,-5,-4,-5,-5,-7,-11,-3,-4
1537918643805759,6,-1,0,-1,-6,-6,-5,22
1537918643805759,5,2,-2,0,2,-5,0,2
1537918643806757,-4,0,2,3,12,4,-2,-9
1537918643806757,-3,0,1,0,-4,-1,5,-5
1537918643818725,7,-1,-4,-4,-2,-6,-11,20
1537918643818725,2,0,-1,0,-2,7,-2,1
1537918643827701,-2,-1,-1,0,-4,-7,-6,-10
1537918643827701,-2,1,-1,0,2,7,-1,-3
1537918643842661,-5,-2,-2,0,1,-3,-4,-10
1537918643842661,8,4,1,-1,-1,9,0,21
1537918643844656,2,-1,-3,-3,-3,0,0,8
1537918643844656,-1,0,-1,0,0,-4,1,-2
1537918643865600,5,3,-2,-1,-5,-3,0,-3
1537918643865600,-8,-3,-1,-1,-3,4,-1,-6
1537918643866598,0,-1,-2,-3,0,-10,-3,4
1537918643866598,1,-2,1,0,-2,-6,-1,2
1537918643879562,-4,3,-2,-2,5,8,1,-6
1537918643879562,5,-1,-2,-2,-3,-9,-2,-3
1537918643887541,-2,-1,-1,-2,8,12,-2,2
1537918643887541,0,2,-2,-4,-9,8,-2,1
1537918643902502,-5,-4,-1,-3,-9,-12,2,-7
1537918643902502,0,-1,-2,-1,2,8,-2,2
1537918643904499,-3,-2,2,4,-1,-7,-4,-7
1537918643904499,-7,-3,1,3,14,8,-7,-16
1537918643925441,-6,-2,1,2,-11,-14,1,-9
1537918643925441,2,1,1,0,1,18,6,8
1537918643927436,0,-1,-2,0,0,-6,2,6
1537918643927436,4,2,-2,-3,0,4,2,9
1537918643939404,-1,-4,-1,-1,-1,4,2,-6
1537918643939404,-1,2,0,0,-3,-11,-6,1
1537918643948380,-4,-2,1,-3,-7,-1,-2,-13
1537918643948380,1,-19,0,0,0,-1,1,8
1537918643963340,-4,9,1,1,3,0,0,-3
1537918643963340,-5,-4,1,4,10,5,3,-8
1537918643964338,2,4,-6,1,7,2,0,-1
1537918643964338,-2,-5,-1,-5,-25,-17,-1,3
1537918643985280,7,3,2,-1,10,11,3,5
1537918643985280,-7,-4,-1,-3,-1,-11,-3,-14
1537918643987274,-8,-5,-2,-1,-11,10,-2,-3
1537918643987274,4,3,2,-2,-1,-5,20,30
1537918643999242,-4,-4,-7,-1,3,3,-22,-31
1537918643999242,0,1,-2,0,-4,-3,1,10
1537918644008218,-1,0,-1,0,5,-2,-5,-9
1537918644008218,1,3,0,3,5,-5,4,-2
1537918644022181,-1,-2,0,0,3,6,9,17
1537918644022181,-6,-7,-4,-3,-4,0,-6,-20
1537918644029163,7,12,2,-1,-2,-8,0,14
1537918644029163,-5,-17,-1,0,1,6,-3,-8
1537918644045120,2,3,-1,2,3,3,1,-2
1537918644045120,11,22,-2,-6,-5,2,-4,7
1537918644047115,-10,-40,3,-1,-1,-3,9,0
1537918644047115,-2,9,-2,-2,2,1,-6,-2
1537918644059083,-1,-2,1,-1,-1,1,5,1
1537918644059083,-5,-6,1,1,-3,0,1,-1
1537918644068059,4,10,1,5,2,-9,-1,2
1537918644068059,0,-2,-9,-3,16,10,-3,-7
1537918644082021,-5,-6,-5,-10,-24,-27,-1,1
1537918644082021,0,-2,-4,-9,-26,4,1,7
1537918644089003,5,-1,-3,-4,-5,-37,-1,13
1537918644089003,-11,-1,2,1,-18,11,-22,-33
1537918644104960,9,4,4,6,5,1,18,35
1537918644104960,-10,-3,-1,0,9,0,-19,-31
1537918644106955,1,5,2,1,8,6,24,7
1537918644106955,-2,0,-2,-1,-1,0,-2,0
1537918644118923,-1,-1,-2,-1,6,11,-3,-4
1537918644118923,-6,-5,1,0,-3,-5,-3,-10
1537918644127900,-4,-3,-2,-1,5,14,0,-5
1537918644127900,8,8,5,5,6,-7,-5,4
1537918644141861,-6,-5,-3,-5,-3,0,-7,-11
1537918644141861,9,-18,-2,2,3,-3,5,24
1537918644148843,-1,20,8,-2,-2,8,-3,-12
1537918644148843,4,13,1,-1,-3,-7,5,8
1537918644165797,-1,-14,0,-2,-2,-3,-12,-9
1537918644165797,-6,-12,-2,2,3,-1,9,-2
1537918644166795,3,-2,-3,-5,-5,3,-5,-1
1537918644166795,2,0,0,-1,3,-3,-3,4
1537918644187738,-4,4,0,0,4,-1,3,-11
1537918644187738,0,8,3,-3,6,6,2,0
1537918644189734,2,1,6,1,-9,4,-2,1
1537918644189734,-10,0,-2,-2,-3,-23,4,-23
1537918644202699,-1,2,3,5,13,30,1,-5
1537918644202699,-2,0,-2,-1,-5,-8,3,-2
1537918644208683,-2,-3,-6,-6,-6,2,-8,-4
1537918644208683,1,-4,-2,-4,-18,-12,6,1
1537918644225637,-1,-3,0,-1,-1,-3,-1,11
1537918644225637,-4,2,0,5,-4,-9,-18,-20
1537918644226635,-3,-3,-2,2,8,9,20,9
1537918644226635,1,-2,-3,3,6,2,-8,-3
1537918644247579,-2,-1,-1,0,-1,-1,2,5
1537918644247579,4,1,-2,0,-1,2,-2,6
1537918644249574,-10,-4,0,2,-7,-10,-12,-24
1537918644249574,7,3,-1,-1,4,7,0,12
1537918644262541,-3,-2,-2,1,-2,-5,-5,-13
1537918644262541,-3,-2,-1,-1,3,-1,9,0
1537918644269521,7,4,0,-1,-5,-3,-2,0
1537918644269521,-12,4,-1,2,5,7,4,-1
1537918644284481,9,0,-2,-4,-4,-5,-2,-16
1537918644284481,-3,-2,-1,-1,-4,-11,-2,0
1537918644293457,2,0,-2,-1,2,-3,-2,8
1537918644293457,-2,-12,-1,-1,9,20,-3,-1
1537918644308416,-5,6,0,1,-4,-14,0,-4
1537918644308416,-2,-3,-3,-9,1,14,2,5
1537918644309415,1,-7,-2,8,12,21,-4,7
1537918644309415,-7,-1,-6,-14,-24,-16,-2,-3
1537918644321382,6,-2,-2,-1,10,2,-6,10
1537918644321382,3,-2,0,-4,-25,-35,5,18
1537918644330360,-9,-3,-2,-8,-23,-32,-21,-33
1537918644330360,-2,1,2,4,11,20,-6,-8
1537918644345318,-1,-1,-1,0,2,-7,14,16
1537918644345318,2,4,2,0,17,51,6,13
1537918644347314,2,0,-4,-3,0,-5,-14,-5
1537918644347314,0,-3,1,4,1,-9,0,-2
1537918644368258,-7,-2,-1,-1,-4,-5,-4,-9
1537918644368258,0,2,-2,3,2,-9,1,-7
1537918644369256,-4,-3,-1,-3,-5,-4,-1,8
1537918644369256,6,-1,1,0,4,8,0,9
1537918644381223,-4,-3,-2,-2,-4,1,5,0
1537918644381223,1,2,0,2,1,-7,5,4
1537918644390198,1,-1,-2,-3,0,16,6,-1
1537918644390198,-2,-12,-6,-1,1,-13,-2,-1
1537918644405157,-6,17,0,-2,-6,0,-4,-16
1537918644405157,4,2,1,1,2,-2,-2,8
1537918644407152,2,-1,-2,-2,4,6,4,8
1537918644407152,-3,-1,-1,-1,1,-15,2,0
1537918644428096,4,-6,0,1,1,21,-2,-6
1537918644428096,-7,-2,1,3,0,0,-2,-9
1537918644429093,0,4,-2,0,4,-8,1,3
1537918644429093,10,3,0,-1,0,4,-4,8
1537918644441061,-6,-6,-3,-8,-10,-11,-4,-5
1537918644441061,-4,2,3,2,-6,-27,3,-7
1537918644450037,-1,-5,-7,-11,-22,6,-7,-3
1537918644450037,-4,2,2,3,0,-2,-2,2
1537918644464997,0,-4,0,-1,-1,4,3,-13
1537918644464997,3,-2,-2,1,11,8,6,8
1537918644466992,-5,-2,1,3,-2,-18,-4,-5
1537918644466992,5,2,-1,-1,6,7,-3,-5
1537918644487936,-4,-3,-2,-1,-2,-7,-6,5
1537918644487936,-2,0,-3,-2,-2,-2,-2,-4
1537918644488933,-2,-2,1,3,4,8,3,-3
1537918644488933,-1,1,-2,-1,-4,1,2,1
1537918644501898,1,-2,2,1,1,-3,0,5
1537918644501898,-2,-1,-3,-1,-4,2,-5,-11
1537918644510875,-1,0,-2,0,6,3,3,1
1537918644510875,0,0,-2,-3,-4,-4,1,4
1537918644525834,0,-2,0,1,-2,-5,1,5
1537918644525834,-1,0,-2,-4,-1,3,-6,-5
1537918644526832,0,1,0,0,2,-5,2,1
1537918644526832,-2,-1,-1,-2,-2,-4,1,-1
1537918644547776,1,0,-1,-1,-1,1,-3,0
1537918644547776,-3,-1,-1,-2,-4,1,-2,-3
1537918644549771,1,0,2,0,0,3,2,1
1537918644549771,3,-2,-1,-3,-3,-1,-3,9
1537918644561739,0,-1,0,0,1,0,0,1
1537918644561739,-1,-3,-1,-1,-3,2,-3,-5
1537918644570715,-1,1,1,1,0,-1,3,0
1537918644570715,-2,1,0,-1,-2,1,-1,-3
1537918644585675,1,-2,0,-1,-3,-2,-2,3
1537918644585675,1,-2,0,-2,-2,-4,-2,0
1537918644586672,0,-1,-1,0,1,-1,1,0
1537918644586672,4,0,-1,-1,-1,-1,-3,0
1537918644607616,-2,-1,-3,0,-1,-2,-2,0
1537918644607616,-2,-1,0,2,11,-2,-3,-4
1537918644609611,-2,0,4,16,76,53,2,-1
1537918644609611,-3,-2,-1,-11,-67,-44,-6,2
1537918644622576,8,-2,-4,3,-1,-54,-16,15
1537918644622576,4,2,-2,-15,0,84,0,4
1537918644629557,-13,-4,-1,2,-10,-57,9,-36
1537918644629557,24,4,2,6,11,28,1,76
1537918644645515,9,7,4,3,1,-51,-16,25
1537918644645515,-11,-11,-7,-9,7,-45,-36,-64
1537918644646512,4,-11,-9,-30,-93,24,-10,-22
1537918644646512,30,18,-2,-15,-32,-59,-39,-3
1537918644667456,-53,-30,-6,8,66,-29,4,-67
1537918644667456,4,4,9,13,23,87,61,61
1537918644669451,42,38,33,11,6,-7,-11,-14
1537918644669451,-41,-21,-41,-16,16,-4,-15,-55
1537918644681419,7,11,-21,-12,-17,50,16,6
1537918644681419,-9,4,20,14,23,-39,-24,-24
1537918644690397,-4,-10,10,2,15,-2,9,12
1537918644690397,-40,-29,10,11,-8,39,30,34
1537918644705357,45,27,-4,3,24,-17,-35,-59
1537918644705357,-39,-22,-14,-19,-54,-47,27,61
1537918644707353,24,-22,-15,-5,-19,53,-14,-18
1537918644707353,-15,41,12,12,82,44,-8,-41
1537918644728295,-4,-13,-12,-19,-77,3,-12,-6
1537918644728295,48,17,-8,-3,-41,-10,0,22
1537918644729292,-20,-9,-14,-23,-51,-69,-21,-16
1537918644729292,0,-2,10,12,7,0,12,-39
1537918644741259,-1,7,-5,10,24,61,90,72
1537918644741259,8,-4,-17,3,19,17,-23,-29
1537918644750234,11,-3,16,7,43,11,9,32
1537918644750234,-23,-36,5,8,14,-1,5,-46
1537918644765195,15,35,15,1,-14,0,-8,12
1537918644765195,-5,-3,-6,-8,-1,-31,38,6
1537918644767189,-54,-48,-11,6,-2,5,21,9
1537918644767189,22,25,10,11,30,8,-5,0
1537918644788133,-10,-24,16,12,-29,-42,13,-14
1537918644788133,-17,2,0,-1,99,68,-43,-26
1537918644789131,14,39,-6,-24,-92,-61,22,-3
1537918644789131,13,-22,-8,-15,-16,34,31,90
1537918644801099,-10,-19,-4,-6,1,6,-12,29
1537918644801099,-10,6,5,17,1,-32,-14,-31
1537918644810075,21,6,-8,9,38,22,27,103
1537918644810075,-22,10,-2,0,25,-34,1,-50
1537918644825035,9,-4,-7,-10,-32,6,-25,-1
1537918644825035,17,-19,8,9,-14,-1,-2,15
1537918644827030,-37,-2,-6,5,20,11,-8,-48
1537918644827030,18,17,1,3,-2,-24,-6,9
1537918644847974,-39,-6,-3,-7,4,23,-4,-28
1537918644847974,21,15,-1,-8,-30,-12,-16,-16
1537918644848972,-12,2,-4,10,55,10,-13,-21
1537918644848972,-2,-21,-4,-13,-20,-12,-12,-25
1537918644861938,-17,3,-4,-7,-5,0,15,9
1537918644861938,7,-1,-10,-12,-31,-28,0,-2
1537918644870915,3,9,0,-4,-10,-10,-3,12
1537918644870915,-3,2,5,8,13,29,-19,-27
1537918644884876,5,-3,15,11,22,20,8,-18
1537918644884876,-15,-6,1,0,-8,-20,68,-25
1537918644891857,-11,-6,-2,2,19,19,-14,-6
1537918644891857,20,5,-1,-8,-21,-4,-28,29
1537918644907815,6,0,0,0,7,14,78,21
1537918644907815,15,12,-1,-5,-5,-21,-102,-23
1537918644909810,-3,17,2,3,3,9,-3,-26
1537918644909810,-8,-15,-14,1,-6,3,-19,-8
1537918644921777,-9,-6,18,-5,-4,-9,-69,-10
1537918644921777,-22,-13,1,2,-8,-32,-84,-10
1537918644930755,20,-1,-12,-2,5,-1,28,1
1537918644930755,2,30,7,0,-8,38,50,-3
1537918644944716,0,-15,-6,5,17,12,-30,-16
1537918644944716,-9,-3,19,-2,-16,-27,18,6
1537918644952695,3,12,1,4,5,22,-93,-2
1537918644952695,1,-5,-10,-5,-3,1,12,-44
1537918644967654,5,-4,-5,-5,-3,1,71,6
1537918644967654,7,6,0,1,1,-27,-73,-24
1537918644967654,17,0,-7,-9,-11,-41,-112,-66
1537918644967654,10,-14,12,6,3,17,85,87
1537918644989596,-6,27,-8,-7,-9,-13,-104,-24
1537918644989596,0,-15,-5,-5,1,18,13,36
1537918644990593,-3,-4,6,6,10,9,51,46
1537918644990593,6,2,-8,-3,-10,-9,-43,-31
1537918645003558,7,12,11,1,-1,-36,-62,-23
1537918645003558,-19,-13,-17,2,2,31,101,34
1537918645012535,2,0,0,-1,5,25,26,13
1537918645012535,-4,-11,12,3,6,-28,59,14
1537918645027493,5,-6,-10,-1,-8,16,37,29
1537918645027493,1,18,-5,0,7,10,-21,-52
1537918645027493,-15,-21,4,1,-2,1,64,-32
1537918645027493,3,-1,-5,-4,-9,-11,-43,5
1537918645049435,6,-1,3,4,13,-25,-26,14
1537918645049435,25,16,-4,-9,-14,32,71,46
1537918645050432,-15,-19,0,5,-2,-14,3,-16
1537918645050432,-9,2,-4,0,4,-15,-63,-16
1537918645064395,16,5,-2,-14,-17,15,54,45
1537918645064395,7,-12,1,1,-1,-13,0,4
1537918645072374,12,16,-7,-6,0,28,-30,18
1537918645072374,-2,6,7,7,16,44,18,-9
1537918645087333,-16,-8,-3,10,21,-21,-48,-20
1537918645087333,5,7,3,-3,-11,-35,18,3
1537918645088331,-1,-3,-5,-7,-17,-11,19,6
1537918645088331,-8,4,-3,-1,-8,-17,-52,-2
1537918645109275,1,-10,-2,4,5,21,-2,1
1537918645109275,4,22,17,6,12,23,3,13
1537918645110273,28,1,-13,-6,-4,-36,-37,28
1537918645110273,-3,10,-2,0,1,1,-15,-18
1537918645124235,-2,7,1,-3,-2,3,16,-11
1537918645124235,-5,-28,-5,-1,3,10,11,43
1537918645132213,-16,-16,7,2,3,11,0,18
1537918645132213,-4,3,1,0,-4,-16,9,-40
1537918645147174,1,1,-2,-3,-3,7,27,-22
1537918645147174,-14,-9,-3,0,-5,-3,-33,-19
1537918645148171,6,5,-1,-5,-6,-13,-3,-18
1537918645148171,3,-7,-6,-7,-7,4,10,79
1537918645170112,-5,-10,1,3,1,-1,-34,-8
1537918645170112,-13,2,1,7,14,1,2,-15
1537918645170112,-6,1,-2,-4,4,22,20,1
1537918645170112,-10,-8,-2,-6,-1,-26,5,-10
1537918645184075,22,-11,-3,-10,-26,1,-25,18
1537918645184075,-1,12,1,0,1,13,30,3
1537918645192054,-18,-6,4,5,-1,-10,2,-9
1537918645192054,-7,-4,-3,-2,-2,-13,17,-7
1537918645207014,8,-6,-2,2,10,23,-52,-24
1537918645207014,10,0,4,-1,-1,0,-64,-21
1537918645208011,-31,-6,2,6,6,-23,15,-21
1537918645208011,-7,24,6,-3,-8,5,12,7
1537918645229953,10,-2,-16,-3,5,-6,19,10
1537918645229953,20,7,14,1,-1,6,-2,10
1537918645229953,-15,2,-18,-9,-7,3,-9,-18
1537918645229953,14,-8,2,-4,-7,-46,-35,-6
1537918645252892,2,16,-17,-9,-7,4,17,13
1537918645252892,-15,-7,8,8,16,54,-1,-25
1537918645253890,-6,-4,28,9,8,2,36,13
1537918645253890,-7,6,-24,-9,-17,-15,-20,4
1537918645266855,10,4,-13,-8,-4,-25,19,-58
1537918645266855,2,12,-3,-6,-18,-107,3,15
1537918645267853,-10,5,-15,-1,8,83,11,-53
1537918645267853,5,-18,11,16,28,-42,-29,6
1537918645289794,-33,-30,10,0,-6,116,-26,-52
1537918645289794,11,27,-17,9,37,-40,104,68
1537918645290792,22,11,8,5,-14,-85,-67,27
1537918645290792,-5,9,3,8,21,37,-8,-39
1537918645304752,9,6,0,1,-7,27,59,87
1537918645304752,-19,-27,-14,-26,-37,-20,-2,-39
1537918645305750,15,-1,2,-7,-35,-77,-80,19
1537918645305750,-28,10,15,5,13,30,62,-48
