timestamp,emg1,emg2,emg3,emg4,emg5,emg6,emg7,emg8
1537920508599063,-2,-3,-3,1,-1,-26,24,-7
1537920508599063,-1,-6,-2,2,10,66,-5,6
1537920508605046,-1,-3,1,2,4,-22,5,3
1537920508605046,0,2,0,-3,-2,15,4,2
1537920508606043,-3,-6,-3,-4,-3,-21,3,0
1537920508606043,-2,-2,-3,-3,-6,-4,13,-4
1537920508607041,0,0,-2,-2,-3,1,2,2
1537920508607041,-1,-3,1,1,3,19,-11,1
1537920508619009,-2,0,0,1,0,-13,1,2
1537920508619009,1,0,-2,-2,-4,18,2,-6
1537920508627985,-2,-3,-3,-3,-5,-33,-21,0
1537920508627985,-1,-1,-3,1,1,-17,18,-4
1537920508632971,0,2,3,2,6,28,-33,5
1537920508632971,0,0,-1,-5,-14,-29,-6,5
1537920508647932,-2,-2,-5,-1,5,-1,10,-15
1537920508647932,3,1,1,-2,-6,1,-16,0
1537920508657905,-5,-5,1,0,-3,-6,-14,1
1537920508657905,0,0,1,1,2,-23,2,4
1537920508672865,1,2,0,3,5,39,-2,0
1537920508672865,-4,-2,-3,-2,1,13,1,-9
1537920508678849,-1,0,-1,-2,1,-2,2,-2
1537920508678849,-1,-3,-1,-4,-9,-21,8,0
1537920508692811,-11,-7,1,-1,1,6,5,0
1537920508692811,5,1,-5,2,0,-25,-9,-2
1537920508733702,-2,0,0,0,6,0,24,3
1537920508733702,-4,-3,-3,-4,-5,4,21,-6
1537920508734700,-3,-3,-9,0,-7,-9,-19,-1
1537920508734700,1,1,1,-1,-1,7,21,2
1537920508734700,-2,-2,0,0,1,13,-11,-2
1537920508734700,1,0,0,0,7,-29,-18,11
1537920508738689,-5,-2,-1,-6,-8,-15,-41,-12
1537920508738689,2,-1,-2,-2,-5,-9,47,7
1537920508745670,-3,-4,-3,-4,-14,1,-39,8
1537920508745670,4,4,4,10,33,85,75,0
1537920508752651,-8,-6,-3,-9,-26,-71,-59,-2
1537920508752651,6,5,0,-4,-7,-3,-31,-8
1537920508761628,-7,1,1,2,3,-23,2,-15
1537920508761628,2,-4,-3,-3,-12,-20,-46,-10
1537920508775590,11,3,4,8,7,46,59,61
1537920508775590,-3,-1,-2,-3,0,-3,-12,8
1537920508784566,-3,3,-1,3,4,4,15,-10
1537920508784566,-9,0,-3,-2,-2,-16,-17,-4
1537920508806508,-6,1,8,7,15,19,33,-31
1537920508806508,-4,-8,-7,-6,-6,-12,-26,4
1537920508808503,11,9,2,-2,0,9,5,-5
1537920508808503,8,-7,0,-2,-5,-4,-1,29
1537920508820470,11,34,2,4,9,9,13,-10
1537920508820470,-31,-18,2,-2,-1,3,-2,-20
1537920508829446,17,-4,-5,-8,-6,-4,10,40
1537920508829446,-10,0,3,-3,-8,-9,-19,-24
1537920508844406,-31,-4,2,6,4,9,21,-37
1537920508844406,14,2,-4,3,3,11,1,-35
1537920508845404,-5,6,5,5,7,1,24,28
1537920508845404,5,0,-5,-5,-8,-8,1,2
1537920508866348,-1,-7,2,-2,4,8,11,-1
1537920508866348,-10,2,1,4,8,3,-12,-9
1537920508868342,-9,-10,-4,0,-4,-28,-46,-10
1537920508868342,9,3,0,-1,-5,2,0,1
1537920508880310,-11,-5,1,-1,3,11,-45,-12
1537920508880310,18,1,3,-2,-4,-26,-8,28
1537920508895270,2,-4,-22,-5,-1,10,1,-18
1537920508895270,-9,2,12,3,0,-9,27,20
1537920508904246,6,-4,-8,-5,-2,-6,-12,-3
1537920508904246,6,1,1,-1,0,11,26,35
1537920508905244,-9,-3,-3,-5,-4,0,11,-23
1537920508905244,2,-2,-7,0,3,-5,-14,-2
1537920508926187,2,-7,-1,-7,-9,-27,-16,17
1537920508926187,-8,3,3,9,16,19,43,-20
1537920508928182,-13,-3,5,-1,-8,26,14,4
1537920508928182,13,2,-3,-5,-15,4,6,-7
1537920508940150,-3,1,3,4,12,4,4,-19
1537920508940150,-2,2,-4,-3,-16,-11,-2,0
1537920508949126,-4,-3,0,-3,3,8,-18,10
1537920508949126,-18,-6,-3,0,6,3,2,-24
1537920508964086,9,-3,-1,5,8,11,22,23
1537920508964086,-8,-1,-1,2,-3,-23,-33,-22
1537920508966081,25,-2,-4,-8,-3,12,-8,31
1537920508966081,-4,2,5,6,-1,0,9,11
1537920508987025,4,-3,-7,-6,5,-17,-20,-9
1537920508987025,-7,-6,-6,-11,1,6,45,-21
1537920508988022,6,3,3,-6,-34,-19,-5,45
1537920508988022,9,1,-3,-4,-3,0,-9,12
1537920508999990,8,-1,0,-1,-9,-20,-13,2
1537920508999990,-1,4,5,9,19,42,-9,9
1537920509008966,-7,-16,-1,4,9,3,11,-17
1537920509008966,11,14,-16,-3,4,2,-2,6
1537920509023926,-4,19,25,5,-8,-21,-2,1
1537920509023926,-1,-7,-7,6,-1,-15,0,-15
1537920509025921,-5,-13,-12,-6,2,-21,-9,-4
1537920509025921,-4,4,-6,-1,3,10,-30,1
1537920509046865,7,9,-12,-9,-7,-31,31,27
1537920509046865,-4,2,14,6,1,53,10,-30
1537920509047863,-18,0,11,8,6,-12,-19,-39
1537920509047863,-9,-6,9,1,0,-23,9,-2
1537920509060827,1,-3,-9,2,-4,39,18,-17
1537920509060827,3,-1,-9,-9,-2,-24,-6,84
1537920509068806,25,3,4,8,18,30,28,2
1537920509068806,-2,-14,-4,-4,-7,0,-8,10
1537920509083767,-7,-1,1,-11,-39,-17,9,-11
1537920509083767,-11,1,-1,1,4,32,-11,10
1537920509085761,0,9,-2,-5,-23,-36,-14,-11
1537920509085761,-5,0,1,4,8,14,-24,-58
1537920509106705,18,-9,-8,-1,12,17,23,45
1537920509106705,4,11,3,3,-2,-18,-21,-14
1537920509107703,8,25,18,4,8,-1,-15,24
1537920509107703,6,-8,25,0,-4,6,42,11
1537920509120668,-18,-4,-8,3,0,-7,26,-34
1537920509120668,-27,-64,-36,-11,-1,9,-52,-15
1537920509129644,-19,3,-9,-3,5,-25,-13,-36
1537920509129644,12,-8,-12,-5,-6,-20,-14,14
1537920509144604,-24,3,5,4,12,48,-9,-33
1537920509144604,12,33,23,-1,-16,-63,-3,9
1537920509145602,16,2,13,4,5,39,-22,-40
1537920509145602,-23,3,-2,-1,-1,-38,8,52
1537920509166546,16,-20,-1,-1,4,46,0,21
1537920509166546,14,-1,-6,-7,-12,-10,-22,-27
1537920509168540,-19,-11,-11,0,0,-39,-65,-22
1537920509168540,4,3,-3,-4,-13,-29,85,0
1537920509180508,6,-5,-7,-7,-2,45,5,14
1537920509180508,0,7,1,-3,1,8,-17,-16
1537920509189484,-1,-7,-2,-1,-1,-16,44,12
1537920509189484,-14,-11,-1,5,20,16,-39,-22
1537920509204444,4,0,3,5,2,-12,-17,-7
1537920509204444,2,-1,-8,-5,-7,23,21,10
1537920509205441,9,10,-2,-6,-13,-21,5,18
1537920509205441,-8,21,7,3,15,82,9,-5
1537920509226385,-10,-5,-10,-5,-7,-40,-8,-32
1537920509226385,27,11,15,2,3,8,25,37
1537920509228380,-2,-15,-14,1,0,-42,21,-6
1537920509228380,-23,-1,2,0,-8,40,22,-56
1537920509240348,18,3,0,1,7,-7,-38,-18
1537920509240348,-20,-15,-7,-2,-4,-24,-12,2
1537920509257303,4,-2,2,2,7,-2,-49,-24
1537920509257303,5,18,-8,-1,-6,-17,0,17
1537920509263287,6,-20,15,-3,-9,-30,37,15
1537920509263287,7,7,7,6,15,68,-20,-3
1537920509272263,-15,-7,15,-2,-4,-11,14,21
1537920509272263,4,-8,-8,2,5,2,5,-23
1537920509286225,-28,-7,-16,1,2,-2,-19,-20
1537920509286225,-15,12,19,4,0,-70,2,-10
1537920509288220,-2,-2,-15,-2,9,85,18,1
1537920509288220,23,1,8,-5,-20,-28,-1,16
1537920509300188,5,2,5,1,-1,-43,-51,15
1537920509300188,-6,-6,-11,-7,-4,32,28,-4
1537920509309164,1,-8,8,4,7,40,26,39
1537920509309164,-20,7,-4,-1,-4,-61,-84,11
1537920509323127,8,15,0,5,10,-7,-21,-3
1537920509323127,25,3,-1,-3,-16,-64,39,54
1537920509330108,-5,-14,-1,-2,2,62,-2,-5
1537920509330108,35,-2,-19,-11,-5,-39,-9,44
1537920509347063,-14,-7,-25,-13,-8,24,-38,5
1537920509347063,-36,-20,11,8,18,69,32,-61
1537920509348060,19,-4,6,-2,-12,-76,21,-10
1537920509348060,-10,-7,-7,5,15,47,-2,-20
1537920509360028,-6,10,1,-1,-2,-2,20,-12
1537920509360028,15,6,-8,-1,0,-14,-16,-46
1537920509369004,-22,-2,-8,0,-6,-14,-2,2
1537920509369004,15,4,7,-3,4,16,-5,15
1537920509383964,-7,-22,-14,-5,-4,-8,-81,-8
1537920509383964,3,20,-4,3,8,-3,54,40
1537920509385959,23,24,8,3,-7,-3,7,-4
1537920509385959,-33,-7,7,-5,-23,-63,-43,-18
1537920509406903,8,-12,4,1,-2,86,24,9
1537920509406903,-21,-14,-12,-5,-4,-46,-26,18
1537920509407900,31,12,0,-1,2,-14,-25,-15
1537920509407900,1,-7,0,2,4,2,20,-7
1537920509427847,-14,-17,-6,-1,1,11,33,-18
1537920509427847,2,17,-1,4,-1,-6,-1,-15
1537920509436823,-16,7,-6,1,10,69,-22,49
1537920509436823,7,1,3,-3,-3,-21,9,-30
1537920509443804,4,4,4,1,2,-4,26,-4
1537920509443804,-16,-10,-4,-5,-10,-59,-45,-2
1537920509445800,8,-8,3,1,5,19,16,-6
1537920509445800,-6,14,6,7,6,47,-36,-26
1537920509466743,-1,10,-1,-5,-3,-20,50,23
1537920509466743,21,-5,-9,-7,-2,10,-12,-1
1537920509467740,-34,0,11,0,-12,-66,31,-20
1537920509467740,9,-1,-6,-3,3,46,36,3
1537920509489681,6,-9,13,9,11,1,-12,9
1537920509489681,23,4,2,4,0,-9,17,3
1537920509490679,-6,-11,-23,-14,-17,-21,-31,18
1537920509490679,-9,0,4,2,0,-1,19,-3
1537920509503644,-6,5,-1,1,5,5,7,0
1537920509503644,5,-6,0,1,18,-29,-21,4
1537920509510626,-14,-3,1,-4,-27,-31,4,-25
1537920509510626,-6,-8,6,-2,5,95,19,-12
1537920509526583,2,4,24,10,-1,-46,-5,38
1537920509526583,-15,18,-17,0,4,27,7,-5
1537920509528578,11,-9,3,-5,0,-20,-9,-8
1537920509528578,-1,-8,-11,-5,4,-47,-19,6
1537920509556503,28,22,7,1,-7,-15,-27,-11
1537920509556503,8,-5,30,-1,-6,0,-1,21
1537920509558498,-10,-9,-22,0,8,13,27,79
1537920509558498,-5,-32,-8,-2,-8,-9,-3,-28
1537920509563484,24,16,10,-1,3,31,6,4
1537920509563484,-1,13,5,1,-12,10,12,9
1537920509570465,7,14,6,-3,0,-37,5,-17
1537920509570465,1,-21,-17,0,16,37,-21,31
1537920509586423,-33,2,10,1,4,-8,14,-13
1537920509586423,19,0,5,-9,-33,-102,-5,-2
1537920509588418,0,-12,-14,8,32,127,-8,-1
1537920509588418,2,16,11,5,-7,-62,-14,-19
1537920509609361,-26,-21,-28,-11,-7,-43,-36,-28
1537920509609361,16,3,-6,2,9,38,61,2
1537920509610359,11,12,21,-3,-12,-25,-4,6
1537920509610359,11,-24,-25,-7,-1,-25,-7,8
1537920509623324,-26,-18,-3,3,7,13,6,-37
1537920509623324,1,39,-7,-2,-2,-18,-28,47
1537920509632300,-13,-14,7,1,10,54,-3,-15
1537920509632300,21,23,9,4,-6,-52,31,1
1537920509646263,-18,-7,-5,-6,-6,15,11,-3
1537920509646263,-2,-25,2,6,13,38,-5,-22
1537920509648258,0,8,-16,1,6,-52,17,4
1537920509648258,-10,-6,-1,-7,-14,8,-18,24
1537920509670199,3,-3,-8,-5,-13,-17,20,20
1537920509670199,-11,-3,0,4,10,14,-86,-44
1537920509672194,6,14,12,2,6,24,-30,-19
1537920509672194,-9,-15,9,-4,-7,-41,-35,0
1537920509683164,13,24,-8,-3,-5,-5,29,16
1537920509683164,-13,-3,19,0,-2,7,-20,-8
1537920509690146,19,-31,-24,-7,-5,31,15,43
1537920509690146,16,36,-19,-1,-6,-12,5,44
1537920509705106,1,5,15,6,8,44,-22,-23
1537920509705106,-12,-8,-6,2,6,8,8,-8
1537920509714082,-3,-5,-3,-4,-5,-66,19,-3
1537920509714082,-13,-11,19,10,14,109,21,-4
1537920509729042,15,17,-9,-5,-7,-79,-23,39
1537920509729042,-14,-10,0,-3,-6,58,10,-5
1537920509731037,9,-3,1,4,-3,-54,19,-25
1537920509731037,16,6,-1,1,-1,10,59,-16
1537920509751980,20,13,5,-1,11,-18,-19,40
1537920509751980,-14,-20,-15,-4,3,24,-23,-26
1537920509752978,-12,1,7,-3,-9,-10,-23,-29
1537920509752978,-9,-6,-5,-3,2,-30,-20,0
1537920509764946,-11,4,19,4,-3,-28,-5,-11
1537920509764946,29,15,-5,-5,-15,-5,29,7
1537920509773922,-29,-36,-10,2,12,10,3,-33
1537920509773922,7,14,2,-2,-7,1,-64,-44
1537920509788882,-1,-13,-2,1,2,8,71,47
1537920509788882,-7,0,-4,-3,-3,-44,3,14
1537920509790877,-25,14,9,7,0,20,-39,-48
1537920509790877,5,-11,5,-6,-2,2,39,8
1537920509811820,4,-11,-4,-4,-2,35,-2,-26
1537920509811820,-1,5,-11,-4,-4,-49,-29,8
1537920509812818,-36,-4,19,5,-2,27,10,6
1537920509812818,53,-9,-26,-15,-2,3,-10,1
1537920509825783,3,9,-18,0,0,-1,-34,-17
1537920509825783,26,-1,-7,-4,-1,17,46,-16
1537920509833762,-5,-2,9,3,-3,-70,-26,36
1537920509833762,-25,17,7,3,6,45,-7,7
1537920509848722,6,-1,19,4,-11,1,0,-20
1537920509848722,9,2,-6,-7,-12,-75,4,1
1537920509850717,4,15,0,2,17,101,-15,-5
1537920509850717,-11,-19,-2,-6,-17,-59,31,28
1537920509871660,3,-13,-19,-1,5,3,-12,-5
1537920509871660,-27,-5,13,4,4,5,-3,-8
1537920509872658,53,6,-11,-9,-12,-28,45,56
1537920509872658,-15,-9,0,0,-3,14,-30,3
1537920509894599,-16,-4,-6,-5,-1,8,19,-16
1537920509894599,5,9,9,6,4,8,-36,-4
1537920509895596,2,-7,-18,-8,-16,20,25,2
1537920509895596,15,7,18,6,9,18,-44,-11
1537920509909559,13,4,-4,-1,-10,-68,-18,12
1537920509909559,-24,-33,-10,-7,4,51,19,-3
1537920509910557,-14,10,-25,-6,-2,-1,-48,-41
1537920509910557,25,13,9,-2,-5,-40,11,44
1537920509931500,-18,-7,15,7,4,32,12,-18
1537920509931500,4,-11,-6,2,8,-10,-28,-7
1537920509933495,-7,-2,-10,-12,-18,-29,14,5
1537920509933495,-23,-1,-3,4,5,65,-2,-21
1537920509945463,1,0,-20,-4,-8,-71,-4,9
1537920509945463,3,5,15,8,12,41,-18,-16
1537920509954439,-4,5,24,8,5,6,-10,-13
1537920509954439,-30,-6,-5,-4,-4,-41,12,-21
1537920509969399,6,-4,-11,-5,-1,46,-34,3
1537920509969399,-1,17,-5,-5,-4,-7,10,6
1537920509970396,-2,-22,-7,2,3,-11,35,1
1537920509970396,3,2,5,-1,-7,-14,31,-6
1537920509991340,-28,-8,14,9,18,80,-12,-25
1537920509991340,-7,12,6,-4,-15,-60,-24,12
1537920509993335,24,21,-1,-7,1,53,20,3
1537920509993335,-13,-14,-5,4,0,-25,8,14
1537920510014279,-16,-5,-9,-2,-5,-4,-18,-31
1537920510014279,21,-5,8,5,4,32,35,31
1537920510015277,11,4,-4,1,0,-34,-16,2
1537920510015277,-17,-17,-9,-4,-6,-5,-1,-27
1537920510028242,-7,-2,3,-4,2,-7,-21,22
1537920510028242,-25,-3,2,3,-8,-111,34,-28
1537920510037217,28,6,3,-3,12,92,-17,-3
1537920510037217,1,7,-1,3,11,-37,-24,-2
1537920510051180,5,3,6,-3,-7,-18,19,-1
1537920510051180,-22,-20,-6,2,1,12,-16,-14
1537920510053175,0,17,-5,-3,-13,-73,7,0
1537920510053175,-1,7,-10,2,8,61,7,-3
1537920510074119,4,-5,1,0,7,6,26,-17
1537920510074119,13,-1,-8,1,-8,28,-4,7
1537920510075116,-11,-8,8,4,-3,-22,-18,-13
1537920510075116,-24,-1,15,5,-1,-13,46,5
1537920510089079,15,7,-23,-15,-6,11,16,-5
1537920510089079,4,-5,-12,-3,5,33,-17,10
1537920510091074,-3,3,0,5,-1,-59,-18,-3
1537920510091074,-9,7,15,7,10,86,-10,-27
1537920510112018,-4,-4,-4,1,-2,-64,10,5
1537920510112018,-7,9,11,1,5,27,22,3
1537920510113015,25,-6,1,-1,-3,10,9,18
1537920510113015,-2,-9,-11,-6,-8,-75,-13,5
1537920510133959,7,18,19,2,-8,-11,11,7
1537920510133959,-3,-9,-9,-3,9,119,-16,-2
1537920510135954,-8,2,0,0,-3,-104,31,10
1537920510135954,2,-9,-10,-5,1,79,-31,-6
1537920510148919,14,-5,-6,-4,-3,-7,12,14
1537920510148919,-4,-5,-1,-5,-16,-53,15,-5
1537920510150914,8,41,6,-1,5,17,22,33
1537920510150914,-1,-13,10,3,0,-34,19,3
1537920510171858,0,-6,-8,3,7,21,-13,-1
1537920510171858,6,-4,-4,-3,4,19,21,2
1537920510172855,-22,-40,-18,-1,-1,29,-17,-4
1537920510172855,42,54,-1,-4,-2,-39,3,7
1537920510193799,-13,9,6,-3,-9,-38,16,-6
1537920510193799,-2,-4,8,3,6,-20,-7,-14
1537920510195794,-12,-4,-7,-1,8,44,-27,-22
1537920510195794,-23,-21,-5,-1,-10,-69,-4,-6
1537920510207774,2,-21,-3,-1,1,60,-5,17
1537920510207774,10,17,-6,-1,1,5,18,18
1537920510215741,-28,-2,10,1,-4,-20,-12,-31
1537920510215741,8,-4,-4,1,0,45,30,10
1537920510230700,5,7,-2,-1,2,-53,-18,11
1537920510230700,18,-12,0,-8,-8,-22,-22,39
1537920510231698,-22,-5,1,0,4,44,-2,-28
1537920510231698,0,-12,2,-6,-11,-50,-9,2
1537920510253639,12,6,7,3,0,15,-5,6
1537920510253639,-11,10,-7,1,2,-12,11,-13
1537920510254636,-9,-6,-6,-2,-1,24,-31,5
1537920510254636,7,7,-11,-7,0,-74,-13,-2
1537920510269597,11,-4,20,3,7,127,1,13
1537920510269597,-9,-10,-15,-3,-3,-33,-45,-8
1537920510275580,21,-5,5,-1,-13,-71,45,-3
1537920510275580,3,33,-3,3,10,26,-31,3
1537920510290540,-1,-18,15,6,1,-19,4,13
1537920510290540,-25,5,-1,-8,-11,-19,31,8
1537920510291538,16,2,1,3,12,52,6,-8
1537920510291538,-5,3,4,2,-2,9,-3,-14
1537920510313479,-4,0,-10,-4,-4,-50,-20,-9
1537920510313479,4,-13,7,7,-2,-1,-11,-15
1537920510314476,11,7,-16,-9,8,31,-3,46
1537920510314476,-5,-6,6,1,0,13,3,-6
1537920510328439,8,12,-9,-4,-9,-20,12,16
1537920510328439,-11,-21,-3,-12,-7,-22,-3,-2
1537920510329437,-11,-3,6,-1,0,23,-17,-9
1537920510329437,-3,-14,1,0,-2,6,4,6
1537920510351378,-9,-2,-5,-3,-3,-3,8,-3
1537920510351378,21,5,-10,-1,5,12,19,-2
1537920510351378,-9,5,13,-4,-20,-97,-6,-3
1537920510351378,2,-14,-2,5,18,83,-4,13
1537920510373319,-1,6,-1,-1,-2,-36,14,29
1537920510373319,-7,0,-10,6,13,61,-27,-51
1537920510374316,5,-8,8,0,-9,-23,-9,-3
1537920510374316,-11,15,7,1,-9,-39,-1,-22
1537920510388279,-5,-1,-3,0,0,-23,4,-12
1537920510388279,5,10,5,4,0,24,1,9
1537920510389277,-10,-12,-5,0,11,14,-31,2
1537920510389277,-3,2,-2,-4,-6,-23,21,1
1537920510411218,12,-10,2,0,4,37,-38,-33
1537920510411218,-6,5,-3,-2,-3,-14,21,27
1537920510411218,24,8,-10,0,-2,6,36,11
1537920510411218,-2,-3,4,-5,-7,-36,-11,6
1537920510433159,-13,-3,-12,1,5,34,10,-4
1537920510433159,2,4,14,2,-2,-6,-8,-10
1537920510434157,-5,-11,-2,1,-7,3,15,-2
1537920510434157,-7,-8,-9,-2,13,26,-7,-11
1537920510448120,7,23,0,2,-2,-30,1,-10
1537920510448120,2,-9,9,-3,-4,-3,-57,4
1537920510449118,-17,-8,0,0,-1,13,68,-19
1537920510449118,17,12,-3,0,-4,-5,-13,18
1537920510471058,-13,-15,-6,1,5,11,-3,-18
1537920510471058,2,9,-4,-1,-2,-16,6,9
1537920510472055,-15,-9,-6,0,-1,-10,-18,-11
1537920510472055,-5,-26,-13,-7,-4,17,-10,-18
1537920510492999,-18,40,17,4,-1,4,-15,4
1537920510492999,42,-34,-28,-2,-2,-2,13,43
1537920510493997,-2,8,11,-5,-2,-14,-18,-10
1537920510493997,-18,-14,4,2,-4,-23,-7,-10
1537920510507960,-1,-17,-8,-6,-2,14,-12,10
1537920510507960,-6,18,5,2,1,21,-60,-30
1537920510508957,27,14,4,5,11,3,59,28
1537920510508957,11,-6,-15,-8,-15,9,-25,51
1537920510530898,1,6,12,0,-5,-65,-27,-22
1537920510530898,-20,5,6,-2,-1,40,3,-49
1537920510531896,21,-2,-5,-1,-3,-1,4,79
1537920510531896,-7,11,13,8,11,-14,-28,-30
1537920510553836,-6,-15,-14,-6,-10,5,44,2
1537920510553836,-6,-7,-3,-9,-17,-36,16,4
1537920510553836,-6,3,-2,3,2,-8,-1,-34
1537920510553836,1,-1,2,4,4,1,4,9
1537920510568797,1,-2,1,-1,0,-19,-52,-6
1537920510568797,-19,-10,0,1,11,60,25,-15
1537920510568797,-9,-5,2,0,-12,-16,6,27
1537920510568797,7,6,-2,-6,-7,5,-19,13
1537920510590738,37,5,2,-1,6,25,3,52
1537920510590738,-6,0,6,4,-1,-52,-16,-1
1537920510591735,-4,-8,-9,-3,1,-6,-20,-11
1537920510591735,-19,-9,-9,-4,1,39,45,32
1537920510613677,4,-6,-4,-2,-4,-15,-6,-50
1537920510613677,1,26,10,4,1,-37,110,1
1537920510614674,1,-15,4,-7,-7,5,-36,0
1537920510614674,-8,-16,-7,-1,-3,19,-26,-24
1537920510627639,-30,-1,-9,-3,2,15,45,-11
1537920510627639,2,-3,0,3,-1,-24,-4,15
1537920510635618,-11,5,5,1,-2,19,-65,-42
1537920510635618,1,11,6,-7,-2,-25,35,-31
1537920510650578,-5,-2,8,5,7,2,38,-32
1537920510650578,30,-2,-1,1,-3,-32,-23,37
1537920510651576,-9,5,-4,0,5,7,7,2
1537920510651576,-9,2,6,7,7,59,11,-27
1537920510673517,-17,-17,-15,-8,-8,0,-20,-26
1537920510673517,-8,1,3,-2,0,-41,-17,-9
1537920510674514,4,6,6,4,5,17,1,-7
1537920510674514,21,11,-4,-3,-6,-37,23,29
1537920510687479,-5,3,7,2,-6,-22,-8,15
1537920510687479,-3,-22,-23,-13,-9,-33,-13,0
1537920510696455,-10,33,12,3,20,39,-9,-2
1537920510696455,-1,-33,11,8,6,-54,43,-18
1537920510711416,7,22,1,1,-4,-55,16,50
1537920510711416,-14,-6,0,1,3,75,-13,-30
1537920510711416,3,-20,4,1,-3,-3,4,65
1537920510711416,15,35,4,-2,-8,-33,-18,0
1537920510733357,15,-12,-21,7,5,70,-5,-1
1537920510733357,-2,-8,-27,-7,1,-29,-7,10
1537920510734354,2,-2,74,3,-11,-93,-34,-8
1537920510734354,-8,0,21,11,35,118,-10,-15
1537920510748317,-3,-10,2,-9,-22,-116,-9,8
1537920510748317,1,12,-1,3,-8,86,9,6
1537920510756295,2,-8,-26,2,26,83,14,-24
1537920510756295,1,3,-16,-5,-15,-106,-15,-5
1537920510771255,-4,2,21,2,2,38,-2,-12
1537920510771255,11,5,20,0,7,5,-70,19
1537920510771255,5,3,-27,-5,-11,-71,90,15
1537920510771255,1,-9,1,-3,-3,11,-5,3
1537920510793197,2,-2,-8,0,6,-8,-54,2
1537920510793197,-2,0,4,-4,-5,-24,20,9
1537920510794194,-9,3,-11,-3,-7,17,-14,-40
1537920510794194,2,1,-12,-3,6,5,-2,-22
1537920510816135,-2,-10,-3,-4,0,7,15,-1
1537920510816135,4,14,9,4,-2,-38,19,-4
1537920510823117,1,5,-4,2,3,41,-28,-5
1537920510823117,-15,-6,-3,-1,-11,-37,26,-12
1537920510831095,6,-1,9,-1,3,12,-30,-1
1537920510831095,-9,-7,3,4,11,49,-10,-11
1537920510832094,1,-6,-25,-8,-13,-46,3,13
1537920510832094,3,17,1,-3,-7,23,-32,-11
1537920510853037,-6,-17,-3,1,3,5,24,57
1537920510853037,14,-1,-4,-5,-2,-20,8,4
1537920510854034,-1,-6,-2,-1,-8,-24,-20,-2
1537920510854034,7,-5,5,-7,-10,50,-8,43
1537920510867997,-15,6,-12,4,6,-6,-14,-19
1537920510867997,11,-11,15,5,3,15,57,-6
1537920510875975,-2,5,-11,-9,-17,-65,0,-9
1537920510875975,-9,-18,-14,1,10,4,-16,-2
1537920510890936,24,18,0,-5,-1,30,-18,2
1537920510890936,-11,-6,1,1,-1,-21,-47,-4
1537920510891933,4,-5,4,4,4,-2,11,-20
1537920510891933,4,12,1,-1,-5,-70,-5,2
1537920510913874,-8,-20,-7,-6,-4,61,12,-1
1537920510913874,-14,9,-4,0,-5,17,7,-29
1537920510913874,1,2,9,0,0,-9,-41,-3
1537920510913874,-7,-15,-4,2,2,0,5,-5
1537920510936813,6,22,8,5,8,25,40,44
1537920510936813,0,-3,-14,-12,-12,-29,-12,8
1537920510936813,-4,1,-14,-2,0,23,-21,-9
1537920510936813,2,4,5,3,2,16,10,16
1537920510950776,8,-16,3,-1,-10,-111,-45,-9
1537920510950776,-5,-5,-6,1,11,65,9,-7
1537920510951773,-2,0,-6,-5,-2,14,-9,5
1537920510951773,5,-6,-6,-4,-5,12,52,5
1537920510973715,-6,5,8,1,0,-33,-4,-22
1537920510973715,2,2,-14,-1,-4,8,34,36
1537920510973715,-4,-6,-1,0,0,30,-29,-26
1537920510973715,2,2,-4,-3,-8,-34,-16,7
1537920510996653,-8,-4,1,0,0,16,-36,-9
1537920510996653,-16,-4,3,-3,-6,-52,21,14
1537920510997651,26,-8,-1,4,14,85,20,30
1537920510997651,1,3,-3,-1,-3,-37,-22,-15
1537920511010616,-11,-6,-7,-4,-4,18,43,2
1537920511010616,-2,11,29,3,3,-12,-38,-17
1537920511011613,9,0,-15,-9,-11,-34,-11,-7
1537920511011613,-5,11,-5,-2,-1,4,-4,59
1537920511033554,4,0,-4,-1,4,16,2,-23
1537920511033554,-7,7,6,0,-6,-51,5,-26
1537920511034552,-1,-14,0,3,7,46,4,9
1537920511034552,2,-3,3,-2,3,14,4,-17
1537920511056493,-1,2,-6,-1,-2,16,9,-15
1537920511056493,2,-6,-4,-1,-1,-57,-19,3
1537920511057490,-14,7,3,0,-1,38,16,-6
1537920511057490,0,7,0,4,4,-16,-10,-5
1537920511070456,8,1,6,1,-1,-13,3,-5
1537920511070456,9,1,-6,-2,-2,29,-22,0
1537920511071453,-7,-9,-1,-1,0,-31,27,-11
1537920511071453,-6,-10,0,1,-2,16,-12,-21
1537920511093394,2,-1,-4,-2,0,28,27,-6
1537920511093394,8,3,6,2,8,18,-4,17
1537920511094392,0,9,4,-2,-8,-40,-20,-8
1537920511094392,2,-1,-6,-2,-1,4,-18,-7
1537920511116333,-7,-2,6,2,0,-23,-3,-6
1537920511116333,7,-1,-8,-4,-7,-28,2,0
1537920511117330,-6,0,-1,-1,6,22,20,-9
1537920511117330,2,-4,-8,-1,-3,-33,23,13
1537920511131294,1,1,4,0,10,86,-14,-23
1537920511131294,-5,-1,0,1,1,14,30,5
1537920511131294,-7,-4,-4,0,-7,-35,-15,-28
1537920511131294,3,0,-2,2,-1,-15,-7,0
1537920511153235,-7,-24,-4,-3,-3,-16,-1,24
1537920511153235,-5,28,0,0,1,-23,-3,-27
1537920511154232,-9,-9,0,-5,-3,20,-22,-23
1537920511154232,-8,-2,0,-1,0,42,-7,21
1537920511176173,9,6,-4,-2,-8,-44,3,12
1537920511176173,-9,-16,-2,0,1,12,17,8
1537920511177171,9,7,2,3,4,28,-1,14
1537920511177171,-7,0,0,-4,-2,1,-14,-16
1537920511191134,2,5,-7,-4,-3,-16,-23,6
1537920511191134,0,-14,-6,-1,-1,-7,17,57
1537920511192131,-3,7,1,-2,-4,-19,-11,1
1537920511192131,-3,-5,3,3,4,13,22,-18
1537920511213074,-4,-1,2,-2,-3,-30,-13,3
1537920511213074,-5,-10,-4,-2,-3,46,0,-26
1537920511214072,2,8,-6,0,2,-9,7,-3
1537920511214072,9,0,17,-1,-5,-25,-4,6
1537920511237011,-1,6,-10,-6,2,18,8,-31
1537920511237011,0,-8,0,1,0,-8,-9,-1
1537920511237011,-4,0,-2,-1,-2,-20,10,-8
1537920511237011,11,7,-2,1,4,-3,7,6
1537920511250973,3,-1,-1,3,-2,-40,2,-4
1537920511250973,-5,-12,-3,-3,-5,5,-18,-2
1537920511251971,-12,6,6,2,0,58,17,-2
1537920511251971,0,-7,-5,-4,-1,-17,-27,-20
1537920511273912,11,0,0,2,-5,8,45,25
1537920511273912,-4,-1,-4,2,9,6,-28,-11
1537920511274910,-1,-1,4,2,-4,-47,26,-5
1537920511274910,0,-3,-3,-3,-1,-2,-9,-1
1537920511296851,-5,5,1,0,2,19,-25,-5
1537920511296851,11,4,0,-2,-6,-21,22,-5
1537920511297848,-12,-6,3,0,-4,-16,-15,-7
1537920511297848,-3,-1,-2,2,5,31,-6,-18
1537920511310814,2,-1,-10,-3,-6,-13,2,18
1537920511310814,2,4,17,3,0,38,14,-2
1537920511311811,-2,5,1,1,-1,-68,-18,7
1537920511311811,-4,-2,4,0,0,73,6,0
1537920511333752,-9,-14,-18,-4,-2,11,-23,-12
1537920511333752,5,-6,-10,-3,0,8,12,17
1537920511334750,3,3,-5,-2,-2,-9,-5,7
1537920511334750,-9,-1,4,-2,-7,-34,11,-12
1537920511356691,-1,2,5,2,0,-12,-2,6
1537920511356691,-5,0,-5,1,3,49,-31,-27
1537920511357688,-6,-10,2,-2,-4,-36,16,27
1537920511357688,24,8,-7,-4,-1,-24,27,0
1537920511370653,2,20,12,6,10,15,-18,-20
1537920511370653,-10,-17,-7,-4,-2,0,-1,19
1537920511371651,-4,-4,5,2,0,-13,-7,-12
1537920511371651,-9,-5,-9,-1,-3,-13,-13,15
1537920511394589,-4,1,1,-1,0,30,23,-9
1537920511394589,-8,6,5,0,-4,-45,11,-19
1537920511394589,17,-12,-6,-3,3,59,-3,21
1537920511394589,-7,24,-3,-3,-4,-24,-37,-3
1537920511416530,-3,-2,7,-4,-10,-36,29,9
1537920511416530,-3,3,-4,7,10,42,13,-16
1537920511417528,3,5,-6,-4,-4,-23,-24,-4
1537920511417528,-1,-10,10,-1,-4,-6,27,-19
1537920511430493,-6,-7,-8,2,6,56,7,0
1537920511430493,8,2,-4,-4,-9,-48,-16,-4
1537920511431491,-12,0,0,2,1,-11,4,-16
1537920511431491,7,-6,-3,-3,-5,20,12,22
1537920511454430,-6,-3,3,1,7,-39,-2,-4
1537920511454430,0,-10,-8,-3,1,26,-4,16
1537920511454430,-1,13,9,2,-2,-2,-8,-27
1537920511454430,-1,-1,3,3,1,-69,-2,6
1537920511476371,-6,-8,-5,-6,-10,69,7,16
1537920511476371,12,0,-1,0,3,2,-6,42
1537920511477369,-1,-1,2,-2,-2,-11,-17,11
1537920511477369,-6,-1,-11,-3,-2,-10,8,-36
1537920511491331,6,4,2,2,0,-9,-6,1
1537920511491331,-4,2,-3,-3,1,-2,-13,-12
1537920511491331,6,5,14,3,-2,31,-43,5
1537920511491331,-16,-20,-3,0,1,-1,50,11
1537920511514269,-6,-9,-2,-3,-4,-23,8,-11
1537920511514269,-10,-2,4,-3,-3,-15,-46,-18
1537920511515267,12,3,-11,-4,-1,9,22,11
1537920511515267,-7,0,2,2,-1,16,1,-6
1537920511536211,13,-2,-4,-4,-3,-40,-27,8
1537920511536211,3,3,2,-5,-4,5,19,2
1537920511537208,-7,-6,-5,1,3,20,10,0
1537920511537208,0,-3,3,0,2,-17,-17,4
1537920511550173,8,0,2,4,1,14,11,11
1537920511550173,-1,12,-2,-5,-8,-36,11,-15
1537920511558152,-5,-5,-5,1,2,5,39,-15
1537920511558152,-2,-7,-2,0,0,33,-15,20
1537920511574109,-7,-1,0,-3,1,-16,-4,-15
1537920511574109,1,12,-4,-4,-4,-45,-2,21
1537920511575107,4,-5,-6,0,-2,50,17,4
1537920511575107,1,6,12,3,5,29,-29,-13
1537920511597048,2,-4,-1,-2,-4,-13,17,10
1537920511597048,-5,-6,4,2,0,25,0,-18
1537920511597048,3,-3,-8,-7,-3,-24,-5,8
1537920511597048,1,1,-6,-1,-1,-21,-4,9
1537920511610013,-3,3,1,2,3,20,-16,-16
1537920511610013,11,7,1,1,1,-8,1,14
1537920511617992,-17,-12,5,2,-9,-78,-2,-18
1537920511617992,-2,0,-6,2,16,111,-13,-31
1537920511633949,-9,5,10,0,-5,-27,-14,0
1537920511633949,-4,-17,-2,-2,-4,13,-11,-3
1537920511634947,10,11,-7,-1,3,-31,15,-7
1537920511634947,6,-2,-3,-4,-5,-23,-15,-4
1537920511656888,-12,-14,-8,-1,-1,10,20,-7
1537920511656888,0,-5,2,3,0,-21,-11,-4
1537920511656888,-8,5,5,-1,5,31,-20,0
1537920511656888,-2,2,-6,-2,-1,-10,15,-7
1537920511669854,-3,1,2,-2,-9,-80,-23,-6
1537920511669854,12,1,7,3,12,97,8,-10
1537920511678829,7,4,5,2,0,-55,36,21
1537920511678829,1,5,9,1,-1,58,-6,-6
1537920511693789,3,-5,-15,-2,-1,-21,14,13
1537920511693789,-5,-2,-2,-2,-4,-11,-6,-17
1537920511694787,-7,-1,-4,1,0,9,-12,-4
1537920511694787,8,-4,-2,-6,-8,-36,-22,24
1537920511716728,1,4,3,1,3,-5,1,-15
1537920511716728,0,1,-2,-1,0,-2,-2,4
1537920511717725,-1,-3,-8,0,9,62,13,18
1537920511717725,-8,-1,6,1,-7,-43,-1,0
1537920511730691,-1,-1,6,-2,-3,45,-1,21
1537920511730691,-2,5,-12,-2,-6,-25,3,-18
1537920511738669,-2,-9,8,0,3,8,2,-1
1537920511738669,1,-7,-10,0,-1,-12,29,12
1537920511753629,3,17,-1,-3,-2,23,21,-3
1537920511753629,-15,-4,5,4,0,-44,-20,-15
1537920511754627,17,-2,-1,-6,-6,15,26,34
1537920511754627,-2,4,-3,0,7,-4,-4,-9
1537920511776568,-6,-11,-2,-2,0,-12,-17,-23
1537920511776568,1,6,0,-1,-4,-21,-18,-1
1537920511778563,-5,5,0,1,-2,45,38,-16
1537920511778563,-10,-12,-1,3,4,23,8,13
1537920511790531,1,2,3,0,0,-1,-22,-7
1537920511790531,17,0,-9,-5,-4,-5,13,19
1537920511799507,7,-2,-4,-5,-6,0,-30,16
1537920511799507,-4,3,0,-3,1,-16,24,-7
1537920511814467,-7,-2,-2,1,5,24,-14,16
1537920511814467,-7,-5,2,-3,-4,0,32,12
1537920511815464,-8,2,0,1,-1,-1,13,-8
1537920511815464,2,7,-3,-2,-4,-22,-7,-13
1537920511836408,-7,0,4,1,-2,-3,-9,-10
1537920511836408,0,-8,-5,0,-4,-65,0,5
1537920511838403,-3,2,2,1,8,78,-15,0
1537920511838403,0,1,2,0,-4,-9,-32,-33
1537920511850371,9,2,-9,-4,0,3,28,3
1537920511850371,-7,-5,-3,-2,2,-8,-6,-2
1537920511859347,-7,-13,-8,-4,-9,-53,-7,-14
1537920511859347,-4,0,-1,-2,-1,25,4,12
1537920511874307,9,13,1,4,5,49,4,5
1537920511874307,-1,-19,3,1,5,8,-6,-17
1537920511875304,3,3,-12,1,0,-21,-19,0
1537920511875304,-3,0,5,1,-2,9,16,10
1537920511896248,0,0,1,-1,-2,-38,12,-12
1537920511896248,1,10,8,1,-4,-30,3,5
1537920511898243,-1,0,-9,2,13,91,-3,-13
1537920511898243,-3,-8,-4,-2,2,-25,-9,-10
1537920511919187,1,2,2,-2,-2,-3,28,5
1537920511919187,-8,-10,-5,-2,-2,17,-24,-18
1537920511920184,0,-1,10,-2,-5,-56,-2,3
1537920511920184,2,7,-2,-1,-7,-12,0,6
1537920511934147,-1,-5,0,-1,-2,7,-14,-6
1537920511934147,4,0,-1,1,5,54,14,8
1537920511935144,-5,-6,-3,-3,-5,-28,-14,1
1537920511935144,-6,-3,-3,0,5,8,-8,-13
1537920511957085,2,-6,1,-2,-5,-22,8,21
1537920511957085,-4,6,1,-2,-6,-22,8,3
1537920511958083,-3,3,2,1,8,36,-19,-26
1537920511958083,5,4,-5,-2,-4,-26,11,6
1537920511979027,-6,-13,1,0,1,30,-15,-9
1537920511979027,-11,5,-3,2,0,-15,-13,-1
1537920511981022,14,12,2,-6,-11,-24,-4,14
1537920511981022,5,0,-1,1,4,12,-7,9
1537920511993987,3,-5,-4,0,-1,-27,-29,-9
1537920511993987,-1,7,-1,-2,1,32,18,-16
1537920511995982,-4,-16,1,0,-6,-40,-5,-2
1537920511995982,0,2,4,-1,0,-2,-19,13
1537920512016926,-10,-4,-3,1,4,31,-25,-11
1537920512016926,-5,1,2,-1,2,6,13,8
1537920512017924,4,9,2,1,-7,-31,5,-13
1537920512017924,3,-7,-5,-2,-3,11,-18,1
1537920512038868,2,-1,1,-2,-2,-19,15,15
1537920512038868,1,1,-2,-1,-3,5,4,1
1537920512040862,-2,1,-2,1,4,5,-22,-2
1537920512040862,-6,-6,-3,-1,-2,10,18,-10
1537920512053827,2,5,-1,-2,-3,-5,-11,-22
1537920512053827,2,1,0,-1,-1,14,-14,10
1537920512059812,-1,-7,-1,-3,-6,-34,64,7
1537920512059812,1,-2,-1,0,0,0,-7,0
1537920512076766,-8,3,2,2,0,20,0,-5
1537920512076766,9,27,3,-1,0,-19,-5,4
1537920512077763,-5,-6,-7,-2,-4,-29,-10,2
1537920512077763,-3,1,7,4,6,58,20,-4
1537920512098708,-5,-8,-6,-1,6,21,-1,-10
1537920512098708,6,-10,-10,-6,-4,3,-17,6
1537920512100702,3,8,2,-1,0,-11,10,19
1537920512100702,-2,1,-4,-3,-6,-35,5,-1
1537920512113667,-1,4,3,0,1,-26,-14,-3
1537920512113667,-4,3,4,0,0,21,8,-6
1537920512120649,-7,-17,-17,-2,-1,4,12,9
1537920512120649,3,-1,4,-4,-4,-13,-4,4
1537920512136606,5,0,-2,-1,0,37,-4,-8
1537920512136606,2,-2,1,2,3,-8,0,-1
1537920512137603,-3,3,-4,-4,-5,-16,-13,1
1537920512137603,-9,-1,-2,0,-2,21,19,-5
1537920512159544,3,-2,-3,-1,0,-14,-12,10
1537920512159544,3,-6,-2,-2,-2,-2,3,-2
1537920512160542,1,7,7,1,3,8,-16,-14
1537920512160542,-7,-7,-5,-1,-2,-9,-2,3
1537920512173507,6,9,1,-3,-5,-33,-7,14
1537920512173507,-6,-7,-2,0,-1,-56,-6,-13
1537920512180489,7,-9,0,-1,-1,78,-10,4
1537920512180489,0,4,-2,-1,2,9,15,-4
1537920512196446,-2,-16,-6,-2,-5,-6,13,1
1537920512196446,2,10,-2,-1,-2,-25,5,9
1537920512198441,-6,0,2,2,3,30,2,-6
1537920512198441,3,-3,-1,0,-5,-26,-10,0
1537920512219385,-6,-4,-1,-3,0,15,-13,-4
1537920512219385,-2,-6,-3,0,-3,1,10,-6
1537920512220382,3,-1,1,1,2,-12,-3,-1
1537920512220382,1,2,0,-2,-2,0,-22,0
1537920512233347,0,2,1,-4,-3,7,11,7
1537920512233347,-1,-4,-8,1,0,7,10,1
1537920512240328,3,7,11,0,1,-18,-10,3
1537920512240328,-2,-1,2,-3,-7,-64,-5,-9
1537920512256286,-9,0,2,4,12,63,20,-12
1537920512256286,2,4,-3,-3,0,17,-10,-9
1537920512258281,-2,-7,-7,-1,-4,5,-12,-12
1537920512258281,4,1,-3,-3,-5,-30,-6,13
1537920512279225,-2,1,1,1,0,-18,15,13
1537920512279225,-1,2,0,2,3,22,-9,0
1537920512280222,-12,-8,-3,-1,-2,-32,0,-9
1537920512280222,7,-2,-1,-4,-2,19,-1,17
1537920512293187,-6,5,1,0,-4,21,17,14
1537920512293187,12,-3,7,1,0,-12,-8,-22
1537920512300169,9,0,-13,-3,4,22,-16,9
1537920512300169,-4,-4,-4,-2,-3,-12,-13,-4
1537920512316126,3,2,-1,0,-2,-15,-2,7
1537920512316126,-3,-2,0,-5,-5,10,10,3
1537920512318121,-4,0,6,2,-3,-17,4,-4
1537920512318121,-2,2,-3,2,4,24,13,4
1537920512339065,4,0,-4,-3,-2,-14,-27,-4
1537920512339065,0,-5,-1,-4,-6,-21,-11,12
1537920512341060,-6,-13,21,1,4,37,10,-9
1537920512341060,3,29,-5,1,-2,41,17,-12
1537920512353028,-8,-1,-3,7,16,-23,1,-20
1537920512353028,-5,-9,-4,-2,-5,-23,-4,1
1537920512360009,1,3,-3,-1,-1,-9,-6,0
1537920512360009,6,-8,3,-1,-4,-20,7,10
1537920512376963,-1,-4,4,-1,-8,-14,6,-2
1537920512376963,-1,3,-6,-1,7,39,-9,-8
1537920512377961,-5,3,-3,-2,-6,-35,0,-3
1537920512377961,-4,-8,2,0,2,-3,-7,-10
1537920512398905,4,-2,-7,-5,-6,-7,-28,-9
1537920512398905,-13,-1,2,1,2,15,10,-8
1537920512400900,0,-5,-4,-5,-9,-16,-13,7
1537920512400900,17,5,-5,0,7,-4,-2,31
1537920512412867,-5,-2,1,0,-7,-5,-19,-7
1537920512412867,1,2,11,1,-1,18,23,-11
1537920512421844,-2,-2,-9,-1,8,39,6,-4
1537920512421844,-11,1,-2,-2,-1,-8,12,-21
1537920512436804,1,9,11,-2,-3,-27,2,15
1537920512436804,5,-13,1,0,-8,-37,-8,7
1537920512437802,0,6,-5,1,-1,-4,4,0
1537920512437802,1,-11,4,1,3,27,-9,-4
1537920512458745,-1,0,-9,-3,-5,-12,11,-2
1537920512458745,-5,4,-3,1,1,12,3,6
1537920512460739,4,2,4,1,0,-5,-6,2
1537920512460739,-4,-10,-7,-4,-4,-14,-13,-7
1537920512472707,-11,2,1,2,1,-16,17,-20
1537920512472707,5,3,-2,-1,2,8,-7,2
1537920512481684,1,-2,-3,2,7,66,-7,4
1537920512481684,-2,4,2,1,0,-20,7,1
1537920512496643,2,-6,1,1,0,-3,12,-7
1537920512496643,-10,-4,-1,0,-2,1,-7,-6
1537920512497641,-7,0,-6,-5,-7,-50,4,0
1537920512497641,-5,-5,1,-1,0,9,-4,-12
1537920512519582,1,-1,0,-1,-1,16,-5,-1
1537920512519582,-5,-7,-7,0,3,-2,12,10
1537920512520579,9,11,3,-1,-2,-21,9,11
1537920512520579,-2,0,1,1,-1,12,-15,0
1537920512532548,-2,-8,-6,1,4,-14,9,-15
1537920512532548,0,7,-10,-2,0,21,-1,17
1537920512541523,-2,2,9,1,0,-14,-7,-32
1537920512541523,0,-2,-6,-2,-5,6,2,9
1537920512556483,9,-1,-4,-4,-6,-24,-6,22
1537920512556483,-11,-9,-4,-1,2,-2,-3,-15
1537920512558478,-2,1,-2,0,1,-1,-5,-6
1537920512558478,-4,-3,-2,-2,-3,-9,-3,-29
1537920512579422,20,21,-3,-3,-6,-24,8,24
1537920512579422,-1,-21,-6,-2,1,68,-17,3
1537920512580419,-4,2,-4,3,6,-6,7,-18
1537920512580419,-5,3,5,-3,-4,-13,0,-5
1537920512592387,-7,-3,-1,-2,-2,4,-5,-11
1537920512592387,-5,10,7,3,1,-44,17,-24
1537920512601363,8,3,0,-3,-4,-62,-2,28
1537920512601363,-7,-12,-3,0,6,94,3,2
1537920512616323,-8,-2,1,2,7,37,20,-18
1537920512616323,5,-2,-4,-2,-6,-19,-1,34
1537920512618318,-1,-2,-8,-2,-4,-2,-8,1
1537920512618318,2,7,9,0,-5,-47,2,2
1537920512639262,-4,-12,-10,-2,-4,4,-19,-1
1537920512639262,-8,-5,11,1,4,35,8,-14
1537920512640259,5,2,-5,-4,-5,-6,-1,-5
1537920512640259,2,-2,-6,1,3,-11,-5,8
1537920512653225,5,3,5,1,-3,-41,-23,3
1537920512653225,1,4,-2,1,2,13,15,22
1537920512661203,-10,-24,0,-2,-2,27,26,-8
1537920512661203,-5,13,-3,-4,-6,-25,3,2
1537920512676164,-2,-4,0,-2,0,14,9,-6
1537920512676164,-3,0,-1,0,0,-16,8,6
1537920512678159,-4,-8,-1,-4,-7,-8,-20,13
1537920512678159,3,-3,-3,-2,3,-9,2,-2
1537920512699102,1,-6,-1,-1,-4,22,-3,13
1537920512699102,6,5,0,-1,-3,-30,-31,-2
1537920512700099,3,5,-1,1,0,57,8,2
1537920512700099,-1,-10,-2,0,-6,-70,-5,-8
1537920512713064,-3,6,5,-2,2,90,5,-26
1537920512713064,-1,-2,-3,-4,-1,-15,-18,3
1537920512722041,0,2,-4,1,-1,-8,6,2
1537920512722041,4,11,11,-2,-2,-8,-23,2
1537920512737000,0,-17,3,1,-4,-36,15,-6
1537920512737000,4,7,4,2,5,34,7,-4
1537920512737998,-6,-1,-3,2,6,-3,-9,-8
1537920512737998,-3,-6,-10,-1,-1,21,17,26
1537920512758942,-6,0,-8,-3,-4,-24,15,7
1537920512758942,7,-3,-4,-4,-4,8,0,-2
1537920512764927,0,5,3,-2,-3,-26,-6,2
1537920512764927,0,-8,-5,-3,-5,5,-12,-5
1537920512772905,8,6,-3,-1,-1,7,-20,26
1537920512772905,-2,-4,-3,0,-1,9,26,-8
1537920512781881,-6,2,2,0,1,-2,-4,-5
1537920512781881,5,-2,0,0,-1,-2,3,-12
1537920512796841,-10,-11,-3,-2,0,-21,3,8
1537920512796841,3,5,0,3,2,12,-32,-10
1537920512797838,-3,-1,4,0,-1,8,15,1
1537920512797838,-5,-6,-5,0,1,-6,11,36
1537920512818782,6,2,-3,-2,-1,-15,-14,-14
1537920512818782,0,-3,-5,-4,-2,-21,1,7
1537920512820777,-1,3,-2,0,-2,16,-6,0
1537920512820777,7,0,-4,1,2,31,-35,-7
1537920512841721,-9,1,3,1,-1,-11,44,2
1537920512841721,1,-4,-2,-1,-2,-29,8,12
1537920512842718,5,1,-5,-4,-2,16,-12,0
1537920512842718,-5,0,3,-2,-6,-26,21,-2
1537920512855683,0,-6,0,2,11,57,-23,-15
1537920512855683,13,9,-2,1,-4,-42,-9,1
1537920512862665,0,3,7,4,7,32,11,-3
1537920512862665,-3,-11,-2,0,-5,-12,10,2
1537920512878622,11,-5,-1,2,-2,-5,1,22
1537920512878622,-10,-1,14,-5,-7,-20,28,-10
1537920512880617,0,5,-15,1,3,-20,-24,-15
1537920512880617,4,4,0,-1,1,-25,-3,8
1537920512901561,-4,-3,-1,1,4,33,1,-11
1537920512901561,-2,2,0,1,2,26,-14,-9
1537920512903556,4,-3,1,-5,-11,-32,-14,11
1537920512903556,-12,-2,5,3,7,39,23,-24
1537920512916521,4,5,-2,-1,-5,-24,-10,10
1537920512916521,-1,-2,-10,-2,-2,-1,-5,-2
1537920512918515,-8,-4,-3,1,-1,-7,-10,-5
1537920512918515,4,2,5,0,-1,2,8,-11
1537920512939460,-6,3,0,-3,-6,-17,2,2
1537920512939460,-2,-7,-2,-1,-5,28,-5,1
1537920512940457,3,3,-1,0,3,21,11,17
1537920512940457,-5,-1,5,3,4,-27,-11,-3
1537920512961400,3,4,-10,-3,0,27,-10,-22
1537920512961400,-13,-9,2,-1,-6,-27,-15,4
1537920512963396,9,18,2,1,1,6,27,1
1537920512963396,3,-5,1,0,-3,-32,-4,-3
1537920512976361,-5,-1,4,-1,4,77,-11,-17
1537920512976361,-11,-10,-2,3,0,-22,1,16
1537920512982345,9,-2,2,-1,-4,-10,-33,-5
1537920512982345,-1,-1,-6,-2,-2,-11,11,17
1537920512999299,-7,1,0,-2,-2,-5,5,7
1537920512999299,3,3,-2,-1,1,6,-6,-19
1537920513000297,-8,-4,2,1,0,1,-4,6
1537920513000297,-4,-5,-5,-2,1,40,18,-2
1537920513021241,-3,-6,0,-3,-5,-39,-20,-6
1537920513021241,1,7,11,-1,0,20,3,-10
1537920513023235,4,-9,-9,-3,-4,-40,8,14
1537920513023235,1,7,-4,-3,-5,0,-5,-9
1537920513036201,-4,-6,-5,-1,4,19,-5,2
1537920513036201,4,2,0,-1,-2,-2,-17,-7
1537920513043182,1,-4,-2,-1,-6,-56,40,4
1537920513043182,-3,0,-2,0,6,66,-32,-9
1537920513059139,0,-1,2,0,-5,-37,15,8
1537920513059139,4,5,-4,-1,-1,-1,-5,-5
1537920513060137,-13,-18,0,1,0,8,8,-4
1537920513060137,-6,-5,-10,-4,1,10,-4,-2
1537920513082079,2,10,3,0,-2,-24,-20,14
1537920513082079,1,-16,-8,0,0,-7,23,-3
1537920513083076,-1,17,2,-7,-10,-41,-9,-4
1537920513083076,-4,-5,6,5,11,98,0,-6
1537920513096041,-6,-1,-6,-2,-3,-27,13,-7
1537920513096041,-6,-8,-4,-2,-3,-7,-28,-3
1537920513103022,2,-7,2,3,5,14,0,2
1537920513103022,11,4,-3,-4,-6,-14,-12,-5
1537920513119977,-2,0,3,-2,-3,-22,2,-3
1537920513119977,-7,4,0,2,7,34,5,-16
1537920513124964,-12,-9,3,-1,-3,19,-3,-6
1537920513124964,-7,0,-7,-1,-4,-30,-20,14
1537920513141918,1,1,1,2,-2,-43,32,-13
1537920513141918,1,5,-2,0,2,66,9,-4
1537920513142916,-2,-2,12,0,2,10,-13,0
1537920513142916,5,7,2,-2,-8,-61,-1,-1
1537920513155881,-13,-15,-3,4,6,34,-3,-15
1537920513155881,-3,0,-2,-2,-9,-31,6,12
1537920513162862,4,-1,-7,1,7,47,5,-7
1537920513162862,5,6,2,-3,-1,-14,6,1
1537920513178819,-2,2,1,-2,-7,-43,-7,1
1537920513178819,-4,8,0,-1,4,33,-21,-20
1537920513180814,-3,-10,-3,-1,-3,8,17,6
1537920513180814,5,-5,-2,-1,-3,-16,13,8
1537920513201758,-5,-1,4,-2,1,2,16,-14
1537920513201758,11,0,-2,2,-1,12,-22,5
1537920513202755,-4,-2,-3,-2,-3,-44,-5,-8
1537920513202755,8,0,0,2,8,78,-1,1
1537920513215721,-1,5,-1,-2,-2,-3,-5,0
1537920513215721,-2,1,3,0,-1,-18,7,4
1537920513222702,-3,0,1,-1,-3,1,-1,-12
1537920513222702,-7,-17,-4,1,-3,-25,7,-4
1537920513238659,4,17,7,-1,1,33,-5,22
1537920513238659,1,0,1,1,3,-24,1,7
1537920513240654,0,0,-5,-3,-5,-13,-10,-21
1537920513240654,-10,-11,-4,-2,-6,-38,-3,-14
1537920513261598,11,-2,-4,0,2,59,-28,29
1537920513261598,7,-3,-5,-2,-4,-16,35,15
1537920513262596,-5,0,0,0,5,8,9,-23
1537920513262596,6,6,-1,1,-2,-3,-16,13
1537920513275561,1,-4,-4,-2,-4,-18,-15,-6
1537920513275561,8,21,4,-1,-3,-25,-11,-6
1537920513282542,-9,-22,-7,-1,5,27,-20,5
1537920513282542,-7,7,4,0,-3,13,16,-6
1537920513299497,8,-1,-1,1,-3,-43,-5,13
1537920513299497,-5,-4,-1,1,-2,-14,18,9
1537920513300495,5,5,-1,0,-4,8,-20,9
1537920513300495,-6,-1,-1,-1,1,11,3,-3
1537920513321438,2,-1,-7,-1,-1,19,-5,-5
1537920513321438,-3,-2,4,-1,-1,-20,-20,-5
1537920513323433,16,2,-6,-4,-7,-9,10,18
1537920513323433,-8,-8,2,-1,0,-35,-13,-2
1537920513335401,-1,1,-7,-2,0,-2,8,-8
1537920513335401,0,-3,3,-1,1,20,-3,6
1537920513344377,-5,0,0,2,6,8,9,-9
1537920513344377,10,3,-1,0,3,2,-24,30
1537920513359337,-6,-6,1,-4,-3,-37,22,-3
1537920513359337,9,-2,2,-5,-4,21,-16,9
1537920513360334,-3,4,-7,0,-3,-15,14,13
1537920513360334,-4,-5,0,-1,2,15,16,-16
1537920513381278,2,-5,1,1,0,9,-27,-2
1537920513381278,-4,-9,1,0,-6,-38,-3,18
1537920513383274,1,23,-3,-2,-2,14,26,1
1537920513383274,-2,3,4,1,2,33,-44,-22
1537920513395241,15,4,-7,-5,-7,-24,37,13
1537920513395241,-13,-18,-4,-2,-2,-18,6,-15
1537920513404217,1,-7,2,0,4,34,-16,-15
1537920513404217,-2,4,-1,1,0,-22,4,3
1537920513419177,-2,2,4,0,-1,29,1,6
1537920513419177,-10,-3,-3,2,2,-20,-8,-10
1537920513420175,11,4,2,-2,-4,-7,-11,6
1537920513420175,-4,2,-5,0,3,15,13,-9
1537920513441118,-12,-10,3,1,1,6,-1,-27
1537920513441118,1,5,-6,-5,-5,-62,19,17
1537920513443113,-8,-13,4,1,-3,45,6,-2
1537920513443113,3,5,-2,1,5,0,-9,5
1537920513455081,-3,7,0,4,8,20,-17,-21
1537920513455081,-3,2,0,1,3,7,3,-6
1537920513464058,3,2,-2,-3,-7,-19,-5,5
1537920513464058,-3,-10,0,-4,-11,-47,-1,-13
1537920513479017,-3,-4,3,3,6,45,2,-4
1537920513479017,-1,6,-10,0,3,8,-8,-24
1537920513480014,-9,-13,-4,-5,-4,-24,15,15
1537920513480014,20,16,-10,-5,-7,3,-6,18
1537920513501956,8,-15,3,-5,-6,-49,-2,-9
1537920513501956,-3,24,4,1,4,68,-10,8
1537920513502953,1,-13,2,0,0,-4,40,12
1537920513502953,14,9,-5,1,-2,-6,0,22
1537920513514921,-18,-24,2,4,0,3,-24,-49
1537920513514921,37,17,-9,-8,-2,-5,-5,18
1537920513523897,-25,-30,-16,-3,-1,-6,-32,-16
1537920513523897,-13,0,-10,-2,-2,9,6,-30
1537920513538857,3,19,14,3,-2,-9,4,27
1537920513538857,1,-27,-6,-17,-7,8,1,-19
1537920513540852,-16,25,2,3,6,0,2,-32
1537920513540852,-5,-37,-36,-9,-9,-8,13,-6
