timestamp,emg1,emg2,emg3,emg4,emg5,emg6,emg7,emg8
1537909640375533,-7,-27,-3,1,2,-1,-2,-4
1537909640375533,2,3,-24,0,0,-2,-3,0
1537909640375533,1,14,6,2,-1,0,0,-2
1537909640375533,2,3,3,4,0,-2,-1,-1
1537909640376531,4,23,40,20,2,2,2,1
1537909640376531,-6,-13,-52,-28,-5,-3,1,0
1537909640377528,-3,-4,4,10,1,-1,-1,-2
1537909640377528,0,-12,-1,-2,-3,0,-1,-2
1537909640388498,2,8,20,6,0,-2,0,2
1537909640388498,0,23,16,4,1,0,-1,0
1537909640398472,-2,-1,-11,-5,-1,0,0,-2
1537909640398472,0,6,10,1,0,-1,-2,0
1537909640403459,1,19,-15,-2,-1,-1,0,0
1537909640403459,-2,-20,-34,-6,-1,1,0,-3
1537909640419416,-1,15,26,-5,-1,-1,0,-1
1537909640419416,-9,-37,-43,-3,-4,-4,-5,-3
1537909640426397,10,27,9,-3,-2,3,1,3
1537909640426397,1,-2,-8,-3,0,0,2,0
1537909640441357,1,0,21,10,1,0,1,1
1537909640441357,1,2,-10,-8,-2,-2,0,0
1537909640450333,-3,15,-5,-7,-2,-3,-3,-3
1537909640450333,-2,-6,32,8,1,0,-1,-1
1537909640463298,3,-10,-16,-7,-4,-1,-1,-1
1537909640463298,1,15,21,7,0,-1,1,-2
1537909640505187,6,19,-5,-3,-1,0,-1,-2
1537909640505187,-2,-33,7,-3,-2,-2,-1,-2
1537909640505187,-4,33,-2,-5,-2,-1,-1,-1
1537909640505187,2,5,-45,4,-1,-1,-1,1
1537909640509176,2,1,43,5,2,0,-1,0
1537909640509176,-2,26,11,0,0,-1,0,0
1537909640509176,5,-11,-30,1,-1,-1,0,1
1537909640509176,-3,3,23,-4,-1,1,-2,-3
1537909640516157,-4,5,-25,-5,-3,-1,0,-1
1537909640516157,-2,-10,-11,2,1,1,1,-1
1537909640523139,2,13,42,-3,-1,-1,-2,0
1537909640523139,-2,-9,2,8,3,1,-2,-2
1537909640531117,-6,-41,-10,-6,-3,-2,0,-2
1537909640531117,1,-2,21,2,-1,-2,-2,-1
1537909640554056,-7,-10,-23,0,-3,-1,0,-2
1537909640554056,3,4,14,3,0,0,1,1
1537909640555054,0,7,16,-12,0,0,-1,-1
1537909640555054,-4,-20,-56,8,-2,-2,-2,-1
1537909640576995,1,-17,8,4,1,1,0,-1
1537909640576995,-1,5,47,7,1,-3,-2,-1
1537909640577992,2,21,-74,-16,-2,0,-2,-2
1537909640577992,-1,15,24,-9,-2,1,-2,-3
1537909640590957,2,-10,-11,8,2,0,0,1
1537909640590957,-5,-13,11,-1,-2,-2,-2,-2
1537909640591955,1,20,39,5,-1,-3,-2,0
1537909640591955,3,33,-33,-6,-2,-2,0,1
1537909640614893,3,4,15,4,1,-1,-3,0
1537909640614893,-3,-26,-32,-1,0,0,0,0
1537909640614893,-6,-15,14,8,-1,0,-2,-3
1537909640614893,1,-3,7,-4,-1,1,-1,-1
1537909640636835,-3,-8,-8,-1,-1,-1,0,-1
1537909640636835,1,19,-6,-8,-3,-1,-2,-2
1537909640637832,-4,-34,-16,0,-1,0,0,-2
1537909640637832,-7,-18,15,3,0,-2,-1,-3
1537909640651796,-1,4,-19,7,2,1,-1,1
1537909640651796,-1,-1,19,-12,-3,-2,1,0
1537909640651796,0,-13,-34,-14,0,0,0,1
1537909640651796,-3,1,-10,9,-2,-1,-1,-1
1537909640673737,0,18,-5,-3,0,1,-1,-2
1537909640673737,-1,11,-1,8,2,-1,-2,-1
1537909640674735,0,-2,40,8,1,-1,-3,1
1537909640674735,1,-7,-41,-8,-2,-2,-1,2
1537909640696676,3,19,66,13,6,0,1,0
1537909640696676,1,-3,-50,-22,-8,-2,-1,-2
1537909640697673,1,7,-3,8,-2,-2,1,0
1537909640697673,0,-5,8,2,1,1,-1,1
1537909640711637,-3,-10,-2,-2,-3,-3,-3,-3
1537909640711637,-1,-9,-4,-16,-3,-1,-1,-1
1537909640711637,1,4,8,10,3,-1,0,0
1537909640711637,7,11,-9,-17,-6,-4,-1,-2
1537909640734574,-3,5,-28,-2,-1,-1,0,-2
1537909640734574,-4,-4,42,5,1,0,-1,-1
1537909640735572,0,-22,-28,10,1,-1,1,2
1537909640735572,-2,5,16,-13,-4,0,0,-1
1537909640756515,1,-5,0,-18,-2,-1,-2,0
1537909640756515,0,-10,-11,16,0,-1,-1,-1
1537909640757513,-3,0,31,-5,-1,-1,-2,-2
1537909640757513,5,39,2,14,1,0,0,-1
1537909640771475,-2,-15,-25,-4,0,0,-1,0
1537909640771475,0,12,-7,-25,-11,-3,1,0
1537909640772472,3,8,21,6,2,0,0,-2
1537909640772472,0,-8,15,2,2,0,-1,0
1537909640794414,-1,-12,-11,2,-2,-2,-1,-1
1537909640794414,2,5,-4,16,3,-2,-1,0
1537909640795411,-1,7,-6,-10,-5,-3,-3,-3
1537909640795411,-8,-20,6,-3,1,-1,-1,-3
1537909640817353,-3,19,-12,-7,-2,0,-3,-2
1537909640817353,-1,-14,43,12,2,0,0,-2
1537909640817353,-5,-12,-12,-9,-1,0,1,0
1537909640817353,3,-10,19,18,5,0,-1,1
1537909640831316,-2,-8,-37,-23,-6,-1,-1,-1
1537909640831316,1,0,-12,5,4,-1,0,0
1537909640832313,-2,7,-18,-7,0,-2,-1,-1
1537909640832313,2,4,54,8,0,1,-1,0
1537909640854254,0,-12,6,7,-1,-1,0,-2
1537909640854254,-1,8,-16,-1,-1,0,0,0
1537909640855252,2,9,-6,5,0,0,0,0
1537909640855252,-3,6,-13,-2,2,-1,-1,-1
1537909640877193,-3,-5,22,5,0,-3,-3,-2
1537909640877193,-3,-8,-37,-21,-4,0,0,0
1537909640877193,-2,-33,-7,11,4,1,-1,1
1537909640877193,-5,-9,1,-2,-2,0,-1,-2
1537909640890158,2,-4,30,13,2,0,0,0
1537909640890158,-3,-2,-3,-3,1,0,-2,-3
1537909640899134,2,6,-18,3,-5,-4,2,1
1537909640899134,-4,-7,-14,-6,-3,-1,1,0
1537909640914095,2,-3,-4,-5,-4,-3,-1,1
1537909640914095,-3,-3,30,4,3,1,-3,-1
1537909640915092,2,18,4,-7,-3,-1,-3,-1
1537909640915092,-1,10,-19,-7,-3,-1,-1,1
1537909640937035,-5,-26,-21,-2,2,1,1,-3
1537909640937035,5,4,18,-7,-2,-1,0,1
1537909640938032,-4,3,-21,1,0,0,-4,-1
1537909640938032,4,-3,3,-2,-3,-3,0,0
1537909640950996,0,3,-7,-8,-2,0,-1,1
1537909640950996,-2,10,42,14,1,-1,0,-1
1537909640958974,1,0,-10,-26,-5,-2,0,-3
1537909640958974,-4,-8,-10,3,2,-2,-1,-3
1537909640974931,1,2,6,0,-1,0,0,1
1537909640974931,-1,-12,-36,0,2,1,0,0
1537909640975929,-3,7,25,15,-1,-1,-4,-2
1537909640975929,1,-11,3,-5,-2,-1,-1,1
1537909640996873,0,-4,16,2,-1,0,1,-1
1537909640996873,1,-1,-5,3,-1,-1,-2,-1
1537909640997870,2,6,-37,-8,-1,-1,1,-2
1537909640997870,-1,-9,-21,-12,-3,-2,-1,0
1537909641010835,-3,-8,20,4,-2,0,-3,-2
1537909641010835,2,17,-11,-1,-3,-3,0,-1
1537909641018814,-2,-16,20,6,1,1,1,0
1537909641018814,2,-16,-13,-5,0,-2,-1,-1
1537909641034772,2,9,1,2,-2,-3,0,-1
1537909641034772,-7,-11,7,-1,-2,0,-2,-2
1537909641034772,2,2,1,-1,0,1,2,0
1537909641034772,-1,8,15,-2,-3,-1,-1,-1
1537909641056713,-4,-8,-11,-1,-5,-4,-2,-2
1537909641056713,0,10,-40,-5,-1,-1,-1,0
1537909641058708,0,7,55,19,2,0,1,0
1537909641058708,0,2,1,-13,-2,0,0,1
1537909641070677,0,4,-1,3,1,0,-1,-1
1537909641070677,-3,-7,-10,-3,-1,-1,0,-3
1537909641079652,0,4,-14,-1,0,0,0,0
1537909641079652,-2,-2,9,8,0,0,0,-1
1537909641094612,2,3,17,1,1,1,0,0
1537909641094612,1,7,-17,-3,-2,-1,-2,0
1537909641095610,-4,-6,7,-2,1,0,-2,-2
1537909641095610,-2,-6,3,5,-1,-1,-2,-2
1537909641116552,1,22,9,-8,-1,0,-1,0
1537909641116552,2,-15,-9,1,0,-1,0,0
1537909641118548,1,8,-12,-6,-1,-1,-1,0
1537909641118548,-3,-8,1,5,-1,-1,-1,-2
1537909641130515,0,2,-5,2,0,-2,-1,0
1537909641130515,1,6,6,-7,1,1,-1,-2
1537909641139491,-3,-3,38,-1,-4,-3,-1,-1
1537909641139491,1,-6,-52,-3,-4,-1,-2,-2
1537909641154451,0,29,13,-1,-3,-3,-2,-1
1537909641154451,-8,-23,-29,-3,5,2,0,-1
1537909641155449,0,-5,8,-9,-4,0,-3,-1
1537909641155449,2,18,12,5,-1,-1,2,-1
1537909641177390,-4,-10,-5,-9,1,0,0,-1
1537909641177390,1,-6,11,8,-3,-3,-1,0
1537909641178387,0,9,1,-5,2,3,0,-1
1537909641178387,-4,1,7,9,1,-2,-1,-1
1537909641199331,2,-6,-12,-17,-3,-1,0,0
1537909641199331,0,5,14,2,1,0,-1,-1
1537909641201326,-3,-3,-23,5,-2,-3,-1,-2
1537909641201326,-2,-4,-16,-10,0,1,-1,-1
1537909641214291,-2,-8,-7,5,1,0,-2,-2
1537909641214291,-2,4,20,4,-1,-1,0,-2
1537909641216286,4,12,-2,3,0,-2,1,-1
1537909641216286,-3,0,-10,0,2,1,-1,-1
1537909641237231,-5,-4,2,-2,-1,1,0,0
1537909641237231,-1,5,5,7,-2,-2,-2,-1
1537909641238229,2,-10,-9,8,2,0,1,2
1537909641238229,1,13,26,1,0,2,-2,-1
1537909641251194,-2,-18,-11,-8,-3,-1,-2,-3
1537909641251194,3,16,2,-6,-2,0,0,-1
1537909641259172,-2,-9,-21,-12,-4,-3,-4,-1
1537909641259172,-1,6,48,7,0,-2,-2,-1
1537909641274132,0,-22,-48,-5,0,0,0,0
1537909641274132,3,31,29,2,-1,-1,0,1
1537909641276127,-1,-5,-12,0,2,-2,-1,0
1537909641276127,0,6,-13,-2,0,0,1,2
1537909641296073,0,0,19,7,-2,-2,1,-1
1537909641296073,-1,-1,-6,-2,1,0,-2,-1
1537909641304051,-5,-17,-1,-3,-1,1,-2,-1
1537909641304051,0,4,-7,-2,-3,-2,-1,-2
1537909641319011,0,-2,3,1,1,0,0,0
1537909641319011,0,-3,13,2,1,1,1,-1
1537909641321006,-1,10,9,-6,0,0,0,-2
1537909641321006,-1,7,13,5,-2,-2,-2,-2
1537909641334969,2,-20,3,4,0,0,0,1
1537909641334969,-2,-9,-55,-14,-2,-1,-1,-1
1537909641335966,-2,2,40,11,1,-1,-2,0
1537909641335966,-5,-15,-8,2,1,0,1,-3
1537909641356910,3,18,21,-3,-4,-1,-2,0
1537909641356910,0,-1,-17,-5,-1,-1,-2,-1
1537909641357907,-1,-11,22,7,1,0,1,-1
1537909641357907,-6,-18,-32,-4,3,0,-2,-1
1537909641379848,4,15,-8,6,1,0,-2,1
1537909641379848,-4,-16,3,1,-1,-3,-1,-1
1537909641380846,-4,13,-4,-4,-3,-3,-2,-3
1537909641380846,2,2,-21,-4,1,0,1,1
1537909641394808,0,17,-3,2,-1,0,0,-1
1537909641394808,1,-2,0,1,-3,-1,0,1
1537909641395806,2,7,47,4,-1,2,-1,-1
1537909641395806,1,3,-59,-19,-3,0,-2,0
1537909641416750,-5,-1,9,1,0,-3,-1,-2
1537909641416750,-4,-11,14,2,-1,0,-1,-2
1537909641422734,2,6,-26,-5,2,1,-1,1
1537909641422734,1,2,36,-5,-8,-2,-2,1
1537909641439689,-6,-6,-33,1,3,3,0,-1
1537909641439689,2,-2,-5,6,0,1,0,0
1537909641440686,-3,-1,-7,-15,-4,-1,1,-1
1537909641440686,2,-5,6,0,-1,-1,-1,0
1537909641453652,-2,-6,35,4,0,0,-1,-2
1537909641453652,-1,-12,-2,1,2,0,0,-1
1537909641460633,-3,-11,-28,-9,-4,1,0,-3
1537909641460633,1,14,5,4,2,1,-1,0
1537909641475594,-4,-8,-10,-1,0,-3,-2,0
1537909641475594,0,17,32,0,-3,-2,-2,0
1537909641484571,-2,-22,-20,5,1,-1,0,0
1537909641484571,-3,-24,-25,-14,-2,2,0,-2
1537909641499530,0,13,29,12,0,0,1,-1
1537909641499530,-1,2,-24,-1,0,0,0,1
1537909641500531,1,0,8,-2,-6,-3,-1,-2
1537909641500531,2,3,-12,5,1,-1,0,0
1537909641522470,-2,-4,3,-10,-1,0,-1,-2
1537909641522470,2,10,14,8,-2,1,0,0
1537909641524465,-2,-2,-17,-6,1,0,-1,-1
1537909641524465,-4,2,36,11,-1,-3,-2,-1
1537909641535434,-3,-9,-25,-11,-5,-1,-1,-1
1537909641535434,0,-10,-4,0,0,-3,-1,-2
1537909641544409,-4,-5,16,4,2,0,-1,-1
1537909641544409,2,1,-15,-2,2,1,-1,0
1537909641559369,-4,6,39,11,0,0,0,-1
1537909641559369,-4,-23,-47,-5,-5,-3,-3,-1
1537909641561363,3,14,36,-10,-2,1,0,0
1537909641561363,-1,8,-36,-4,-3,0,1,0
1537909641582307,4,16,-8,1,-1,-1,0,1
1537909641582307,-3,-15,7,-4,-1,0,-2,-2
1537909641583305,2,12,-30,6,1,0,1,1
1537909641583305,-1,-6,49,3,-1,0,-1,-1
1537909641595273,1,2,-17,-6,-2,-1,-1,-1
1537909641595273,-1,-5,4,0,0,0,-1,-2
1537909641604249,-4,-14,-36,-2,-1,-2,-1,0
1537909641604249,-2,9,63,2,-1,-1,-1,-1
1537909641619209,1,-18,-27,-2,-2,-1,0,0
1537909641619209,0,3,8,7,1,-2,-2,-1
1537909641621204,-3,-10,-6,1,0,0,-2,0
1537909641621204,-3,-6,-2,0,-3,0,-1,-2
1537909641642148,-2,-10,0,-1,-1,0,-3,-2
1537909641642148,-3,-7,8,-8,-1,0,-1,-2
1537909641643145,1,9,22,11,-3,-2,-1,-1
1537909641643145,1,-14,-37,-5,4,0,2,0
1537909641655113,0,5,-13,2,-2,0,0,1
1537909641655113,-2,8,4,-7,0,1,0,-2
1537909641664089,3,2,13,9,-1,-2,1,2
1537909641664089,-2,-1,13,-2,-2,-1,-2,-1
1537909641679049,-1,2,-9,-5,1,-1,-1,-2
1537909641679049,0,-5,17,-4,-1,1,-1,1
1537909641681044,-4,-11,-42,-5,-1,-1,-3,-4
1537909641681044,2,-4,44,22,0,1,0,1
1537909641701989,-1,0,-9,-28,-2,1,0,-2
1537909641701989,1,9,-6,-4,-3,-2,-1,-2
1537909641702986,-3,3,-5,-4,0,-1,0,0
1537909641702986,0,-2,0,5,2,0,1,-1
1537909641715952,-2,-13,-27,9,3,0,0,-2
1537909641715952,-2,-5,13,3,-1,-2,-1,-2
1537909641724928,4,14,6,0,-4,-1,1,1
1537909641724928,-4,7,-8,-4,2,0,-3,0
1537909641739887,1,5,1,1,-3,-4,-1,0
1537909641739887,-1,-8,-12,-4,-1,-1,0,-1
1537909641740885,0,-14,28,6,0,0,0,-1
1537909641740885,4,37,-28,-8,-3,-2,0,0
1537909641761828,-2,-20,1,-6,-1,0,0,0
1537909641761828,0,2,-30,-2,1,0,-3,-1
1537909641763822,-5,2,52,13,1,-1,-2,-2
1537909641763822,1,-7,-13,-6,-1,0,0,-1
1537909641775790,-1,15,8,3,-3,-3,-1,0
1537909641775790,0,9,-9,1,3,1,1,0
1537909641784766,0,-5,-15,-10,-1,1,-1,-2
1537909641784766,-1,-2,2,-7,-3,-1,-1,-1
1537909641799726,-3,-16,-16,5,-1,-3,-1,-3
1537909641799726,-2,-7,17,3,-2,-2,0,1
1537909641800724,-1,10,-7,-6,-2,1,0,0
1537909641800724,-2,-15,-27,1,0,0,-1,-2
1537909641821667,-1,13,10,0,-1,0,-2,-1
1537909641821667,3,6,9,4,-1,-1,-1,2
1537909641823662,1,3,12,-11,0,-3,-1,-2
1537909641823662,-3,-7,-58,-16,-7,-3,-3,-4
1537909641844606,2,-22,27,-3,1,2,1,0
1537909641844606,-2,4,27,12,-1,-2,1,-1
1537909641845604,2,3,-33,-1,1,1,0,1
1537909641845604,1,-2,38,6,1,0,1,1
1537909641859567,0,33,-6,-1,0,-1,-1,-1
1537909641859567,-3,-14,-6,-6,-2,-1,0,-1
1537909641860564,1,-6,-4,0,-1,-1,-1,-2
1537909641860564,-4,-2,-3,0,0,-1,1,1
1537909641881510,-3,5,1,-1,-1,0,-1,-1
1537909641881510,3,6,-17,1,0,-3,-3,-2
1537909641883504,-2,9,16,5,1,0,0,0
1537909641883504,-3,-18,-9,-4,-3,-2,-1,-2
1537909641904446,2,21,23,7,0,-1,-1,0
1537909641904446,-2,5,-8,-5,-1,0,-2,-1
1537909641905444,-3,-17,2,0,-1,-1,0,-1
1537909641905444,1,4,-18,-4,2,1,-3,-1
1537909641919407,-1,-17,8,3,-3,-3,-2,-2
1537909641919407,1,9,10,1,-3,-3,-2,-1
1537909641921401,1,4,-22,-1,1,-2,1,-1
1537909641921401,-1,3,42,6,-1,1,0,0
1537909641942345,-1,2,-11,4,3,2,-1,0
1537909641942345,3,-8,3,-4,0,-2,-1,0
1537909641943343,-2,-5,-7,-3,-2,-1,-3,-2
1537909641943343,1,18,-5,2,3,0,-2,-2
1537909641964288,-6,-24,5,-5,-2,-2,-2,-3
1537909641964288,-2,7,-11,3,0,1,0,-3
1537909641966282,-3,-2,-10,-8,0,-1,1,-1
1537909641966282,1,-4,-13,1,-2,-2,0,2
1537909641979246,0,-1,1,5,-1,1,0,-2
1537909641979246,-2,-5,-4,-9,-1,0,-2,-3
1537909641985230,1,4,-22,-1,-1,0,-3,-2
1537909641985230,-2,-10,30,0,-3,-1,-2,1
1537909642002185,-1,5,-13,-1,-1,-1,0,0
1537909642002185,-2,1,15,-6,1,2,1,0
1537909642003182,-4,-9,27,11,-1,-2,0,-2
1537909642003182,1,12,2,3,1,-1,-2,-2
1537909642024126,2,3,3,-5,-2,-1,3,2
1537909642024126,1,4,-21,-2,1,-1,1,1
1537909642026121,-1,-10,-15,-3,1,-1,0,2
1537909642026121,-3,-8,31,9,3,1,-2,-2
1537909642039086,-1,9,-22,-11,-8,-6,-2,-1
1537909642039086,-2,-12,2,1,-1,1,0,-1
1537909642046068,0,-7,-3,3,-2,0,-2,0
1537909642046068,0,5,-2,-3,3,0,0,-1
1537909642062025,0,-5,-2,1,-4,-1,-2,-2
1537909642062025,-3,-1,1,1,1,-1,-2,-2
1537909642063023,0,1,-4,-5,-2,0,-2,-1
1537909642063023,1,11,-1,4,1,0,0,0
1537909642083966,1,-18,-1,2,3,3,0,1
1537909642083966,-1,2,-7,0,-1,0,1,-1
1537909642085962,1,-3,1,3,0,1,0,0
1537909642085962,4,6,6,-10,-5,-1,1,0
1537909642098926,1,2,-22,-2,0,-1,0,-1
1537909642098926,-1,1,20,3,-2,-1,-1,0
1537909642105908,2,12,0,-5,-1,0,-1,1
1537909642105908,-2,-24,-25,-2,-4,-2,1,-1
1537909642121865,-3,4,12,-4,-1,-2,-1,-2
1537909642121865,2,2,3,7,-1,-1,0,-1
1537909642123861,-1,2,-7,-10,-2,-1,-1,-2
1537909642123861,-3,-9,4,11,-2,-3,-1,-3
1537909642144804,0,6,0,-1,4,1,0,0
1537909642144804,-4,-8,-20,-11,-3,-2,-2,-1
1537909642145801,3,14,30,2,0,0,1,1
1537909642145801,0,-2,-24,-7,-1,-1,-1,0
1537909642158766,-1,0,11,2,0,0,0,-2
1537909642158766,-2,-2,0,1,0,-1,-1,0
1537909642165748,2,0,7,2,-3,-1,-1,-2
1537909642165748,-2,-12,-35,-8,-1,1,-1,0
1537909642181705,0,4,19,2,0,0,0,1
1537909642181705,-2,-9,-48,-15,-7,-2,-3,-2
1537909642183700,2,2,36,7,3,0,1,0
1537909642183700,2,21,7,-1,-1,-1,1,0
1537909642204644,0,3,13,-4,0,0,0,-1
1537909642204644,-2,-12,4,3,-1,0,-2,1
1537909642205641,-2,-8,-52,-4,-2,-3,-2,-2
1537909642205641,2,10,21,3,-3,-1,-2,-2
1537909642218606,-2,-15,-9,-9,-2,0,-1,-1
1537909642218606,-1,9,21,11,3,1,0,-1
1537909642225588,-2,0,-16,-5,-1,0,-2,-2
1537909642225588,-1,-6,2,-1,-3,-2,-2,1
1537909642241545,0,-11,8,1,1,-1,-3,0
1537909642241545,-1,4,-43,1,0,0,0,0
1537909642243540,1,-4,13,-7,-1,0,0,-1
1537909642243540,-2,3,-15,2,2,1,-1,0
1537909642264484,-3,-8,11,-18,-8,-4,-1,-2
1537909642264484,1,2,4,10,0,-3,-1,0
1537909642265481,-1,-6,-9,4,2,0,-2,-1
1537909642265481,-3,-8,-35,-11,-1,-1,-1,-2
1537909642278446,0,2,17,13,2,-1,-1,0
1537909642278446,-1,-4,17,-6,-1,0,0,0
1537909642287423,2,20,-7,-3,-1,-1,-1,-1
1537909642287423,-1,-5,19,3,1,-1,0,-1
1537909642302383,-3,9,-7,9,3,2,-1,-1
1537909642302383,-4,-14,-12,-6,-3,-1,0,-2
1537909642303380,-1,-7,-33,-4,-3,-3,0,-1
1537909642303380,-2,-7,14,-8,0,-1,-1,-1
1537909642324325,-3,-13,-30,3,-3,-2,0,-2
1537909642324325,0,2,22,-9,-2,-3,-1,-2
1537909642326320,0,17,44,7,0,1,-1,1
1537909642326320,-3,-1,-27,-2,-1,-1,0,-3
1537909642338290,-2,-14,-9,0,1,1,1,0
1537909642338290,-2,-4,-18,-3,0,-1,1,1
1537909642347266,-3,-18,4,2,-2,-2,-2,-2
1537909642347266,-1,4,18,3,-2,-1,-1,-1
1537909642362223,-4,4,23,-2,-1,0,0,-1
1537909642362223,3,3,7,2,-2,-1,0,-1
1537909642363221,-3,3,-14,-1,-4,-4,-1,-3
1537909642363221,1,-7,23,0,0,-1,0,1
1537909642384164,3,0,-21,-5,-1,-1,-2,-3
1537909642384164,0,-2,-10,-2,-2,-1,0,-1
1537909642386159,-5,-7,-7,-1,0,0,-2,0
1537909642386159,2,5,12,0,-3,0,-1,0
1537909642398126,0,14,-3,8,2,0,0,1
1537909642398126,2,-1,1,-2,2,2,1,0
1537909642407103,0,8,39,5,-4,-2,0,-1
1537909642407103,-3,-28,-36,-3,-2,-1,-1,-1
1537909642422062,2,14,5,5,0,-1,0,1
1537909642422062,2,4,-5,-10,1,2,-1,1
1537909642423060,-5,-12,7,6,0,1,-1,0
1537909642423060,-7,-7,3,2,-2,-1,0,-4
1537909642444004,0,7,-25,-5,0,-1,0,0
1537909642444004,3,6,36,14,1,0,-1,1
1537909642445998,1,0,-36,-11,-2,1,-1,0
1537909642445998,-4,-4,-12,-4,-1,0,-1,-2
1537909642457966,-1,-11,11,1,-2,0,0,-1
1537909642457966,-1,-4,-6,-1,-2,-1,-2,-2
1537909642466942,0,8,10,-3,0,0,0,0
1537909642466942,2,7,-6,-1,1,-2,-2,0
1537909642481902,-2,-6,3,2,-2,-1,-2,-2
1537909642481902,-3,-5,4,-3,-2,-1,-3,-2
1537909642483897,0,9,-21,-1,-1,0,0,0
1537909642483897,1,4,7,-8,-1,-1,0,0
1537909642504842,0,-4,13,2,-1,-2,0,0
1537909642504842,-3,1,-7,3,0,-1,-1,-1
1537909642505839,1,-8,4,1,0,-1,-1,-1
1537909642505839,-1,5,22,6,0,-1,-2,1
1537909642517808,1,5,-33,-10,-1,-2,-1,0
1537909642517808,-2,13,-2,-1,-1,1,-1,-2
1537909642526783,-5,-16,-11,-1,0,-2,-3,-2
1537909642526783,1,4,5,5,1,0,0,-1
1537909642541743,0,3,-1,0,-2,-1,-1,-1
1537909642541743,-2,-17,-19,1,1,-2,-1,-2
1537909642543738,-3,-5,11,-8,-9,-4,0,0
1537909642543738,-1,13,-4,-2,-1,-1,-1,0
1537909642564682,0,-26,7,-3,-1,-1,-1,0
1537909642564682,-1,-2,-22,-1,0,0,0,-2
1537909642565679,0,-8,-9,2,3,-1,1,1
1537909642565679,0,-6,-1,-1,-3,-1,0,-2
1537909642577647,0,9,36,2,-5,-2,-1,-3
1537909642577647,0,-3,-33,-12,-2,0,1,0
1537909642586623,2,-4,-19,-5,0,-1,0,0
1537909642586623,2,4,2,5,3,0,-2,-1
1537909642601583,-2,2,5,7,1,1,-3,-2
1537909642601583,-2,-3,30,-9,-3,-2,-2,-2
1537909642603577,0,17,-9,-12,0,0,1,1
1537909642603577,2,0,-4,1,-4,-3,1,-1
1537909642624521,-1,9,-14,-5,0,2,-1,-2
1537909642624521,-2,1,27,10,-2,-2,-2,-1
1537909642625519,-1,-4,-10,1,0,-1,-1,-1
1537909642625519,-4,-2,-15,0,0,0,0,-2
1537909642638484,-2,-5,-7,-2,1,-1,-2,0
1537909642638484,1,-3,-10,-3,1,-1,1,1
1537909642647460,1,0,39,9,1,1,-2,-2
1537909642647460,-2,-7,4,-10,-3,-2,-3,0
1537909642662420,-4,-15,-17,7,1,0,0,-1
1537909642662420,3,11,-13,-3,-1,-1,0,2
1537909642663418,-2,-8,30,1,-4,-2,-1,-1
1537909642663418,0,-1,-10,-1,2,-1,0,0
1537909642684362,1,-9,-18,-6,-4,-1,-2,2
1537909642684362,-2,6,48,11,-1,-1,-2,0
1537909642686357,2,-17,-35,-17,-2,0,0,-1
1537909642686357,-1,-9,1,-2,0,0,0,-1
1537909642698325,-1,4,-17,3,-1,-1,2,1
1537909642698325,1,10,10,0,-4,-3,-1,-2
1537909642707301,-3,3,-9,14,5,1,0,-1
1537909642707301,-2,-3,15,-16,-4,-1,-1,1
1537909642722260,-1,-12,-13,-5,-1,-1,-2,-1
1537909642722260,-1,-10,-12,-2,0,0,2,0
1537909642723257,-1,5,5,5,1,0,0,-2
1537909642723257,-3,0,2,-9,-4,-2,-2,-3
1537909642744201,-1,8,43,12,0,-2,0,-1
1537909642744201,-2,-2,-37,-9,1,0,0,-1
1537909642746196,0,-2,-2,16,3,2,-2,0
1537909642746196,-2,-3,-17,-1,-1,-2,-1,-2
1537909642767140,-5,-7,-2,-13,-8,-3,-2,-1
1537909642767140,1,4,-11,9,2,0,0,1
1537909642768138,1,8,9,-3,-1,-1,-1,1
1537909642768138,1,0,8,9,5,1,0,1
1537909642782100,1,12,-1,-4,0,-1,-1,-2
1537909642782100,-1,-13,-30,-9,-2,0,-1,-1
1537909642783098,-4,4,26,-17,-8,-3,-1,-1
1537909642783098,1,5,-4,-5,-3,0,2,0
1537909642804042,0,6,34,11,4,-1,0,0
1537909642804042,-1,-9,10,4,-3,-2,-1,-1
1537909642806036,-1,-4,-27,9,8,0,-1,0
1537909642806036,1,0,16,4,-1,1,1,-2
1537909642826980,-3,-13,-54,-30,-16,-6,-1,-1
1537909642826980,2,11,26,6,3,-2,-1,-2
1537909642827978,-2,-4,-4,2,-2,-3,-1,0
1537909642827978,-1,-1,6,-6,3,1,1,2
1537909642840944,-2,-1,0,12,4,2,-1,0
1537909642840944,-1,-3,-2,-5,2,1,0,-3
1537909642847925,0,-1,-11,-9,-5,-1,-2,-1
1537909642847925,-2,-5,11,14,1,-1,-2,-2
1537909642864879,1,4,13,-11,-6,-2,0,0
1537909642864879,-3,-5,9,-21,-9,-5,-1,-1
1537909642865877,5,10,-12,16,14,1,2,1
1537909642865877,-5,-10,-20,-3,-17,-7,-4,-2
1537909642886821,6,10,0,9,5,-1,-1,2
1537909642886821,2,0,24,6,0,0,-1,0
1537909642888816,1,-5,-7,-8,0,0,-1,-1
1537909642888816,2,6,0,-1,2,1,1,2
1537909642900784,0,-2,-1,1,2,3,2,1
1537909642900784,-4,-2,1,3,-5,-1,-1,-2
1537909642916741,-3,0,4,-1,-3,-2,-4,-4
1537909642916741,-2,-2,-11,2,4,-1,0,1
1537909642924720,-3,-3,5,-3,5,2,-3,-2
1537909642924720,-4,0,18,0,6,1,-2,1
1537909642925717,-5,-9,-62,-5,-2,0,-1,-3
1537909642925717,1,3,24,-3,-3,-5,-2,-2
1537909642945663,-1,0,9,12,5,0,1,1
1537909642945663,3,10,-4,0,1,-1,-1,1
1537909642954640,-1,-3,-9,-3,-4,-1,-1,0
1537909642954640,0,-1,0,-2,1,2,-1,-1
1537909642960624,0,-2,37,-10,-9,-6,-3,-2
1537909642960624,0,-1,-81,0,-2,1,-1,0
1537909642969600,1,-6,-8,-16,-2,3,3,2
1537909642969600,-2,4,-5,10,0,1,1,0
1537909642984561,-1,1,-11,13,-2,-2,1,0
1537909642984561,-5,-1,110,-19,-1,1,-3,-5
1537909642985558,-5,-6,-69,11,2,-1,-4,-5
1537909642985558,6,-6,-65,3,-11,0,4,7
1537909643006501,0,11,89,2,-5,1,-1,-1
1537909643006501,4,17,19,-6,-4,-6,-4,-1
1537909643008496,-15,-33,-13,44,3,-4,-10,-10
1537909643008496,13,26,99,-15,-2,3,3,6
1537909643021461,-10,-19,-70,-11,-1,-5,-3,-8
1537909643021461,-2,-12,93,8,1,2,0,1
1537909643029439,7,31,30,58,4,4,3,2
1537909643029439,-6,-15,42,-32,19,9,-8,-6
1537909643044400,-18,-29,-48,18,-25,-25,-21,-17
1537909643044400,2,4,-74,-34,-9,-3,11,2
1537909643046395,-6,-6,85,-24,-4,-2,-10,-4
1537909643046395,1,-4,-44,18,22,8,3,1
1537909643074320,8,40,65,63,-5,0,8,6
1537909643074320,-16,-50,-111,-42,-13,-13,-13,-13
1537909643076316,20,8,40,-24,0,9,21,19
1537909643076316,-5,26,64,-13,-21,-14,-10,-11
1537909643080304,2,5,58,-6,28,23,5,4
1537909643080304,-9,-30,-61,-65,-43,-25,-12,-4
1537909643089280,-5,25,60,68,22,3,-3,-4
1537909643089280,0,-18,-33,-27,2,1,3,0
1537909643104240,0,0,-42,-37,-15,-7,4,5
1537909643104240,17,38,-19,-7,13,13,5,11
1537909643106235,6,-11,-31,-12,4,1,3,6
1537909643106235,-11,13,-15,-3,-14,-7,-5,-7
1537909643127178,6,-29,-109,65,-3,11,14,6
1537909643127178,10,71,-4,19,18,6,5,5
1537909643128176,0,0,127,-32,-19,-7,-6,-4
1537909643128176,0,-17,-128,-17,-3,-4,2,-1
1537909643140145,6,10,-28,-32,21,15,-1,-1
1537909643140145,-11,-21,16,25,-15,-9,-5,-7
1537909643149119,-6,-37,1,-46,-17,-7,-4,-7
1537909643149119,2,-12,103,60,23,2,0,2
1537909643164080,0,-65,-121,-46,-25,-16,-4,-1
1537909643164080,-7,-38,21,-13,3,6,1,-3
1537909643166075,3,52,-71,-16,-11,-5,1,0
1537909643166075,-3,-14,85,29,-17,0,3,5
1537909643193999,-2,11,25,-31,1,-4,-3,-2
1537909643193999,-10,9,125,52,12,7,-10,-10
1537909643195994,11,31,59,4,5,-2,2,9
1537909643195994,-22,-63,-9,-66,-21,-12,-9,-12
1537909643200981,18,66,49,58,22,7,10,10
1537909643200981,-12,-20,25,-29,12,9,-1,-5
1537909643209957,-2,-14,-2,-21,2,1,0,-1
1537909643209957,5,31,13,40,3,-1,0,1
1537909643223919,-4,-3,-19,-51,-9,-2,-5,-1
1537909643223919,-7,-32,-48,0,-12,-6,-6,-6
1537909643225913,-11,-32,-128,-22,-7,-5,-3,-6
1537909643225913,4,12,-109,-10,-4,-1,3,4
1537909643246858,-12,-15,21,-39,-3,-1,-6,-6
1537909643246858,19,35,83,29,2,1,5,8
1537909643248853,-8,-9,33,8,0,0,-3,-5
1537909643248853,2,4,33,16,7,3,5,3
1537909643260820,-11,-36,43,-34,-14,-9,-10,-9
1537909643260820,0,7,89,19,2,-2,1,1
1537909643269796,-1,12,54,25,-6,-3,-3,-3
1537909643269796,-1,10,31,-20,-7,-9,-9,-4
1537909643284756,-2,-11,-76,44,17,5,8,4
1537909643284756,3,1,-69,-13,-10,-6,2,3
1537909643285754,2,-11,-13,26,7,2,0,1
1537909643285754,5,14,-1,12,3,1,2,4
1537909643306698,-4,1,29,-9,-2,-4,-5,-4
1537909643306698,0,-1,-49,4,2,-1,3,3
1537909643308693,0,0,-52,-14,2,1,2,1
1537909643308693,-6,-11,-25,-16,-2,-1,-5,-5
1537909643321658,3,17,10,9,2,-2,0,0
1537909643321658,0,-4,-29,5,6,3,0,0
1537909643329639,-1,-1,1,-6,-5,-2,-1,-1
1537909643329639,2,6,-5,7,3,0,1,0
1537909643343600,0,2,20,-5,3,0,-2,-2
1537909643343600,4,6,-5,19,5,1,2,4
1537909643351580,-3,-4,-11,-11,-4,-2,-2,-2
1537909643351580,-1,-2,-17,4,2,2,-2,0
1537909643367536,2,8,2,-2,-6,-3,1,2
1537909643367536,-1,-5,-14,2,-1,-1,-1,-2
1537909643368536,-1,1,-14,-5,1,-1,0,-1
1537909643368536,-2,-3,-12,0,2,4,1,1
1537909643380501,-1,3,19,1,0,-1,-1,-1
1537909643380501,1,2,-1,7,0,-2,2,-1
1537909643389477,-1,-3,-7,-11,-2,-3,-2,-2
1537909643389477,1,3,-2,7,3,-1,1,-1
1537909643404437,-1,1,9,0,-3,-2,-1,-1
1537909643404437,1,4,-8,3,0,6,10,3
1537909643405434,1,2,-13,-3,0,-1,17,-10
1537909643405434,-1,8,-6,-2,0,2,-32,6
1537909643427375,5,16,2,2,1,-7,5,16
1537909643427375,-4,5,-6,1,-1,0,-15,-9
1537909643428373,7,8,2,2,0,8,11,-18
1537909643428373,2,6,2,4,1,9,34,38
1537909643440340,-6,0,1,-7,-2,-3,6,-40
1537909643440340,-10,-3,-4,2,-2,-21,-25,-38
1537909643449316,-7,-5,-6,-2,2,33,22,56
1537909643449316,16,-2,-6,-1,3,-30,-7,-23
1537909643472255,-16,-8,-1,-1,3,58,2,9
1537909643472255,9,-13,-3,4,0,-8,23,-27
1537909643472255,7,-9,-4,-6,-4,-6,-24,52
1537909643472255,-3,-16,-5,-2,-6,0,47,-18
1537909643486218,-28,-9,5,-4,-6,-48,-69,-12
1537909643486218,34,-4,-8,-4,-2,21,-40,17
1537909643487215,-20,0,8,11,8,9,66,-23
1537909643487215,-2,-8,-8,-12,-8,-55,-74,-36
1537909643509156,3,0,-2,3,3,24,41,-48
1537909643509156,-12,-9,-4,0,1,29,20,96
1537909643509156,35,6,-3,-4,0,2,-1,94
1537909643509156,-10,-3,-3,2,2,21,5,-84
1537909643526111,41,10,14,17,10,43,-3,101
1537909643526111,-43,-10,-5,-4,-5,-25,11,-91
1537909643531098,1,-12,-4,-9,-13,-90,-88,-22
1537909643531098,-18,1,-1,2,11,60,-12,-20
1537909643546058,-11,-4,2,-3,-3,-75,-14,27
1537909643546058,6,-8,-6,1,12,62,69,-22
1537909643547056,9,-1,-1,-4,-10,-106,-76,-118
1537909643547056,20,10,6,2,8,69,44,59
1537909643568998,-18,-13,-4,-2,13,81,44,-1
1537909643568998,9,4,10,16,-5,-69,2,-18
1537909643568998,-9,-9,-9,-15,-10,30,-15,101
1537909643568998,27,14,3,8,9,44,8,89
1537909643583957,0,3,2,-7,-12,-22,-4,-69
1537909643583957,-21,-4,-5,-4,7,33,-26,44
1537909643583957,-25,14,4,7,4,-46,0,22
1537909643583957,20,-2,-3,-2,-2,52,15,35
1537909643605898,7,12,4,-4,-13,-76,18,-13
1537909643605898,-12,-1,5,8,1,-13,4,-37
1537909643606896,42,-2,-2,1,-5,28,12,57
1537909643606896,-49,-14,-8,-13,-7,-12,-37,-50
1537909643628836,-2,1,-3,5,11,60,10,14
1537909643628836,29,12,2,1,3,-39,-11,-13
1537909643629834,2,0,3,1,0,31,54,-70
1537909643629834,-32,-5,-2,3,-2,-21,8,-50
1537909643643797,18,-2,-6,-5,-11,-32,-28,-54
1537909643643797,-14,5,-3,-5,-8,2,-1,27
1537909643644794,9,8,5,9,15,91,25,30
1537909643644794,-17,-5,0,1,-10,-90,74,-15
1537909643665738,-6,1,-2,-1,0,-10,-43,-69
1537909643665738,9,5,0,0,1,21,9,41
1537909643666735,-26,-4,-3,-2,2,-1,-16,-47
1537909643666735,22,3,0,1,3,16,-9,30
1537909643688677,-6,-7,-2,-3,-13,-66,4,30
1537909643688677,14,4,3,-1,-9,-47,-10,-8
1537909643689674,-11,-8,-5,-4,1,23,7,-30
1537909643689674,-12,-4,0,-1,-4,-24,-15,-20
1537909643703637,12,1,0,0,3,21,3,29
1537909643703637,9,2,-3,-3,0,30,-7,-9
1537909643704635,-16,-3,-3,-5,-5,-47,-11,-30
1537909643704635,5,0,-2,0,-1,0,-6,9
1537909643726577,3,0,-1,-1,2,10,3,7
1537909643726577,-3,-3,-2,-1,2,6,2,18
1537909643726577,-2,-2,-1,-3,0,9,9,-7
1537909643726577,4,0,-1,-2,-3,-17,-10,-2
1537909643748518,-5,-2,-4,-3,1,14,4,11
1537909643748518,-9,-6,-2,-1,0,-4,-12,5
1537909643749517,-3,-3,-3,-2,0,7,2,-21
1537909643749517,4,2,-1,-4,-4,-7,-17,-7
1537909643772455,-5,-1,0,2,0,-3,-2,8
1537909643772455,-1,1,-2,-1,0,9,0,0
1537909643772455,-1,1,0,5,0,3,-2,-14
1537909643772455,3,-1,-5,2,1,-6,-3,16
1537909643786416,2,1,0,-13,-3,7,6,13
1537909643786416,-3,-3,3,8,-2,-4,-5,-6
1537909643787413,-3,-4,-1,-26,-8,6,3,-9
1537909643787413,-1,0,-2,24,2,-8,-8,8
1537909643808357,-2,-7,-9,-13,5,6,2,4
1537909643808357,-2,1,6,-21,-8,0,-7,-8
1537909643809354,-3,-3,-4,12,4,-1,-1,-6
1537909643809354,2,-2,-13,-53,-12,-4,-4,2
1537909643823317,1,2,13,70,8,0,0,1
1537909643823317,-1,-3,-4,-56,-5,2,0,4
1537909643824314,2,3,5,15,1,1,4,-2
1537909643824314,1,-3,-13,1,-4,-6,-4,0
1537909643846255,0,-2,-5,-20,2,5,1,3
1537909643846255,-1,-3,14,41,11,3,-2,1
1537909643847253,-1,-1,-7,-9,2,2,-2,-5
1537909643847253,-1,-2,-10,-24,-12,-6,-5,-4
1537909643869194,-2,1,9,0,0,-2,-2,-2
1537909643869194,1,6,-4,14,0,1,4,3
1537909643869194,0,0,9,1,0,0,0,-1
1537909643869194,0,-1,8,14,6,1,1,4
1537909643884154,-2,-3,-2,-11,-3,0,-1,1
1537909643884154,-2,-2,-3,2,-1,-2,-2,-3
1537909643884154,-2,-1,-5,-5,-1,0,0,-4
1537909643884154,0,-2,2,3,4,-2,-3,0
1537909643906095,0,-1,-6,30,6,2,1,1
1537909643906095,-3,-9,-17,-12,-3,-1,-3,-2
1537909643907093,-6,-7,-1,-35,-8,-6,-4,-6
1537909643907093,6,24,26,23,3,1,4,4
1537909643929034,0,-3,2,-13,-5,-1,-1,3
1537909643929034,0,-2,-4,18,5,2,0,1
1537909643929034,-2,-7,-9,12,2,4,0,-1
1537909643929034,-4,-5,-2,-3,-2,-4,-3,-3
1537909643943994,-1,1,-4,-4,-2,-1,0,-1
1537909643943994,-1,1,-3,1,-1,0,-2,0
1537909643943994,-2,0,0,-2,-3,-1,0,-1
1537909643943994,0,-1,1,-1,-2,-3,-2,-1
1537909643965935,-1,-2,5,-1,-1,0,0,-1
1537909643965935,-4,0,-4,-9,-2,1,-1,-1
1537909643966933,2,-1,-28,-24,-10,-4,0,0
1537909643966933,1,0,1,3,1,-2,-2,2
1537909643988874,-2,-4,-4,-15,-4,-2,-2,0
1537909643988874,0,-13,-19,42,14,2,-1,0
1537909643989872,-6,-3,58,-14,-2,3,-6,-6
1537909643989872,1,-1,-85,-13,5,4,4,2
1537909644003835,10,37,31,1,11,1,3,5
1537909644003835,0,-10,60,-63,-27,-6,2,1
1537909644004832,7,24,-37,46,13,6,3,3
1537909644004832,-7,-46,77,-17,2,0,-5,-2
1537909644025775,-7,0,-103,9,-10,-7,-6,-8
1537909644025775,3,19,37,-3,7,1,5,4
1537909644026773,1,-14,-5,23,5,1,4,3
1537909644026773,-1,0,18,17,2,2,-2,-2
1537909644048714,2,-7,-1,6,11,6,0,2
1537909644048714,-11,-15,32,-7,2,-1,-8,-10
1537909644049711,-1,20,-5,-5,-8,-7,-9,-9
1537909644049711,-7,9,-53,-27,-11,-7,-1,-5
1537909644063674,4,-20,-30,29,-4,-5,4,4
1537909644063674,-5,-18,71,4,2,3,-2,-3
1537909644064672,-19,-79,36,-12,0,0,-11,-10
1537909644064672,19,100,75,-18,22,8,6,7
1537909644086613,15,16,-62,-92,-43,-7,14,12
1537909644086613,5,3,79,80,13,5,8,9
1537909644086613,7,13,-16,37,11,5,1,8
1537909644086613,-18,-56,-45,3,-12,-6,-16,-11
1537909644108554,-19,-44,9,-45,-7,-5,-15,-16
1537909644108554,8,100,3,-4,3,-1,-4,-4
1537909644116533,9,10,-19,-3,6,2,12,7
1537909644116533,-2,-15,-6,23,-5,0,2,2
1537909644123514,0,5,3,8,5,2,1,0
1537909644123514,-12,-43,-59,-19,-13,-9,-10,-12
1537909644124512,-8,4,-66,-28,-4,-5,-6,-7
1537909644124512,-5,1,65,12,-8,-9,-2,-5
1537909644146453,13,2,-90,24,16,9,16,13
1537909644146453,4,-7,32,1,-2,-1,3,6
1537909644146453,0,11,25,-17,-7,-3,0,0
1537909644146453,-3,-9,19,-7,-5,-2,-5,-3
1537909644168394,-14,-2,75,-12,-2,-4,-11,-11
1537909644168394,0,-9,-56,-23,-15,-5,2,-1
1537909644169392,5,13,100,4,-2,1,4,3
1537909644169392,-2,-22,-101,-5,-1,-1,1,1
1537909644184352,0,2,80,24,3,0,-5,-3
1537909644184352,5,-1,-63,-6,0,2,1,2
1537909644191333,-3,-14,-14,-9,-10,-4,-2,-4
1537909644191333,2,2,34,7,0,2,0,1
1537909644206293,0,4,7,2,-1,-2,-1,-2
1537909644206293,-1,-12,-41,-7,0,6,12,1
1537909644207291,6,0,-14,-2,-3,6,23,37
1537909644207291,-20,-3,-5,13,6,45,18,-51
1537909644228234,7,-6,3,14,7,9,28,26
1537909644228234,1,-13,-36,-9,-10,-48,7,85
1537909644229232,-26,19,20,16,7,-46,-68,-101
1537909644229232,2,-5,-13,8,5,45,52,87
1537909644243194,1,-18,13,-6,9,80,-23,31
1537909644243194,27,0,-2,-1,-8,-67,35,27
1537909644251173,-12,1,-19,1,6,33,0,-2
1537909644251173,-9,10,7,-8,-19,-128,-128,90
1537909644266133,-6,-8,2,-17,-7,74,-37,-128
1537909644266133,48,32,-2,12,27,127,94,33
1537909644267130,-36,-24,-14,-2,1,-12,50,-103
1537909644267130,-6,0,0,0,-6,9,32,-102
1537909644289072,33,-2,12,9,-9,-48,-63,52
1537909644289072,-57,-9,-20,-10,-8,-43,-24,-43
1537909644289072,35,7,-5,5,6,33,0,51
1537909644289072,-7,-3,2,-5,-6,-14,-33,-7
1537909644304032,-1,11,6,6,3,12,35,8
1537909644304032,3,-13,-7,-2,1,-13,-3,-42
1537909644311013,7,-10,-6,-2,2,27,32,50
1537909644311013,6,-8,-5,0,4,3,4,18
1537909644325973,-21,-5,-1,-4,0,-39,14,-19
1537909644325973,-17,-10,-9,-6,-5,-2,-47,-24
1537909644326970,8,1,0,-5,-6,-17,-5,69
1537909644326970,8,-4,-6,-6,2,-19,-31,-36
1537909644348912,-13,1,7,-5,2,-4,29,-11
1537909644348912,-10,-11,4,3,1,7,-22,-17
1537909644349909,9,4,2,2,-7,-12,-4,20
1537909644349909,4,-1,-2,2,-1,24,33,0
1537909644362875,-4,4,7,8,4,-15,9,8
1537909644362875,-3,-5,-3,3,-2,-10,-16,17
1537909644370853,-2,1,-5,0,-3,-3,-12,-7
1537909644370853,1,4,0,1,4,15,26,-7
1537909644385813,-3,2,3,2,-1,-26,2,7
1537909644385813,6,1,-4,0,3,9,-14,-2
1537909644386810,-3,-7,-4,-1,-2,5,5,-14
1537909644386810,10,4,0,2,3,6,9,8
1537909644409749,1,-2,-1,-1,-3,-14,-4,4
1537909644409749,-4,3,-4,-1,-1,10,-8,-18
1537909644409749,2,6,0,-1,-3,1,-3,-1
1537909644409749,3,1,-2,-2,-2,0,6,1
1537909644422714,0,4,0,0,-5,-6,-1,5
1537909644422714,-1,6,2,1,-2,9,0,-4
1537909644431690,0,-1,-1,-1,-5,-10,-8,3
1537909644431690,3,4,0,1,-2,2,1,0
1537909644446650,-4,3,3,1,-2,-3,5,1
1537909644446650,-2,1,1,-1,-2,1,-4,-4
1537909644446650,0,-1,0,9,2,-2,-3,-2
1537909644446650,-1,-5,-3,-7,0,6,5,-4
1537909644469589,-3,-4,0,-6,-4,-6,1,3
1537909644469589,-2,-3,-1,8,4,-2,-3,-2
1537909644470586,-2,-3,-7,9,2,-3,-4,-3
1537909644470586,1,0,-2,-28,-3,1,7,1
1537909644483552,-1,0,7,17,0,-10,-4,2
1537909644483552,2,1,-3,-1,1,3,-3,-3
1537909644491530,0,0,-4,4,3,1,-1,-3
1537909644491530,0,-5,-9,0,3,3,2,2
1537909644506490,0,2,6,-18,-6,-8,-2,0
1537909644506490,-2,-1,1,18,1,1,-3,-6
1537909644506490,0,0,0,-15,-3,-1,-1,1
1537909644506490,-1,-2,-5,-5,-5,-3,0,0
1537909644529429,-1,-2,-6,-18,-5,-1,-1,2
1537909644529429,0,0,-1,-1,-3,-1,-1,-1
1537909644530427,-1,-2,3,8,-1,0,-1,-1
1537909644530427,1,0,3,8,1,1,1,-1
1537909644559349,-2,-2,-2,5,2,-2,1,-1
1537909644559349,-2,-4,-2,-7,-1,0,-1,0
1537909644560346,-1,-2,-2,-7,-2,-2,-2,-1
1537909644560346,-1,-1,4,6,1,2,1,-2
1537909644567328,-1,-2,-5,9,8,2,0,1
1537909644567328,-2,-2,-6,-13,-5,-1,-3,-1
1537909644574309,1,2,6,-2,-1,-3,0,0
1537909644574309,-1,1,1,7,-2,-3,0,-2
1537909644589269,-1,1,-3,5,-2,-2,-1,1
1537909644589269,1,-1,-5,-10,2,0,-1,-1
1537909644590267,-2,-1,-1,-2,-1,-1,0,-1
1537909644590267,-1,-2,1,3,2,0,0,0
1537909644612208,-1,-2,-1,3,1,1,0,-3
1537909644612208,0,1,0,1,-2,-2,-2,-3
1537909644612208,0,-1,-2,-5,-2,0,0,-2
1537909644612208,0,-1,0,3,0,-2,-1,-1
1537909644625173,-1,0,-1,-2,-2,-1,0,0
1537909644625173,-1,-1,1,0,-1,0,-1,-1
1537909644634149,0,-1,-2,-2,-2,-2,-1,-2
1537909644634149,0,-1,0,0,-1,-1,0,0
1537909644649109,-1,-3,-1,-1,1,1,0,0
1537909644649109,0,-1,-1,-3,-2,1,-1,0
1537909644650107,-2,-1,-1,-3,-1,0,-2,0
1537909644650107,-2,-1,-2,2,0,1,1,-2
1537909644672048,0,-1,-1,-1,-1,-2,0,0
1537909644672048,-1,3,0,0,0,-1,0,-1
1537909644673045,-1,-3,-1,-1,-1,-4,-1,-1
1537909644673045,-1,-1,-2,2,6,65,17,-21
1537909644686010,15,4,6,0,-7,-46,16,86
1537909644686010,-15,-7,-1,-1,1,35,2,-16
1537909644687008,3,-9,-5,-2,2,111,2,-13
1537909644687008,-16,-8,5,0,-19,-120,-26,-74
1537909644708949,8,-1,-8,-2,3,62,33,51
1537909644708949,4,0,-2,-2,-1,78,-31,50
1537909644709947,-1,-6,-3,-11,-28,-126,-78,0
1537909644709947,-7,-4,3,13,33,127,38,-9
1537909644731888,-28,-11,-8,-11,-27,-122,-40,-62
1537909644731888,-11,11,-3,-10,-13,-22,-49,-98
1537909644732885,9,3,2,9,29,119,75,66
1537909644732885,9,6,1,-5,-9,-42,-10,48
1537909644754826,-7,-2,0,4,12,70,20,-18
1537909644754826,-1,-8,0,2,3,-36,32,69
1537909644755824,-6,1,-1,0,-1,-3,-44,-69
1537909644755824,-2,0,-3,-3,-8,-67,-5,-29
1537909644768789,3,8,0,-4,1,15,-16,70
1537909644768789,5,-3,0,0,-1,-26,10,-29
1537909644775770,1,1,-1,-2,-1,-15,12,-3
1537909644775770,-1,-2,-1,-2,-1,18,-1,16
1537909644791728,1,-4,0,0,1,-2,-5,-45
1537909644791728,1,-1,-1,3,1,-3,-3,0
1537909644793723,-5,-1,-2,-1,0,-11,8,3
1537909644793723,5,-6,-2,72,19,11,-1,29
1537909644805691,-2,7,-12,-20,16,8,-11,-29
1537909644805691,1,17,-26,-31,-24,-7,14,1
1537909644814667,-18,-3,107,-61,-31,-22,-1,1
1537909644814667,16,41,-104,-89,-4,-18,-11,-1
1537909644828629,-5,-5,96,73,-6,3,-1,-16
1537909644828629,6,42,-36,-64,38,32,5,9
1537909644835611,22,104,-81,-23,-49,-41,8,4
1537909644835611,-4,-74,-46,119,22,-5,-2,14
1537909644851568,0,-6,-14,1,0,13,-2,-5
1537909644851568,-6,6,-31,93,36,7,2,4
1537909644852566,8,39,54,-43,-2,3,2,4
1537909644852566,2,6,11,-108,-24,-3,-4,1
1537909644866528,10,47,84,66,25,12,5,-5
1537909644866528,-7,-67,-77,91,34,-1,-1,-7
1537909644866528,-16,-48,-45,-80,-49,-13,-6,-5
1537909644866528,27,3,127,50,3,15,22,23
1537909644889467,0,-16,-19,-34,-21,-1,-7,-8
1537909644889467,6,-58,34,-45,-38,-17,-3,0
1537909644890464,4,-128,-87,67,43,14,8,6
1537909644890464,-25,-47,27,-37,-12,-5,-23,-9
1537909644911408,8,-42,-38,54,16,11,8,-2
1537909644911408,4,-83,22,-2,-6,3,1,1
1537909644913403,9,33,12,-17,8,-3,2,4
1537909644913403,-9,92,-9,-18,-18,-1,-5,-5
1537909644925370,-14,127,-66,-70,-12,-5,-16,-19
1537909644925370,23,127,110,29,5,-4,15,15
1537909644934347,-8,9,15,28,12,4,6,1
1537909644934347,1,23,29,11,3,2,-5,3
1537909644949306,-7,-36,-22,-21,1,-3,-1,-5
1537909644949306,-14,-41,-48,-35,-13,-14,-10,-6
1537909644951302,-10,-19,55,63,2,-6,-2,-2
1537909644951302,-7,-36,-26,34,-10,10,1,2
1537909644972245,-7,-57,-39,-12,-15,-10,-4,-5
1537909644972245,-10,7,-64,-16,2,0,5,-2
1537909644973243,1,123,19,30,40,1,2,1
1537909644973243,-8,77,12,-6,7,-5,0,-3
1537909644985211,11,20,33,-29,14,7,12,9
1537909644985211,8,-87,66,21,1,-2,1,2
1537909644994186,3,-128,-20,8,5,0,-4,-1
1537909644994186,6,-128,0,-26,-4,1,-3,0
1537909645008149,3,-77,-79,-32,-13,-3,-3,-4
1537909645008149,4,15,7,17,2,5,-2,-3
1537909645017126,6,21,-97,-1,1,3,3,0
1537909645017126,2,46,15,-14,-17,-4,-1,0
1537909645033083,-1,63,-23,11,-2,1,0,0
1537909645033083,-8,96,103,-6,-18,-8,-6,-5
1537909645035078,-6,50,-30,-16,-4,-2,-2,-4
1537909645035078,-1,26,-47,13,0,-1,2,3
1537909645045051,-3,25,27,5,-1,-1,-1,-3
1537909645045051,-5,-8,-54,-27,-12,-4,3,0
1537909645054027,-5,5,69,23,5,-2,-2,-2
1537909645054027,-2,-6,11,9,5,3,-1,-1
1537909645068987,-5,-23,33,-9,-7,-5,-2,-3
1537909645068987,-1,7,-14,-4,-4,-1,-3,-3
1537909645070981,-5,-36,-32,2,2,-1,0,-2
1537909645070981,-2,-4,-9,-33,-9,-6,0,-1
1537909645091925,2,-13,4,24,2,1,1,0
1537909645091925,0,-1,3,-6,-2,-1,-1,-2
1537909645092923,1,-5,5,1,0,1,-1,0
1537909645092923,-4,-10,-19,-6,0,0,-4,-2
1537909645105888,-1,-5,13,0,4,-1,-2,-2
1537909645105888,-2,-5,-1,-7,-2,-1,1,0
1537909645114864,-2,0,2,-7,-7,-4,-4,-1
1537909645114864,-1,-2,14,13,4,0,2,-1
1537909645128827,1,-4,7,0,1,1,0,-1
1537909645128827,-2,-6,-10,2,0,1,-1,0
1537909645136806,1,-3,5,-3,-4,-2,-2,0
1537909645136806,2,2,4,1,6,2,2,1
1537909645151766,0,-12,-15,6,1,-1,0,0
1537909645151766,0,-2,-6,-7,-5,-2,-2,0
1537909645153760,0,1,9,4,0,-1,-1,-1
1537909645153760,2,1,-4,0,5,3,0,1
1537909645165728,-3,-8,-1,-3,-1,-1,-2,-3
1537909645165728,-1,1,6,-1,0,-2,0,0
1537909645174704,-3,0,9,2,-1,1,-3,-2
1537909645174704,-1,1,-10,-1,-4,-2,-1,0
1537909645189664,1,-1,2,-3,-1,1,-2,0
1537909645189664,-1,4,2,2,1,-1,-1,0
1537909645190662,0,1,2,2,1,1,1,1
1537909645190662,-1,-3,-9,-2,-1,1,-1,0
1537909645211605,-1,2,4,-1,0,1,9,0
1537909645211605,-2,1,-1,-2,-3,4,-6,-2
1537909645213600,-3,-4,-1,0,-2,19,3,-32
1537909645213600,3,3,1,-4,-4,-54,-1,56
1537909645226566,3,0,1,-2,-2,-6,-28,-3
1537909645226566,-11,-3,-2,-1,-3,-2,-13,-57
1537909645234545,6,4,1,-2,1,48,4,4
1537909645234545,-4,-4,0,7,5,-11,36,-62
1537909645249505,4,-3,0,-3,-10,-58,-3,99
1537909645249505,-9,-8,-1,-1,2,4,-36,52
1537909645250502,14,1,4,6,2,20,8,87
1537909645250502,11,5,3,1,-1,-51,32,-2
1537909645271445,-29,-9,-7,-5,-5,12,-65,-97
1537909645271445,-1,-2,-1,0,3,21,29,-23
1537909645273440,-5,0,4,0,-2,7,0,64
1537909645273440,-6,3,-4,-1,0,-2,-13,1
1537909645285408,1,2,0,-2,0,12,20,-42
1537909645285408,3,4,0,0,-1,-1,8,5
1537909645294384,3,3,-1,0,4,4,11,-13
1537909645294384,3,0,-5,-2,1,32,3,27
1537909645308347,2,0,1,-2,1,-10,-3,-17
1537909645308347,-1,-1,-2,-3,-1,8,6,7
1537909645315328,-2,-2,0,1,-1,-29,1,-17
1537909645315328,-5,-6,-2,-4,-2,6,-22,-6
1537909645332283,0,3,-1,-1,2,15,12,11
1537909645332283,8,0,-2,0,-1,-9,9,20
1537909645333280,-8,0,-1,-1,-2,-27,-14,-42
1537909645333280,-3,-4,-2,0,-1,17,-17,-10
1537909645345248,3,1,0,2,2,16,18,17
1537909645345248,0,-3,0,0,-4,-12,2,-11
1537909645354224,-3,0,-3,0,-3,-19,-11,-13
1537909645354224,-1,-5,-2,-2,-1,24,-9,-1
1537909645369184,3,-2,0,1,2,2,14,13
1537909645369184,2,2,-1,-2,-2,-12,-2,0
1537909645375168,-2,0,0,-1,-1,-5,-4,-14
1537909645375168,0,0,-1,1,1,10,-2,6
1537909645392123,-2,1,-1,0,0,-2,3,-5
1537909645392123,2,3,-1,-2,-2,-6,-2,0
1537909645393120,-3,-3,0,0,-1,-3,2,-5
1537909645393120,-1,0,-2,-1,-3,4,-5,-8
1537909645414064,0,-1,0,2,-1,-3,2,5
1537909645414064,2,1,0,-1,-1,3,-1,2
1537909645416059,-2,0,-1,-1,-1,-5,0,-5
1537909645416059,-2,1,0,0,-1,2,-5,-1
1537909645429024,0,-1,0,0,0,3,3,2
1537909645429024,1,0,-1,1,0,-1,1,3
1537909645436006,-3,-3,-1,-3,-3,-7,-4,-10
1537909645436006,-4,-4,-2,1,0,1,-1,-2
1537909645451963,0,-1,0,4,2,5,3,2
1537909645451963,-1,-1,-2,0,0,-3,0,-2
1537909645452960,-2,-1,-2,-11,-1,-5,-2,-2
1537909645452960,1,0,-4,6,3,6,-1,-3
1537909645465926,2,4,12,-6,-6,1,3,4
1537909645465926,0,-1,-4,-12,-5,-4,-1,-1
1537909645474902,0,-2,-1,4,1,-2,-2,-3
1537909645474902,0,-1,-1,-5,1,2,-2,2
1537909645488864,0,-1,-3,1,2,-2,1,0
1537909645488864,-2,-1,0,1,2,0,-3,-3
1537909645495846,0,-1,1,4,0,1,0,-2
1537909645495846,1,-1,-3,5,2,4,0,-2
1537909645511803,-2,-2,1,-13,-4,-1,1,1
1537909645511803,-2,-1,-1,1,-3,0,-2,0
1537909645513798,-3,-1,-3,-2,0,-3,-1,-2
1537909645513798,0,0,3,5,-1,1,-1,-1
1537909645525766,0,0,0,1,1,1,1,0
1537909645525766,-1,-2,-2,-1,-2,-2,1,3
1537909645534742,-1,1,2,4,2,-1,-1,-2
1537909645534742,1,1,0,-5,-2,-2,0,-2
1537909645548705,0,-4,-3,-1,-2,-2,0,0
1537909645548705,1,0,1,-1,0,-1,-1,-2
1537909645555686,0,-1,-2,3,0,-4,-1,0
1537909645555686,-1,1,-3,-4,-2,1,-2,-1
1537909645571643,1,1,-3,0,0,-1,0,0
1537909645571643,-1,-2,0,5,-1,-2,-2,0
1537909645573638,-4,0,0,-2,0,-1,-1,-1
1537909645573638,-1,-1,-2,-5,-3,-2,-1,0
1537909645594582,-2,-2,-3,1,-2,-1,0,-1
1537909645594582,-2,-1,-1,-1,-1,0,-1,-1
1537909645595579,3,2,-4,-3,-1,1,-1,0
1537909645595579,-5,-8,0,-5,-2,-1,-1,-2
1537909645608544,-1,0,-3,0,1,0,-1,-2
1537909645608544,5,3,-2,-5,0,-2,0,1
1537909645615526,-1,-2,-1,-1,0,-1,-2,-2
1537909645615526,-2,-2,1,2,0,2,1,0
1537909645631483,0,-5,1,-1,-1,-2,-2,1
1537909645631483,-2,0,2,0,-1,-1,0,-1
1537909645633478,0,0,0,0,-1,-2,-1,0
1537909645633478,-1,1,1,1,1,0,0,-3
1537909645654422,-2,-3,-1,0,-1,-1,0,-1
1537909645654422,0,-3,-1,1,0,-1,1,-1
1537909645655420,-1,-2,-1,-1,-4,-4,-2,-1
1537909645655420,-1,3,-3,-5,-2,-1,-2,0
1537909645668385,2,13,6,30,13,3,3,2
1537909645668385,-2,-6,-38,-13,-9,-3,-2,-3
1537909645677360,-16,-9,-1,-2,-3,-6,-7,-10
1537909645677360,9,5,24,-45,-15,-4,-7,1
1537909645692320,1,-9,23,76,19,7,5,0
1537909645692320,-17,-3,-73,-46,7,-2,-13,-13
1537909645693318,12,-33,41,83,13,-2,7,3
1537909645693318,-30,-37,5,64,0,-10,-13,-10
1537909645714262,10,-9,-25,-104,-56,-17,-6,-2
1537909645714262,14,81,-25,127,23,14,21,17
1537909645716257,2,-70,-26,-16,-4,-7,-7,4
1537909645716257,-10,-98,-52,72,17,2,-5,-6
1537909645728224,-20,72,74,-14,24,4,-11,-8
1537909645728224,5,-71,-64,-80,-20,-8,-1,-4
1537909645737201,16,69,81,9,3,15,12,12
1537909645737201,22,-66,-7,29,17,12,23,21
1537909645752161,-2,-16,31,4,0,-4,-6,-2
1537909645752161,-29,-113,-78,15,7,0,-20,-18
1537909645753158,6,-26,86,-93,-23,-2,1,-3
1537909645753158,7,-54,-65,-34,5,12,13,8
1537909645774102,9,3,-40,-6,-15,-5,-2,0
1537909645774102,6,-9,4,1,-13,4,9,11
1537909645776097,-18,-4,45,7,-12,-6,-21,-19
1537909645776097,-9,127,31,-69,-12,-5,-11,-13
1537909645788064,-1,73,-116,-12,-2,-7,0,-3
1537909645788064,7,114,-49,-21,0,-4,3,3
1537909645797041,6,103,-9,50,22,2,4,1
1537909645797041,8,58,127,-13,-7,-9,-4,-2
1537909645812000,-2,-68,-73,-4,1,-3,4,5
1537909645812000,5,10,127,8,-5,-4,-3,1
1537909645812998,-13,-62,-114,-31,-8,4,1,-1
1537909645812998,-9,-99,-28,12,-16,-5,-5,-5
1537909645833942,-1,-29,113,44,-10,1,1,0
1537909645833942,-14,-55,49,6,-3,-5,-4,-4
1537909645835937,-12,63,-108,-22,7,-4,0,-5
1537909645835937,-6,127,92,-8,15,0,0,-4
1537909645847905,1,99,-7,4,23,5,8,4
1537909645847905,12,-72,38,6,7,4,8,8
1537909645856881,-2,-116,42,-9,3,0,-8,-3
1537909645856881,4,-128,-14,-2,-2,1,-4,-2
1537909645871841,18,-128,-111,2,-1,4,9,10
1537909645871841,12,-21,93,6,-5,-3,-1,1
1537909645873836,8,3,-32,1,-8,-3,-2,-1
1537909645873836,4,73,9,-18,-16,-1,-2,0
1537909645895777,-3,92,17,-11,-1,3,-5,-4
1537909645895777,1,127,68,8,1,2,1,0
1537909645896774,5,102,80,22,-4,0,4,5
1537909645896774,1,57,-34,13,5,3,5,4
1537909645907745,-10,-1,50,5,-4,-2,-4,-5
1537909645907745,-9,-12,-71,-28,-6,-5,-6,-5
1537909645916721,-6,8,94,-10,0,3,0,-4
1537909645916721,0,-45,-77,9,4,-2,3,3
1537909645931681,-5,-33,122,8,-2,-4,-4,-3
1537909645931681,0,-26,-82,-9,4,1,3,1
1537909645933676,3,-6,98,18,5,4,5,5
1537909645933676,-4,-4,-75,-31,-9,-5,-6,-3
1537909645954619,0,-4,66,27,5,2,-1,0
1537909645954619,-1,-6,-93,-45,-4,0,-1,-1
1537909645955617,-10,-15,37,-2,-5,-3,-4,-5
1537909645955617,8,11,44,37,2,3,5,8
1537909645967585,-5,-12,-14,-12,0,-2,-3,-1
1537909645967585,-8,-10,125,13,-1,-2,-8,-6
1537909645976561,1,-3,-69,-18,-3,-1,1,-1
1537909645976561,-3,-2,49,4,-1,-4,-3,-4
1537909645991521,0,-18,-61,-11,-2,-1,2,2
1537909645991521,-2,1,35,28,6,0,0,1
1537909645993515,2,-13,-103,-15,-2,-1,-2,1
1537909645993515,-1,6,39,7,1,-1,-2,-1
1537909646021441,-3,-16,-59,-8,-2,-3,-1,-2
1537909646021441,2,12,11,-3,1,0,1,-1
1537909646023435,1,-2,-32,9,2,0,-2,-1
1537909646023435,-2,2,-8,-8,-2,0,-1,-3
1537909646028422,1,-4,9,-8,-6,-5,-4,-1
1537909646028422,0,13,-7,4,0,1,1,0
1537909646037398,0,-6,-17,7,1,0,1,1
1537909646037398,-1,-7,-10,-3,-4,-5,-2,-3
1537909646051361,-1,-2,-15,-11,-2,1,0,-5
1537909646051361,0,6,15,7,-1,-1,-2,-17
1537909646053356,2,-5,-19,5,3,4,5,1
1537909646053356,4,1,-10,-3,5,16,29,66
1537909646074299,-33,-22,-8,-8,-5,23,-14,-28
1537909646074299,-17,-9,5,-6,-4,-3,28,-97
1537909646076294,23,15,-3,9,-4,-25,4,103
1537909646076294,-14,-11,-24,-13,-17,-67,-101,-66
1537909646088262,18,14,11,3,-2,-5,-34,-32
1537909646088262,-3,9,11,9,0,-5,16,58
1537909646097239,-13,-5,-19,0,3,-40,48,41
1537909646097239,-10,9,-4,-14,-15,18,-43,-1
1537909646112198,30,12,3,6,19,97,98,-4
1537909646112198,-13,-2,2,3,-9,-105,-8,-128
1537909646118182,-49,-4,-14,-16,-24,-3,-93,-14
1537909646118182,48,18,-4,0,6,65,45,96
1537909646142118,-17,-13,3,-5,-2,-6,-58,-75
1537909646142118,9,-4,-10,5,16,122,87,127
1537909646143115,21,-1,2,6,2,-6,12,-126
1537909646143115,-21,-23,1,11,5,-13,43,34
1537909646148102,-7,-8,-7,-8,-4,-1,-18,0
1537909646148102,28,13,12,10,1,-22,-5,95
1537909646157078,-3,-14,-10,-3,-2,-6,-21,4
1537909646157078,-1,4,-5,-7,4,15,-4,-53
1537909646172038,13,0,5,5,0,-24,22,50
1537909646172038,-5,-3,0,-5,-5,-19,-41,4
1537909646173036,-1,-2,-6,-2,6,20,15,-25
1537909646173036,2,3,2,7,11,16,14,-70
1537909646193979,-5,-6,4,-1,-5,-45,-2,42
1537909646193979,12,-3,-5,-4,-1,5,-27,-26
1537909646195974,-5,-3,-7,0,3,27,-9,-40
1537909646195974,8,3,-2,2,-3,-33,10,38
1537909646207942,-11,-3,-1,1,-3,0,-9,42
1537909646207942,2,5,-5,-7,-4,1,-14,-54
1537909646216918,7,2,-1,2,-2,9,15,15
1537909646216918,12,6,-1,-2,-2,-11,-15,-6
1537909646230881,-9,-4,0,3,3,7,27,-29
1537909646230881,-23,-5,2,1,-4,-27,-5,40
1537909646237862,4,8,1,4,2,-9,25,28
1537909646237862,-20,-8,-7,-6,-3,5,-7,-86
1537909646254817,-4,6,-1,0,0,1,9,0
1537909646254817,-4,0,-2,0,5,33,-5,-112
1537909646255815,-7,-3,-4,-3,-4,-14,5,59
1537909646255815,-6,-6,-4,2,-2,6,8,31
1537909646267782,13,10,1,-3,-9,-15,-2,-1
1537909646267782,-8,-3,-1,-2,-5,10,-20,-26
1537909646276758,10,4,1,0,0,11,-2,-12
1537909646276758,-2,-1,-2,-1,1,4,6,9
1537909646290721,-9,-6,0,1,-2,-11,-7,-10
1537909646290721,7,4,3,0,1,5,0,-33
1537909646297702,2,-4,-3,-2,1,11,2,-7
1537909646297702,-9,-3,1,1,1,-16,4,-17
1537909646314657,3,0,0,1,3,-7,-4,11
1537909646314657,0,-1,1,-1,0,3,0,53
1537909646315654,4,-2,-1,0,4,6,1,-7
1537909646315654,-12,-8,0,-2,-1,-3,-3,-20
1537909646327622,7,4,1,1,1,-2,-2,9
1537909646327622,4,-2,-4,-1,-2,0,-1,24
1537909646336598,-6,-3,-2,-3,-1,1,-3,-19
1537909646336598,-1,-1,0,-1,-2,-2,-1,4
1537909646351558,0,-2,-3,-1,-2,-1,-6,2
1537909646351558,-2,-2,-1,-1,-1,-4,-3,16
1537909646357542,2,-1,-3,-2,-1,0,-2,-5
1537909646357542,4,-1,-2,0,1,0,2,14
1537909646374497,-1,-3,0,1,0,-5,-4,0
1537909646374497,1,1,-1,0,0,1,-4,6
1537909646375494,-2,0,-3,-1,-3,0,-2,-4
1537909646375494,2,5,1,1,0,1,2,0
1537909646387462,-6,-3,-1,7,1,-2,-3,-4
1537909646387462,-2,-4,-1,-16,-5,-3,-4,14
1537909646396438,-3,-12,-7,3,1,1,-3,-4
1537909646396438,-1,17,3,15,1,-1,1,-1
1537909646411398,-3,10,-2,-19,-5,-4,-4,-3
1537909646411398,1,-19,22,21,6,0,2,16
1537909646418380,-3,-41,-28,81,21,8,1,-3
1537909646418380,-14,-17,15,-93,-19,0,-11,-12
1537909646434337,-6,12,6,100,2,-17,-2,-4
1537909646434337,14,-20,-70,-58,13,16,5,14
1537909646435334,1,14,44,21,-17,-12,-3,-6
1537909646435334,-6,-69,-36,-16,1,-6,-1,0
1537909646457277,-2,9,107,-17,-32,-11,-5,-2
1537909646457277,-4,17,75,51,15,6,5,6
1537909646458274,9,2,-123,73,45,17,7,10
1537909646458274,19,123,120,33,-21,-8,-7,5
1537909646471238,2,-91,-107,-95,-12,5,6,7
1537909646471238,-12,-52,-112,-46,-11,-14,-9,-9
1537909646478220,-5,64,83,27,-3,-1,-1,-3
1537909646478220,-23,-83,-91,12,35,16,0,-6
1537909646494177,20,75,2,110,38,15,5,1
1537909646494177,7,67,-25,-72,-56,-12,-2,3
1537909646496172,-4,-26,-6,40,-35,-25,-5,-9
1537909646496172,5,-75,18,83,7,-3,3,4
1537909646516118,25,57,20,89,50,19,16,17
1537909646516118,3,-61,-110,20,28,17,5,10
1537909646524097,-22,-53,17,-99,-11,1,-13,-13
1537909646524097,12,49,99,-53,-51,-23,-2,-4
1537909646531078,-15,22,38,-20,2,-5,-13,-13
1537909646531078,-3,59,127,3,-20,-11,-5,-6
1537909646538060,20,44,-128,-37,19,16,19,17
1537909646538060,-16,4,-128,-43,-4,-4,-8,-7
1537909646554017,-11,34,71,-43,-28,-9,-14,-12
1537909646554017,16,30,-84,79,26,7,18,15
1537909646556012,-3,9,99,-7,-15,-2,-7,-4
1537909646556012,4,15,-128,-19,11,8,5,7
1537909646576956,-16,-79,64,-3,-15,-9,-7,-4
1537909646576956,-7,4,-12,-9,0,-7,-11,-12
1537909646577953,0,-20,48,-2,4,-3,0,-3
1537909646577953,1,-14,-54,-5,9,4,8,3
1537909646590918,-6,-17,41,-3,7,0,1,-1
1537909646590918,-20,-32,-81,-58,-2,-11,-8,-9
1537909646599894,7,45,111,23,10,3,4,3
1537909646599894,2,16,10,5,-4,-4,-2,-1
1537909646614854,8,-63,-59,11,11,7,6,7
1537909646614854,4,-50,106,16,-8,0,-5,2
1537909646615852,4,-67,-46,-36,-17,-4,-3,-3
1537909646615852,9,-50,47,11,0,3,2,5
1537909646636796,4,-15,-28,1,-6,-4,-4,-2
1537909646636796,-1,-17,35,-10,-12,-3,-6,-6
1537909646638790,-3,7,-103,-28,-13,-6,-3,-2
1537909646638790,5,76,60,79,19,5,7,4
1537909646651756,1,60,-110,-46,-16,-4,1,3
1537909646651756,-9,44,104,48,4,-1,-2,-3
1537909646659734,0,38,34,-1,4,2,-1,0
1537909646659734,-4,9,-50,0,-1,-4,-1,-3
1537909646674694,-11,-8,-10,-39,-12,-5,-3,-4
1537909646674694,-4,-16,-7,10,4,1,0,0
1537909646675692,-1,-4,11,-13,3,2,-1,0
1537909646675692,-2,2,29,4,-2,-2,0,-2
1537909646696636,0,-12,-50,-13,-3,0,2,2
1537909646696636,5,22,38,18,-1,-2,-4,0
1537909646698630,0,-2,-101,-17,1,2,4,2
1537909646698630,1,-8,58,9,1,1,-1,0
1537909646710599,-1,-8,5,1,2,0,0,-1
1537909646710599,-1,-4,-26,9,-4,-3,1,0
1537909646719574,-6,-5,70,-18,-8,-4,-5,-4
1537909646719574,3,8,-11,6,7,4,2,2
1537909646734534,-3,-13,-37,15,3,-1,-1,-2
1537909646734534,-2,2,9,2,2,2,1,1
1537909646735532,-2,-15,2,-3,-3,-3,-4,-2
1537909646735532,-4,10,-2,-10,-1,1,-3,-3
1537909646756476,2,-3,-14,-9,-2,0,0,1
1537909646756476,1,-1,-6,2,2,-1,0,0
1537909646758471,-1,-9,-9,0,0,-1,-1,-1
1537909646758471,-2,-6,-2,4,0,1,-1,-3
1537909646770438,-1,2,1,-4,-2,0,-2,-3
1537909646770438,0,3,-2,2,-5,-2,1,0
1537909646779415,-1,3,-19,-2,0,1,0,0
1537909646779415,-2,-10,21,1,2,1,0,3
1537909646794374,4,5,11,-5,-5,-2,-5,-41
1537909646794374,7,-7,-19,0,2,12,33,92
1537909646795372,-9,-2,16,10,2,-3,-16,-26
1537909646795372,0,-10,0,-7,-2,38,-7,-10
1537909646817314,6,-4,0,4,9,17,45,44
1537909646817314,2,4,-8,0,-7,-64,-49,41
1537909646818312,-3,5,-10,-8,-5,39,26,-40
1537909646818312,-14,-9,6,3,3,-7,-39,71
1537909646830279,14,17,-2,1,6,74,34,85
1537909646830279,-17,-6,3,2,2,-13,9,-52
1537909646839256,0,18,2,-8,-2,13,-67,-35
1537909646839256,4,-3,-5,0,6,14,67,-81
1537909646854216,-19,-14,2,-9,-10,-34,-102,-51
1537909646854216,17,8,0,2,-4,-7,15,16
1537909646856212,-10,3,15,16,8,-47,56,71
1537909646856212,3,6,-1,-3,-4,42,-14,-34
1537909646877155,-4,-8,-1,1,2,-48,46,55
1537909646877155,-16,-4,-11,-6,-7,17,-98,-70
1537909646878153,12,1,-5,3,4,-24,20,-39
1537909646878153,-18,-13,6,2,-7,-5,-63,-70
1537909646890120,10,-5,2,3,5,5,29,-13
1537909646890120,-2,2,-5,-2,2,14,17,-24
1537909646899095,17,-3,-2,-1,1,38,25,35
1537909646899095,6,-6,1,2,0,-34,31,52
1537909646914055,-6,2,0,-3,-5,-4,-20,-41
1537909646914055,-6,-4,-2,-1,3,19,12,-4
1537909646916050,-5,-10,-7,-3,-6,-19,-20,-1
1537909646916050,2,4,3,-4,-5,-23,-1,22
1537909646936994,-6,0,-5,-2,-2,-5,-26,-17
1537909646936994,4,-4,-3,-3,-4,4,21,2
1537909646937992,-3,-6,-2,0,-2,-7,-7,27
1537909646937992,-2,-1,-3,0,0,-12,-6,-4
1537909646950956,-1,3,3,-2,-1,9,6,-4
1537909646950956,3,2,4,3,3,-1,10,6
1537909646958935,-10,-14,-4,-3,-3,2,-9,-16
1537909646958935,9,10,-8,-8,-2,-1,5,38
1537909646973895,-2,0,0,-4,-2,-10,-5,-8
1537909646973895,3,4,-1,-2,2,4,6,2
1537909646975890,-5,-5,-4,-4,-2,1,-13,1
1537909646975890,1,-1,4,0,-2,-4,6,3
1537909646996833,-1,-1,0,1,-2,-5,-1,7
1537909646996833,-3,-7,-3,1,1,3,1,-6
1537909646997831,4,-1,-2,1,0,8,3,5
1537909646997831,1,-1,-2,1,0,-8,1,5
1537909647019772,-1,2,-2,1,-3,0,-4,-9
1537909647019772,-1,-2,-1,1,-1,4,4,-5
1537909647020769,2,0,-2,0,-2,-4,-3,1
1537909647020769,2,1,2,2,-4,-4,1,5
1537909647032737,-9,-11,-5,-2,-4,-4,-8,-9
1537909647032737,2,3,-3,-2,-1,4,6,1
1537909647041713,1,8,2,-1,-4,-2,-1,7
1537909647041713,-3,4,1,-4,-2,-4,-1,-1
1537909647056673,0,0,3,-1,-2,2,1,-2
1537909647056673,0,0,0,2,1,0,3,3
1537909647058668,-1,-3,0,-2,-1,1,-2,-1
1537909647058668,-2,-4,-1,-2,-2,-1,1,-3
1537909647079612,1,0,0,0,0,-2,-2,0
1537909647079612,-1,-4,1,-2,-1,-3,1,-1
1537909647080611,2,-2,-1,-3,-2,1,-5,-1
1537909647080611,1,-1,-1,0,0,-2,1,-2
1537909647094573,-8,-22,-4,-2,0,-3,1,0
1537909647094573,7,11,2,1,2,4,0,-2
1537909647101555,7,2,-4,-4,-8,-6,-2,2
1537909647101555,-1,7,2,0,-1,-1,0,0
1537909647116513,-5,-15,-11,-2,-1,-1,-1,-4
1537909647116513,-7,-23,-32,7,8,3,1,-2
1537909647118508,6,93,78,-4,4,4,1,2
1537909647118508,-15,-85,-26,50,7,-2,0,-3
1537909647139452,-1,-3,-45,-25,-2,-2,-3,-2
1537909647139452,-9,-50,-98,-34,-16,-9,-6,-5
1537909647140449,19,74,55,-17,-6,4,7,8
1537909647140449,2,27,14,-16,1,-3,0,0
1537909647153415,-5,-12,125,113,30,7,2,-3
1537909647153415,7,-36,-45,-72,-13,1,2,6
1537909647161394,-34,-108,-118,18,-8,-11,-7,-13
1537909647161394,22,81,91,52,6,2,2,2
1537909647176353,19,3,-63,-59,-20,-4,6,8
1537909647176353,10,61,86,41,17,3,4,7
1537909647178348,-12,-63,-48,10,7,-1,-5,-3
1537909647178348,-10,-57,-42,-46,-14,1,-4,0
1537909647199292,9,67,61,67,35,8,4,1
1537909647199292,-2,10,49,-4,-31,-15,-4,-6
1537909647201287,-7,-56,25,-26,11,6,-1,-5
1537909647201287,15,35,-48,-16,-7,0,11,12
1537909647213255,-16,-99,28,-33,-17,-2,-12,-11
1537909647213255,10,29,-70,1,11,8,6,6
1537909647222231,11,-10,-4,28,-3,-2,-2,3
1537909647222231,-6,-32,62,-19,-1,-3,-8,-8
1537909647237191,10,30,12,-30,-8,-1,2,5
1537909647237191,-10,61,57,37,-1,-4,-14,-12
1537909647238188,-1,68,26,8,10,4,4,3
1537909647238188,10,54,-102,4,5,3,11,7
1537909647250156,-15,16,24,-46,-23,-9,-12,-10
1537909647250156,7,6,10,52,18,6,6,4
1537909647259132,10,16,-56,-15,-4,1,2,7
1537909647259132,-14,-29,-5,-9,-2,-3,-4,-6
1537909647274093,-3,10,-38,24,-5,-1,2,0
1537909647274093,-13,-56,-78,-22,-4,-2,-4,-4
1537909647280076,-8,8,92,-8,-2,-3,-1,-5
1537909647280076,-8,18,-62,-3,9,-4,1,-2
1537909647297031,-12,23,19,-3,5,-5,-4,-9
1537909647297031,-10,-26,18,-36,2,-1,0,-3
1537909647298028,25,31,-13,-3,3,1,7,9
1537909647298028,-7,-108,101,9,-3,-3,-5,-4
1537909647320968,10,-71,25,-12,-8,1,-1,3
1537909647320968,12,-38,21,26,3,5,4,2
1537909647321965,-6,-38,-39,-48,-19,-10,-8,-8
1537909647321965,3,-18,32,1,-4,1,-5,-2
1537909647333932,7,21,-59,-1,-3,0,1,2
1537909647333932,-1,41,46,-1,-6,-2,-2,-2
1537909647340914,-10,14,-93,13,-3,-3,-4,-5
1537909647340914,-2,61,34,-9,-6,-4,-2,1
1537909647356871,-4,55,42,2,-2,-2,-2,-4
1537909647356871,-9,-21,-106,-36,-3,-2,0,-2
1537909647357869,-8,4,-36,26,2,-2,0,-2
1537909647357869,-3,16,4,-21,-7,-3,-3,-3
1537909647370834,2,1,5,7,2,1,4,3
1537909647370834,-3,3,51,5,0,-2,-2,-3
1537909647379810,-5,5,-6,-10,-1,2,-3,-4
1537909647379810,12,25,16,9,1,0,3,3
1537909647393773,-2,4,-54,-1,-1,-1,2,1
1537909647393773,2,-1,11,4,-2,2,0,0
1537909647400754,2,-10,19,5,0,1,1,0
1537909647400754,-6,-15,-34,2,1,-1,-1,-3
1537909647416712,0,12,-31,-4,4,2,2,2
1537909647416712,2,15,20,-1,0,0,-3,-1
1537909647418706,-1,-11,22,0,-8,-4,-3,1
1537909647418706,4,33,5,2,-1,-1,-1,-2
1537909647439650,-1,-27,-7,-7,-1,-1,-2,2
1537909647439650,-6,-20,8,10,5,2,1,-1
1537909647440648,-5,-1,24,7,5,4,-1,-5
1537909647440648,-2,-14,-20,-10,-9,-6,-2,-2
1537909647453613,4,-1,-25,-6,-4,-4,2,3
1537909647453613,3,17,6,8,0,2,0,2
1537909647460594,-1,-16,9,4,4,2,-1,-1
1537909647460594,-4,-7,-9,-7,-4,-7,-3,-2
1537909647476552,1,-1,-3,1,-1,1,1,-1
1537909647476552,-1,-4,4,1,2,2,0,-2
1537909647478547,0,-4,11,-5,-2,-1,-2,-1
1537909647478547,-4,-8,-4,-1,-2,0,-3,-3
1537909647499492,-4,-5,-7,4,6,6,0,-1
1537909647499492,2,3,-4,-4,-9,-6,-1,1
1537909647500489,-3,-6,3,0,-4,-4,0,1
1537909647500489,-3,-5,-5,7,3,2,0,-3
1537909647513453,-6,-9,-2,7,8,3,-2,-2
1537909647513453,-6,-2,-1,-7,-6,-6,-4,-5
1537909647520434,7,7,8,7,8,10,11,10
1537909647520434,-1,5,0,4,1,0,-5,-3
1537909647536392,2,7,-2,-5,-5,-4,-4,0
1537909647536392,-9,-5,3,1,-2,-3,-5,-11
1537909647538387,-8,-17,-7,-4,-9,-6,-2,-3
1537909647538387,3,2,-2,2,4,2,8,8
1537909647559330,10,21,10,4,-4,-4,-6,-8
1537909647559330,2,-2,1,3,2,2,-1,2
1537909647560328,-14,-25,-5,12,-2,0,-6,-10
1537909647560328,9,10,-2,-65,-30,-2,2,4
1537909647573292,-4,-7,-3,12,-1,-4,1,0
1537909647573292,-5,-2,2,1,-2,-2,0,-2
1537909647582269,3,8,8,17,8,-2,1,4
1537909647582269,-7,-19,-4,23,8,-1,-2,-4
1537909647597230,-5,-31,-4,-23,-5,-2,0,-1
1537909647597230,5,-12,-4,-7,-2,-2,0,3
1537909647598228,13,21,8,7,5,3,2,2
1537909647598228,5,14,-9,-19,-4,0,-3,2
1537909647619170,0,10,-14,0,4,1,0,0
1537909647619170,-6,-2,-4,-19,-8,1,-3,-4
1537909647621165,-6,0,12,-8,-10,-7,-5,-3
1537909647621165,4,2,7,20,8,2,1,0
1537909647633132,0,-1,-4,-3,0,-3,-1,2
1537909647633132,1,4,-2,6,6,2,2,2
1537909647642109,6,5,-5,-9,1,0,0,1
1537909647642109,-6,-9,-3,2,4,1,-3,-4
1537909647657068,-3,5,-3,6,1,2,1,-3
1537909647657068,2,10,1,11,2,1,-1,2
1537909647658066,-3,-7,0,-6,-5,2,-1,-1
1537909647658066,-4,-15,-2,13,4,2,-1,-3
1537909647679010,3,-2,-1,1,-2,1,-2,2
1537909647679010,3,-5,-2,1,-1,-1,0,1
1537909647681004,3,-6,0,-3,2,1,-1,1
1537909647681004,-1,-15,-8,4,5,1,0,0
1537909647692973,6,-5,-5,-8,-3,0,0,1
1537909647692973,4,3,-3,-6,-3,-2,1,1
1537909647701949,3,9,-1,-4,-6,1,-2,-1
1537909647701949,-2,14,0,2,-5,-1,-1,-1
1537909647716908,-2,15,2,-6,-9,-1,-1,-2
1537909647716908,-1,12,1,2,-5,-2,-2,-1
1537909647717906,-4,3,0,-5,-2,-3,-1,-3
1537909647717906,-4,0,-1,-1,-3,-1,-1,-2
1537909647740845,-3,-4,1,-1,-2,-1,-2,0
1537909647740845,-3,-4,0,2,0,0,0,-3
1537909647741842,-4,-9,-3,-2,1,0,0,-2
1537909647741842,0,-3,0,4,2,1,-2,-2
1537909647752812,-2,11,3,3,2,0,0,-2
1537909647752812,2,0,2,1,4,-1,-1,-1
1537909647761789,-7,-37,-5,-1,1,-2,0,-2
1537909647761789,-2,15,-8,3,5,1,0,0
1537909647776749,3,30,2,-4,1,-1,0,0
1537909647776749,4,-12,-5,6,0,-4,-3,-1
1537909647778743,0,0,-2,15,1,0,1,1
1537909647778743,-15,-39,-6,-15,-4,0,-3,-3
1537909647799689,-9,-57,47,37,11,0,-2,-3
1537909647799689,-10,21,21,-39,-8,1,-2,0
1537909647800687,18,73,-19,-87,-41,-13,-3,-3
1537909647800687,-6,-89,-83,100,40,15,9,7
1537909647812655,0,-17,68,-117,-57,-18,-12,-8
1537909647812655,-14,31,-33,67,11,-3,1,-5
1537909647821630,-2,-18,-43,87,24,11,5,4
1537909647821630,7,62,-15,-18,-1,-3,1,5
1537909647836589,-3,-18,12,76,31,11,1,3
1537909647836589,2,67,4,13,3,-1,-9,-4
1537909647838584,-16,-11,7,-108,-56,-11,-13,-13
1537909647838584,14,23,-100,37,2,-8,13,6
1537909647859527,-10,-85,-24,31,32,14,12,12
1537909647859527,-12,-40,119,-86,-49,-18,-5,-3
1537909647860525,1,23,-52,-11,11,-1,-2,-2
1537909647860525,-9,-16,98,-12,-13,-4,-16,-11
1537909647872493,7,73,-1,6,-1,0,-2,-4
1537909647872493,4,-37,-88,5,19,9,0,0
1537909647881468,-7,-94,111,9,12,2,0,1
1537909647881468,6,42,127,-11,-12,-5,-5,-5
1537909647896429,7,1,-128,-2,1,1,8,4
1537909647896429,9,0,62,28,2,6,3,5
1537909647898423,1,20,-9,10,2,2,-2,-2
1537909647898423,-8,14,2,-27,-22,-10,-11,-7
1537909647919367,-1,26,-101,-5,5,3,-1,-1
1537909647919367,4,23,60,-5,-3,-5,-3,-3
1537909647920365,0,34,14,47,15,-1,3,2
1537909647920365,-1,-7,-71,-14,9,4,3,4
1537909647933330,-7,11,42,-12,-14,-8,-10,-8
1537909647933330,-27,-113,-73,-55,-6,-7,-10,-15
1537909647942306,25,51,-3,37,19,5,12,15
1537909647942306,-7,-15,87,20,6,1,-2,-2
1537909647957266,-7,-24,31,5,-1,-2,2,-1
1537909647957266,3,26,-35,5,7,1,1,0
1537909647958263,-13,10,-62,-33,-11,-5,-6,-6
1537909647958263,5,4,29,-10,3,0,1,0
1537909647979207,2,57,18,-29,-18,-3,-2,-1
1537909647979207,10,-15,56,28,9,8,6,7
1537909647981202,0,-69,-24,17,7,5,3,1
1537909647981202,5,4,49,-15,-13,0,0,1
1537909647993170,7,-18,-56,8,1,1,-1,1
1537909647993170,8,11,72,-3,-5,0,2,4
1537909648002147,-7,12,62,26,-3,-6,-9,-8
1537909648002147,-4,-26,-128,-33,-6,-3,1,0
1537909648017108,-2,7,94,20,2,-1,-2,-3
1537909648017108,-6,2,-28,-18,-3,-4,0,-2
1537909648023093,2,11,41,-2,4,1,2,2
1537909648023093,-7,0,-12,0,1,-2,-3,-4
1537909648039049,0,-5,26,-7,-1,-2,-1,-1
1537909648039049,3,5,-128,0,1,-1,1,2
1537909648041045,-10,-35,6,-43,-6,-3,-5,-6
1537909648041045,4,6,13,42,15,7,6,3
1537909648053012,0,-9,4,-6,-5,-2,1,1
1537909648053012,-4,-10,-1,2,-2,-1,-2,0
1537909648068970,2,6,46,18,2,0,-2,0
1537909648068970,0,-5,-20,-5,-1,1,-1,-1
1537909648075950,-4,-5,8,-14,-4,-2,-3,-4
1537909648075950,5,-3,0,20,1,1,2,3
1537909648082932,3,9,-52,0,2,0,1,1
1537909648082932,-3,1,7,-11,-4,0,-3,-2
1537909648098889,-3,-6,-47,-2,-3,-4,-2,-3
1537909648098889,2,9,47,6,3,2,2,-1
1537909648100889,0,-6,-2,8,5,2,2,1
1537909648100889,-2,7,15,-10,-4,-2,-3,-1
1537909648112852,-3,-9,2,-3,-1,-2,-2,-1
1537909648112852,0,1,-29,-1,1,1,2,0
1537909648121828,0,-4,-6,8,0,-2,0,0
1537909648121828,-3,-3,8,-1,1,-1,-2,-1
1537909648135790,2,0,-19,-1,-1,-3,1,0
1537909648135790,-1,3,1,7,4,3,1,-2
1537909648142771,-3,-1,-6,-3,-5,-4,-2,-1
1537909648142771,1,0,-9,-10,-2,-1,0,0
1537909648158727,-2,1,10,3,1,2,-1,-2
1537909648158727,-3,-4,-3,4,-2,-2,0,-1
1537909648165709,1,-1,-5,-4,3,1,-1,-1
1537909648165709,1,-2,-12,-6,-1,9,4,-20
1537909648172690,-2,-1,4,-3,-10,-6,19,39
1537909648172690,3,4,0,7,5,25,1,-9
1537909648189645,6,-1,-11,8,17,37,25,-25
1537909648189645,-34,-7,2,-5,-7,-64,-44,-68
1537909648204604,7,1,0,-3,-7,38,-72,38
1537909648204604,30,9,-4,3,3,9,92,105
1537909648205602,-38,-10,-4,-5,-5,-36,-65,-77
1537909648205602,-26,2,3,-4,-3,-10,-14,19
1537909648219565,6,21,8,5,10,-5,-57,-61
1537909648219565,-6,9,-6,-1,-10,0,11,33
1537909648220562,3,-3,-1,-2,6,81,17,-19
1537909648220562,28,13,6,4,-7,-77,1,71
1537909648232530,-3,-3,-6,-2,-2,1,61,-17
1537909648232530,1,-6,-1,-1,-5,-15,-39,15
1537909648241506,13,6,-3,-3,-5,0,30,22
1537909648241506,-1,-10,1,2,-2,29,5,-20
1537909648256466,-4,-8,1,1,-1,16,3,2
1537909648256466,-5,-11,-4,-1,4,-16,-4,-39
1537909648262450,-12,-10,-2,-4,-5,-42,-16,12
1537909648262450,3,-5,-5,-1,4,39,4,3
1537909648279406,-1,-5,-3,-6,-1,-24,10,7
1537909648279406,-4,1,-4,10,11,7,-8,-25
1537909648280402,1,0,-2,-1,-8,-19,-9,16
1537909648280402,11,3,-3,-21,-2,12,9,9
1537909648301346,-2,-5,-6,-3,1,-5,12,-7
1537909648301346,-8,2,-2,-3,-5,-12,-21,-25
1537909648301346,1,-3,-2,-1,-1,-3,0,21
1537909648301346,11,-7,-5,30,16,16,3,6
1537909648315309,-7,-2,1,-64,-23,-13,-6,-13
1537909648315309,-5,-7,4,-9,-12,-8,-19,-24
1537909648323287,9,1,0,1,-1,-7,1,2
1537909648323287,-8,-15,-3,-5,-8,6,-4,0
1537909648338248,0,3,-6,24,13,1,0,-15
1537909648338248,4,-2,-2,1,1,0,-4,10
1537909648346226,-2,0,0,-6,-6,-5,1,13
1537909648346226,-1,-6,1,8,0,5,4,-7
1537909648361186,-1,6,0,14,2,-1,3,5
1537909648361186,-4,-15,-2,-3,-3,-1,-4,-14
1537909648362184,6,-19,-1,10,-3,-5,3,8
1537909648362184,4,-13,0,0,-3,13,6,6
1537909648375149,0,-14,0,7,3,-3,3,6
1537909648375149,-4,7,-4,-5,1,1,-5,-12
1537909648383128,3,15,-3,1,4,1,2,12
1537909648383128,3,27,1,-9,-6,2,3,-2
1537909648398087,3,25,0,-1,-5,-2,6,0
1537909648398087,0,17,-2,0,-2,-3,-8,-1
1537909648399085,4,18,0,-9,-6,-2,2,5
1537909648399085,1,9,1,-11,-7,-1,1,-4
1537909648421026,2,3,7,7,3,0,4,6
1537909648421026,-5,-12,-2,-5,-3,1,-2,-3
1537909648422024,-4,-9,2,-4,0,-2,-1,2
1537909648422024,-2,-7,0,-5,0,0,2,-4
1537909648434989,-2,-14,0,2,2,-4,0,5
1537909648434989,-3,-5,2,0,4,1,-2,-5
1537909648443965,-5,-5,2,-1,0,-3,-4,-6
1537909648443965,-1,-5,-1,3,3,-1,1,3
1537909648466903,-1,-6,-3,2,1,-2,-2,-3
1537909648466903,-3,-1,-1,-1,0,-2,-1,-4
1537909648467901,-5,-5,-1,4,1,-4,-2,0
1537909648467901,-3,-3,2,1,1,3,-1,-1
1537909648480866,5,3,-2,2,1,1,3,5
1537909648480866,3,3,-4,2,0,0,-1,-2
1537909648481864,0,-3,-2,-3,0,-2,0,2
1537909648481864,-1,-1,1,2,-1,2,0,-4
1537909648495826,-1,1,-5,-1,0,-2,-2,-2
1537909648495826,1,0,-3,20,3,3,1,3
1537909648503805,4,16,6,2,-9,0,2,1
1537909648503805,-5,-40,38,19,18,2,0,-4
1537909648518765,-7,8,-4,-75,-34,-15,-7,-7
1537909648518765,-4,10,-34,85,12,-3,2,0
1537909648519762,7,15,4,3,16,7,5,7
1537909648519762,1,-14,19,22,-36,-11,-8,-2
1537909648540707,-8,-33,52,-45,3,3,-3,0
1537909648540707,-6,33,-28,10,5,-3,-2,-2
1537909648541704,1,-32,54,4,-8,-5,5,4
1537909648541704,14,18,7,24,22,11,9,13
1537909648555666,9,-25,3,15,10,4,0,2
1537909648555666,-7,25,37,-12,-14,-8,-13,-11
1537909648563645,-18,-38,-92,-3,7,3,-7,-10
1537909648563645,1,46,-7,-62,-11,-5,3,-5
1537909648578605,7,40,7,75,8,-5,9,5
1537909648578605,3,-13,-74,-78,-19,-1,0,2
1537909648579602,12,10,-46,-16,-12,-5,6,6
1537909648579602,-13,-39,-93,-38,2,0,-7,-7
1537909648601543,-10,-50,-101,-57,-16,-3,-6,-8
1537909648601543,13,42,15,36,14,6,4,3
1537909648601543,5,-7,-59,10,13,2,1,1
1537909648601543,2,-11,86,28,-5,-4,1,2
1537909648615506,6,-23,-24,26,12,5,5,6
1537909648615506,-3,-18,113,-39,-19,-7,-8,-3
1537909648623485,-2,-1,-5,-33,-14,-6,-10,-7
1537909648623485,-5,-11,-123,-8,2,0,-3,-5
1537909648638445,10,98,125,49,11,3,0,2
1537909648638445,-8,-21,-41,-42,-6,-3,-2,-2
1537909648639442,2,66,72,37,0,1,5,4
1537909648639442,1,10,-23,18,4,3,2,3
1537909648661384,-14,-18,-78,-15,-4,-4,-7,-7
1537909648661384,-2,-1,43,6,1,2,1,-1
1537909648661384,-8,-27,29,7,4,0,-5,-3
1537909648661384,-2,13,-29,-3,-3,-4,-2,-2
1537909648675347,-1,-21,1,-10,2,0,4,3
1537909648675347,4,-18,-52,20,8,1,4,4
1537909648683325,-7,0,50,-7,-4,-2,-5,-6
1537909648683325,-5,-30,-13,-18,1,-1,-4,-3
1537909648698285,-4,4,2,23,2,2,-1,-2
1537909648698285,3,-28,-7,-8,-1,0,-1,3
1537909648699282,-1,-2,-86,-4,-1,-3,-3,-3
1537909648699282,-5,-18,-62,-23,-5,0,1,0
1537909648721224,17,56,85,43,8,2,6,6
1537909648721224,-4,-25,14,-10,-4,-2,-2,-3
1537909648722221,-7,-24,19,-8,-5,0,-4,-4
1537909648722221,2,16,39,2,-1,1,0,0
1537909648735187,0,-32,-51,-15,-12,-7,-5,-1
1537909648735187,5,33,-11,-14,-3,1,1,3
1537909648743165,1,21,36,7,2,0,1,-1
1537909648743165,2,-1,24,-4,0,-2,0,1
1537909648758125,-4,25,37,6,2,1,1,2
1537909648758125,-3,-76,-109,-8,2,0,1,-2
1537909648759123,5,43,46,5,0,-1,-2,-1
1537909648759123,4,23,-24,-10,-2,1,2,2
1537909648781063,-12,-52,-83,-22,-5,-3,-4,-5
1537909648781063,-8,-5,119,34,7,1,0,-3
1537909648782061,-6,-4,-76,-15,-3,0,1,0
1537909648782061,4,3,15,14,5,1,4,3
1537909648796024,-4,-15,-11,-2,-1,-2,-4,-2
1537909648796024,6,46,55,16,0,-2,0,1
1537909648797022,-8,-16,86,-9,-2,-4,-4,-6
1537909648797022,10,21,-8,-4,4,4,3,4
1537909648819961,-5,-9,-13,-6,0,-1,0,-1
1537909648819961,-7,-24,-62,-23,-2,0,-3,-5
1537909648820958,2,0,33,26,-4,-4,-2,0
1537909648820958,-8,-9,11,-2,-7,-6,-3,-4
1537909648840905,-1,10,6,4,4,3,0,-1
1537909648840905,0,8,44,-9,-2,-2,-2,-1
1537909648841902,1,-28,-84,-11,-1,-2,2,2
1537909648841902,-4,3,-50,3,0,-1,-2,-3
1537909648855864,9,13,69,12,7,4,5,4
1537909648855864,0,7,1,5,-1,-2,1,-1
1537909648856862,1,-9,-8,-7,-11,-6,-1,0
1537909648856862,-3,-8,17,4,1,-3,-1,-1
1537909648878803,-2,3,-17,-11,0,1,-3,-4
1537909648878803,-3,-3,-18,-5,5,8,1,3
1537909648878803,8,7,1,5,-4,2,1,3
1537909648878803,0,-2,29,-2,-6,-11,-2,41
1537909648901742,0,-1,0,3,0,5,-6,1
1537909648901742,-13,2,0,-2,11,45,-2,-89
1537909648902739,-10,-19,-19,-3,1,-8,44,40
1537909648902739,20,9,25,0,-20,1,36,19
1537909648915704,17,5,-1,-11,-4,-59,-64,80
1537909648915704,-2,7,-12,12,18,17,-30,45
1537909648916702,-24,-9,-3,4,4,54,32,-107
1537909648916702,-23,6,25,-2,-14,-80,-62,-56
1537909648938644,43,19,-4,0,5,79,69,65
1537909648938644,0,1,-11,-4,1,7,-73,-36
1537909648939642,13,1,-7,-14,11,80,45,14
1537909648939642,7,2,25,20,14,89,49,-10
1537909648962580,-18,-4,0,7,-8,-83,-35,-84
1537909648962580,-13,-21,-13,-12,-21,-41,6,17
1537909648963578,23,8,0,2,7,35,-1,63
1537909648963578,-33,-19,-19,-25,-8,-38,-68,-68
1537909648975545,11,-4,-5,5,13,45,47,-52
1537909648975545,10,-9,6,14,2,46,102,99
1537909648983523,-7,-10,-11,-25,-55,-112,-117,-86
1537909648983523,-5,13,12,-2,6,7,-28,-64
1537909648998483,-26,-12,-13,-3,2,85,-17,-58
1537909648998483,23,13,1,4,14,98,21,11
1537909648999480,-3,-4,4,11,19,45,46,-16
1537909648999480,29,4,17,13,8,11,39,91
1537909649021421,-13,-13,-1,-1,-10,-26,-21,-13
1537909649021421,-1,-5,-8,-5,-11,-46,16,12
1537909649021421,2,5,6,4,5,-46,-8,28
1537909649021421,-11,-11,2,0,2,-17,-7,-37
1537909649035384,-15,-7,-6,-8,-6,-7,7,18
1537909649035384,-2,0,-4,-6,-7,-46,-11,-3
1537909649043363,-2,4,2,-1,4,-29,-18,2
1537909649043363,-3,-5,4,1,3,19,-9,1
1537909649058323,2,-1,-4,-2,-4,-10,11,18
1537909649058323,-4,2,2,-3,-7,-28,-8,-3
1537909649059320,0,2,2,3,5,4,-21,-11
1537909649059320,7,-5,3,6,2,31,37,116
1537909649081262,-28,-14,-9,-8,-8,-32,-33,-83
1537909649081262,-4,-1,-4,-3,-6,-19,-8,-26
1537909649082261,-14,6,4,6,10,17,5,-15
1537909649082261,0,0,-2,-2,-2,-5,6,9
1537909649095225,8,2,-2,-3,-3,-5,-1,-29
1537909649095225,-5,-3,-2,-4,-5,0,-14,6
1537909649103205,-13,-5,-4,1,3,8,14,-19
1537909649103205,12,1,-3,-1,-2,-11,2,84
1537909649118164,-16,1,-1,-3,-3,-14,-16,-30
1537909649118164,-2,0,-6,-1,-7,-16,0,-28
1537909649119160,11,5,0,2,0,10,6,35
1537909649119160,-6,2,-2,0,-4,-2,-5,-64
1537909649141102,2,2,-2,1,1,19,16,51
1537909649141102,-2,4,-1,-5,-3,-9,-1,-3
1537909649142099,3,2,0,-2,-1,-8,-9,9
1537909649142099,1,2,2,-1,-1,8,1,-20
1537909649164040,4,1,-3,0,-3,1,7,25
1537909649164040,5,-1,-1,2,1,3,-1,-7
1537909649165038,-1,-6,-1,-1,-3,-10,-9,3
1537909649165038,-3,-7,3,1,2,5,-1,-8
1537909649179000,3,0,0,1,1,3,11,25
1537909649179000,-3,-2,-1,-1,0,-4,-2,-13
1537909649179000,0,-7,1,-1,-2,-6,-7,14
1537909649179000,1,2,-1,0,3,2,2,-11
1537909649200941,0,-1,5,1,-1,0,-1,5
1537909649200941,5,1,0,2,3,3,0,-1
1537909649201939,1,-2,-5,-6,-2,-7,-5,5
1537909649201939,2,4,3,1,1,4,-2,-10
1537909649215901,2,2,-2,-3,-3,1,3,7
1537909649215901,-1,-1,-3,0,-1,-1,-1,2
1537909649223880,3,2,1,14,5,1,1,8
1537909649223880,-2,-3,-14,1,7,4,-2,-11
1537909649238840,3,6,25,-71,-37,-5,-1,8
1537909649238840,-2,5,0,13,6,-2,1,-2
1537909649238840,-1,7,-2,20,0,-2,-4,1
1537909649238840,0,-7,-4,1,3,1,-2,-5
1537909649260782,-5,-11,-8,-3,5,4,0,4
1537909649260782,2,-1,0,35,7,5,-2,-5
1537909649261779,-4,-4,46,24,16,2,-5,-2
1537909649261779,-1,-20,-95,-81,-38,-9,-1,-5
1537909649284719,14,55,26,85,22,5,15,16
1537909649284719,-10,-60,45,12,12,5,-1,-1
1537909649284719,14,51,66,15,-18,-9,-3,6
1537909649284719,-7,-38,-62,-11,11,5,0,-4
1537909649298682,-4,3,-45,-83,7,2,-4,-4
1537909649298682,5,22,41,-15,-25,-9,-2,0
1537909649299679,14,33,68,39,21,7,15,17
1537909649299679,-8,-26,7,54,12,2,-4,-6
1537909649320622,1,22,4,12,2,0,-1,0
1537909649320622,-19,-60,-99,-52,-29,-19,-16,-13
1537909649321619,-13,-81,-100,-6,-1,-3,-4,-3
1537909649321619,19,91,9,28,-1,0,20,12
1537909649344558,0,-12,31,75,34,12,2,5
1537909649344558,-2,-6,-27,25,10,8,0,0
1537909649344558,-8,6,47,-123,-41,-19,-15,-11
1537909649344558,-8,0,23,38,11,-9,-6,-9
1537909649358521,-3,-58,75,66,15,8,4,4
1537909649358521,25,75,-53,4,8,4,11,13
1537909649359519,3,-8,-47,-19,-2,5,1,6
1537909649359519,0,17,93,3,-5,1,-7,-4
1537909649381460,-3,-5,125,-33,-23,-9,-8,-9
1537909649381460,-8,-30,-65,-33,-2,0,-1,-5
1537909649388441,2,37,-3,24,12,4,3,1
1537909649388441,-5,-17,-10,11,-4,-2,-2,-2
1537909649404398,4,8,0,8,-10,-3,2,5
1537909649404398,1,23,7,2,1,-2,1,1
1537909649405396,-11,2,-74,-34,-11,-2,-8,-7
1537909649405396,-12,-11,-57,-35,-12,-7,-7,-9
1537909649418361,12,38,14,40,9,4,2,5
1537909649418361,-4,6,-12,-24,-1,1,1,-1
1537909649419359,-3,-28,-21,-12,-3,-3,1,-1
1537909649419359,-2,-7,101,16,-1,-2,-6,-5
1537909649441299,-4,-22,-127,-24,-1,-5,1,0
1537909649441299,-8,-10,65,-27,-8,-3,-2,-4
1537909649442297,2,-11,86,47,8,3,6,2
1537909649442297,-3,-13,-34,8,4,0,0,-1
1537909649464238,-3,-2,-87,-40,-16,-3,-1,-1
1537909649464238,3,-2,22,24,4,1,1,3
1537909649465236,-1,5,-11,-23,-11,-4,-6,-3
1537909649465236,7,34,83,9,5,5,3,2
1537909649480196,-2,-41,-55,-12,-4,-1,0,0
1537909649480196,0,-9,-23,-8,-1,-1,-3,-1
1537909649480196,-2,8,64,33,5,1,-1,-1
1537909649480196,0,-12,-117,-38,-6,-2,1,1
1537909649501139,-8,-7,44,-7,-6,-7,-7,-7
1537909649501139,8,12,46,14,6,4,5,4
1537909649502137,-2,-7,-52,6,3,-1,3,1
1537909649502137,-1,-5,82,-18,-6,-2,-4,-1
1537909649524078,-6,-7,14,18,-1,-1,-2,-3
1537909649524078,3,29,-2,4,-1,-3,-5,-1
1537909649525076,-1,-13,15,3,3,2,1,1
1537909649525076,-5,-9,3,-20,-3,-1,-4,-4
1537909649539038,4,7,-15,13,6,2,2,-1
1537909649539038,3,2,-21,15,3,2,5,4
1537909649539038,-3,-1,-59,-9,-6,-2,-3,-3
1537909649539038,-1,-14,34,1,-3,-2,1,-1
1537909649561977,1,8,4,-16,-5,-3,-2,1
1537909649561977,-10,-7,-39,3,-1,-3,-4,-3
1537909649562974,8,9,48,12,4,1,2,1
1537909649562974,2,2,3,12,3,1,2,2
1537909649583919,-4,0,-58,-19,-6,-4,-3,-4
1537909649583919,-1,-4,51,11,1,-2,0,-2
1537909649584917,-2,0,-27,-10,-3,-2,-4,-1
1537909649584917,0,6,1,3,2,2,2,0
1537909649598878,-1,3,-6,1,1,2,-3,-1
1537909649598878,-1,-2,11,-4,0,-1,-3,-4
1537909649598878,-1,-2,1,4,2,1,1,-1
1537909649598878,0,0,-21,0,-2,-2,0,1
1537909649621817,-3,-21,-1,-7,-4,-4,-1,-2
1537909649621817,1,6,11,-6,-5,-4,0,0
1537909649622814,-2,-7,-9,-4,-2,-1,2,-4
1537909649622814,6,8,-14,2,3,0,-3,6
1537909649644755,-1,-3,9,-1,2,4,-7,-20
1537909649644755,-10,-9,17,-2,0,52,21,12
1537909649644755,-2,-3,-18,5,-1,-49,70,4
1537909649644755,-7,-11,-16,-8,-11,-59,-102,-10
1537909649658718,-16,7,12,-3,3,33,25,-83
1537909649658718,-10,-2,2,-4,-8,-57,-91,-21
1537909649659716,25,5,-8,5,10,65,91,69
1537909649659716,-22,0,0,-4,-5,-82,-63,-90
1537909649681657,17,18,11,0,-5,60,30,-40
1537909649681657,-7,-2,2,5,14,29,13,-82
1537909649682654,-47,-23,-22,-21,-13,-43,-35,-23
1537909649682654,45,19,9,5,-6,-20,-10,94
1537909649704596,-11,12,0,-3,-2,-54,-25,-43
1537909649704596,19,7,6,3,-7,69,95,59
1537909649704596,-16,2,11,14,14,-22,-51,-16
1537909649704596,-23,-12,-18,-7,3,100,81,4
1537909649718559,1,-12,6,6,-4,-85,2,-4
1537909649718559,43,10,-2,-2,-4,4,78,45
1537909649719557,-12,-8,-8,-16,-12,-69,-79,-49
1537909649719557,-20,-4,-5,4,8,41,40,-10
1537909649741497,13,4,7,5,5,60,20,54
1537909649741497,0,-4,6,0,4,24,63,13
1537909649742494,9,-3,-5,-4,-3,18,10,10
1537909649742494,-1,-2,2,1,2,-14,-27,-87
1537909649764435,-3,-7,-7,-6,-2,29,3,21
1537909649764435,-8,0,-2,-7,-9,-78,-47,40
1537909649765433,3,-3,-5,-6,-4,31,-43,-33
1537909649765433,-11,-6,2,7,5,12,18,2
1537909649778398,1,-2,1,-3,-2,-24,6,26
1537909649778398,3,-8,-2,0,1,-10,-52,83
1537909649779395,-14,-3,-3,1,0,6,-26,-100
1537909649779395,8,2,1,0,1,14,43,11
1537909649801336,-3,1,0,-5,-4,-23,-33,-3
1537909649801336,-16,-1,2,0,1,-10,-21,-37
1537909649802334,15,5,5,0,-1,24,32,2
1537909649802334,7,4,1,0,3,-12,12,31
1537909649824275,-14,0,-5,-1,0,2,-11,42
1537909649824275,-2,2,0,-2,-2,-7,-16,-11
1537909649825272,8,4,3,2,-1,7,24,18
1537909649825272,7,6,0,0,-3,5,-2,3
1537909649838238,1,1,3,3,2,-2,-2,17
1537909649838238,-6,-3,0,-2,0,0,1,-52
1537909649847214,3,0,-3,0,-1,2,-1,29
1537909649847214,3,-1,-2,0,1,1,3,2
1537909649860179,1,-1,-4,-4,-5,0,5,9
1537909649860179,-3,0,0,-2,-4,-12,-13,-46
1537909649869155,3,-2,-4,-2,-2,5,-4,16
1537909649869155,1,-1,-2,1,-1,3,5,18
1537909649884115,-1,-2,-2,-2,-2,-4,5,0
1537909649884115,-2,4,1,1,-2,-3,-14,-19
1537909649886110,3,2,-1,2,1,3,6,14
1537909649886110,-2,0,1,-1,-5,2,9,-5
1537909649898078,-2,-2,1,0,-1,-3,-5,2
1537909649898078,-8,-7,2,-2,-2,-4,-7,-9
1537909649907055,1,-3,-1,-1,-3,4,5,11
1537909649907055,0,-1,0,-1,-1,-5,4,10
1537909649920021,1,0,-2,-2,0,-3,-2,-6
1537909649920021,-2,0,1,3,1,-3,-4,3
1537909649928997,0,-1,-1,0,3,1,5,6
1537909649928997,-2,-1,-1,-1,1,1,-5,-5
1537909649943957,2,2,0,0,3,-2,1,4
1537909649943957,-1,-1,0,-2,-2,-3,-1,-5
1537909649945952,2,0,-2,2,-1,0,0,5
1537909649945952,-1,-5,0,0,-1,0,1,-2
1537909649957920,2,-2,0,-1,0,2,2,5
1537909649957920,0,3,1,2,0,0,0,4
1537909649966896,0,0,1,-1,-1,0,-3,-3
1537909649966896,-2,-1,0,1,-1,1,1,4
1537909649982853,-2,0,2,-1,-1,0,-2,-1
1537909649982853,-4,-5,-1,-6,-3,-3,-4,-7
1537909649987839,6,-2,-18,-1,1,2,2,7
1537909649987839,0,-3,14,0,0,0,1,-2
1537909650003795,6,27,-3,2,0,-1,0,2
1537909650003795,-3,-15,16,4,2,1,1,0
1537909650005790,-2,-1,25,-4,-3,-2,-4,0
1537909650005790,2,3,-48,0,1,-3,0,1
1537909650017758,0,-18,60,16,1,3,2,0
1537909650017758,-6,1,-36,0,2,1,-2,-3
1537909650026734,3,30,30,-6,-8,-1,2,1
1537909650026734,-6,-21,-75,-12,1,0,1,0
1537909650040696,9,21,34,-1,-5,-3,6,7
1537909650040696,0,-11,-13,62,21,5,0,1
1537909650047678,-15,19,102,-53,-21,-3,-14,-10
1537909650047678,-5,-65,-72,-26,24,1,0,-6
1537909650064632,14,70,20,9,-23,-6,5,3
1537909650064632,0,25,-30,-13,-9,-8,-1,0
1537909650065630,6,-1,90,102,42,18,6,11
1537909650065630,-4,64,-21,-96,-64,-30,-17,-13
1537909650077598,-3,-27,-111,-67,11,1,-1,-4
1537909650077598,5,-22,-87,13,5,9,13,12
1537909650086574,-9,-17,21,-6,-18,-13,-13,-8
1537909650086574,14,16,32,54,23,14,16,15
1537909650109513,-9,22,78,-1,-20,-7,-12,-10
1537909650109513,3,-19,-90,-21,11,1,4,3
1537909650110511,-1,-26,-3,0,-7,-1,-4,-3
1537909650110511,6,-6,101,-6,8,7,0,4
1537909650131456,-3,-32,-102,-16,3,3,3,-1
1537909650131456,-2,-17,124,57,21,8,-3,-4
1537909650133450,-4,-19,-92,-81,-23,-9,0,-3
1537909650133450,16,29,-30,12,-4,-5,6,7
1537909650137440,-10,-31,-117,-3,3,0,-3,-2
1537909650137440,-4,12,112,18,-7,-3,-7,-5
1537909650146416,-5,14,-34,-2,1,-7,-13,-12
1537909650146416,0,13,-40,0,8,9,6,1
1537909650161375,-5,-3,21,-2,3,-1,2,2
1537909650161375,11,34,-110,-45,-26,-14,-7,-1
1537909650168358,14,26,95,54,23,12,18,14
1537909650168358,-19,-16,-5,17,-5,-5,-13,-11
1537909650184314,11,20,127,53,14,4,1,3
1537909650184314,-9,4,-17,-47,-11,-8,-8,-7
1537909650185311,-4,-5,-128,-17,7,1,3,-3
1537909650185311,6,1,-3,29,13,8,5,5
1537909650207251,-4,2,66,37,10,-1,-1,-2
1537909650207251,-8,-1,113,-33,-13,-3,-5,-6
1537909650208249,-5,-28,-103,-9,-1,-4,2,-1
1537909650208249,-10,-18,10,-6,-8,-4,-6,-5
1537909650220217,-2,-5,-64,-11,-5,-3,-2,-1
1537909650220217,-9,-16,75,-1,-5,-3,-5,-7
1537909650229193,1,-9,0,3,-4,-1,4,2
1537909650229193,8,23,90,14,-3,1,4,6
1537909650243156,-10,-30,35,-29,-13,-6,-9,-9
1537909650243156,-4,-17,-76,-14,-7,-2,-2,-4
1537909650250137,8,19,21,23,5,2,6,5
1537909650250137,2,-4,-13,11,-3,-3,0,0
1537909650267091,-2,-15,-46,-21,1,1,0,0
1537909650267091,-1,2,-33,20,3,-1,0,-3
1537909650268089,-4,-8,-21,-6,-1,0,-2,-3
1537909650268089,-7,-3,82,3,-1,-5,-5,-8
1537909650280057,12,20,-2,20,12,8,7,6
1537909650280057,3,2,61,5,0,1,2,3
1537909650289033,3,-4,-91,-7,0,2,-1,2
1537909650289033,-7,3,29,-14,-4,0,-3,-5
1537909650303993,-12,-12,62,22,-3,-2,-8,-7
1537909650303993,-1,-2,-87,-38,-6,-3,3,0
1537909650305988,1,-15,8,16,3,0,4,2
1537909650305988,2,1,20,4,4,5,1,1
1537909650326931,2,7,-25,-1,-2,-2,-1,-1
1537909650326931,0,3,13,-10,-6,-6,-3,-2
1537909650327929,-7,-1,17,2,-3,-4,-5,-5
1537909650327929,2,-4,-106,-17,-1,-1,-1,1
1537909650339897,-4,-12,15,-9,-4,-4,-1,-2
1537909650339897,0,0,29,11,-1,-2,0,2
1537909650348873,1,11,26,-10,-3,-3,-1,-2
1537909650348873,-3,-9,17,11,3,3,-1,-2
1537909650363834,-7,-21,-34,-22,-5,-2,-3,-4
1537909650363834,8,10,-55,-1,4,1,2,2
1537909650365829,6,19,-19,6,1,1,4,3
1537909650365829,-3,-6,-9,-1,-3,-2,-2,0
1537909650386775,-2,-5,-16,0,2,0,-2,-2
1537909650386775,1,10,37,5,-1,-1,-2,1
1537909650387772,-3,-10,30,-9,-4,-4,-6,-3
1537909650387772,-1,-3,-11,4,1,-1,0,1
1537909650400735,0,6,1,1,-1,-2,0,-2
1537909650400735,0,0,9,-2,-3,-1,0,0
1537909650409711,0,-2,4,-2,3,2,-1,-15
1537909650409711,7,-1,8,0,-3,4,11,53
1537909650424670,-7,-3,2,4,0,-5,2,-16
1537909650424670,-32,-24,-19,-13,-2,7,-40,-82
1537909650425668,12,14,19,13,10,26,33,32
1537909650425668,23,7,10,6,4,68,72,65
1537909650446611,-21,-29,-20,-2,-7,-89,-13,-88
1537909650446611,26,29,-3,-32,-17,-23,-81,109
1537909650448606,10,23,39,8,-3,26,-30,-2
1537909650448606,-24,3,6,0,3,20,-1,-91
1537909650460574,-7,-14,-7,-5,-12,41,36,32
1537909650460574,11,14,15,10,8,-13,51,-19
1537909650469551,9,6,6,-10,-7,-13,-14,-25
1537909650469551,22,5,0,3,11,2,-1,76
1537909650484512,2,-24,-23,-2,7,4,30,18
1537909650484512,-29,-52,-25,-1,-10,34,4,-45
1537909650485509,28,40,26,-2,7,-28,28,24
1537909650485509,-4,2,10,10,1,-26,-60,32
1537909650506453,19,16,7,1,10,-16,-47,-16
1537909650506453,-23,-21,-8,-11,-12,-42,-22,-35
1537909650508450,-6,-9,-20,-7,1,0,-51,-23
1537909650508450,-17,-18,-12,-6,-2,23,4,-39
1537909650520417,21,15,14,10,13,39,65,84
1537909650520417,6,22,29,16,7,14,25,64
1537909650529391,-35,-33,-19,-13,-11,-4,2,-83
1537909650529391,15,21,1,-5,-5,-34,0,4
1537909650544352,-10,2,3,1,-3,14,-32,-7
1537909650544352,18,14,14,12,9,0,32,9
1537909650545349,-17,-23,-8,-4,0,-8,2,31
1537909650545349,-12,-19,-7,-3,-5,-14,-14,-58
1537909650567290,-1,8,3,1,0,0,13,51
1537909650567290,4,3,2,2,4,8,4,28
1537909650568289,-10,-8,2,0,2,3,3,-7
1537909650568289,-3,1,-2,-4,-5,-8,-4,-14
1537909650589232,3,8,-8,-7,-6,6,-7,16
1537909650589232,-27,-1,5,4,4,5,2,-111
1537909650591228,8,-13,-11,-10,-11,-12,-10,74
1537909650591228,2,-6,2,-1,-5,-13,5,4
1537909650603196,-3,9,6,-1,-4,2,-29,-43
1537909650603196,1,1,-4,1,1,5,23,0
1537909650612171,-3,-4,-3,0,-3,2,13,4
1537909650612171,-5,-5,-3,-2,-5,-8,-9,12
1537909650627130,2,0,0,-3,-3,2,-6,-8
1537909650627130,11,0,2,5,7,9,3,19
1537909650628127,1,-4,-1,2,-2,0,7,-13
1537909650628127,-1,2,0,1,-3,-9,-2,5
1537909650651065,-6,0,-1,0,0,3,-3,-2
1537909650651065,8,4,0,2,0,-1,6,16
1537909650652063,-1,-3,0,2,0,0,3,8
1537909650652063,-8,-2,-3,-4,-7,-7,-4,-14
1537909650663033,3,3,1,-3,-4,0,-3,-10
1537909650663033,5,-1,1,-1,-1,-1,-4,4
1537909650672009,-3,-1,-3,-4,1,-3,2,0
1537909650672009,-3,-3,-2,0,2,-1,-2,-16
1537909650686969,1,1,-2,-4,-2,-5,-3,-11
1537909650686969,2,-1,0,2,2,-1,-2,18
1537909650687966,-3,-3,-1,0,0,5,2,-1
1537909650687966,0,1,0,-1,0,-3,-1,-7
1537909650699934,-3,-2,-1,-2,-1,-2,-6,4
1537909650699934,-1,-2,-1,2,0,2,0,8
1537909650708910,-1,0,-1,-1,0,-2,2,-4
1537909650708910,-3,-1,-1,0,-1,-4,-4,-9
1537909650723871,-4,-2,0,-2,0,0,-2,-1
1537909650723871,2,4,1,-3,-2,-1,-2,3
1537909650725866,-2,-2,-2,-1,-2,-2,0,-5
1537909650725866,-1,-4,1,1,1,2,-1,0
1537909650746809,2,-2,-10,-5,0,3,2,3
1537909650746809,1,-8,-3,10,4,1,2,4
1537909650747807,-1,4,3,-8,2,0,-2,1
1537909650747807,-3,-3,5,12,-1,-5,-2,-5
1537909650761770,-4,-14,56,52,11,1,-4,-3
1537909650761770,2,39,10,-11,-4,-2,-4,-2
1537909650769750,-6,-35,-41,-61,14,3,0,-2
1537909650769750,-2,-48,9,14,-57,-25,-5,-5
1537909650784710,-1,-26,-25,-40,-2,2,3,1
1537909650784710,4,-16,-14,71,-1,0,0,6
1537909650785709,0,-37,74,-29,22,9,0,2
1537909650785709,-16,16,-55,49,2,-13,-9,-13
1537909650806650,12,73,-22,70,12,9,12,11
1537909650806650,-7,46,51,-81,24,6,-8,-6
1537909650808644,15,-70,-110,-68,-53,-16,12,10
1537909650808644,-8,-35,127,82,37,14,-1,-2
1537909650820612,-7,-27,-24,-23,-4,1,-7,-4
1537909650820612,-16,-6,16,13,18,5,-9,-9
1537909650829588,5,67,-22,-29,11,0,2,0
1537909650829588,17,104,-24,-50,-29,-4,6,8
1537909650842553,-1,-31,82,22,-7,-11,-1,-2
1537909650842553,6,5,-13,9,-5,2,1,4
1537909650851530,-10,-10,15,46,-5,-1,-8,-7
1537909650851530,-3,-10,-126,-56,3,1,-5,-11
1537909650866489,6,7,69,3,18,9,1,1
1537909650866489,0,-55,-123,-25,-17,-5,6,5
1537909650868484,-4,-12,5,24,-3,5,4,2
1537909650868484,12,93,98,41,24,3,-1,1
1537909650880451,-7,-10,-37,-30,-23,-9,-8,-5
1537909650880451,0,0,88,-15,-12,-7,-2,-3
1537909650889428,4,-3,-84,32,4,0,3,3
1537909650889428,-11,-27,48,-40,0,3,-3,-5
1537909650903390,1,17,63,-2,0,-1,-3,-2
1537909650903390,-3,7,-63,-9,-9,-8,-2,-2
1537909650910372,-2,0,-16,36,13,2,2,1
1537909650910372,-6,-53,4,-32,3,4,1,0
1537909650926329,-3,13,-8,-25,-7,-4,0,-1
1537909650926329,0,11,62,24,5,-1,1,0
1537909650928324,-11,-15,-47,-2,-8,-3,-8,-7
1537909650928324,9,34,77,-5,8,6,6,5
1537909650940292,-1,-6,-121,-11,0,-1,-4,-2
1537909650940292,0,-29,15,-15,-9,1,3,4
1537909650949269,0,28,-49,11,-5,0,-3,-2
1537909650949269,3,-12,-48,-8,-6,-1,-1,1
1537909650963232,-11,-16,-13,-7,-7,-4,-12,-12
1537909650963232,11,9,-54,-10,-5,1,6,6
1537909650970214,-1,10,93,17,0,-1,-2,-1
1537909650970214,0,-21,-21,-16,-3,1,-2,1
1537909650987168,-1,-8,-35,-7,-6,-1,2,1
1537909650987168,-2,-6,-44,7,2,-1,-2,-1
1537909650988166,-5,15,44,-10,-11,-7,-6,-6
1537909650988166,4,-6,11,19,12,4,3,4
1537909651009109,3,0,-128,-9,2,-2,4,3
1537909651009109,-2,12,127,11,-4,-3,-3,-3
1537909651011104,-1,8,41,13,4,0,-2,-3
1537909651011104,-5,-6,-8,0,5,3,4,2
1537909651023071,10,6,-31,-23,-6,-3,-1,1
1537909651023071,3,-5,-5,19,7,3,2,5
1537909651032047,0,13,44,10,-1,-2,-5,-3
1537909651032047,-1,-9,29,-10,-7,-3,-4,-5
1537909651047006,-8,-21,-31,-1,1,1,1,-1
1537909651047006,1,-11,61,-2,-6,-4,-4,-3
1537909651048004,4,30,82,6,1,1,2,0
1537909651048004,3,-22,-12,6,7,5,7,4
1537909651068949,-2,-3,97,10,2,0,2,1
1537909651068949,-5,-12,-45,-6,-2,-2,-2,-1
1537909651070943,-2,4,13,2,-4,-3,-1,0
1537909651070943,-6,-23,-62,-11,-5,-2,-5,-4
1537909651082911,-3,25,48,-9,-3,-2,-3,-5
1537909651082911,2,-11,-65,-1,6,3,3,3
1537909651091887,-2,-10,-40,-7,0,0,-1,-2
1537909651091887,2,7,-25,-4,-5,-3,-1,0
1537909651106848,-1,0,18,4,1,3,-1,-1
1537909651106848,0,10,2,-3,-4,-4,-2,0
1537909651107846,0,-6,-17,-3,0,-1,-1,0
1537909651107846,0,1,19,3,0,1,-2,-2
1537909651128790,0,6,25,8,-1,-2,1,-2
1537909651128790,-2,-6,-24,-7,-3,-4,-1,-2
1537909651130785,2,1,12,3,0,-1,-1,4
1537909651130785,-3,7,-16,-6,-4,-1,-2,-9
1537909651142753,3,-1,-2,-2,-2,-1,-3,8
1537909651142753,7,4,-6,1,0,3,22,28
1537909651151729,8,-5,-3,-1,1,42,48,72
1537909651151729,-15,-2,0,2,-2,-30,21,-91
1537909651166688,0,-6,-6,-13,-9,-21,-101,7
1537909651166688,-7,-1,11,-5,-5,-1,8,7
1537909651168683,2,6,2,0,-6,-62,2,-36
1537909651168683,2,-1,-12,-5,5,101,31,-65
1537909651189627,6,4,23,11,0,-89,64,35
1537909651189627,-2,4,-17,-16,-15,15,-67,69
1537909651190625,-4,-1,-9,-7,6,45,-71,22
1537909651190625,0,0,-5,5,8,79,85,-31
1537909651203588,5,15,6,-8,-10,-49,-92,-48
1537909651203588,7,9,1,-5,-4,1,-35,-95
1537909651210569,-21,-5,-8,-9,-4,42,76,38
1537909651210569,7,21,18,9,4,-15,-53,-3
1537909651226527,16,-13,9,24,21,115,127,88
1537909651226527,-4,-3,-13,-25,-37,-128,-59,-95
1537909651228521,-9,-5,-14,-13,1,105,-27,-4
1537909651228521,18,7,-1,2,-11,-119,-23,13
1537909651249465,-11,-8,-8,-8,-2,-29,-26,-6
1537909651249465,-10,-1,-1,4,3,-3,-47,-36
1537909651250463,-1,-10,2,2,-4,-1,39,-16
1537909651250463,-3,-9,-7,-5,0,22,-28,1
1537909651262431,0,7,4,2,3,31,49,-10
1537909651262431,12,-1,9,12,12,28,28,56
1537909651271407,-10,-3,8,5,-3,-59,-54,-58
1537909651271407,-6,-4,-10,-7,-3,-4,-8,41
1537909651286367,-18,-6,-1,-5,-3,3,-38,-36
1537909651286367,-5,-5,0,6,8,11,39,16
1537909651288363,6,1,3,3,1,-15,-3,-3
1537909651288363,-3,-7,-3,-2,-1,-25,-23,38
1537909651309308,0,3,5,3,-2,7,5,-22
1537909651309308,0,0,0,3,11,34,36,33
1537909651310305,8,9,2,1,-1,-29,-22,-73
1537909651310305,-12,-2,-5,-5,-3,-3,-8,52
1537909651323268,-6,2,0,-2,-2,8,-18,-38
1537909651323268,2,0,3,9,8,35,29,-1
1537909651332244,32,15,3,3,-5,-39,-7,52
1537909651332244,-12,-4,-4,-2,-3,7,-22,-78
1537909651347204,-14,-2,-3,0,-1,11,24,-12
1537909651347204,22,1,-3,1,-2,0,1,25
1537909651348201,-18,-8,-5,-3,-2,-8,8,5
1537909651348201,5,-4,-4,-2,0,3,-1,17
1537909651369146,5,0,1,-3,-1,10,-11,28
1537909651369146,-10,-1,-7,-5,-2,4,6,-22
1537909651375129,1,-3,-1,-1,-1,-5,2,-1
1537909651375129,5,0,3,0,-1,0,12,45
1537909651384106,-6,-2,-3,-3,-4,-1,-13,-27
1537909651384106,-6,-2,2,4,2,4,10,4
1537909651392085,0,1,-1,1,-3,-3,-5,-10
1537909651392085,-2,2,0,-1,-3,-1,-2,20
1537909651406048,3,1,-1,0,-3,-4,1,9
1537909651406048,-7,-4,1,-2,-3,0,1,-11
1537909651414028,-2,-4,1,3,2,0,1,14
1537909651414028,-3,-5,-1,-2,-2,-5,-2,0
1537909651428987,4,8,-1,-4,-1,0,-4,2
1537909651428987,-3,-2,-1,1,3,1,4,7
1537909651430982,-6,-4,1,1,0,-4,-4,-13
1537909651430982,6,3,0,-1,1,-2,3,15
1537909651451925,1,-2,-2,-1,0,2,-6,-2
1537909651451925,-7,-2,2,2,2,1,0,1
1537909651452922,1,-2,-3,0,1,0,1,-2
1537909651452922,1,-2,-1,1,-2,-2,-1,1
1537909651465887,-4,-4,0,-1,-1,0,-3,6
1537909651465887,2,9,-1,-5,-2,3,2,-5
1537909651473865,-3,-6,-4,1,1,0,1,-3
1537909651473865,-8,-17,-3,1,0,-1,0,4
1537909651490820,-1,9,-6,7,3,1,-5,-5
1537909651490820,-5,-26,-28,-11,-1,-1,0,-1
1537909651491818,1,5,20,5,-7,-6,-2,-1
1537909651491818,6,1,-4,10,7,0,5,9
1537909651502788,-5,8,36,13,3,3,0,0
1537909651502788,6,-8,48,8,0,2,-5,-5
1537909651511764,-15,-23,-86,-85,-41,-7,-4,-2
1537909651511764,7,69,70,83,-2,-12,4,2
1537909651526724,7,-31,42,4,0,7,4,9
1537909651526724,0,-40,-51,45,14,3,3,6
1537909651532708,-1,8,-8,-51,0,-2,-7,-6
1537909651532708,1,30,72,21,6,-4,-3,0
1537909651549663,-5,-55,-24,48,7,4,2,0
1537909651549663,-4,57,-69,-75,-4,-1,-9,-7
1537909651550661,-1,-39,93,14,5,4,8,3
1537909651550661,3,-44,-121,17,-16,-7,4,4
1537909651562628,13,50,43,-63,23,8,6,10
1537909651562628,-15,-30,-36,-44,-36,-7,-2,-2
1537909651571605,8,70,76,110,27,6,-4,0
1537909651571605,-1,-30,29,-126,-10,2,-11,-7
1537909651586565,-3,-3,-29,34,-25,-15,-5,-5
1537909651586565,1,39,-14,11,20,0,2,0
1537909651588559,3,-18,-1,-30,-20,-6,-2,0
1537909651588559,-21,-23,127,90,16,2,-3,-6
1537909651609504,14,-6,-128,-67,-9,-1,0,3
1537909651609504,-3,4,114,-28,-7,-1,1,-3
1537909651610502,1,-20,-99,20,20,4,4,5
1537909651610502,4,8,-37,-13,5,8,2,5
1537909651622470,-16,-35,74,26,-5,-6,-11,-12
1537909651622470,-1,65,127,23,-1,-4,-5,-5
1537909651631451,8,-4,-94,-30,3,1,6,6
1537909651631451,-6,-46,-124,-20,-1,2,0,0
1537909651646406,-2,59,107,21,-12,-6,-4,-3
1537909651646406,-4,-53,-124,-7,-6,-4,0,-1
1537909651648401,-2,28,73,36,4,-3,-8,-6
1537909651648401,1,21,-109,-57,-8,-3,-2,0
1537909651669344,0,-1,-12,27,11,2,4,5
1537909651669344,1,5,0,27,10,3,4,2
1537909651670341,0,-1,3,-4,-2,0,0,0
1537909651670341,-1,0,-3,-6,-3,-1,-1,0
1537909651683306,-9,-26,7,2,3,0,-3,-4
1537909651683306,-4,-22,-41,-18,-7,-5,-1,-5
1537909651692282,5,13,51,1,6,4,4,3
1537909651692282,-6,-1,-4,43,6,0,0,-2
1537909651706244,-2,9,60,-40,-16,-4,-5,-5
1537909651706244,11,6,-23,24,5,4,6,7
1537909651713226,-9,-21,1,-17,-8,-6,-6,-8
1537909651713226,-1,5,37,1,-2,-1,-2,0
1537909651729183,4,-8,-93,-23,-3,0,4,1
1537909651729183,5,11,56,26,1,1,2,4
1537909651731178,-9,-18,11,4,4,-1,-3,-4
1537909651731178,3,3,-21,-38,-8,-5,-4,-3
1537909651743146,2,9,16,35,8,0,3,3
1537909651743146,-1,-18,20,1,-6,-3,-5,-4
1537909651752124,5,12,-93,1,5,3,5,5
1537909651752124,1,19,113,-10,-6,-3,-3,-1
1537909651766086,1,4,-94,-11,2,-1,0,-1
1537909651766086,3,6,47,14,7,2,3,3
1537909651773067,-4,-6,36,13,-5,-5,-4,-3
1537909651773067,-1,-2,-104,-21,-1,2,-1,-2
1537909651797003,-10,-39,-48,-33,-9,-3,-5,-6
1537909651797003,9,29,56,59,14,5,7,7
1537909651798001,-2,-1,16,1,-8,-4,-2,-1
1537909651798001,-1,-14,-40,-15,0,1,-3,0
1537909651811963,1,18,5,7,4,-1,-2,-3
1537909651811963,-5,-26,-128,-32,-6,-2,-3,0
1537909651812961,0,-2,17,0,-3,-3,0,-1
1537909651812961,1,6,43,16,2,1,5,2
1537909651825925,-1,2,8,-4,-1,0,-2,-1
1537909651825925,-6,-5,42,-5,3,3,-4,-3
1537909651832907,4,14,-11,7,19,12,4,2
1537909651832907,-2,-9,15,5,-7,1,-1,0
1537909651848865,2,10,-12,-3,-17,-18,0,-1
1537909651848865,-3,-4,26,-3,8,2,-2,-2
1537909651850860,-6,-10,-8,-10,-18,-4,-5,-8
1537909651850860,-3,-3,-33,-20,-35,-19,-4,-6
1537909651862826,-3,-4,14,2,-12,-28,-2,-2
1537909651862826,0,-3,-24,-13,-5,-6,-2,-1
1537909651871803,3,5,-5,-1,11,3,3,2
1537909651871803,2,4,9,20,53,30,2,3
1537909651885765,1,4,10,8,-32,-3,2,0
1537909651885765,-1,-2,-11,-11,4,-9,0,-2
1537909651892746,1,0,-15,-6,8,14,2,0
1537909651892746,8,5,27,9,5,-3,-1,13
1537909651909700,-2,1,1,-3,10,8,-5,-12
1537909651909700,-7,-5,1,7,12,66,24,29
1537909651910698,18,-3,-1,-1,-21,-39,31,33
1537909651910698,-27,-11,-5,0,-8,-19,-37,-75
1537909651922665,-5,6,8,1,12,-21,5,-53
1537909651922665,-15,-7,-6,4,-22,-24,-14,-38
1537909651931642,20,5,-4,3,23,43,21,72
1537909651931642,-1,-4,8,1,-18,-53,56,70
1537909651954580,-4,-12,-9,-1,9,95,-78,9
1537909651954580,-16,-4,-5,-16,-20,-102,91,-90
1537909651955578,6,20,6,-6,-24,-102,-115,-57
1537909651955578,-24,1,0,-10,12,57,-13,-87
1537909651969540,26,10,16,17,20,60,94,103
1537909651969540,8,-6,-6,6,11,127,78,74
1537909651970538,-9,-6,2,9,-5,-56,43,62
1537909651970538,-13,-3,-10,-8,-19,-43,-85,-63
1537909651982506,-27,-11,2,4,21,4,64,-115
1537909651982506,4,0,0,-5,-3,-69,-94,2
1537909651991482,18,1,-6,0,0,37,7,21
1537909651991482,12,4,11,9,13,88,25,32
1537909652006442,-7,-7,-7,-12,-21,-77,-44,-13
1537909652006442,13,3,3,4,3,-11,25,-2
1537909652012426,-28,-14,-4,-3,-1,4,-19,-48
1537909652012426,1,-5,0,1,2,7,-17,-8
1537909652029381,8,2,-3,0,7,15,21,30
1537909652029381,-3,-2,-1,-2,-7,-27,-30,14
1537909652030379,-8,4,-4,-7,-2,9,-17,-34
1537909652030379,12,1,4,3,5,9,17,28
1537909652051323,1,3,0,-1,-3,-23,3,13
1537909652051323,1,1,-4,-6,-4,-14,-31,18
1537909652053318,-9,-5,-5,1,5,39,-3,-25
1537909652053318,8,-1,-1,-5,-2,-20,37,26
1537909652065285,4,3,0,-4,-5,-20,-25,13
1537909652065285,-2,1,-1,-1,1,12,-31,-24
1537909652074263,-3,-6,-4,-2,-3,17,25,-8
1537909652074263,11,7,-2,-2,-7,-17,12,30
1537909652089221,-5,-3,0,-3,-2,-7,-22,-10
1537909652089221,4,-1,-3,4,3,20,-4,2
1537909652090219,0,-1,0,3,-1,5,15,2
1537909652090219,0,-2,3,0,-3,-12,7,28
1537909652112160,-3,-3,-1,0,-3,12,-13,-23
1537909652112160,2,-5,-2,-2,-4,-2,14,25
1537909652113158,-12,-8,-4,-4,-5,-3,-15,-15
1537909652113158,6,0,-3,-2,0,0,-2,-6
1537909652125125,3,4,-1,2,2,4,14,32
1537909652125125,-3,-2,-1,-1,-2,-2,-7,-3
1537909652134101,3,4,-1,3,1,2,4,-18
1537909652134101,-2,4,0,0,-3,0,4,2
1537909652149061,-3,4,-1,-1,-2,-5,-3,1
1537909652149061,-2,1,-2,-2,-3,-7,-9,-12
1537909652151057,-2,-1,0,-1,0,9,3,4
1537909652151057,1,-1,2,0,-2,-4,6,1
1537909652172000,0,-2,0,0,-1,-4,-6,3
1537909652172000,-3,-4,1,2,0,3,-7,-5
1537909652172998,-2,-2,-1,-4,-5,-1,4,-6
1537909652172998,-1,-4,1,1,-3,-7,-2,2
1537909652184966,-1,-2,-1,-2,-3,-3,-5,1
1537909652184966,-1,0,0,0,0,3,-1,-4
1537909652193941,-2,-2,-2,-1,0,0,3,0
1537909652193941,1,-1,-2,-1,1,-4,-4,-6
1537909652208902,1,-3,-1,0,3,0,-2,4
1537909652208902,1,-1,-1,2,2,-1,1,-3
1537909652210895,1,-1,0,4,3,3,0,-4
1537909652210895,6,10,1,4,3,-2,-2,2
1537909652231839,-8,-26,-3,-5,3,3,1,-2
1537909652231839,-3,9,1,9,0,0,-4,-1
1537909652232836,-3,-12,-4,-4,5,2,1,0
1537909652232836,-3,5,-3,-8,-20,-11,-6,-4
1537909652245801,8,30,-10,17,11,1,3,2
1537909652245801,5,22,27,14,6,2,-1,-2
1537909652254778,-18,-67,22,62,21,7,-1,-3
1537909652254778,4,35,-40,-57,-2,2,-4,-2
1537909652268742,6,82,18,93,8,-5,1,1
1537909652268742,0,-42,-27,-35,10,9,3,5
1537909652270736,-11,5,30,63,-33,-26,-9,-13
1537909652270736,1,-36,-3,-35,4,7,2,3
1537909652291680,-4,-14,-13,-8,-19,-10,-5,-1
1537909652291680,8,54,-3,72,23,7,2,1
1537909652293674,-5,-19,-3,-54,17,10,0,-1
1537909652293674,-18,-69,-65,4,-2,-2,-6,-9
1537909652305642,12,80,55,-24,8,8,4,3
1537909652305642,2,3,-88,-104,-42,-17,-7,-8
1537909652314618,3,-16,10,2,-17,-4,4,5
1537909652314618,-4,8,111,12,1,0,1,0
1537909652329578,2,-54,-108,16,-5,0,4,4
1537909652329578,-14,-17,-13,-3,-10,-9,-10,-9
1537909652330576,5,18,42,-87,-13,-1,-2,2
1537909652330576,-2,20,-9,34,12,0,-3,-4
1537909652351520,7,23,92,7,12,4,-1,1
1537909652351520,0,-49,-43,78,23,12,8,1
1537909652353515,4,36,61,-36,-22,-10,-2,-3
1537909652353515,2,1,-30,-4,-10,-4,-1,1
1537909652365482,-14,-62,-91,-47,-13,-4,-6,-8
1537909652365482,1,29,109,15,6,-1,-4,-1
1537909652374460,7,-13,35,56,24,12,3,2
1537909652374460,13,64,-80,-31,-11,-2,3,5
1537909652389419,-5,-49,93,-26,-9,-6,-10,-8
1537909652389419,-8,15,-16,-11,-3,-4,-3,-4
1537909652390416,2,9,-121,16,-3,1,7,5
1537909652390416,-5,-51,58,-6,-2,-4,-1,1
1537909652411360,-2,24,35,3,1,-4,-4,-4
1537909652411360,-3,-27,1,1,2,2,2,3
1537909652413355,5,25,27,-2,4,3,1,2
1537909652413355,-6,-4,-51,10,-1,-2,-4,-5
1537909652425323,-10,-37,-41,-20,-3,0,1,-3
1537909652425323,-1,12,87,-3,-6,-4,-3,-3
1537909652434300,4,1,52,-12,-3,-2,-1,0
1537909652434300,3,2,-31,35,8,2,3,-1
1537909652449259,-4,0,-23,-15,-4,-1,2,1
1537909652449259,6,-2,57,0,-9,-2,-1,0
1537909652450257,-3,-24,-89,5,10,4,3,0
1537909652450257,-1,20,127,20,-6,-6,-4,-3
1537909652472197,-1,5,2,-16,2,0,-1,0
1537909652472197,11,-7,-52,16,3,4,6,8
1537909652473195,-5,2,-42,-26,-7,-3,-8,-5
1537909652473195,2,1,100,18,5,0,-1,2
1537909652485164,-1,-3,19,-10,-7,-6,-2,1
1537909652485164,4,1,-119,-11,5,2,4,2
1537909652494139,-3,6,48,15,-3,-6,-5,-6
1537909652494139,11,11,-80,-4,9,6,12,9
1537909652510096,-1,-18,-29,10,1,0,-3,0
1537909652510096,5,18,25,-1,-3,-2,-3,-1
1537909652511093,-5,-13,2,-3,0,-2,-3,-2
1537909652511093,-7,-17,-48,-56,-8,-4,-5,-7
1537909652532037,9,14,103,28,7,5,6,7
1537909652532037,-8,-14,45,-8,-6,-3,-3,-3
1537909652533034,4,17,32,-7,-5,-2,-5,-3
1537909652533034,-4,3,-19,21,6,2,2,0
1537909652546997,-14,-35,-92,-8,-2,-1,-3,-7
1537909652546997,-4,-6,73,-25,-5,-2,0,1
1537909652553979,4,16,74,17,2,2,2,2
1537909652553979,-1,-10,0,9,2,1,-2,-1
1537909652568939,-2,5,13,-1,-3,-2,-3,-4
1537909652568939,-3,-11,-47,0,0,0,-1,-1
1537909652570933,-3,-3,-93,-15,-1,0,-2,-2
1537909652570933,-4,-9,19,3,-3,-1,-2,-4
1537909652598859,-1,-4,-31,-3,0,1,2,1
1537909652598859,-4,-6,1,-10,-3,-2,-3,-3
1537909652600854,3,6,-13,6,2,-1,-1,1
1537909652600854,-1,2,5,6,0,2,0,-1
1537909652604843,4,8,14,-9,-6,-5,-3,0
1537909652604843,-2,3,9,3,1,1,0,-1
1537909652613819,-3,0,-13,-1,0,-1,-1,-2
1537909652613819,3,1,6,1,-3,-5,-1,2
1537909652629775,2,3,2,-4,-2,-1,1,0
1537909652629775,-4,-3,-2,-2,-2,-1,0,-1
1537909652630773,0,0,-31,-2,3,2,4,3
1537909652630773,-3,-8,10,1,0,-1,0,-3
1537909652651717,4,9,10,4,1,-1,0,1
1537909652651717,-4,-5,-11,-1,1,3,-1,-2
1537909652652714,-6,-3,1,-6,-4,2,-1,-14
1537909652652714,2,12,22,12,3,16,11,7
1537909652665680,12,-6,5,7,10,102,58,44
1537909652665680,-13,2,7,4,-9,-100,30,9
1537909652674656,-10,-6,-12,-8,3,41,-46,-33
1537909652674656,2,-7,-3,-2,-15,-36,11,53
1537909652689616,-17,-2,-11,-15,-5,-42,-112,-55
1537909652689616,-9,-7,-7,-7,2,79,76,55
1537909652695600,12,11,10,17,14,-3,-7,-54
1537909652695600,15,2,-6,-11,-8,-83,-39,42
1537909652711557,28,5,6,1,-2,23,-23,57
1537909652711557,-10,3,7,6,-5,-90,-40,31
1537909652713552,-12,-3,-16,-23,-17,-14,-25,-48
1537909652713552,15,6,9,5,15,107,66,39
1537909652725520,1,4,-2,-5,-10,-15,17,-28
1537909652725520,4,5,3,11,20,126,63,-49
1537909652734496,27,4,7,21,8,-33,111,66
1537909652734496,-28,-13,-16,-30,-27,-85,-100,-84
1537909652747461,6,13,5,10,14,36,57,4
1537909652747461,4,-2,3,4,0,43,-7,-12
1537909652756438,0,-3,-5,-3,-3,35,49,25
1537909652756438,1,-5,6,10,8,-7,17,3
1537909652771399,-21,-11,2,1,-10,-64,-19,-20
1537909652771399,14,6,-8,-9,0,-12,-38,-22
1537909652773395,-9,-7,0,0,-6,-4,-20,23
1537909652773395,-3,4,-3,0,6,27,3,-9
1537909652786358,-9,-3,-3,-3,-1,-13,-14,-6
1537909652786358,-3,-2,0,-4,-1,-15,-5,2
1537909652794337,-5,-4,-3,-4,3,2,-19,10
1537909652794337,-8,-1,0,0,0,8,0,-22
1537909652808299,-2,-3,2,0,0,-11,19,0
1537909652808299,12,-4,-2,-5,-5,2,-7,41
1537909652815281,-16,-5,-2,-4,-7,-13,-27,-44
1537909652815281,5,-1,4,5,2,13,3,-15
1537909652831238,-2,-3,0,-1,-1,-2,19,2
1537909652831238,3,0,1,-2,-5,-7,-12,-17
1537909652833234,15,3,-5,-1,-3,-2,-8,71
1537909652833234,3,5,4,10,5,22,35,34
1537909652845201,-16,-7,-5,-6,-8,-14,-9,1
1537909652845201,-9,3,-4,-5,-8,-13,-29,-45
1537909652854178,15,7,2,1,-3,-3,5,42
1537909652854178,-10,-2,-1,2,1,14,3,-30
1537909652869138,8,5,1,1,1,4,14,43
1537909652869138,-6,-3,0,-3,-4,-4,-16,-8
1537909652875121,-4,0,0,-1,1,5,3,-17
1537909652875121,0,-5,-1,0,-3,12,3,10
1537909652892074,2,0,-2,1,0,5,-5,0
1537909652892074,-1,2,1,-1,-1,-11,-3,-8
1537909652893072,-7,-3,-1,1,0,-1,-3,-14
1537909652893072,2,0,-1,-2,-4,-2,0,-7
1537909652905039,-3,1,1,2,0,0,3,-16
1537909652905039,0,2,-2,-3,-1,11,0,-2
1537909652914016,1,3,-1,0,-2,-4,5,24
1537909652914016,-6,-2,0,-2,1,0,-19,-34
1537909652928976,-3,-1,-2,-1,-1,-8,3,-12
1537909652928976,1,-3,-1,1,0,7,-1,11
1537909652934960,-3,-3,0,-1,0,-5,-5,-7
1537909652934960,-2,-3,-1,-1,2,1,6,7
1537909652951915,0,-1,2,-1,1,4,2,-3
1537909652951915,1,-3,-2,0,-1,-4,-6,-5
1537909652952912,-2,-1,-1,0,1,-3,0,-3
1537909652952912,-1,-1,-3,0,-1,-1,0,-1
1537909652964879,0,-4,-1,0,1,1,-1,-8
1537909652964879,-1,-4,-1,-3,-1,-8,-1,6
1537909652973855,-1,1,-1,-2,-1,-2,-2,-12
1537909652973855,-2,-2,-1,0,1,0,0,2
1537909652988816,1,-2,-2,-1,0,-2,-1,-2
1537909652988816,0,2,-1,3,0,-5,0,1
1537909652994799,-4,-1,0,-3,1,1,-3,-8
1537909652994799,-2,-4,1,1,-2,-3,-2,-5
1537909653011754,0,-4,-16,0,4,0,2,0
1537909653011754,-4,-16,4,29,7,-3,-5,-4
1537909653012752,-9,18,3,-11,-12,-9,-11,-14
1537909653012752,24,37,6,-45,-2,10,14,18
1537909653034693,-2,-7,86,-37,-26,-5,-1,-5
1537909653034693,6,-17,7,-43,-1,-2,-2,1
1537909653035691,-13,6,5,-22,-35,-12,-3,-7
1537909653035691,12,-10,29,83,12,-2,8,8
1537909653048656,-3,-24,-10,99,64,21,1,3
1537909653048656,4,18,76,-73,-45,-4,-7,-3
1537909653055638,-9,16,97,60,-2,-11,-15,-16
1537909653055638,-7,-46,-37,82,13,4,6,1
1537909653071596,5,-14,-105,-5,-16,-9,7,3
1537909653071596,-12,-2,44,-26,12,-5,-7,-4
1537909653073591,-13,-88,-27,-54,4,2,-4,-8
1537909653073591,-1,61,24,37,16,-1,3,1
1537909653094534,3,16,-59,14,11,-1,-1,1
1537909653094534,3,14,62,68,-3,-10,1,1
1537909653095532,-3,-23,-6,-2,12,10,2,2
1537909653095532,-18,-56,-75,-60,-12,-6,-15,-15
1537909653107499,4,1,-75,-53,11,10,5,5
1537909653107499,-10,32,86,-20,-14,-11,-13,-13
1537909653116475,20,-9,-77,36,10,6,21,13
1537909653116475,13,33,111,6,2,1,2,5
1537909653131435,-1,14,-13,-36,-25,-13,-11,-8
1537909653131435,-9,-15,-128,-5,-8,1,-1,-2
1537909653131435,2,20,82,39,12,3,0,0
1537909653131435,3,23,-26,-48,-12,-5,-3,0
1537909653153376,-5,23,127,5,-16,-10,-7,-8
1537909653153376,2,-30,-128,14,16,7,11,5
1537909653154374,-4,1,69,-12,7,2,-6,-3
1537909653154374,1,11,32,-4,-5,-2,-2,-2
1537909653168338,-3,6,72,-2,-10,-7,-4,-3
1537909653168338,-2,-20,3,19,18,7,4,1
1537909653176316,6,24,27,-11,-3,-2,2,2
1537909653176316,-5,-1,-58,-19,-3,0,1,-2
1537909653191276,-5,-19,20,10,3,-1,-2,1
1537909653191276,3,-4,-55,-1,7,2,2,2
1537909653191276,0,18,-41,-14,-3,-1,-2,-1
1537909653191276,-12,-18,10,-13,-6,-6,-12,-12
1537909653213218,7,6,11,52,18,8,11,6
1537909653213218,2,4,63,-17,-13,-2,2,2
1537909653214215,7,2,-10,40,3,0,0,2
1537909653214215,-4,-17,-64,-39,-8,0,-3,-3
1537909653228177,-4,9,66,12,-3,-4,-6,-4
1537909653228177,8,15,42,2,-12,-2,1,4
1537909653236155,2,2,6,-3,4,2,-1,3
1537909653236155,-17,-37,-95,-46,-17,-9,-9,-10
1537909653252113,5,9,42,21,8,5,6,4
1537909653252113,0,9,-7,1,6,1,0,0
1537909653253110,-1,-5,-52,-9,-2,-3,1,-2
1537909653253110,-4,-8,58,21,4,1,0,-2
1537909653273056,0,-8,-128,-23,-6,-2,1,0
1537909653273056,0,14,54,13,4,-2,-1,0
1537909653274054,2,0,26,-15,-2,1,3,3
1537909653274054,0,7,32,18,2,0,-1,-2
1537909653288018,-5,-9,-64,-9,-7,-3,-4,-3
1537909653288018,-5,-20,60,1,-2,-1,-4,-3
1537909653295996,6,11,-128,-2,0,2,4,3
1537909653295996,11,7,52,13,10,6,8,7
1537909653310955,1,21,19,-11,-8,-5,-1,-1
1537909653310955,-6,-17,-8,1,1,1,-2,-2
1537909653311952,-5,-2,18,-5,-6,-4,-4,-6
1537909653311952,-2,-5,-4,1,-2,-2,-2,-1
1537909653333893,-1,-8,-10,-22,-7,-3,-1,-1
1537909653333893,3,11,-13,8,7,2,1,0
1537909653333893,-5,-5,-4,5,-3,-3,-4,-4
1537909653333893,3,3,-16,-8,-5,-3,0,2
1537909653347856,-3,3,14,1,6,0,-3,0
1537909653347856,-1,2,-27,8,-1,0,0,-3
1537909653355835,10,-4,-2,-7,2,1,6,4
1537909653355835,-10,-1,11,1,1,0,6,41
1537909653370795,-18,-13,5,-2,-4,9,1,-37
1537909653370795,39,3,-19,6,5,40,35,46
1537909653371793,-28,-9,4,-11,-8,-40,-58,-49
1537909653371793,-3,-2,12,7,-5,-39,15,65
1537909653393736,-31,-13,-12,-13,-3,12,-28,-90
1537909653393736,-17,3,-24,-10,3,52,-63,-80
1537909653394732,19,5,16,6,6,-41,75,95
1537909653394732,16,7,-4,-1,-8,47,32,81
1537909653407698,-16,-4,-9,-20,-10,-4,-61,-70
1537909653407698,22,9,-8,-3,-6,-128,11,15
1537909653415676,-18,-7,11,8,17,119,-50,-68
1537909653415676,7,5,7,6,4,4,-10,61
1537909653430636,39,4,3,6,4,-32,64,66
1537909653430636,-12,-5,0,10,6,72,5,-34
1537909653431634,0,-9,-6,4,8,80,114,62
1537909653431634,12,0,-4,1,-10,-111,-55,-86
1537909653461553,-35,-20,-7,-11,-15,-46,-48,-74
1537909653461553,-25,-12,-9,3,-6,-3,-4,-81
1537909653462552,21,15,7,2,-1,-7,20,3
1537909653462552,-1,-1,-4,-4,3,70,-3,-17
1537909653467537,26,12,4,0,-5,-44,21,108
1537909653467537,-13,-3,-6,-7,-7,-19,6,-25
1537909653476512,-2,9,6,1,5,5,-1,6
1537909653476512,7,-3,-1,-3,0,15,1,35
1537909653491472,3,-3,3,-2,0,-7,2,-4
1537909653491472,-13,-3,-7,-1,-2,25,3,-3
1537909653491472,7,-2,-2,-10,-11,-62,-47,17
1537909653491472,-8,-7,-2,-3,-3,-37,-11,-41
1537909653513413,6,5,-2,4,6,35,10,35
1537909653513413,4,-2,0,0,1,19,5,65
1537909653514411,7,-5,5,1,1,-36,13,-27
1537909653514411,-17,-2,-3,-4,1,24,-6,-82
1537909653527376,7,-4,1,2,5,45,22,33
1537909653527376,9,3,0,-3,-3,-35,-9,28
1537909653536352,-2,-3,-1,-7,-8,-10,-19,-14
1537909653536352,-4,-2,-3,-2,0,6,9,-39
1537909653551313,0,3,1,-1,-2,3,4,1
1537909653551313,12,7,0,6,7,3,11,29
1537909653551313,-14,-3,-4,-6,-6,-5,-18,-43
1537909653551313,-6,3,2,2,3,16,8,-11
1537909653573253,1,0,-1,-3,-1,1,-1,-3
1537909653573253,-1,-1,-1,1,-3,-12,2,15
1537909653574251,-5,-2,-2,0,-1,10,-4,-4
1537909653574251,-1,-1,1,2,1,-10,-1,-9
1537909653588213,-1,-3,-1,1,-2,-14,-9,6
1537909653588213,-7,-3,-3,-2,0,-3,1,2
1537909653596192,2,1,-3,-3,-5,-6,-8,-1
1537909653596192,-1,-3,0,1,3,8,6,-10
1537909653611153,1,1,1,-1,0,24,7,4
1537909653611153,-6,-7,-2,-1,-5,-11,-4,-4
1537909653612150,-2,-2,-2,-2,-1,11,-2,2
1537909653612150,3,5,-1,-2,-3,-4,1,-1
1537909653633096,0,1,2,-2,-4,10,3,-2
1537909653633096,1,2,-2,1,2,-5,-1,6
1537909653634094,-2,-2,-1,-2,-4,-3,-6,-6
1537909653634094,-5,-2,0,-1,-2,3,0,-8
1537909653648055,0,-3,-1,2,0,-3,1,0
1537909653648055,-2,-1,-1,6,-1,1,2,0
1537909653656033,-4,-3,0,6,0,-6,-9,-1
1537909653656033,-1,-3,-5,-15,-5,0,-1,-2
1537909653670992,-5,-6,-5,20,9,-2,-1,-5
1537909653670992,-1,-3,-1,14,3,-1,1,5
1537909653671989,-3,1,8,-36,-12,-8,-6,-6
1537909653671989,-3,2,-20,36,12,-1,-2,-4
1537909653693930,1,6,4,-70,-21,2,0,0
1537909653693930,-1,5,17,4,-5,-4,0,-1
1537909653693930,0,-2,-5,19,9,0,-1,3
1537909653693930,0,7,6,1,-2,-2,-2,-2
1537909653707893,-3,-30,-55,33,20,5,0,0
1537909653707893,-4,20,26,-9,-4,3,-2,-2
1537909653715872,6,-1,79,2,-6,-6,-4,-4
1537909653715872,-2,-21,-72,3,12,2,-2,-2
1537909653738811,0,34,11,-36,-6,3,3,1
1537909653738811,-3,-42,-57,-86,-31,-8,-3,0
1537909653739808,-3,54,27,15,9,-3,-1,0
1537909653739808,-3,-4,80,49,-15,-9,-5,-4
1537909653753771,1,-26,41,-51,-24,-6,-3,1
1537909653753771,-3,-63,-104,17,23,10,4,3
1537909653753771,7,65,-64,-10,-16,-5,-7,-2
1537909653753771,0,28,59,18,5,0,1,-2
1537909653767734,6,19,113,19,6,2,2,3
1537909653767734,-1,3,31,-12,-2,-2,-3,-1
1537909653775713,4,-21,-8,-11,0,3,2,2
1537909653775713,-6,-11,27,-16,-2,-3,-6,-4
1537909653790673,8,34,17,22,3,2,3,2
1537909653790673,0,-7,26,18,11,3,4,1
1537909653791671,-17,-79,-120,-21,-5,-5,-8,-10
1537909653791671,-11,14,-79,-51,-23,-12,-6,-10
1537909653813611,4,30,73,59,17,2,7,5
1537909653813611,6,37,-33,14,-3,-3,-2,0
1537909653814609,-6,-65,119,3,1,-3,-2,-2
1537909653814609,-4,-14,-124,-29,4,4,0,-1
1537909653827575,-17,-53,-60,-16,-13,-9,-9,-11
1537909653827575,13,40,25,14,6,4,4,7
1537909653836550,-7,-3,-37,-16,-8,-1,-5,-5
1537909653836550,7,4,127,20,4,2,2,3
1537909653851511,-6,-14,-100,-9,1,-1,-5,-7
1537909653851511,-11,-8,40,-8,-7,-7,-7,-10
1537909653851511,13,0,-15,18,10,4,10,9
1537909653851511,2,12,25,5,3,1,2,3
1537909653873451,0,-8,13,-4,-2,0,0,1
1537909653873451,0,-4,9,22,-1,-4,-3,-1
1537909653874448,-6,13,-104,-38,-10,-4,-8,-7
1537909653874448,3,-2,40,45,14,5,7,6
1537909653896390,-4,4,127,11,-8,-5,-6,-5
1537909653896390,-4,-40,-100,-8,5,-1,-1,-1
1537909653897387,2,14,26,7,0,-1,-2,4
1537909653897387,-6,-13,48,-23,-9,-4,-6,-5
1537909653911349,8,37,48,23,13,8,5,4
1537909653911349,3,7,-90,9,1,-4,2,0
1537909653911349,-4,2,-58,8,-1,-3,-1,-2
1537909653911349,0,-2,20,-18,-5,-1,-3,0
1537909653933291,-8,-11,-38,-14,-4,-4,-6,-7
1537909653933291,3,14,24,-17,0,2,0,-1
1537909653934289,2,-7,30,24,6,2,6,3
1537909653934289,-1,2,-23,-25,-9,-3,-3,-3
1537909653956229,-7,-31,-128,-18,-5,-3,-4,-4
1537909653956229,2,29,112,26,5,2,2,2
1537909653957228,0,-3,41,-14,-6,-3,-3,-4
1537909653957228,-3,-27,-112,-13,5,0,2,1
1537909653971190,7,0,16,5,2,1,4,6
1537909653971190,-5,-3,51,-28,-13,-5,-5,-5
1537909653972187,-2,-13,-41,28,7,3,0,2
1537909653972187,-4,13,-48,-31,-12,-5,-7,-6
1537909653993131,14,25,23,31,15,6,10,8
1537909653993131,-4,-3,-12,-7,-7,-3,-3,-2
1537909653994129,5,12,92,15,3,0,2,1
1537909653994129,-1,-8,-34,-5,0,1,-1,0
1537909654018064,-4,-7,-56,5,-2,-5,-5,-3
1537909654018064,-1,2,26,-11,-2,-1,-2,-1
1537909654019062,-1,7,24,-2,1,-1,-2,-2
1537909654019062,1,-5,-4,8,3,1,3,-1
1537909654031029,1,2,13,-1,-2,-2,-1,0
1537909654031029,-1,-5,14,9,3,0,0,-1
1537909654032027,-4,-3,-19,-10,-4,-1,-1,-3
1537909654032027,3,6,11,11,2,1,2,1
1537909654053968,-8,-16,-23,-11,-2,-3,-4,-14
1537909654053968,6,2,-13,1,1,1,-2,3
1537909654053968,-4,3,-10,0,2,5,7,22
1537909654053968,5,-1,22,-1,-3,3,13,-4
1537909654076907,-11,-3,-8,-2,1,9,-6,-9
1537909654076907,16,1,-10,5,4,0,27,15
1537909654076907,7,7,20,-1,0,-10,-11,-14
1537909654076907,-21,-9,10,2,-3,24,-41,18
1537909654090870,-11,-10,-18,-4,-1,-1,25,34
1537909654090870,-24,4,0,5,-2,-18,41,-102
1537909654091867,17,-2,-2,-7,-2,-1,-31,27
1537909654091867,-13,-5,-5,-3,3,-1,-33,21
1537909654113808,16,-1,-13,11,9,14,76,11
1537909654113808,1,1,-2,-7,-3,44,-77,72
1537909654113808,12,19,9,-5,-4,-83,64,59
1537909654113808,-3,9,-2,-4,-7,-1,-41,-60
1537909654137744,1,-2,8,3,5,61,-10,32
1537909654137744,13,-2,11,12,10,10,110,13
1537909654138742,-44,-18,-16,-7,0,66,-53,-59
1537909654138742,20,4,4,4,-2,-67,25,22
1537909654150710,19,5,-20,-27,-28,-75,-73,47
1537909654150710,-9,6,0,7,12,96,92,-54
1537909654151707,34,3,0,2,-9,-86,-46,50
1537909654151707,-40,-16,-1,-5,4,67,-81,-110
1537909654173648,4,-4,1,3,-9,-63,74,31
1537909654173648,-14,3,-6,-9,-8,-55,-116,-35
1537909654174646,2,3,-1,-6,-1,32,-5,-11
1537909654174646,25,8,6,5,5,36,69,50
1537909654196587,4,-5,-3,0,2,-17,-3,5
1537909654196587,-12,-3,-4,-3,-3,24,30,17
1537909654197584,-24,-16,5,7,6,-10,21,-16
1537909654197584,9,0,-3,3,0,-16,0,-8
1537909654210550,-11,4,-2,0,6,57,33,-70
1537909654210550,-10,-8,-3,-4,-11,-63,-50,-34
1537909654211547,17,2,2,4,4,25,14,31
1537909654211547,-11,-6,-1,0,0,-17,22,-57
1537909654233489,-4,3,-1,-1,3,1,-38,5
1537909654233489,13,2,3,0,-1,-12,-3,44
1537909654234486,-4,-1,-3,-4,-3,16,0,-14
1537909654234486,-3,-2,3,1,0,-5,-1,-27
1537909654256427,7,-4,1,0,0,19,5,19
1537909654256427,2,-5,-4,-7,-9,-40,-13,-12
1537909654257424,9,1,-3,-1,1,20,15,69
1537909654257424,-12,-5,-4,-2,-4,-22,1,-17
1537909654271387,-10,0,0,1,2,7,-32,-49
1537909654271387,-1,-3,0,1,2,14,18,14
1537909654271387,4,5,0,-2,-2,8,4,-11
1537909654271387,15,3,2,3,1,-8,34,47
1537909654293328,0,-4,-3,-3,-1,-4,-12,-8
1537909654293328,-4,1,-2,0,-1,-4,-10,59
1537909654294326,-3,2,1,-1,-1,8,4,-60
1537909654294326,5,2,-1,0,-3,16,-1,32
1537909654316267,-31,-7,-3,-4,-7,-22,-22,-80
1537909654316267,5,2,-3,-2,-3,-9,-10,28
1537909654317265,-11,2,-1,-1,0,23,5,-18
1537909654317265,7,3,1,1,-1,-3,16,26
1537909654330230,2,2,-3,-4,-6,-6,-7,9
1537909654330230,1,1,3,3,3,25,-6,-9
1537909654338208,-7,-3,-3,-2,-8,-25,-5,-15
1537909654338208,-3,-3,1,0,-1,-3,8,14
1537909654353168,3,-2,-1,1,0,-3,0,6
1537909654353168,2,-5,-1,-1,-3,-3,-10,-5
1537909654354166,-4,-4,-2,0,0,-1,6,-15
1537909654354166,2,0,1,1,1,-8,8,9
1537909654377104,2,-2,2,2,1,8,-6,5
1537909654377104,2,-3,-2,-3,-4,-8,-4,-6
1537909654377104,-4,0,2,9,1,-1,1,-12
1537909654377104,5,-2,-2,15,11,9,3,13
1537909654391067,0,-2,1,-43,-17,1,-3,3
1537909654391067,-8,-4,14,57,9,-6,-8,-10
1537909654392065,-3,6,26,-94,-26,-5,1,-7
1537909654392065,4,-4,-84,56,22,4,7,11
1537909654413009,1,13,43,-35,18,9,1,4
1537909654413009,-3,-10,-60,-51,-72,-28,-8,-9
1537909654414006,4,17,64,71,18,8,4,1
1537909654414006,2,-1,12,-18,-17,-6,-1,5
1537909654436946,-5,-14,-13,65,22,3,-2,-2
1537909654436946,5,-11,1,-8,27,15,-2,0
1537909654437944,-2,36,37,12,-11,-2,-3,-8
1537909654437944,-2,-11,-37,-10,2,-1,4,5
1537909654449912,5,43,42,12,1,-4,-1,2
1537909654449912,-12,-32,16,-83,-38,-8,-5,-5
1537909654458890,-2,-21,-102,83,23,1,4,-2
1537909654458890,-3,-44,-6,-26,3,1,1,3
1537909654473847,16,13,-78,20,-4,2,7,10
1537909654473847,1,67,-59,36,36,13,0,-2
1537909654473847,-7,-19,75,-43,-30,-20,-9,-9
1537909654473847,7,61,-19,11,-15,-5,-1,2
1537909654496786,-11,-82,55,34,9,4,-2,-2
1537909654496786,2,-55,25,30,31,11,7,4
1537909654497784,0,6,-107,-2,10,8,-1,-2
1537909654497784,-13,-22,81,-49,-18,-7,-10,-8
1537909654520721,8,2,-117,-38,-24,-13,3,0
1537909654520721,2,13,81,15,7,-1,3,2
1537909654521719,-6,-35,-29,-32,4,10,3,-1
1537909654521719,9,31,70,19,7,1,2,7
1537909654532688,-12,-27,28,-32,-11,-6,-12,-10
1537909654532688,9,42,102,47,16,3,-5,-3
1537909654541665,-7,-29,-77,-5,-5,-6,3,-3
1537909654541665,-1,-10,-74,56,8,3,0,0
1537909654556624,-5,6,101,-36,-15,-6,-8,-4
1537909654556624,13,25,40,23,4,-1,3,3
1537909654558619,-14,-19,17,-47,-11,-4,-13,-11
1537909654558619,7,22,90,44,15,3,11,6
1537909654570587,8,16,17,4,4,5,7,9
1537909654570587,1,1,45,23,2,0,1,2
1537909654579563,4,18,-16,3,4,3,0,1
1537909654579563,-19,-43,-82,-37,-11,-7,-16,-13
1537909654593526,3,36,-125,-9,11,4,6,6
1537909654593526,-6,2,50,-4,-11,-9,-5,-6
1537909654594524,4,-1,12,4,5,2,6,4
1537909654594524,2,1,29,-21,0,-1,-1,2
1537909654616465,-7,8,39,20,-4,-5,-6,-6
1537909654616465,-5,-25,-128,-23,-2,2,1,1
1537909654617463,0,21,-55,-15,1,0,1,-1
1537909654617463,-4,-24,6,-32,-12,-4,-3,-2
1537909654630429,-2,-11,-3,21,5,2,-1,-2
1537909654630429,-1,3,-24,-8,-4,-1,2,0
1537909654639405,3,-1,6,-9,-2,-3,-2,-1
1537909654639405,6,24,51,12,-4,-2,-3,0
1537909654652370,0,-19,49,37,10,3,4,2
1537909654652370,3,-12,-57,-13,-1,1,1,2
1537909654661346,2,34,82,15,0,-2,0,-1
1537909654661346,-4,-5,-27,1,-1,1,0,0
1537909654676307,-2,-12,-11,-5,-5,-3,-4,-1
1537909654676307,-1,-5,-28,-19,-5,-2,-2,-2
1537909654678302,0,4,30,9,0,-2,2,1
1537909654678302,-2,-3,11,2,0,0,0,-2
1537909654690268,-1,15,-1,-11,-3,-1,-1,-2
1537909654690268,2,6,21,18,2,0,3,2
1537909654699246,-7,-23,-56,-22,-5,-2,-4,-4
1537909654699246,2,5,3,3,3,2,3,2
1537909654713208,1,2,-4,6,1,1,1,1
1537909654713208,-6,-21,-48,-36,-9,-6,-4,-3
1537909654722185,3,-1,19,11,2,1,0,0
1537909654722185,-1,20,21,-10,-2,-2,-1,0
1537909654736145,-3,-12,-11,1,-2,1,-2,-3
1537909654736145,-2,-1,2,-4,-1,-1,-3,-3
1537909654738140,1,-3,31,10,2,1,1,0
1537909654738140,1,1,-21,-6,-1,0,2,2
1537909654750108,-3,-4,-8,-13,-5,-4,-1,-1
1537909654750108,-1,0,8,2,1,-1,-3,-1
1537909654759084,1,0,9,11,3,2,1,3
1537909654759084,0,-5,-9,-15,-7,-7,-2,-1
1537909654773046,-1,5,-7,-2,1,0,-3,-4
1537909654773046,-6,-5,7,2,0,1,-1,-26
1537909654780027,11,4,3,2,-3,0,8,26
1537909654780027,-4,-5,-6,-4,1,3,-4,5
1537909654796983,-8,-2,5,-1,2,45,29,19
1537909654796983,6,7,-2,6,-1,-23,19,-20
1537909654797980,-17,-11,4,-1,0,-21,-36,-50
1537909654797980,24,0,-3,-5,-3,-14,1,93
1537909654818925,-14,0,-2,-2,-6,-21,23,-70
1537909654818925,-26,-5,-3,-9,-1,13,-86,-75
1537909654820920,16,3,5,7,3,78,88,79
1537909654820920,-5,1,3,1,-7,-89,-9,29
1537909654833885,-23,-10,-16,-19,-8,7,-96,-99
1537909654833885,2,5,-2,-10,-13,-113,-12,40
1537909654847848,6,14,9,5,12,91,-57,-4
1537909654847848,3,-3,-1,10,11,22,48,-26
1537909654856824,18,0,6,10,2,1,127,-1
1537909654856824,-21,-6,-1,0,3,-13,-36,-55
1537909654857822,-13,-15,-17,-22,-24,-91,-108,5
1537909654857822,9,9,-3,-5,1,38,2,17
1537909654879762,5,-2,1,10,11,72,21,41
1537909654879762,14,-3,4,4,6,28,79,23
1537909654880761,-16,-4,-3,-3,-6,-80,14,-35
1537909654880761,4,2,-4,-7,-2,63,2,-23
1537909654892728,7,4,3,-3,-4,-54,-41,39
1537909654892728,4,0,-2,-1,-2,52,27,17
1537909654901706,3,-5,10,12,9,18,28,10
1537909654901706,-12,-2,-7,-5,-7,-40,-32,-35
1537909654916666,4,4,-2,-4,-2,-5,-17,19
1537909654916666,8,1,-1,2,0,3,6,32
1537909654917661,-5,-2,6,7,4,-8,2,-27
1537909654917661,-5,-5,-2,-2,1,14,-6,-7
1537909654939601,3,2,-2,-4,-5,-19,-17,13
1537909654939601,0,0,-2,-3,0,7,-10,2
1537909654940599,1,-6,0,-1,2,7,10,0
1537909654940599,-3,-3,-3,-3,-1,-1,5,-17
1537909654952566,0,-1,-1,-1,3,-10,-16,16
1537909654952566,3,0,-2,-2,-1,5,-7,12
1537909654961543,2,4,2,0,1,3,14,-3
1537909654961543,-4,-3,-1,-2,0,-5,-5,-8
1537909654976502,-3,0,-1,0,-1,-9,-13,-2
1537909654976502,2,-2,0,-2,-1,14,4,21
1537909654978497,2,0,-3,-1,-2,-1,3,-11
1537909654978497,-4,-3,-2,-1,-2,-3,-7,-16
1537909654999441,3,-1,-1,-1,-4,-3,-12,7
1537909654999441,2,0,0,0,-1,7,5,2
1537909655000438,2,1,-2,-3,-4,-1,4,3
1537909655000438,-5,-5,-2,-1,-1,0,-5,-6
1537909655012406,2,3,-1,-1,-2,-4,-3,2
1537909655012406,1,-1,-1,3,0,4,1,8
1537909655021382,0,0,-1,-1,-6,-2,1,-5
1537909655021382,-1,1,-1,1,-3,0,-3,-3
1537909655036343,-1,1,0,0,-2,-4,-2,3
1537909655036343,-1,1,-1,1,-4,0,-3,-2
1537909655042326,-3,-2,1,-1,-3,-1,3,-1
1537909655042326,-4,1,-3,0,1,3,1,-5
1537909655059281,-3,-2,-1,-4,-4,-8,-7,2
1537909655059281,-4,-3,1,-2,-3,-1,-3,0
1537909655060278,-2,-3,2,1,1,-2,3,0
1537909655060278,-3,-3,1,-1,1,-1,-3,-1
1537909655073243,-1,-1,-1,1,0,-2,-2,-1
1537909655073243,1,-2,-2,-1,0,2,-1,3
1537909655081222,2,1,0,0,2,-2,1,1
1537909655081222,-1,-2,-3,-1,0,-2,-1,-4
1537909655096182,-1,0,-1,-1,2,2,-2,2
1537909655096182,-3,-2,0,0,-1,-1,-3,-3
1537909655103164,0,0,-1,1,-1,-2,-1,0
1537909655103164,-4,-1,4,9,2,2,-3,-3
1537909655119122,-1,0,0,-3,3,2,-1,1
1537909655119122,-1,-3,-3,-22,-17,-7,-3,0
1537909655120119,0,-2,-4,3,4,1,2,1
1537909655120119,-1,2,2,-3,-5,-1,-1,-2
1537909655133084,-1,-4,-1,10,2,-2,-3,-1
1537909655133084,-2,-3,0,17,12,3,1,1
1537909655149041,3,1,-4,15,2,2,3,2
1537909655149041,-2,-6,0,13,4,-2,0,-3
1537909655157020,0,10,-23,-34,-5,1,-2,0
1537909655157020,1,-7,34,-65,-19,-2,-1,1
1537909655158017,-6,-18,-43,23,-1,-7,-4,-3
1537909655158017,0,-3,19,-35,-10,-2,-3,0
1537909655178961,-4,-42,-2,83,28,9,1,0
1537909655178961,15,73,-30,-69,-21,0,0,7
1537909655180956,-10,5,19,27,13,1,-4,-7
1537909655180956,1,-26,-4,-17,-25,-2,5,2
1537909655192926,4,4,0,36,11,1,5,7
1537909655192926,-11,-56,-40,62,21,7,-1,-4
1537909655201902,-8,-14,-94,-95,-77,-20,-13,-9
1537909655201902,5,82,63,99,24,2,2,1
1537909655216861,5,-20,35,-29,-9,-1,4,7
1537909655216861,4,-5,-7,69,19,3,1,4
1537909655217858,-1,-25,125,36,29,12,-1,-2
1537909655217858,-20,-40,-78,15,33,7,-4,-10
1537909655238802,6,38,84,-59,-37,-15,-6,-1
1537909655238802,9,3,-32,70,19,6,12,7
1537909655240799,3,-21,-86,-58,-13,-7,2,4
1537909655240799,-4,2,42,0,-6,0,-11,-7
1537909655252766,-15,17,84,-9,7,-2,-9,-14
1537909655252766,-11,-71,-85,-32,-17,-7,-1,-7
1537909655261743,17,11,82,23,5,3,8,7
1537909655261743,8,-8,-53,-72,-24,-5,0,5
1537909655276700,-9,-40,-20,15,-4,1,-1,-1
1537909655276700,5,70,-73,6,-1,-7,-7,-4
1537909655277698,3,37,-39,21,11,4,5,1
1537909655277698,4,9,120,-9,-5,-3,-5,-1
1537909655299638,-1,-5,-128,-45,-9,-2,-4,-2
1537909655299638,-2,13,12,33,9,4,-1,-1
1537909655300636,-10,-27,-45,-8,2,1,1,-2
1537909655300636,5,25,-10,-7,6,4,4,3
1537909655312604,-2,-13,-6,35,-1,-3,1,-1
1537909655312604,-1,17,-53,-24,-4,-4,1,1
1537909655321580,2,20,99,10,9,4,0,2
1537909655321580,-9,-26,-62,-1,-5,-2,-3,-5
1537909655336540,-1,3,-22,0,4,1,2,0
1537909655336540,-8,-9,82,-24,-1,-2,-8,-5
1537909655338534,0,-11,-8,-5,-3,-1,-3,-2
1537909655338534,8,22,-102,13,11,2,10,6
1537909655359478,-3,16,63,9,-8,-6,-5,-5
1537909655359478,-3,-32,-53,-13,2,2,2,1
1537909655360476,-1,-6,-49,8,2,1,4,3
1537909655360476,-4,-19,16,5,-7,-5,-4,-2
1537909655374439,8,23,42,-11,-3,2,2,3
1537909655374439,0,5,78,9,-4,-3,-4,-2
1537909655381420,-1,6,-2,-6,-3,-3,-3,-3
1537909655381420,-2,-15,-8,-14,-3,-2,-2,-1
1537909655396380,-10,1,26,-28,-7,-3,-8,-8
1537909655396380,14,13,80,53,14,7,10,10
1537909655402364,3,9,56,2,2,1,4,3
1537909655402364,0,-3,5,-8,-4,-3,-1,-1
1537909655419320,0,6,15,12,2,-2,-2,-1
1537909655419320,-8,-11,41,-12,-5,-4,-5,-4
1537909655420317,-2,1,-47,-8,0,0,0,-3
1537909655420317,1,7,31,20,0,0,0,-1
1537909655432284,1,-12,-45,3,3,-1,0,0
1537909655432284,-1,-4,-14,-21,-6,-2,-1,-1
1537909655441262,1,9,-4,8,0,-1,-1,-1
1537909655441262,-3,-7,-9,-12,-5,-2,-3,-4
1537909655456220,1,0,-23,8,4,3,2,0
1537909655456220,1,-1,-9,-13,-5,-3,-2,2
1537909655458215,-2,4,19,5,0,-2,-3,-3
1537909655458215,-2,-7,16,7,1,-1,0,-2
1537909655479158,2,0,-32,-2,-1,1,1,0
1537909655479158,-4,9,27,1,-4,-2,-1,-3
1537909655480156,-1,10,2,0,0,1,0,-1
1537909655480156,-1,-24,-7,-7,0,0,0,0
1537909655493121,1,17,-42,-6,-2,-2,-1,0
1537909655493121,-8,-25,-25,-21,-4,-1,-4,-6
1537909655502098,4,8,66,26,6,2,3,2
1537909655502098,0,6,6,1,2,2,0,2
1537909655517058,-3,27,56,-7,-5,-5,-3,-3
1537909655517058,3,5,-27,14,7,1,1,0
1537909655518055,-8,-34,-98,-24,-2,0,-2,-2
1537909655518055,11,43,123,29,-4,0,1,4
1537909655538999,-2,-12,-9,-3,2,1,1,1
1537909655538999,-2,5,13,-8,-7,-5,-4,-5
1537909655540995,1,17,9,5,6,-1,-3,-1
1537909655540995,-1,-27,-61,-5,-4,0,1,-1
1537909655552962,1,3,-12,1,-1,0,0,-1
1537909655552962,-5,-11,17,1,-4,-2,-2,-1
1537909655561938,2,24,-17,-4,-4,-1,-1,2
1537909655561938,-4,-13,-10,-8,-1,0,-1,-2
1537909655575900,3,-5,16,10,2,2,3,2
1537909655575900,-1,-16,-2,-6,0,1,0,-1
1537909655582881,-4,-10,0,-6,-5,-2,-3,-3
1537909655582881,0,9,12,11,2,-1,-1,0
1537909655598839,-1,-8,-5,-3,3,2,-2,1
1537909655598839,0,5,21,-14,-6,-1,2,1
1537909655600833,3,-4,12,14,1,-1,0,0
