timestamp,emg1,emg2,emg3,emg4,emg5,emg6,emg7,emg8
1537907954524113,0,-1,-21,-8,-2,-1,-1,0
1537907954524113,-1,-6,0,2,0,-2,-2,-1
1537907954525110,-3,3,30,6,-3,-3,-2,-4
1537907954525110,2,6,-56,-2,2,-1,0,3
1537907954525110,2,-4,6,-11,0,0,0,1
1537907954525110,-1,8,-8,2,-1,-1,1,0
1537907954526108,1,3,23,-2,0,-2,-2,0
1537907954526108,-1,4,3,-1,-5,0,-1,-2
1537907954536081,-3,-2,12,5,2,0,-1,-2
1537907954536081,1,-2,-12,-8,-1,0,1,2
1537907954547052,0,-5,-1,8,1,-3,-2,-2
1537907954547052,-1,-6,3,-4,0,-1,0,-2
1537907954551043,1,-1,-6,-2,-3,-1,-1,-2
1537907954551043,-1,2,11,0,1,2,-1,-1
1537907954566999,-1,-3,-6,-4,-2,1,1,1
1537907954566999,-4,-6,29,2,0,0,-1,0
1537907954575976,1,4,-40,-1,2,0,-1,0
1537907954575976,-2,-4,3,5,0,-5,-2,0
1537907954589938,0,-1,-15,-4,1,-1,-2,0
1537907954589938,-1,-1,30,3,-2,-1,-2,-2
1537907954597917,-1,9,23,8,-3,-1,-1,-1
1537907954597917,1,-12,-58,-21,-4,-1,1,0
1537907954610882,-1,-4,-13,-2,0,1,-1,1
1537907954610882,1,4,6,1,-1,-1,-1,-1
1537907954652770,2,-4,-8,-7,0,-2,0,-1
1537907954652770,-2,-13,-7,-5,-1,-1,-2,0
1537907954653768,0,-4,1,-3,-2,-3,0,-1
1537907954653768,-2,2,0,-3,3,1,0,0
1537907954656759,-2,2,14,11,1,-2,0,1
1537907954656759,-6,-31,-16,-13,-4,-2,-3,-3
1537907954657757,3,52,1,-11,-9,-2,0,0
1537907954657757,0,-9,-19,-3,1,-1,0,1
1537907954664739,-2,-5,11,4,1,1,0,-1
1537907954664739,-1,17,49,2,-2,-1,1,-1
1537907954679698,-3,-17,-52,6,2,-1,-1,0
1537907954679698,-1,-3,-2,-6,-2,-1,-2,0
1537907954686680,1,5,13,3,-1,-1,0,1
1537907954686680,1,6,13,3,1,2,0,0
1537907954693661,4,7,17,11,1,-1,1,0
1537907954693661,-3,-12,-33,-8,-3,-3,-1,-2
1537907954701639,1,-4,-17,-13,-2,1,-2,0
1537907954701639,1,4,-6,2,1,1,0,-1
1537907954725574,-2,-5,17,-1,-1,-2,-1,-2
1537907954725574,-3,5,13,10,0,0,-1,-2
1537907954725574,0,-1,-8,-8,-3,-4,-1,-1
1537907954725574,2,-4,6,-5,-1,-1,-1,0
1537907954739537,-1,4,-25,-7,2,1,-2,0
1537907954739537,-1,-3,19,10,0,0,-1,-1
1537907954740534,-3,2,3,-2,-1,0,-1,-4
1537907954740534,1,3,-44,-4,2,-1,0,1
1537907954762476,-3,-33,8,6,2,0,-3,-1
1537907954762476,1,16,28,5,-3,-1,0,1
1537907954763474,0,-9,21,7,3,-1,-1,0
1537907954763474,2,18,-35,-3,-7,-5,-2,-2
1537907954785415,-3,-9,2,-12,-2,0,0,-2
1537907954785415,0,-1,-6,-8,-3,-2,-2,-2
1537907954785415,-3,-8,14,9,0,1,0,-2
1537907954785415,0,18,40,7,1,0,0,0
1537907954799377,1,-11,-46,-2,1,1,-1,1
1537907954799377,-2,7,10,-8,-2,-1,-2,0
1537907954800375,-5,-32,-22,-3,-1,-1,0,-1
1537907954800375,-2,-11,12,4,-1,-2,-3,-2
1537907954822316,1,8,1,-11,-2,-2,0,0
1537907954822316,1,0,10,11,-1,-1,0,-1
1537907954823314,3,9,-31,-13,-2,-2,-3,0
1537907954823314,-5,-8,-14,6,0,0,-1,-2
1537907954845255,2,-2,33,5,4,2,-1,-2
1537907954845255,0,-2,-25,-6,-7,-3,0,0
1537907954846253,1,16,4,2,-2,-2,0,0
1537907954846253,-1,-8,-2,1,0,1,0,1
1537907954867197,-2,3,9,1,3,1,0,0
1537907954867197,1,-2,-3,-13,2,0,-1,-2
1537907954868196,-3,-6,18,4,-9,-6,-1,-2
1537907954868196,3,3,-26,0,0,0,0,-1
1537907954882155,1,-6,30,5,-3,1,-2,0
1537907954882155,-1,-2,-40,-4,0,1,-1,1
1537907954883153,-3,-2,-15,-6,3,2,-1,-2
1537907954883153,-3,-4,12,-2,-1,-2,-1,-2
1537907954905094,1,16,3,0,-4,-2,0,0
1537907954905094,-5,-17,23,3,-2,-1,-2,-2
1537907954906092,2,0,-28,-1,2,2,-1,1
1537907954906092,0,-1,-8,-13,-4,-1,0,0
1537907954919057,-1,-9,-13,10,2,-2,-1,-1
1537907954919057,1,24,26,-1,-3,-2,-1,-1
1537907954920054,-2,2,5,-6,-4,-2,-1,-2
1537907954920054,1,3,-37,-7,3,2,-1,0
1537907954942993,-4,2,1,-2,2,1,-1,-1
1537907954942993,-1,-7,29,7,-2,-2,-1,-4
1537907954943990,2,9,-15,1,-5,-3,-1,-1
1537907954943990,1,12,5,-2,0,1,-1,1
1537907954972913,-2,-10,11,4,1,-1,1,0
1537907954972913,-1,-7,-6,-5,-1,2,-1,0
1537907954972913,-2,-9,-8,-2,-1,0,-1,-1
1537907954972913,0,10,16,4,-1,-2,1,-2
1537907954978897,2,12,-6,-1,-3,-1,0,-1
1537907954978897,0,0,-8,0,3,-1,0,0
1537907954979895,-3,-10,7,-2,-1,-1,0,-1
1537907954979895,0,-7,1,-2,-2,-2,-1,0
1537907955002834,-2,-3,4,-3,0,0,-1,-1
1537907955002834,1,0,-5,1,-1,-1,0,-1
1537907955002834,3,-6,-9,-4,0,0,-2,0
1537907955002834,-1,23,16,4,1,-2,-1,-1
1537907955024776,-2,7,41,-2,-5,-2,-1,-4
1537907955024776,0,-19,-81,-7,1,-1,-1,2
1537907955025774,-3,14,25,1,2,0,-1,0
1537907955025774,-2,-18,0,7,1,0,-2,0
1537907955039736,0,11,7,-8,-2,-2,-1,-2
1537907955039736,-4,-22,20,7,2,1,0,-1
1537907955039736,8,52,13,-6,-3,-2,-1,0
1537907955039736,0,5,-15,2,0,0,0,-2
1537907955062675,-4,-39,0,-4,-2,0,-1,0
1537907955062675,3,35,11,-4,0,0,-1,-2
1537907955063672,-7,-24,-12,5,0,0,0,-1
1537907955063672,-1,-3,13,-2,-3,-2,-1,-3
1537907955092594,3,26,-18,2,0,0,-1,-1
1537907955092594,0,-12,-7,0,1,1,0,-2
1537907955093592,-4,15,-10,-5,-4,0,-3,-1
1537907955093592,-5,-58,22,-3,-2,-2,-1,-3
1537907955098578,4,62,-23,1,3,1,0,-2
1537907955098578,2,4,-10,-3,-1,-1,2,6
1537907955106556,-8,-33,20,1,0,-1,-3,-32
1537907955106556,4,37,-13,-2,0,0,0,20
1537907955122513,6,-15,13,-3,-5,-4,-2,2
1537907955122513,-9,-9,4,-3,-3,-4,-3,-4
1537907955123510,4,3,13,3,5,3,3,2
1537907955123510,-6,-31,-12,-1,-2,-4,-2,-8
1537907955145452,-2,-8,-11,2,-1,0,1,-1
1537907955145452,3,17,19,5,0,0,-1,2
1537907955146449,0,-12,10,4,1,1,0,4
1537907955146449,0,5,19,-6,-2,-1,-4,-5
1537907955158417,1,-5,-5,-2,4,3,2,5
1537907955158417,0,-14,-9,-17,-15,-8,-5,-5
1537907955167393,0,1,-40,-13,-8,-4,-1,3
1537907955167393,0,14,33,15,1,0,-1,-1
1537907955181356,-4,-14,-31,0,2,-1,-2,-3
1537907955181356,3,14,22,13,10,6,4,2
1537907955190332,2,20,-10,3,4,0,0,4
1537907955190332,4,6,-15,-9,-2,0,1,-1
1537907955205292,-5,-15,12,4,-2,-1,-2,-2
1537907955205292,-2,3,-14,-2,-1,0,-2,-1
1537907955206289,-1,-8,41,1,-4,0,-1,-4
1537907955206289,-3,-24,-47,-10,3,1,-1,-3
1537907955218258,2,10,16,2,-6,-4,0,5
1537907955218258,-6,-35,-28,-5,-2,-2,-2,-6
1537907955227234,-3,-1,42,8,-3,-2,-1,-4
1537907955227234,3,-5,-25,-3,1,3,3,4
1537907955241197,-5,-8,-14,-4,-1,-2,-4,-26
1537907955241197,2,3,19,-3,-1,-1,0,26
1537907955250173,-2,-10,-26,-3,-1,-3,0,5
1537907955250173,0,-4,21,6,0,-1,0,-3
1537907955265133,0,9,-7,-8,-1,0,-1,0
1537907955265133,0,0,-2,-1,-2,-2,-3,-9
1537907955266131,-4,-10,-4,4,3,1,-2,-3
1537907955266131,10,4,-3,-1,-3,-2,0,4
1537907955279095,-4,-4,13,33,8,2,2,3
1537907955279095,-1,-15,-7,-32,-12,-4,-1,-9
1537907955295056,-1,-6,-12,-5,-1,-1,0,7
1537907955295056,-6,-14,7,-1,-3,-4,-4,-7
1537907955302035,-1,11,-18,6,2,0,0,2
1537907955302035,-2,-2,-29,12,8,3,1,-3
1537907955315997,1,12,55,-3,-4,-1,0,-1
1537907955315997,-1,4,-6,-3,-5,-3,-2,-3
1537907955332951,4,15,-29,12,3,1,0,3
1537907955332951,-1,-8,-12,-7,3,0,1,0
1537907955333948,3,19,-24,-7,0,-2,1,3
1537907955333948,-10,-16,20,7,0,-1,0,-1
1537907955338934,0,-23,15,-11,-5,-2,-2,5
1537907955338934,1,11,-12,5,-1,0,-1,0
1537907955354892,2,-3,14,9,6,1,-2,2
1537907955354892,-2,7,0,-5,-4,-3,-2,-6
1537907955361873,-2,4,13,-10,-4,-1,-1,-1
1537907955361873,-7,-19,-9,1,-1,0,-2,-6
1537907955368854,-4,-21,-6,-3,0,-1,-2,-19
1537907955368854,6,15,-15,5,1,2,3,28
1537907955384812,-1,-13,1,-17,-1,-2,-1,6
1537907955384812,0,1,8,-8,-4,0,0,-3
1537907955386807,1,5,14,13,0,1,1,-1
1537907955386807,-6,-1,-6,-13,-3,-1,-2,-12
1537907955398775,2,-3,-22,-1,4,2,1,1
1537907955398775,1,25,37,14,1,-2,-1,3
1537907955407751,-1,1,-42,-14,-2,0,-1,1
1537907955407751,-1,0,46,2,0,0,0,-5
1537907955421713,-7,-35,-6,-4,-4,-2,-2,-2
1537907955421713,-1,22,4,16,5,1,1,-3
1537907955428695,2,-7,-36,-14,-4,-2,-1,4
1537907955428695,-2,10,14,0,-3,-4,-1,-5
1537907955444652,-4,-7,4,-3,-3,-3,-2,-6
1537907955444652,-2,-32,-4,6,1,0,-1,0
1537907955446648,-3,-1,-14,1,-1,-2,-2,0
1537907955446648,1,11,23,1,1,3,3,8
1537907955467591,0,-8,-2,-1,1,-1,-4,-9
1537907955467591,3,10,20,-2,-4,0,-2,-2
1537907955468588,0,-18,-23,-2,0,-1,0,4
1537907955468588,-1,6,-27,0,1,0,-2,-8
1537907955482551,1,-5,37,7,-1,-1,1,2
1537907955482551,0,6,20,2,1,-2,1,1
1537907955483548,-2,1,-3,5,1,0,0,-1
1537907955483548,-5,-6,-33,-4,2,-1,0,-3
1537907955505490,-1,0,-2,-7,-6,-2,-1,-2
1537907955505490,3,20,10,-5,-3,-2,-2,-1
1537907955506487,-4,-2,11,4,3,1,0,-1
1537907955506487,0,-5,-1,0,-2,-1,-1,-3
1537907955527431,2,32,0,-6,-4,-1,-1,0
1537907955527431,-3,-13,-24,-5,-1,0,0,11
1537907955529426,-1,-7,6,5,0,0,0,7
1537907955529426,-1,-2,18,4,1,1,-1,-4
1537907955542391,2,20,-46,-12,-3,-2,-1,2
1537907955542391,-7,-13,6,2,-1,-1,0,-11
1537907955544386,0,-1,43,6,1,0,0,0
1537907955544386,0,-3,-38,-7,0,-2,-1,0
1537907955565330,-2,2,27,-1,-1,-2,-1,-4
1537907955565330,0,-2,-19,16,3,-1,1,-2
1537907955566328,-1,-2,-7,-27,-9,-2,-1,-1
1537907955566328,-2,-3,17,-14,-4,-1,-3,-5
1537907955587273,-3,-16,-9,-11,-3,-2,-1,-4
1537907955587273,-1,2,-2,7,1,0,-3,-2
1537907955589268,4,4,2,8,4,2,0,8
1537907955589268,0,-7,-4,6,3,0,-4,-9
1537907955602232,-4,-4,-4,1,-1,0,-1,-1
1537907955602232,1,0,13,-4,-3,-3,-2,0
1537907955604228,4,10,-20,1,2,-1,-1,-3
1537907955604228,-6,-15,3,4,0,-1,0,3
1537907955624173,6,14,1,6,1,1,1,2
1537907955624173,-7,-21,43,-4,-3,-1,-2,-4
1537907955633149,1,19,-65,-10,-4,-2,-3,-2
1537907955633149,8,33,28,4,2,1,1,5
1537907955647112,-3,-15,10,4,0,-3,0,0
1537907955647112,-1,11,19,-5,-2,0,-2,0
1537907955649112,-3,-36,-39,0,-1,-1,0,-5
1537907955649112,2,8,-11,-4,-4,0,0,-1
1537907955670051,-2,3,28,2,0,0,1,0
1537907955670051,3,-4,-8,-3,1,-1,0,4
1537907955671048,-6,-7,1,-5,-4,-2,-1,-3
1537907955671048,0,-3,2,0,-1,-1,-1,-2
1537907955684013,-6,-24,-8,-7,-3,-2,-1,-1
1537907955684013,2,17,-13,-4,-1,0,1,-2
1537907955699971,-1,0,23,6,-1,1,-3,-2
1537907955699971,1,0,-34,1,1,0,1,-1
1537907955707949,-2,3,6,-2,-2,-1,-1,1
1537907955707949,-3,1,-18,17,6,0,-3,-21
1537907955713934,1,-3,31,-31,-8,-3,-1,9
1537907955713934,-5,-3,-10,-4,-6,-3,-1,-1
1537907955737869,1,-2,-22,-4,-1,-1,0,3
1537907955737869,-1,4,-23,-6,-3,-1,-2,-3
1537907955738866,-1,1,-3,14,8,1,1,-6
1537907955738866,2,24,13,3,1,0,0,0
1537907955743853,-1,-31,0,0,-1,1,-2,-4
1537907955743853,0,-15,23,-1,0,1,-1,7
1537907955752829,1,14,-4,4,-2,0,1,-1
1537907955752829,-2,-22,-2,-3,1,1,0,2
1537907955767788,3,21,0,5,0,0,0,0
1537907955767788,-2,-20,-6,-6,-3,-3,0,2
1537907955768786,2,12,6,3,0,-1,-1,0
1537907955768786,-6,-17,-3,0,0,-1,-1,-6
1537907955789730,1,17,1,1,-1,-2,-3,-4
1537907955789730,3,5,-14,-10,-1,-1,0,3
1537907955791725,-3,-3,9,6,-1,-1,-2,-3
1537907955791725,0,5,11,1,0,-1,1,1
1537907955803693,0,17,-29,-3,2,0,0,0
1537907955803693,-3,1,31,0,-3,-1,-2,0
1537907955812669,-3,11,3,2,-1,-1,-2,-2
1537907955812669,1,-15,4,5,-1,1,-1,2
1537907955827628,-2,2,-23,-12,-4,-1,2,1
1537907955827628,1,7,-3,-6,-1,1,0,0
1537907955828626,0,-7,4,-2,-1,0,-2,0
1537907955828626,-3,10,-21,0,-1,-2,-1,1
1537907955849570,0,-14,83,18,4,0,1,-2
1537907955849570,1,8,-47,-23,-1,1,0,2
1537907955851564,-3,-2,-18,-12,-8,-4,-1,-3
1537907955851564,-2,-24,11,-2,-3,-1,0,1
1537907955872508,-3,-1,-16,0,-3,0,-2,0
1537907955872508,-2,-4,36,14,3,1,1,1
1537907955873506,0,5,-10,6,4,2,2,4
1537907955873506,-3,-16,-8,-6,-3,-2,-3,-6
1537907955887468,-5,-14,-13,-3,2,1,0,-4
1537907955887468,-2,6,-5,-6,-2,-2,0,-3
1537907955889463,-1,1,11,1,-2,-1,0,-3
1537907955889463,1,12,2,1,-1,-1,0,0
1537907955910407,-1,-3,-12,2,0,-1,-2,-1
1537907955910407,-2,1,-3,-3,-2,0,-2,-2
1537907955911405,0,-7,15,7,2,0,2,3
1537907955911405,1,3,0,-3,0,0,-1,0
1537907955923372,-3,3,-1,-5,-2,-2,-1,-13
1537907955923372,1,3,-6,2,-1,-1,0,6
1537907955932348,-1,3,0,1,1,-3,-2,-8
1537907955932348,-1,-7,13,-1,-1,-1,1,9
1537907955947308,-2,-2,-4,-7,-2,-1,-2,-5
1537907955947308,1,3,-1,6,-1,0,0,-2
1537907955949303,1,-8,1,-9,-3,1,1,0
1537907955949303,-2,5,-9,-6,-2,-2,-1,-10
1537907955970247,1,0,-9,3,1,0,0,5
1537907955970247,1,2,1,0,-1,0,0,-1
1537907955971244,-1,-9,-2,0,-3,-1,-3,2
1537907955971244,-3,13,2,8,2,-1,0,-6
1537907955992188,0,3,4,9,1,1,0,3
1537907955992188,-3,-33,-7,-26,-6,-3,-2,0
1537907955994183,3,34,19,8,0,-1,-1,-4
1537907955994183,2,3,-10,-5,1,-1,0,0
1537907956007148,-3,-21,-25,3,4,-1,-3,2
1537907956007148,0,4,-10,-7,-11,-3,-1,-5
1537907956009144,-3,-26,9,-1,1,1,0,-2
1537907956009144,1,27,1,2,0,0,-2,0
1537907956030088,-2,9,46,0,-2,-2,-2,2
1537907956030088,0,6,-37,2,2,0,2,5
1537907956031086,-2,-10,-22,-9,-3,-2,-4,-10
1537907956031086,1,5,18,7,-2,-1,0,1
1537907956053026,0,-5,-16,-10,0,-1,-1,-1
1537907956053026,0,11,32,5,1,-1,-1,-5
1537907956054025,1,7,1,2,-1,0,0,4
1537907956054025,-3,-6,-9,-3,2,1,-1,-1
1537907956067986,3,7,-1,-3,-5,1,0,1
1537907956067986,-3,-12,-3,3,1,0,0,0
1537907956068985,2,7,-4,2,1,-1,-2,1
1537907956068985,-4,-20,-10,-10,-3,-3,0,-2
1537907956089928,0,5,11,0,-3,-1,0,1
1537907956089928,0,19,10,7,2,-1,1,0
1537907956091923,0,-3,14,3,1,0,1,1
1537907956091923,-3,-3,-33,-7,-3,0,-1,-21
1537907956112869,3,-18,4,-1,-1,-1,0,26
1537907956112869,0,-3,-3,7,2,0,-1,1
1537907956113865,-3,-3,1,14,0,0,-1,-3
1537907956113865,1,11,24,3,5,3,0,-1
1537907956127827,-5,-14,-34,-24,-11,-5,-1,-10
1537907956127827,1,4,-6,0,1,-3,-1,-4
1537907956128824,0,-13,-9,-6,-1,-1,1,4
1537907956128824,1,22,7,12,0,-2,-1,3
1537907956149767,-2,-14,7,2,4,1,0,-5
1537907956149767,0,0,-10,2,-2,-2,-3,2
1537907956155751,4,24,-1,0,-2,0,0,-4
1537907956155751,-1,-32,-2,1,-1,0,-2,4
1537907956172706,0,7,0,1,-1,0,-1,-5
1537907956172706,-4,-6,-1,-2,-1,-1,-2,-3
1537907956173704,-1,0,7,-8,-2,-3,0,-1
1537907956173704,2,7,-16,-4,-3,-2,1,3
1537907956186669,1,12,-3,0,0,1,1,-1
1537907956186669,1,-13,2,1,-1,-2,-1,-1
1537907956193650,-1,-1,-15,-1,-3,-2,2,6
1537907956193650,-4,-6,11,-8,-3,-2,-3,-3
1537907956209608,-3,1,-15,3,0,-1,-1,-4
1537907956209608,-1,-4,-5,1,-2,-2,-2,-1
1537907956211603,1,21,12,-4,-1,-2,-2,0
1537907956211603,-4,-34,7,0,-4,-2,-1,3
1537907956232547,-3,11,-5,3,0,0,0,-3
1537907956232547,-3,2,7,-4,-1,0,-2,-2
1537907956233544,1,10,-12,-1,0,0,0,0
1537907956233544,0,-10,-1,-1,2,0,-1,2
1537907956246509,1,0,12,12,2,-1,0,-2
1537907956246509,0,-11,4,-16,-4,-2,0,-1
1537907956253491,-3,-16,-6,-7,-3,-2,0,0
1537907956253491,0,10,-15,-6,-1,-2,-2,0
1537907956270445,2,12,6,5,3,-2,0,0
1537907956270445,0,-9,-5,4,2,1,-1,0
1537907956271443,-2,-22,9,-2,-2,0,-2,-4
1537907956271443,0,4,3,-3,-3,-2,0,-2
1537907956292387,0,5,-10,-5,-5,-1,-1,0
1537907956292387,-3,21,1,7,2,2,0,-7
1537907956294382,3,-9,4,0,2,0,3,24
1537907956294382,0,14,-2,5,-4,-1,0,5
1537907956307346,-2,-7,3,-2,1,-1,-3,-5
1537907956307346,-2,-2,-4,-4,-1,-2,-1,3
1537907956313331,-2,-4,-5,-1,1,-1,-1,-10
1537907956313331,0,3,-15,-4,-1,0,0,-2
1537907956330285,3,3,28,4,1,1,0,6
1537907956330285,1,5,4,3,1,-2,0,-2
1537907956331283,-3,-17,-20,-4,-3,-2,-1,1
1537907956331283,0,2,9,5,-1,-3,-3,-5
1537907956360206,-2,-9,-11,-7,-4,-1,0,-5
1537907956360206,-1,-3,-4,-1,-1,0,-3,1
1537907956361203,-2,14,7,1,1,-2,-2,-7
1537907956361203,-2,-10,-11,-10,-2,0,0,2
1537907956367186,-4,-25,-23,-1,-3,-1,0,-2
1537907956367186,1,0,28,2,-1,1,0,2
1537907956381150,-1,-1,-10,10,2,0,-2,2
1537907956381150,-2,-10,9,-1,-2,-1,-1,-3
1537907956390125,0,24,3,-6,-2,-4,-2,-3
1537907956390125,-1,-5,-8,-6,-3,-2,0,1
1537907956391123,-2,2,-1,1,-3,-1,-1,-4
1537907956391123,-1,-9,3,6,1,1,0,-1
1537907956412066,-1,18,-11,2,2,0,0,-1
1537907956412066,1,-4,-8,-3,-3,-1,-1,1
1537907956414061,3,18,7,-3,1,0,-3,-4
1537907956414061,-1,7,-5,4,-2,-1,0,-1
1537907956427026,-3,-10,-3,-19,-2,-1,0,0
1537907956427026,0,-2,0,1,0,-1,-1,-5
1537907956434007,-5,-6,-2,-5,-2,-2,-1,-5
1537907956434007,-4,-4,-1,3,2,0,-1,-12
1537907956449965,2,-6,1,-1,0,-1,-2,7
1537907956449965,0,21,4,3,0,0,-2,-3
1537907956451960,0,-3,4,0,-1,0,2,9
1537907956451960,3,15,-9,-6,-1,0,-2,-10
1537907956472904,-2,-8,-2,5,-2,-2,-3,-2
1537907956472904,1,5,11,-2,-2,0,-1,1
1537907956473901,-2,1,-13,0,0,0,-4,-8
1537907956473901,0,9,7,-7,-2,-2,-1,4
1537907956485869,2,-4,-10,7,0,0,0,0
1537907956485869,-3,-17,-4,3,1,-1,-2,1
1537907956494845,0,8,9,-2,-1,0,-1,-1
1537907956494845,-1,-15,-9,-9,0,0,0,4
1537907956509805,-1,-3,14,2,-3,0,-3,-3
1537907956509805,1,34,-6,2,2,-1,0,-1
1537907956511799,0,7,5,0,-1,-1,0,-1
1537907956511799,0,0,-8,-4,-1,-2,2,4
1537907956532743,-2,-1,-1,3,-1,0,0,-4
1537907956532743,-3,-30,-8,-3,-2,0,0,-1
1537907956533741,0,1,20,7,1,-2,-1,-3
1537907956533741,0,-10,-11,2,2,1,2,3
1537907956545709,-2,3,14,-7,-5,-1,0,-2
1537907956545709,1,7,8,-2,-1,0,-1,-2
1537907956554685,-5,-15,-32,-10,-1,-2,-2,0
1537907956554685,-4,-16,33,6,1,-2,-2,-2
1537907956569644,2,3,-18,4,0,0,0,-1
1537907956569644,-2,-3,4,-5,-1,-3,-3,-25
1537907956571639,2,-1,5,4,-1,-2,0,21
1537907956571639,2,8,6,-1,0,0,1,8
1537907956592583,-2,-11,-2,-4,1,-1,-3,-4
1537907956592583,0,-3,20,-2,-2,-2,0,-1
1537907956593581,-1,-2,-27,4,0,0,-1,-10
1537907956593581,1,2,6,-2,-1,-1,-1,-2
1537907956606546,0,8,1,-7,-1,0,0,7
1537907956606546,0,-20,-8,0,0,1,-1,7
1537907956615522,-4,-16,-12,-2,-1,0,0,-8
1537907956615522,3,25,22,-3,-2,0,0,2
1537907956630482,-5,-21,10,8,0,0,0,-5
1537907956630482,-3,3,-9,-4,-1,0,-1,2
1537907956631480,-3,-18,1,-4,-1,1,0,1
1537907956631480,-3,-1,-6,2,-1,0,-2,-7
1537907956653421,-2,-3,0,-2,-1,-1,-1,-3
1537907956653421,1,0,17,-2,-1,0,0,3
1537907956654418,1,8,0,1,1,0,0,-3
1537907956654418,-2,-5,-15,-3,-1,0,-1,-1
1537907956666386,1,5,-1,4,1,0,0,0
1537907956666386,-1,-3,-14,-2,0,0,0,5
1537907956675363,0,13,20,-5,-3,-2,-2,-5
1537907956675363,0,-17,-7,0,0,0,-1,-1
1537907956690322,0,6,-3,-2,-2,-2,0,0
1537907956690322,-1,8,-1,2,-1,-3,0,0
1537907956691320,1,-3,9,5,1,0,1,-2
1537907956691320,-3,2,-18,-5,-1,-2,0,-5
1537907956712264,-2,-5,16,1,2,1,-1,3
1537907956712264,0,0,-49,4,-3,-2,-1,-1
1537907956714259,-2,0,1,-6,-3,-1,-2,2
1537907956714259,-3,-12,-3,1,-3,-2,0,0
1537907956726226,1,4,11,-2,1,-2,-2,-6
1537907956726226,-3,-10,6,-3,1,-2,-2,1
1537907956735202,-1,0,-1,2,0,-1,0,-6
1537907956735202,-4,-26,-3,-1,-1,0,-1,-2
1537907956750162,-2,18,5,-6,-3,0,-2,1
1537907956750162,0,-7,-3,1,-1,-2,0,1
1537907956751159,2,-7,-24,2,0,0,0,-1
1537907956751159,1,27,32,-6,-3,-2,0,2
1537907956772103,0,3,-9,-1,1,1,2,0
1537907956772103,-6,-23,-21,-2,-1,-2,-3,-4
1537907956774098,-2,0,0,-6,-1,-3,-2,-2
1537907956774098,0,6,-11,0,-1,0,1,1
1537907956786066,-3,-17,2,0,-2,-2,0,-2
1537907956786066,1,17,18,-1,-1,1,1,-1
1537907956795042,2,9,-2,-1,0,-1,-1,1
1537907956795042,-2,1,7,6,-1,-1,-3,0
1537907956810002,-1,-22,-14,-1,0,-2,0,-3
1537907956810002,0,1,-2,-1,0,-1,1,0
1537907956811997,0,-3,-6,-4,-1,-2,-1,0
1537907956811997,0,4,10,0,-2,-2,2,-1
1537907956832941,0,4,18,4,0,1,1,-1
1537907956832941,2,16,-17,0,0,-2,0,2
1537907956833938,-3,-21,16,-1,-1,1,-1,-3
1537907956833938,2,10,-2,0,1,-2,-2,2
1537907956845906,1,0,-14,-5,0,-3,1,0
1537907956845906,0,1,9,-1,-2,-1,1,0
1537907956854882,0,-15,-15,-6,-3,-1,0,-1
1537907956854882,1,18,10,4,2,0,-2,0
1537907956869842,-1,-7,-7,-5,-4,-1,-3,0
1537907956869842,-1,4,-4,0,0,1,-1,0
1537907956871837,1,5,10,1,0,-2,0,-1
1537907956871837,-3,-9,-12,3,0,0,-1,-3
1537907956892781,1,5,-3,-9,-3,-2,1,3
1537907956892781,-1,0,-9,-3,-1,0,-2,-6
1537907956893780,0,5,7,1,-1,-1,0,1
1537907956893780,-2,-15,-17,-3,-1,-2,0,-2
1537907956905746,0,7,14,-1,-1,0,-2,-1
1537907956905746,-1,-7,10,3,0,-1,0,1
1537907956914722,1,6,-3,-1,-2,-1,-1,-1
1537907956914722,1,-5,-10,0,1,-1,-1,0
1537907956928685,-2,-2,-1,-4,-5,-2,-1,-1
1537907956928685,-2,-5,-2,-7,-3,-3,-1,-1
1537907956937661,1,18,25,4,0,-1,-2,-2
1537907956937661,-1,-13,0,0,-2,0,0,1
1537907956959603,-4,-30,-12,7,3,-1,0,-2
1537907956959603,0,26,31,-1,0,0,1,2
1537907956961597,-4,6,-33,-6,-5,-2,-2,-2
1537907956961597,0,-8,4,-3,-2,0,-1,0
1537907956974562,2,25,-3,3,1,2,0,0
1537907956974562,1,-21,-13,2,2,1,0,0
1537907956976557,-1,-6,20,0,0,0,0,-1
1537907956976557,-1,6,-29,-2,-1,1,-2,-7
1537907956989522,4,1,11,0,0,-1,2,22
1537907956989522,-3,-1,11,0,-1,-1,-2,0
1537907956991517,3,18,-7,-5,-4,-2,-1,-1
1537907956991517,0,-4,3,1,1,-2,1,3
1537907957012461,0,-3,-13,3,2,0,-1,-10
1537907957012461,-3,-8,-4,-8,-4,-2,-1,-2
1537907957014456,-1,-7,18,1,0,0,-1,3
1537907957014456,0,1,4,-1,-2,0,-2,-2
1537907957042381,1,-6,-22,-3,-2,-1,0,-3
1537907957042381,-1,5,8,5,2,-1,-2,0
1537907957044376,0,8,-9,1,0,0,-1,-6
1537907957044376,-1,21,5,-3,-3,-2,0,0
1537907957050360,-1,-9,17,0,-2,-2,-1,-2
1537907957050360,-3,-30,6,-3,-2,0,1,-1
1537907957051358,-1,-3,-35,7,1,-1,0,0
1537907957051358,-1,-1,-1,-13,-2,1,-2,-1
1537907957072301,-1,9,17,-2,-3,0,-1,-1
1537907957072301,0,8,4,-1,-1,0,-1,-2
1537907957074296,-3,-27,-8,-1,-1,0,0,2
1537907957074296,0,4,27,2,-2,-2,0,1
1537907957095240,-3,-2,4,-3,0,-2,-2,-4
1537907957095240,-1,1,-5,4,0,-1,-2,0
1537907957096237,2,4,-1,-4,-3,-1,-1,-1
1537907957096237,-2,-12,-17,2,2,0,1,0
1537907957109202,-2,1,-1,0,-2,0,-1,-2
1537907957109202,0,7,17,3,-2,0,0,-1
1537907957116183,-1,-3,-9,-5,2,-3,-1,1
1537907957116183,0,0,1,2,-2,-1,0,-3
1537907957132141,0,0,-2,-8,-2,-1,0,-2
1537907957132141,4,14,-13,1,1,-1,-3,3
1537907957134136,-3,-8,18,2,-1,0,-1,-2
1537907957134136,0,-23,-2,-2,0,-1,1,5
1537907957155080,0,3,-13,4,0,-1,-1,-5
1537907957155080,-2,-9,-38,-6,-2,-1,0,-1
1537907957156077,-1,11,52,0,0,0,-1,-2
1537907957156077,-1,4,9,3,0,-2,-1,-1
1537907957169042,-3,-8,-35,2,0,-1,0,1
1537907957169042,-1,0,14,3,-1,-2,-1,0
1537907957176024,-2,-5,-1,4,2,-1,0,-3
1537907957176024,1,-1,-19,-17,-10,-1,-1,-2
1537907957192979,0,3,26,1,1,1,-2,-3
1537907957192979,-2,-15,-38,-11,-3,-2,0,-1
1537907957193976,2,29,6,4,1,1,0,0
1537907957193976,1,6,13,6,2,-1,-1,1
1537907957214920,-2,-2,2,-2,1,-1,-3,-3
1537907957214920,-3,-6,14,3,0,0,0,0
1537907957216914,-1,-16,-24,-1,-3,1,-1,1
1537907957216914,6,26,-10,0,0,-1,1,0
1537907957228882,-6,-16,1,-1,-1,-1,0,-1
1537907957228882,2,0,5,1,0,-1,1,0
1537907957235864,1,0,2,-1,-1,1,1,-2
1537907957235864,0,-5,1,-4,-1,0,-1,0
1537907957252819,-2,-1,-15,3,1,-1,0,0
1537907957252819,0,5,-6,-5,-3,0,1,-1
1537907957253816,-3,-6,1,-5,-2,-2,-1,-1
1537907957253816,-3,-7,5,0,1,1,0,-2
1537907957274760,1,14,-3,-3,-1,-1,0,4
1537907957274760,-3,-9,-2,2,0,-1,-2,-3
1537907957276755,-1,-4,7,-7,-3,0,-1,-3
1537907957276755,-3,-2,-17,7,-1,-2,0,-2
1537907957289720,-1,-2,-4,-8,-1,-2,0,-2
1537907957289720,1,25,15,4,0,-1,-1,-2
1537907957295704,-2,-14,-10,-3,-2,0,-1,1
1537907957295704,-3,-9,-1,-1,1,-1,-3,-1
1537907957312658,3,26,6,7,-2,-1,0,-1
1537907957312658,-5,-22,1,-3,-1,0,-1,-2
1537907957318643,2,23,18,1,0,-1,-1,-1
1537907957318643,-2,-6,-30,-2,-1,0,-1,-1
1537907957334600,0,1,-14,-4,-2,-1,-1,0
1537907957334600,3,14,3,2,1,0,0,0
1537907957341581,-2,-17,-6,3,1,-2,0,0
1537907957341581,0,8,17,-3,-4,-1,-1,-3
1537907957349560,0,-2,7,-2,-1,1,-3,-2
1537907957349560,-1,-9,-2,0,0,0,0,-1
1537907957356541,-3,-14,-16,-3,-2,-1,-2,-1
1537907957356541,1,11,6,-1,0,-2,-1,-1
1537907957372498,1,-7,2,-1,-2,0,0,-1
1537907957372498,-3,-1,4,4,1,-1,0,-3
1537907957373496,-2,0,-6,2,0,1,-2,-1
1537907957373496,-4,-5,4,3,-2,-2,-2,0
1537907957395437,-3,-3,40,-4,-2,0,-2,-2
1537907957395437,3,-4,-49,-4,0,0,-2,1
1537907957396435,1,2,4,0,-1,-2,0,1
1537907957396435,-4,-5,-2,-1,1,0,0,-1
1537907957409400,-1,-2,-16,1,0,0,-2,-2
1537907957409400,0,12,28,-1,-1,-1,-2,-2
1537907957416382,-3,-21,-7,0,-1,-3,0,-2
1537907957416382,0,-9,2,2,1,1,2,-2
1537907957432338,-2,-7,5,-3,-3,-1,-2,-2
1537907957432338,-2,1,-9,-3,0,-1,-1,-1
1537907957434333,-3,-1,4,-2,1,-1,-1,-1
1537907957434333,0,-7,-8,0,1,0,0,0
1537907957455277,-2,-6,-17,3,1,-2,1,0
1537907957455277,0,7,30,0,-1,0,0,0
1537907957456275,-1,-6,0,-1,-1,2,0,-2
1537907957456275,1,6,-16,-4,0,-1,-2,1
1537907957468242,-1,-19,-18,-6,-1,1,0,0
1537907957468242,0,33,8,4,0,-1,1,2
1537907957477219,-1,3,-1,-3,-2,-1,-1,-1
1537907957477219,-1,-6,14,5,0,-1,-1,0
1537907957492179,-2,-18,-10,-5,-2,-2,-2,1
1537907957492179,-1,-11,10,-10,-1,-3,0,-2
1537907957494175,-2,16,-4,4,-2,0,-2,-2
1537907957494175,-2,7,-10,-2,-3,-1,-2,-2
1537907957515120,-2,-16,-2,6,2,1,-2,0
1537907957515120,3,-1,4,-2,-1,-1,-2,0
1537907957516116,-3,3,3,-1,1,0,0,-2
1537907957516116,-2,-8,-1,-2,-1,-2,0,-1
1537907957529082,-2,-4,-9,0,-3,-2,-1,-1
1537907957529082,3,18,0,-1,-1,-2,-1,0
1537907957538057,-2,-13,-17,-3,-2,-1,0,0
1537907957538057,-4,-2,25,11,1,0,-2,0
1537907957552019,-2,5,-8,-2,1,-1,-1,-2
1537907957552019,-1,-1,-7,2,0,-2,1,-1
1537907957554014,-1,-18,17,-2,-1,0,0,-1
1537907957554014,1,-1,-21,-8,-2,0,-1,0
1537907957574958,1,20,3,0,1,0,0,2
1537907957574958,-4,-20,-10,-4,-2,-2,0,0
1537907957575955,-1,7,-3,-2,-2,-1,0,0
1537907957575955,4,14,6,0,-2,-2,-1,-3
1537907957588920,1,6,12,4,0,-1,0,0
1537907957588920,-2,-10,-14,-2,-2,1,-1,-1
1537907957597896,0,-13,5,-1,0,-1,-1,-1
1537907957597896,-1,-4,-7,-2,0,0,0,-1
1537907957611859,1,13,-14,-6,-4,-4,-1,0
1537907957611859,-2,-14,28,3,-1,-1,-1,-3
1537907957618840,2,10,-24,-2,-1,-1,0,-1
1537907957618840,-3,-9,-8,-2,0,1,-1,-1
1537907957633800,1,8,10,3,0,0,-1,0
1537907957633800,-3,-7,-16,-7,-3,1,-3,-1
1537907957634797,-1,-20,0,2,-2,-1,0,-2
1537907957634797,0,32,12,0,1,0,-1,1
1537907957656739,-3,-7,1,-2,-3,-1,-1,0
1537907957656739,-2,9,0,0,-1,-1,0,-1
1537907957657736,-2,-20,0,-4,-2,-1,-2,1
1537907957657736,0,6,-9,-1,-1,-2,-1,0
1537907957671699,0,0,-2,2,-1,1,0,-1
1537907957671699,1,6,9,0,1,-2,-2,-1
1537907957672697,-1,16,13,2,0,1,-1,-1
1537907957672697,-2,-13,-41,-6,-2,-3,0,-1
1537907957694640,3,6,0,-4,-2,-1,-1,-1
1537907957694640,-2,-7,-5,3,0,0,-1,-3
1537907957694640,2,16,4,1,0,-1,-1,0
1537907957694640,-3,-6,36,-4,-2,-1,-2,-1
1537907957725556,-2,7,6,-1,-1,-1,-2,-2
1537907957725556,-1,-8,-43,1,1,-1,-1,-1
1537907957725556,0,-4,13,9,2,-2,-1,0
1537907957725556,1,9,5,-8,-5,-2,0,-1
1537907957731540,-4,-19,-1,-5,-1,-2,0,-2
1537907957731540,0,17,23,-4,-1,1,0,0
1537907957732539,-2,-14,-17,5,2,-1,0,-3
1537907957732539,0,-6,9,-7,-2,-1,1,0
1537907957754478,-1,4,-31,-1,0,-3,0,-1
1537907957754478,-2,-13,9,2,-2,0,-1,2
1537907957755476,1,10,-6,-8,-1,-2,1,0
1537907957755476,-3,-8,15,3,-1,0,-1,0
1537907957785395,-2,-14,-9,1,1,-2,-1,-1
1537907957785395,0,3,2,1,1,0,-2,-2
1537907957785395,0,5,-6,-5,-3,-1,-1,0
1537907957785395,1,4,4,3,-1,0,-1,-1
1537907957791379,-1,-20,-4,-3,0,1,1,-2
1537907957791379,-2,-3,-7,1,0,-2,-2,0
1537907957792376,1,6,9,-1,0,-1,-1,0
1537907957792376,0,-3,-14,4,0,-2,0,-3
1537907957814318,1,1,-5,0,0,0,-2,-1
1537907957814318,-1,-6,9,-2,-2,-1,2,0
1537907957815315,1,21,-16,-3,-2,-1,-1,-1
1537907957815315,-2,-23,1,0,0,-2,-1,0
1537907957837256,1,9,11,-1,-1,1,0,0
1537907957837256,0,4,15,-3,-3,-2,-1,0
1537907957837256,-4,-1,-18,3,0,-2,-1,-3
1537907957837256,1,-3,-12,2,1,0,-1,-2
1537907957852216,3,28,12,-2,-1,0,-1,-1
1537907957852216,0,-18,-5,-1,0,-1,0,0
1537907957852216,-3,10,-11,-5,-3,0,-1,-1
1537907957852216,1,2,3,-8,-1,0,-1,-1
1537907957874158,0,13,4,3,0,-1,0,-1
1537907957874158,0,1,-10,-1,0,0,-1,1
1537907957875155,-2,-4,0,0,-2,-2,-2,-1
1537907957875155,0,-3,15,3,0,0,0,-1
1537907957897097,1,0,-2,0,0,-2,-1,0
1537907957897097,-1,1,-10,-2,0,0,-2,-2
1537907957898095,-1,-7,-2,-7,0,-1,-1,-2
1537907957898095,-2,0,8,3,1,1,0,-1
1537907957912056,0,-12,16,1,0,0,1,0
1537907957912056,-1,-10,-2,1,-3,-3,0,-2
1537907957912056,1,8,-13,-1,0,-2,1,0
1537907957912056,-2,-11,0,-1,-2,-2,-3,-1
1537907957933998,2,-6,1,1,0,1,0,0
1537907957933998,2,13,-8,1,1,-2,-1,-1
1537907957934996,-5,-28,-2,-5,0,1,-2,1
1537907957934996,-2,1,5,-4,-1,-2,0,-2
1537907957957933,-2,-4,-4,-1,-1,0,-2,-1
1537907957957933,-1,17,-16,0,-2,0,-2,-1
1537907957957933,2,4,41,1,-2,0,-2,1
1537907957957933,0,11,-20,4,2,0,-1,-1
1537907957971896,-2,-17,8,-2,0,-2,0,-2
1537907957971896,-3,-4,-7,-4,-2,-2,0,-2
1537907957972894,1,4,9,4,0,1,1,-1
1537907957972894,-2,-9,-8,-2,-2,-1,-1,1
1537907957993837,1,28,32,4,-2,-2,-1,0
1537907957993837,-3,-8,-4,-2,-1,-2,-2,-2
1537907957994835,1,-3,-24,-7,-2,-1,0,0
1537907957994835,-3,-11,4,-2,1,-1,-2,0
1537907958017773,2,9,-3,1,1,-1,-1,0
1537907958017773,-1,-3,3,2,-1,-1,0,-2
1537907958017773,-2,1,2,1,0,-1,0,-1
1537907958017773,3,11,-2,0,0,-1,-1,-1
1537907958031736,-4,-20,-1,-3,-2,-1,-2,-2
1537907958031736,-2,-9,12,0,-2,0,1,-2
1537907958032734,3,13,-4,4,0,-1,-2,-1
1537907958032734,1,11,-8,-4,-2,-2,-2,1
1537907958054675,-2,-2,-3,-2,1,-2,-1,-1
1537907958054675,-1,-1,-12,-3,-1,-2,-1,1
1537907958054675,-3,-12,0,-2,-4,0,-1,0
1537907958054675,0,2,15,7,-1,-1,-1,-2
1537907958077614,-1,4,-14,-6,-1,0,-2,-1
1537907958077614,0,2,20,-2,-1,-1,1,0
1537907958078612,0,1,-1,3,1,-2,-1,-2
1537907958078612,-1,1,6,2,0,0,-1,-2
1537907958091577,0,-9,-15,-7,-3,-3,-1,-2
1537907958091577,-2,-4,-2,1,1,0,-1,-1
1537907958092575,0,2,2,0,-1,-1,2,1
1537907958092575,-3,-19,-18,-7,-3,-1,0,0
1537907958114516,-3,-9,8,1,0,-1,0,-1
1537907958114516,1,19,2,-2,-2,1,-2,0
1537907958115514,-2,-4,9,-2,-2,-2,-3,-2
1537907958115514,-3,-19,3,5,0,-1,-1,0
1537907958137455,-1,27,-5,1,0,3,0,1
1537907958137455,-1,-2,-11,-3,-3,-2,0,0
1537907958138453,0,-1,14,1,-1,0,0,-2
1537907958138453,0,3,-6,-3,0,0,2,0
1537907958151419,-1,-20,17,1,-1,-1,-1,-1
1537907958151419,-1,-15,-18,-2,-2,0,1,-1
1537907958152416,1,6,-6,1,0,-1,0,-1
1537907958152416,-2,2,8,3,0,-1,-3,-1
1537907958174356,0,-5,-14,-1,-1,0,0,-2
1537907958174356,0,0,-6,0,1,-1,-2,-1
1537907958175353,2,-4,-5,-5,-1,1,-2,-1
1537907958175353,-2,-3,-9,-3,-2,-3,-1,-1
1537907958197294,-5,-3,-14,-1,-2,-2,0,0
1537907958197294,2,11,10,-1,-1,-1,-1,-1
1537907958198292,0,6,-3,0,0,-1,0,-1
1537907958198292,0,7,18,0,-1,-1,-1,0
1537907958212254,-1,-5,-13,-1,0,-2,-1,0
1537907958212254,-2,-10,15,0,-1,1,-2,0
1537907958212254,-2,5,-28,-4,-2,-1,0,-2
1537907958212254,1,14,-2,-3,-2,0,0,-1
1537907958234195,-1,-19,-6,2,-1,-2,-2,1
1537907958234195,-3,-9,1,-1,0,0,-1,-1
1537907958235192,1,2,4,0,-2,-2,-2,-2
1537907958235192,0,-3,-9,-1,-1,-1,-2,-2
1537907958257134,1,8,-3,-2,-1,1,1,-1
1537907958257134,2,-2,21,0,-1,-3,0,0
1537907958258131,-3,-23,-26,-7,-2,0,0,1
1537907958258131,-1,3,-4,3,0,0,1,-1
1537907958272093,0,-5,14,-1,-1,-3,-2,0
1537907958272093,-2,-4,-10,-1,-1,-2,1,-1
1537907958272093,-3,-4,9,-2,-1,-1,-1,0
1537907958272093,0,9,-2,-2,-3,-1,-2,-2
1537907958294035,0,1,3,2,0,0,-1,0
1537907958294035,0,-4,-26,0,-1,0,-1,-2
1537907958295033,0,5,43,2,-2,-4,-1,0
1537907958295033,-2,-11,-26,-2,0,1,0,-1
1537907958316974,1,9,-4,-4,0,0,0,-1
1537907958316974,0,1,15,4,0,-4,-2,-1
1537907958317972,-1,-3,-11,-5,0,0,0,-1
1537907958317972,3,14,5,-1,-2,-1,0,0
1537907958331935,0,-3,10,-4,-3,-1,-1,0
1537907958331935,-2,3,-6,5,2,1,-1,-1
1537907958332932,1,3,2,5,0,-1,-1,0
1537907958332932,0,1,9,-5,-1,-2,0,0
1537907958353876,-1,-12,-4,4,-1,-1,-1,-2
1537907958353876,-3,-3,11,0,0,1,-2,-1
1537907958354874,-1,-3,-19,-3,0,-1,0,-2
1537907958354874,0,0,-5,-2,0,0,0,1
1537907958377812,-4,4,-8,-1,0,0,0,-1
1537907958377812,2,-5,20,1,-2,-2,1,0
1537907958377812,-1,-8,-3,0,0,0,0,-2
1537907958377812,-3,-20,14,-2,0,-1,-1,0
1537907958391774,3,24,4,1,-2,-2,0,1
1537907958391774,-1,-9,-20,-3,-4,-1,-3,-1
1537907958392772,-3,3,3,-1,-1,-1,-1,-2
1537907958392772,0,-2,-22,-3,-1,-1,-1,0
1537907958414712,0,9,15,2,2,-1,-1,-1
1537907958414712,1,6,-7,-6,-3,-3,0,-1
1537907958414712,-2,-5,5,1,-1,-2,0,0
1537907958414712,-4,-6,1,-3,-1,0,-1,-2
1537907958437651,2,1,23,4,-2,-1,-2,-2
1537907958437651,3,3,-25,-1,0,2,-1,0
1537907958438648,-1,1,-10,0,-1,0,-1,0
1537907958438648,0,4,2,0,0,0,1,-1
1537907958459592,-1,5,-17,-5,-2,-2,-2,0
1537907958459592,-2,-13,-7,-1,0,0,1,-1
1537907958460590,0,1,16,3,-1,1,-1,1
1537907958460590,-1,-9,-6,-1,-1,-1,0,-2
1537907958474553,-1,-4,2,-2,-2,-1,0,-2
1537907958474553,-2,0,-7,-5,0,0,-1,2
1537907958474553,0,0,4,2,0,1,-1,0
1537907958474553,-1,10,9,3,0,-1,0,0
1537907958497492,-3,-6,-19,-2,-1,-2,-1,0
1537907958497492,-2,-3,23,-2,-2,-2,0,-1
1537907958498489,-1,1,-5,5,0,0,0,-2
1537907958498489,0,-8,2,4,0,-1,0,-1
1537907958511455,0,4,-8,-8,-2,-1,0,0
1537907958511455,1,5,-1,0,-1,-1,0,0
1537907958519434,-2,-9,6,0,-1,-1,-1,-2
1537907958519434,3,30,-3,-1,-2,0,-1,-1
1537907958534394,-3,-37,-7,1,1,0,0,-1
1537907958534394,-2,10,14,3,0,-1,-1,-1
1537907958535392,4,16,18,-5,0,1,1,1
1537907958535392,-3,-37,12,1,0,-2,-1,-3
1537907958557334,2,35,-13,0,-2,0,1,0
1537907958557334,-1,2,-8,-2,-2,-2,-2,-1
1537907958558331,1,-10,-5,-2,-2,-3,0,0
1537907958558331,-3,-3,11,-1,-1,-1,-1,0
1537907958571296,0,3,-14,4,0,-1,-2,-1
1537907958571296,0,-4,-12,-5,1,-1,0,-1
1537907958579273,1,5,-1,4,0,-1,0,0
1537907958579273,1,1,2,-3,1,-1,0,0
1537907958594233,1,8,9,-3,-3,1,1,0
1537907958594233,-2,-3,6,4,-1,-1,-1,-1
1537907958595230,0,-1,-22,-2,1,-2,-3,-1
1537907958595230,-1,2,-3,-4,-1,-2,-1,-1
1537907958617171,0,-7,1,-2,-1,-1,-2,-2
1537907958617171,0,-9,-16,-6,1,1,-2,1
1537907958618169,-3,-1,17,-2,-1,0,0,-2
1537907958618169,0,5,-5,0,0,1,-2,0
1537907958631134,-1,4,5,-2,0,-1,-1,-1
1537907958631134,-1,-2,4,2,-1,-1,-2,-2
1537907958639112,-1,-6,3,2,-2,-1,-2,-1
1537907958639112,-1,0,-25,-5,-2,-1,0,1
1537907958662051,0,0,5,0,0,0,-1,-1
1537907958662051,1,5,14,3,0,0,-1,-1
1537907958663049,-3,-5,-18,0,-2,-2,-1,-2
1537907958663049,1,16,-13,-4,-3,-1,-1,-1
1537907958677011,-1,-1,10,-2,0,-1,-1,0
1537907958677011,-2,3,-7,-5,-2,-1,-1,-1
1537907958678009,-1,1,23,6,-1,-1,-2,-2
1537907958678009,0,-8,-9,4,0,-3,-2,-1
1537907958690974,-2,-13,2,-1,0,0,-1,-1
1537907958690974,-2,8,-10,-2,-2,0,0,-1
1537907958698953,-1,-10,-18,-7,-1,-1,1,0
1537907958698953,-3,-7,1,0,-2,0,-1,-1
1537907958713913,-1,-8,9,2,0,0,-1,-1
1537907958713913,-1,4,9,-1,-1,0,-1,-1
1537907958714911,-2,2,0,-3,-2,-2,-1,0
1537907958714911,-2,-4,-5,0,-2,-1,-1,-1
1537907958737850,-2,-23,-11,-3,0,0,-2,1
1537907958737850,0,-14,2,1,0,-1,0,-1
1537907958737850,-1,-2,-1,1,-2,0,-1,-2
1537907958737850,1,18,0,-2,-1,1,1,-1
1537907958759792,-2,-7,12,0,-4,0,-1,0
1537907958759792,-1,-4,-6,-2,-2,-2,0,-2
1537907958760790,0,-1,-10,2,0,-1,-1,0
1537907958760790,0,-8,2,-10,-2,-1,-1,-2
1537907958774751,-2,8,-3,2,-2,0,-1,-2
1537907958774751,0,4,6,1,1,-2,-1,-1
1537907958774751,0,-3,6,1,1,0,-1,0
1537907958774751,-3,-10,-9,0,0,0,0,0
1537907958797691,0,3,26,3,-1,0,0,-1
1537907958797691,0,5,5,1,0,-2,-1,-1
1537907958797691,-3,-2,-20,-6,-1,-1,0,-2
1537907958797691,-1,-10,4,4,2,-1,-2,1
1537907958819630,-1,0,-8,-1,0,-2,-1,1
1537907958819630,0,-6,-5,-2,-1,-1,0,1
1537907958820628,-3,2,12,-2,-2,1,0,-2
1537907958820628,-1,1,-12,-3,-2,0,-1,-2
1537907958834590,0,7,2,2,2,-1,-1,-1
1537907958834590,-2,-9,3,4,-1,2,-2,1
1537907958834590,2,13,-6,0,-1,0,0,0
1537907958834590,-2,-10,0,0,-1,-1,-1,0
1537907958857529,-2,2,0,-2,-4,-1,-2,0
1537907958857529,1,-3,-7,2,0,-1,1,0
1537907958858526,0,1,22,-4,-2,0,-1,-1
1537907958858526,0,3,5,6,0,0,-1,-1
1537907958879471,0,-4,-41,-1,-1,-2,0,-1
1537907958879471,1,8,-5,-10,-2,0,0,0
1537907958880468,0,2,4,-1,2,-1,-1,1
1537907958880468,-2,0,13,1,-1,-1,-2,0
1537907958894430,-1,4,34,1,-4,-2,-1,-2
1537907958894430,-1,-2,-15,6,-1,0,0,-1
1537907958895428,-1,-3,-17,-3,-2,-1,-1,-1
1537907958895428,-2,4,1,0,14,-1,0,0
1537907958917369,-2,-6,-6,-1,-14,-1,0,1
1537907958917369,-4,-3,10,-3,-1,-2,-1,-2
1537907958918366,1,2,9,0,1,1,0,-1
1537907958918366,-1,2,2,-3,-8,-2,-1,-1
1537907958940307,-1,-2,-8,-2,9,0,0,-1
1537907958940307,0,2,4,5,3,-2,-3,-1
1537907958940307,0,0,-23,-2,-6,-1,-1,-2
1537907958940307,0,6,15,-5,-4,1,0,-1
1537907958954270,-2,-15,-18,-4,3,0,0,-1
1537907958954270,-5,-13,33,0,0,1,0,-2
1537907958955267,-2,-19,-16,-6,0,-3,-1,0
1537907958955267,3,8,-13,6,-5,-3,-1,0
1537907958977209,-3,-20,-3,-6,1,2,0,1
1537907958977209,1,-4,5,4,1,-1,0,0
1537907958978206,-5,2,-10,-6,-1,-3,-3,-1
1537907958978206,-2,-15,3,0,-2,1,-1,-2
1537907959000147,4,17,-3,3,3,1,0,-1
1537907959000147,0,-3,-11,-3,-4,-1,-1,0
1537907959001145,0,2,10,-7,-3,-4,0,-2
1537907959001145,0,2,3,2,2,-2,0,-3
1537907959014110,-2,4,-25,1,0,-2,-1,-2
1537907959014110,1,9,12,2,0,0,-1,0
1537907959015108,1,0,2,0,-4,-1,0,-1
1537907959015108,-2,-11,-11,6,1,0,0,0
1537907959037049,-1,8,14,-6,-1,1,-1,-3
1537907959037049,-4,5,-5,-10,-5,-3,-2,-2
1537907959038047,-1,-16,-25,-1,2,1,1,0
1537907959038047,2,15,-22,3,2,-1,0,1
1537907959059988,1,-6,34,13,1,-1,1,-1
1537907959059988,-1,-9,-60,-20,-10,-4,-1,0
1537907959060986,0,10,53,8,-1,-1,-3,-1
1537907959060986,4,8,-19,-5,-1,0,1,1
1537907959073952,0,17,13,3,-3,-4,-3,0
1537907959073952,-1,12,10,2,3,0,0,1
1537907959074949,1,2,-7,-4,0,-1,-1,0
1537907959074949,-5,-16,-1,-3,-1,-1,-2,-2
1537907959097888,1,14,13,-2,-2,-1,-2,-2
1537907959097888,0,-4,-6,2,2,1,-1,-1
1537907959097888,-1,-5,-9,3,-1,1,0,0
1537907959097888,0,6,13,0,-1,-1,-1,-1
1537907959119829,-1,-12,-6,-2,0,-2,0,0
1537907959119829,-1,-1,-19,0,1,-1,-1,-1
1537907959121825,-2,-6,9,-1,-2,-1,-1,0
1537907959121825,0,14,-6,-5,-3,-2,-1,0
1537907959134789,-1,-1,-3,0,-1,1,-1,1
1537907959134789,-1,2,12,3,0,0,0,1
1537907959134789,1,0,9,1,1,-2,0,-2
1537907959134789,0,9,1,0,0,0,1,-1
1537907959157728,-4,-19,-37,-7,-3,-3,-2,-1
1537907959157728,-1,6,44,9,0,1,-1,-1
1537907959157728,-3,1,-38,-8,-1,0,-3,-2
1537907959157728,-3,-12,23,-1,-2,-1,0,0
1537907959179669,-2,9,24,-1,0,-2,0,-3
1537907959179669,2,-1,-30,0,0,-1,0,-2
1537907959180668,-4,-16,9,5,-2,0,0,-2
1537907959180668,-1,-9,7,-2,-3,-2,-1,-1
1537907959193632,0,-1,-19,-2,9,3,0,-1
1537907959193632,-1,-1,1,3,-5,-2,-1,-1
1537907959202607,1,6,32,2,-1,-1,0,0
1537907959202607,-1,-1,-62,-6,1,4,-1,1
1537907959217566,0,-4,36,-1,3,-2,0,-1
1537907959217566,-1,1,-9,-3,-13,-9,-1,-1
1537907959218564,2,13,-11,-6,-4,0,-2,-2
1537907959218564,-2,-9,19,4,16,3,0,0
1537907959239508,0,0,6,0,-7,0,0,-1
1537907959239508,3,3,-7,-3,9,4,0,0
1537907959241502,0,-4,-6,0,-8,-2,-2,-1
1537907959241502,1,7,13,-1,-5,-4,-3,-1
1537907959253470,-1,-17,-25,-1,5,3,1,0
1537907959253470,-4,-2,6,-3,3,0,0,-3
1537907959262446,-1,-5,-23,5,0,0,0,-1
1537907959262446,1,0,10,4,1,0,0,1
1537907959277406,-1,11,-10,1,-7,-4,0,-1
1537907959277406,-2,-21,18,-5,-5,-2,-3,0
1537907959278404,1,10,-19,-4,3,2,0,-1
1537907959278404,-4,1,-2,-1,-5,-1,-1,-2
1537907959300345,1,10,8,-4,-4,-4,-2,-1
1537907959300345,-3,-23,-11,-4,0,0,0,-3
1537907959301343,-1,28,19,1,4,-1,0,0
1537907959301343,0,6,27,-8,-4,-2,-2,0
1537907959313312,0,-13,-17,-1,-3,0,-2,0
1537907959313312,-2,-7,-6,-1,2,1,-1,0
1537907959322288,-2,-16,-6,2,0,-2,-1,1
1537907959322288,-1,-6,-4,-2,-3,-1,2,0
1537907959337248,-2,3,24,-7,-2,0,0,-1
1537907959337248,1,2,-2,5,-1,0,0,0
1537907959339243,-2,-8,-2,2,1,0,-1,1
1537907959339243,0,1,8,-1,-2,-2,-2,-2
1537907959360187,0,11,-11,1,0,0,-2,0
1537907959360187,-1,-10,31,6,0,-1,-1,-3
1537907959361183,0,8,-20,1,-2,-1,1,0
1537907959361183,0,-13,-17,-6,-3,-1,-1,-2
1537907959373152,-1,1,7,-1,-1,-1,-1,0
1537907959373152,-1,11,-11,-5,-2,-1,0,-1
1537907959382129,2,-5,8,-3,-2,0,0,-1
1537907959382129,-2,2,-13,-1,-1,-2,-1,-1
1537907959397088,0,-4,5,-1,-1,0,1,-1
1537907959397088,2,-3,-16,0,0,0,0,0
1537907959399083,-2,-18,16,2,1,-1,-2,-2
1537907959399083,-1,4,22,1,-3,-3,0,0
1537907959420025,-2,-5,-66,-1,-2,-1,0,-1
1537907959420025,1,9,-5,2,0,0,0,0
1537907959421023,-1,-1,2,-8,-3,-1,-1,0
1537907959421023,1,6,5,0,-2,-2,-1,1
1537907959433987,-2,-2,22,-1,-1,-1,-1,-2
1537907959433987,-1,7,-21,1,-1,-1,-3,-3
1537907959442964,-3,-9,2,-2,-3,-2,-1,-3
1537907959442964,-2,-2,7,5,1,0,0,-2
1537907959456926,1,-12,4,3,1,-1,0,0
1537907959456926,-2,-1,-9,-8,-1,-2,-1,-3
1537907959458921,-2,8,-3,1,2,-2,-2,-2
1537907959458921,0,11,-5,2,-1,-2,0,-1
1537907959479865,0,0,-2,2,-1,-1,1,0
1537907959479865,1,6,24,-1,0,1,-2,-1
1537907959481860,-1,-7,-7,-2,-1,1,-1,-2
1537907959481860,-1,-6,-15,-8,-3,0,-2,-2
1537907959493828,1,-1,11,2,0,-1,-1,-1
1537907959493828,-4,5,14,2,-1,-2,-1,0
1537907959502804,-1,6,3,2,1,-1,-1,-1
1537907959502804,-2,-4,-12,-2,0,1,-1,0
1537907959517764,0,-1,15,-1,-2,-1,-1,-1
1537907959517764,1,-5,-19,-4,0,0,-1,0
1537907959518762,2,19,-1,0,0,-2,-3,0
1537907959518762,1,-17,-4,2,0,1,1,1
1537907959540703,-3,9,-3,0,-1,0,0,0
1537907959540703,-3,-8,6,-1,-1,0,-1,0
1537907959541700,-3,1,-6,-1,-1,-1,-1,-1
1537907959541700,-1,7,-6,0,-1,-2,0,-1
1537907959553668,-2,-15,-11,-2,-1,-2,-3,-2
1537907959553668,4,17,19,0,0,-1,0,0
1537907959562645,1,-12,-12,-3,0,0,1,0
1537907959562645,-1,2,-6,-5,-3,0,-2,0
1537907959577605,0,3,4,4,0,1,1,-1
1537907959577605,0,0,0,-1,-1,-1,-1,1
1537907959578602,0,-4,6,2,-1,0,-1,-1
1537907959578602,0,-13,1,4,2,1,0,0
1537907959599546,2,14,-18,-1,-1,-1,-1,-2
1537907959599546,-2,4,11,-10,-3,0,-2,-1
1537907959601541,-3,-1,15,0,0,-1,0,-2
1537907959601541,1,-16,-2,-2,0,-1,-1,-1
1537907959613509,1,12,-32,-4,0,-2,-1,1
1537907959613509,2,-8,-2,8,1,0,0,1
1537907959622485,-1,3,14,-1,-2,-1,-1,-1
1537907959622485,0,-5,3,2,0,0,-1,-2
1537907959637444,0,-5,15,-2,1,2,-1,-1
1537907959637444,-1,-2,-30,-4,-1,-1,0,-1
1537907959638442,0,-17,9,-1,-1,-3,-2,-2
1537907959638442,-3,-6,-13,1,-1,0,-3,-2
1537907959660383,-2,5,2,-1,-1,-3,-2,-1
1537907959660383,-1,4,-7,-2,-2,0,-1,-1
1537907959661381,0,3,-1,-2,1,-1,0,1
1537907959661381,-2,-8,-6,-1,-2,-2,-2,-1
1537907959673348,-1,-1,8,0,-1,-2,-2,-2
1537907959673348,-2,-5,1,0,-3,2,0,-2
1537907959682324,0,4,-9,2,-1,0,1,-1
1537907959682324,-1,-13,22,-3,-3,-2,0,-2
1537907959697284,-2,10,-25,-7,-1,-1,1,0
1537907959697284,2,9,-1,12,2,-2,1,1
1537907959699278,0,-9,-12,-14,-2,1,0,0
1537907959699278,0,20,1,-3,-1,-2,-1,0
1537907959720223,-2,-15,23,-1,-2,-1,-2,-2
1537907959720223,-1,-2,-5,2,0,-2,-1,-2
1537907959721220,2,7,6,2,-2,1,0,-1
1537907959721220,-3,3,-4,-2,-2,0,1,0
1537907959742164,-1,-10,9,-2,0,-1,-2,-2
1537907959742164,-1,2,2,-1,1,-1,-2,-1
1537907959744159,-3,-12,-15,1,2,-2,-1,0
1537907959744159,1,12,-22,-6,-1,0,-1,1
1537907959757124,1,-17,22,3,-1,0,-1,-1
1537907959757124,-1,9,15,1,-2,0,-2,0
1537907959759120,0,1,3,5,0,-3,-2,-3
1537907959759120,-2,3,7,1,1,-1,-1,-2
1537907959780064,-1,2,-22,-5,-2,0,-1,0
1537907959780064,-2,-8,-14,-3,-2,-1,-3,-2
1537907959781061,0,1,31,-1,-2,1,0,1
1537907959781061,1,-1,-19,0,-1,-1,0,-2
1537907959802005,-2,-3,3,-6,-2,0,0,-1
1537907959802005,-2,-2,-7,-3,-1,0,-1,-1
1537907959804000,0,-5,-8,0,-1,0,-2,0
1537907959804000,-4,-10,6,1,2,-2,0,-2
1537907959817964,-2,-4,1,2,-2,-3,-1,0
1537907959817964,0,-2,-5,0,1,0,-1,1
1537907959818960,0,-1,7,-4,-2,-1,0,-2
1537907959818960,1,4,-16,-1,-1,0,-2,0
1537907959839903,-1,2,-9,0,0,0,-1,0
1537907959839903,-1,-4,-3,-3,-2,1,1,0
1537907959840900,3,7,8,0,0,1,-1,0
1537907959840900,0,11,12,0,-2,0,0,-3
1537907959862842,2,1,3,-1,-1,0,-2,0
1537907959862842,-2,-11,-15,-1,0,-2,-1,0
1537907959863839,-2,9,2,1,0,-1,-1,1
1537907959863839,-2,-2,14,0,-1,0,0,-1
1537907959877801,0,2,-2,2,0,1,1,-2
1537907959877801,-2,-2,6,0,-2,-1,0,-2
1537907959878799,0,7,-8,0,-1,1,0,-1
1537907959878799,-2,0,4,0,-2,-2,-1,-1
1537907959899743,0,-12,-7,-3,-1,-2,-1,-1
1537907959899743,-3,-8,10,-3,0,1,-1,-1
1537907959901738,-3,-7,-14,-3,-2,-1,-1,-2
1537907959901738,4,16,8,4,1,1,-1,0
1537907959922682,-1,-15,5,-6,-2,-1,-1,1
1537907959922682,2,34,10,3,-1,-4,-2,-2
1537907959923679,-2,-10,-12,0,-1,-1,-1,0
1537907959923679,1,-12,-4,1,1,-1,-2,0
1537907959936645,-1,5,6,-1,2,-2,-1,0
1537907959936645,0,-4,-11,-1,-1,1,1,0
