timestamp,emg1,emg2,emg3,emg4,emg5,emg6,emg7,emg8
1537913798577458,2,2,2,-1,-1,4,-3,2
1537913798577458,-2,0,1,1,0,-1,-4,-2
1537913798578456,1,-1,-2,1,-1,6,1,1
1537913798578456,-2,-1,0,1,-1,-2,-2,-2
1537913798579453,0,-3,-5,-2,-2,9,2,-1
1537913798579453,-1,0,-1,-3,-5,-14,-8,-1
1537913798583442,3,0,-3,-4,-3,-8,-4,-4
1537913798583442,0,-1,1,1,-4,6,5,0
1537913798590423,-3,-3,-3,-2,6,-3,4,-2
1537913798590423,0,-2,-1,-3,2,-2,-1,-1
1537913798601394,-1,-5,0,3,3,0,4,-1
1537913798601394,-2,-5,-3,-3,-1,7,2,0
1537913798605384,0,3,1,-2,-4,5,1,-2
1537913798605384,-2,0,1,-3,-9,-14,-5,2
1537913798620344,-1,-1,0,1,1,-6,-6,0
1537913798620344,1,-1,-4,-2,-1,8,0,0
1537913798629319,-4,-2,2,1,2,-3,-1,3
1537913798629319,-2,-3,-1,-3,0,9,3,0
1537913798636301,-1,-6,0,-1,-1,-12,-5,-4
1537913798636301,1,-1,-1,1,5,-4,-3,-2
1537913798650264,-1,-3,-1,-3,0,-1,-2,-4
1537913798650264,1,-2,-1,1,5,12,5,0
1537913798660237,-2,3,0,0,0,5,3,1
1537913798660237,-2,3,2,1,0,6,0,-2
1537913798698135,1,2,-4,-1,-3,0,0,-2
1537913798698135,-6,0,2,-4,-3,-1,1,0
1537913798698135,6,2,-2,-1,-2,-1,-6,-2
1537913798698135,2,3,3,1,-1,-2,-4,0
1537913798700131,-3,-3,-5,-4,-4,2,-1,1
1537913798700131,-1,0,2,2,-3,-1,2,-2
1537913798702126,-2,-3,-1,-3,-3,0,0,-3
1537913798702126,-4,-1,-3,2,-3,0,0,3
1537913798710104,1,-3,3,0,-1,0,-2,-3
1537913798710104,-6,-1,-4,2,1,1,2,3
1537913798719080,13,6,6,-1,1,-3,-3,0
1537913798719080,1,-13,-2,-3,2,-3,-4,0
1537913798725064,-2,4,0,3,3,-3,2,-1
1537913798725064,1,-2,2,-3,-2,-1,5,-4
1537913798740024,-7,0,-2,-1,-2,0,3,-4
1537913798740024,2,5,1,3,1,2,3,-1
1537913798748002,3,8,3,-1,-5,-2,-4,1
1537913798748002,11,12,0,8,-3,2,-2,2
1537913798756978,-11,-5,-2,-2,-4,-8,-4,-5
1537913798756978,3,6,-1,0,-7,-3,-2,-5
1537913798769944,-29,-50,1,0,0,-3,-2,0
1537913798769944,10,-7,-4,-5,1,-4,-5,1
1537913798778921,-6,-13,5,-1,-1,-2,-3,-4
1537913798778921,3,7,-1,0,-3,-1,2,2
1537913798784904,6,9,0,2,1,-1,-1,0
1537913798784904,-4,8,-1,-1,4,-3,-6,-3
1537913798799864,-5,-3,1,0,5,2,-1,3
1537913798799864,-6,-12,-1,-2,3,-1,-2,-1
1537913798807842,7,4,3,0,-3,-2,1,1
1537913798807842,-2,-8,2,-4,-9,-4,-6,-6
1537913798816819,2,14,-2,6,-8,2,5,4
1537913798816819,-4,1,2,-2,-6,-3,-3,-5
1537913798829784,1,2,2,-1,0,-1,2,-1
1537913798829784,-2,-4,1,-2,1,-1,-1,2
1537913798838759,-4,-2,1,2,3,-1,-2,2
1537913798838759,-2,2,0,-4,5,-1,-2,-1
1537913798844743,1,4,-2,-2,2,-2,-4,0
1537913798844743,-3,0,1,1,0,-2,-3,0
1537913798859704,3,-1,0,1,0,2,-4,-1
1537913798859704,-3,1,0,-2,-2,0,1,0
1537913798867683,0,4,1,1,0,1,-2,-2
1537913798867683,0,-1,1,1,-2,1,-1,0
1537913798876659,-1,1,-3,2,1,1,-1,-2
1537913798876659,-7,0,3,1,0,2,-2,-2
1537913798889623,-6,10,1,-1,-1,5,5,1
1537913798889623,14,5,1,3,1,-1,-4,-1
1537913798898600,-3,-2,-3,0,-3,-2,1,3
1537913798898600,-1,2,5,-3,-2,-3,-4,-5
1537913798905580,4,6,0,2,6,-3,0,-2
1537913798905580,-4,-1,-2,-1,6,-4,-3,1
1537913798920541,2,3,4,-1,2,-3,1,-1
1537913798920541,1,-1,-3,-1,-3,-1,2,3
1537913798927522,2,-2,1,-4,-7,1,-1,-4
1537913798927522,-2,-1,3,0,-4,5,2,0
1537913798942482,-7,-12,-2,-4,1,-1,-5,-6
1537913798942482,-1,-5,0,-1,-2,2,3,-3
1537913798950461,-2,-4,2,1,0,-1,-3,-2
1537913798950461,-4,1,-3,-1,-4,-3,0,1
1537913798959437,0,-8,3,-1,-2,-2,-3,0
1537913798959437,-8,1,3,3,0,-1,-1,-6
1537913798965421,11,5,-1,-5,-2,-2,0,2
1537913798965421,-4,-9,-1,-1,-1,1,-1,-2
1537913798980381,2,4,1,1,1,0,2,-3
1537913798980381,4,7,2,0,2,-1,-4,0
1537913798987362,-3,-6,-3,0,2,2,0,-1
1537913798987362,0,4,1,-3,3,1,-1,-2
1537913799002322,4,-1,2,-3,2,2,1,4
1537913799002322,9,3,1,2,-3,-2,0,2
1537913799010302,-11,4,4,0,-4,-3,-1,0
1537913799010302,-6,-3,0,-2,-2,-4,0,1
1537913799019278,21,12,-5,-4,-4,-7,-5,-3
1537913799019278,-13,-19,-1,-4,0,-3,1,0
1537913799025262,2,-2,-1,2,-1,-6,0,0
1537913799025262,-9,-12,-3,1,5,8,6,3
1537913799040221,5,-4,3,-4,1,1,-2,-7
1537913799040221,-9,-13,3,-3,2,7,-3,2
1537913799047202,-1,-15,-1,-6,-5,0,-3,3
1537913799047202,-9,13,0,-1,-3,-5,0,-12
1537913799062162,-11,-14,0,1,-1,-3,-1,-1
1537913799062162,18,3,2,4,4,-1,3,1
1537913799070142,8,6,2,2,1,-2,-3,1
1537913799070142,-23,-1,-8,-2,-4,-5,-9,-4
1537913799079118,-11,-1,-2,-1,0,2,2,1
1537913799079118,-1,8,2,-1,-3,-4,0,-3
1537913799085103,-1,7,-2,3,1,4,4,2
1537913799085103,9,2,2,0,-1,0,0,2
1537913799100061,0,7,1,3,2,-1,1,2
1537913799100061,-4,-10,-4,0,2,1,-1,-1
1537913799108040,5,-4,0,-1,0,2,-2,-1
1537913799108040,8,2,2,-1,-3,4,1,-4
1537913799122999,-3,1,2,0,1,-2,-3,1
1537913799122999,0,-7,-5,1,-1,-4,5,2
1537913799129981,9,0,2,-6,-2,-1,-4,-1
1537913799129981,-8,-15,1,2,3,-1,1,-1
1537913799138957,18,23,8,5,-2,-1,-1,9
1537913799138957,-1,6,0,-1,-5,1,3,2
1537913799144940,-8,4,0,0,3,-1,2,-5
1537913799144940,0,-5,2,0,3,4,5,3
1537913799159901,-5,-13,-3,-3,2,1,2,-5
1537913799159901,-1,5,-3,0,1,2,-18,-4
1537913799167879,-3,5,-1,0,-3,-4,2,-3
1537913799167879,10,6,3,4,-2,-1,3,-2
1537913799182839,-8,-5,-2,-3,-5,5,-3,0
1537913799182839,5,0,1,-2,-4,-11,1,-1
1537913799189821,-5,-3,0,2,2,-2,-2,2
1537913799189821,-6,0,-1,-1,4,0,3,0
1537913799198797,0,-10,2,1,0,-5,-2,1
1537913799198797,22,20,-2,-1,-2,2,0,5
1537913799213757,-9,34,3,6,0,0,-3,-1
1537913799213757,-5,-8,-1,4,-1,-1,-2,-2
1537913799219742,-3,3,-4,-4,-20,-7,-29,0
1537913799219742,1,17,1,5,-3,-7,22,-2
1537913799227720,-8,-1,5,5,20,26,35,1
1537913799227720,16,9,5,-11,12,17,11,9
1537913799242680,-3,1,-7,-7,1,2,0,-2
1537913799242680,-4,3,-3,-4,-8,6,-20,-4
1537913799249661,-3,-17,-3,0,-12,-39,-30,-6
1537913799249661,-6,1,0,4,3,-7,5,-10
1537913799258637,-2,5,8,-1,5,-12,9,-1
1537913799258637,10,-23,0,-8,2,-3,-7,2
1537913799273597,-26,-27,-3,3,1,13,2,5
1537913799273597,15,16,0,-4,-12,-4,-22,1
1537913799279581,4,7,1,8,-1,-6,10,1
1537913799279581,-24,-11,-12,-15,-2,-10,-2,-17
1537913799287560,8,-14,5,7,3,0,-4,2
1537913799287560,0,-5,-4,0,-4,-1,-5,1
1537913799302520,4,3,-1,0,-2,7,2,-2
1537913799302520,-5,14,6,2,3,4,8,2
1537913799310498,22,13,-4,-12,-4,0,-7,-6
1537913799310498,-7,-7,2,-1,-4,-10,-12,-4
1537913799318477,8,-1,3,1,3,8,17,2
1537913799318477,7,12,10,9,4,14,11,11
1537913799333437,-9,-1,-4,-7,-12,3,-19,-6
1537913799333437,4,-6,1,0,12,-4,16,-3
1537913799340418,-4,-5,2,-13,2,-11,-13,-5
1537913799340418,0,-1,0,9,-12,-10,-10,2
1537913799347399,-7,0,-3,-3,0,-3,1,-17
1537913799347399,9,0,5,6,7,16,13,9
1537913799362360,-54,10,5,0,6,6,-6,-1
1537913799362360,9,31,3,-2,2,-4,8,6
1537913799370338,6,-23,2,-2,1,6,5,-9
1537913799370338,30,60,5,14,-11,-2,-27,-6
1537913799379315,0,5,2,3,-6,-16,10,-1
1537913799379315,-13,-20,-4,-4,-1,1,1,3
1537913799393277,-9,19,12,0,5,10,26,11
1537913799393277,-11,-52,-4,-13,-2,-5,-15,-7
1537913799400258,5,-22,-4,5,5,29,22,-4
1537913799400258,14,12,1,1,7,-1,18,4
1537913799407240,-4,15,8,5,10,0,2,0
1537913799407240,-21,-35,-1,-10,4,2,12,13
1537913799422199,41,53,10,3,-13,-11,-27,-16
1537913799422199,-52,-75,-15,-5,-18,-14,-29,-12
1537913799430178,3,13,0,0,-6,-8,-15,-15
1537913799430178,29,-1,4,-26,2,7,15,16
1537913799439154,-54,-81,3,0,-18,12,-50,-19
1537913799439154,19,-3,0,4,11,-27,18,-4
1537913799453117,-10,-18,-2,-2,12,9,17,0
1537913799453117,-11,26,-2,-1,-4,-7,-9,3
1537913799460098,9,2,-6,-9,4,-10,9,13
1537913799460098,6,9,-4,-1,-3,26,-19,6
1537913799468078,-19,-13,-6,3,-15,-21,5,2
1537913799468078,61,28,10,6,5,-7,24,8
1537913799483037,-55,-10,-11,-2,3,8,-1,-7
1537913799483037,2,16,8,10,-11,-3,-12,2
1537913799491016,-43,-7,-5,-5,-2,-4,-13,-21
1537913799491016,1,-26,1,16,-3,-2,-11,1
1537913799497997,39,49,10,9,-3,-12,-17,-1
1537913799497997,-16,30,0,5,6,10,0,-7
1537913799512957,11,5,3,-10,4,7,26,14
1537913799512957,-44,-8,2,1,3,-6,-4,-6
1537913799519938,-7,-13,-9,-7,6,2,16,0
1537913799519938,0,-22,3,-4,10,1,14,-5
1537913799527917,9,-9,1,-7,5,18,-8,0
1537913799527917,57,31,1,-1,-11,-1,7,15
1537913799542877,-38,-65,-13,0,10,-4,-3,-13
1537913799542877,8,-43,2,-7,-11,1,-18,-2
1537913799549858,-15,0,-14,-21,-27,-19,-34,-25
1537913799549858,-39,-38,2,12,0,-8,-18,-21
1537913799558834,26,43,2,-4,6,12,27,28
1537913799558834,-8,-12,-7,-8,4,-10,-2,-5
1537913799572797,14,11,4,6,3,8,-1,11
1537913799572797,-27,-21,-10,-16,-10,5,-12,-14
1537913799579778,8,-19,0,3,5,-17,15,-7
1537913799579778,-19,-11,7,-1,14,8,19,1
1537913799587757,43,31,3,0,1,-17,6,19
1537913799587757,-23,24,-3,7,0,0,3,1
1537913799602717,62,14,-7,3,-4,2,-4,10
1537913799602717,-22,23,2,3,-2,3,-16,-21
1537913799610696,12,-8,-2,2,0,8,8,10
1537913799610696,-7,-11,-2,2,-5,0,-4,-8
1537913799617677,-15,5,4,1,-6,-3,-24,-3
1537913799617677,13,-1,0,-5,5,5,25,10
1537913799633634,13,-2,12,4,-2,4,3,8
1537913799633634,4,30,-2,4,4,-5,-2,-3
1537913799639618,-12,-16,-7,-11,2,-1,-7,-7
1537913799639618,13,18,2,-3,-10,-5,-13,-3
1537913799647597,1,-5,-5,-1,-1,1,-16,1
1537913799647597,10,12,10,7,9,-7,2,-6
1537913799662557,-13,10,10,-4,4,19,32,9
1537913799662557,-1,-4,-3,-4,-1,2,3,3
1537913799670536,23,-2,-1,2,-3,-7,-5,4
1537913799670536,0,33,-2,-2,-10,17,-15,-5
1537913799685496,11,3,5,11,-2,-27,-3,-6
1537913799685496,-16,-5,4,3,8,5,13,4
1537913799693475,19,24,3,-1,7,-1,6,14
1537913799693475,-1,3,-3,-3,-1,-2,4,-2
1537913799708436,-22,-36,-8,-4,-6,-3,-14,-12
1537913799708436,14,30,0,0,-5,-1,-15,-2
1537913799709433,-21,-20,-7,4,1,-6,5,-13
1537913799709433,1,-7,0,-7,0,1,9,-4
1537913799722398,4,-3,8,-5,-2,2,4,2
1537913799722398,-28,-42,-13,-10,-3,-12,-15,-4
1537913799730376,-3,-7,0,6,-8,-11,-20,-17
1537913799730376,-27,-19,2,-2,6,-1,11,-3
1537913799745336,34,19,8,1,6,16,24,17
1537913799745336,-4,32,2,5,-1,12,-5,-10
1537913799753314,-2,-1,-1,-3,-4,-3,4,3
1537913799753314,5,-2,-2,-4,3,-23,-5,2
1537913799768274,17,25,7,1,-7,-2,-8,7
1537913799768274,11,4,3,4,-3,-3,1,-3
1537913799769272,-9,-14,-7,0,-2,5,2,11
1537913799769272,20,-6,-8,-7,-7,-6,-23,-5
1537913799782237,-40,-34,-4,-1,0,-1,9,-2
1537913799782237,8,-15,5,-3,-2,2,-12,2
1537913799791213,-27,-59,-13,-7,-6,-4,-12,-9
1537913799791213,0,-5,2,-2,4,15,30,6
1537913799805176,1,8,3,-1,6,3,-3,4
1537913799805176,-12,-10,-1,1,-3,-6,3,5
1537913799813154,3,13,4,3,4,5,-7,-6
1537913799813154,-2,-9,-2,-1,-4,-10,0,0
1537913799828114,-33,-14,1,-4,3,3,0,-12
1537913799828114,33,48,12,6,-2,-7,0,3
1537913799829112,4,-7,-7,-4,0,-7,-2,3
1537913799829112,-13,-16,-4,-6,-1,2,-4,-10
1537913799843074,10,43,12,18,0,6,1,-2
1537913799843074,19,12,1,6,-1,3,20,9
1537913799851053,-14,-15,-1,0,1,-1,-11,-9
1537913799851053,15,30,9,4,-2,-1,-8,-7
1537913799865016,10,4,-1,-5,-3,3,0,8
1537913799865016,-17,-20,-4,-6,3,-1,2,-8
1537913799872995,4,23,6,5,8,11,9,0
1537913799872995,-1,-7,-2,-2,-10,2,-21,10
1537913799887954,12,19,2,10,-3,-12,5,-6
1537913799887954,20,-2,6,-7,2,5,3,1
1537913799888952,-31,-12,-8,-5,-5,-12,-5,1
1537913799888952,11,-14,2,2,2,-5,-3,0
1537913799902915,11,-6,-8,-10,-10,-11,-16,-4
1537913799902915,-9,-8,-4,4,3,2,-8,-6
1537913799910893,-2,30,10,1,3,5,14,-1
1537913799910893,-29,-59,-11,-12,1,2,-3,-5
1537913799924856,-26,-29,1,2,-1,0,-5,-8
1537913799924856,-1,-10,-5,-1,3,2,6,6
1537913799932834,20,21,2,-7,0,1,-4,-2
1537913799932834,-12,9,2,3,-5,-3,2,3
1537913799947795,10,-6,3,0,-1,5,-4,-5
1537913799947795,-1,2,4,-2,3,1,4,3
1537913799948792,-3,-5,-8,-1,-4,-1,-7,5
1537913799948792,13,12,-2,1,-1,-4,6,-1
1537913799962754,0,7,3,-2,1,3,3,1
1537913799962754,5,10,0,2,-1,1,-4,-1
1537913799970733,10,10,7,8,4,0,2,-2
1537913799970733,6,6,1,-2,1,-1,5,3
1537913799984696,-50,-45,-14,-9,-2,-9,-14,-10
1537913799984696,8,-6,0,-1,-3,-5,-5,0
1537913799993672,6,-1,2,-3,1,-5,2,-2
1537913799993672,-5,-4,3,5,-2,0,1,-1
1537913800008632,7,18,-1,0,-4,1,4,5
1537913800008632,0,-2,0,1,-6,0,0,0
1537913800008632,-5,-2,-1,-2,-3,-1,1,3
1537913800008632,15,14,2,2,0,1,0,4
1537913800022594,12,-7,-3,-4,-3,-2,-5,-5
1537913800022594,-10,-4,2,2,3,-3,0,-2
1537913800030573,19,12,5,4,4,1,-1,3
1537913800030573,-15,2,0,-1,3,0,-2,-4
1537913800045533,13,5,1,2,3,-4,-1,4
1537913800045533,-6,-8,-3,-1,-3,-3,-4,0
1537913800053512,-8,-18,2,-4,-3,1,0,-4
1537913800053512,-1,2,-3,-1,-1,2,1,1
1537913800068472,3,11,0,-2,-3,-2,3,-1
1537913800068472,5,3,2,1,-3,-3,-3,-2
1537913800068472,0,5,0,0,-4,-1,2,-1
1537913800068472,-12,-5,2,0,0,2,0,-2
1537913800082436,15,19,9,0,2,3,-1,3
1537913800082436,-9,-11,-10,2,4,1,-5,-2
1537913800090415,1,4,-1,-2,1,0,0,-4
1537913800090415,-7,1,2,0,-2,0,0,1
1537913800105377,4,-3,-3,1,-1,-2,-3,0
1537913800105377,1,6,1,-1,-3,0,-2,0
1537913800113353,-1,4,-6,-3,-6,-4,2,-1
1537913800113353,3,9,6,2,-1,-2,1,-5
1537913800127316,10,15,2,2,2,0,7,3
1537913800127316,-13,1,-1,-2,-2,-3,-3,-4
1537913800135294,0,-7,-2,3,4,0,0,3
1537913800135294,9,8,-2,-4,-3,-1,-1,-1
1537913800142275,-8,-3,9,2,3,0,-2,-1
1537913800142275,-8,-6,-2,-3,-3,-1,-2,-4
1537913800150254,0,0,-1,-2,-2,2,1,-1
1537913800150254,-2,4,1,0,0,1,0,-2
1537913800165213,-7,-6,0,-2,1,0,-3,1
1537913800165213,23,9,2,-2,-7,-1,-5,-3
1537913800173192,-16,-18,3,1,-2,0,-6,-2
1537913800173192,-3,-2,1,-2,1,3,-1,-1
1537913800187155,8,9,4,1,-5,-3,-3,0
1537913800187155,-3,20,3,5,0,1,3,1
1537913800196131,5,8,-1,-5,-3,-4,0,1
1537913800196131,-3,-4,0,1,-3,-5,1,0
1537913800202115,3,4,6,2,1,-1,4,0
1537913800202115,6,3,1,0,3,-4,-1,-2
1537913800217075,-10,10,-5,4,0,-2,-2,-2
1537913800217075,-5,-10,1,1,2,-2,0,1
1537913800225054,-5,-5,-7,-3,-4,-4,-1,1
1537913800225054,2,18,8,-2,-2,-1,1,3
1537913800234030,19,1,0,-2,-1,2,1,-2
1537913800234030,-18,-14,-1,-1,1,3,-1,1
1537913800247992,3,3,2,3,-1,1,-3,-4
1537913800247992,-2,-6,0,0,4,0,1,5
1537913800256969,2,-13,-8,-8,-5,-6,-8,-8
1537913800256969,-4,-14,-5,0,-6,-4,-3,-2
1537913800270931,-2,-4,4,-2,-3,-3,-1,-2
1537913800270931,1,-8,-2,-2,-1,-1,1,1
1537913800272926,-3,10,3,3,3,-1,0,-1
1537913800272926,10,13,3,0,2,-2,0,-1
1537913800284894,-1,8,-4,1,2,0,1,1
1537913800284894,2,-5,3,0,1,-3,-1,-2
1537913800293870,8,1,3,2,0,2,0,-3
1537913800293870,-22,-12,-3,-6,-3,-1,-4,-6
1537913800307833,3,-4,1,3,-1,0,2,2
1537913800307833,3,3,2,1,-3,4,1,0
1537913800316809,2,-1,1,2,-1,0,2,2
1537913800316809,6,9,-1,1,2,-3,-2,-2
1537913800331769,0,8,1,-3,-2,-1,0,-2
1537913800331769,-6,-7,-4,-2,-1,-4,-1,-2
1537913800332766,-10,-6,0,1,-1,-3,-1,3
1537913800332766,5,-8,0,-4,-1,-2,0,-2
1537913800344734,4,7,1,2,-1,0,-2,-1
1537913800344734,-4,-2,-7,0,-1,2,2,1
1537913800353710,-3,8,4,0,-3,1,-1,0
1537913800353710,4,9,4,1,0,0,-1,1
1537913800367673,-1,-15,-5,-2,-2,0,-4,0
1537913800367673,-6,-11,-2,-4,2,-1,-6,-5
1537913800376649,-4,4,-1,-1,0,2,-1,3
1537913800376649,-1,0,-1,0,-6,4,1,0
1537913800391608,-1,1,1,-1,0,3,0,-3
1537913800391608,0,-6,1,-2,2,2,1,0
1537913800392606,-5,-11,-3,-3,5,0,2,1
1537913800392606,7,2,5,0,1,-1,-4,-1
1537913800404574,-2,-1,-9,-7,3,-2,0,0
1537913800404574,-8,-1,1,2,1,-2,-4,-5
1537913800413549,5,11,4,5,-4,1,-1,0
1537913800413549,0,14,1,2,-3,3,0,0
1537913800427512,5,12,1,2,-3,0,0,-1
1537913800427512,1,-2,0,1,-1,0,-2,0
1537913800436488,-5,1,1,1,2,0,0,-2
1537913800436488,1,-5,-4,-6,2,-3,-1,0
1537913800451448,-1,3,3,0,-2,-5,0,-1
1537913800451448,2,-3,1,1,1,-3,3,4
1537913800452446,-6,-6,-1,-1,1,-6,0,-1
1537913800452446,-2,-11,-7,-3,-3,-5,0,1
1537913800465411,2,6,0,2,0,0,-6,-1
1537913800465411,-9,-15,-1,-2,-3,-1,-2,-1
1537913800474387,2,-29,-7,-6,-4,-3,-4,-3
1537913800474387,6,-2,0,1,1,1,2,-2
1537913800487353,-1,-16,-6,-4,1,-2,1,-1
1537913800487353,-6,-15,4,2,4,0,-4,-1
1537913800496329,1,18,0,0,5,-2,-1,0
1537913800496329,-6,-2,1,2,-3,-1,-1,-1
1537913800511289,-3,0,4,-5,-1,-1,-4,-1
1537913800511289,-5,-10,-7,-3,-5,-2,1,2
1537913800513283,0,-11,-1,2,-4,-2,-2,0
1537913800513283,-4,1,3,4,-1,1,1,-3
1537913800525252,-2,-5,-6,-8,-2,-2,-3,-4
1537913800525252,-19,1,-7,-1,-4,-2,-2,-4
1537913800534228,18,23,-2,-3,1,0,2,-1
1537913800534228,-15,-1,3,2,3,0,-1,1
1537913800547192,12,0,3,5,1,-2,2,0
1537913800547192,29,37,4,0,-4,-2,4,5
1537913800556168,-69,-59,-7,-8,-2,-3,-10,-16
1537913800556168,10,-10,0,-5,1,-2,0,1
1537913800571128,6,-4,0,0,4,-1,-1,0
1537913800571128,0,5,3,4,2,-3,-2,1
1537913800573123,9,11,1,0,0,-1,0,1
1537913800573123,3,3,1,0,-5,-1,0,1
1537913800585091,-15,-10,2,1,-3,0,0,-2
1537913800585091,0,-4,1,-4,-2,1,-2,-4
1537913800594067,8,-3,-2,1,1,2,1,1
1537913800594067,-4,6,9,4,2,1,2,-5
1537913800608030,0,5,-8,-2,-4,-1,-3,2
1537913800608030,1,4,5,2,1,0,-1,-1
1537913800616008,-1,-4,0,-3,-3,-1,1,3
1537913800616008,2,6,-1,2,-1,-3,0,1
1537913800630968,0,4,4,4,-3,-1,0,0
1537913800630968,-2,-2,-3,-4,-3,0,0,0
1537913800632963,1,-3,6,-2,-1,1,1,0
1537913800632963,9,-1,-1,0,0,1,1,0
1537913800644931,-8,6,0,4,5,-2,2,1
1537913800644931,0,4,-3,-1,3,-3,-3,-1
1537913800653908,-2,-5,5,1,0,1,-1,-1
1537913800653908,19,5,0,-4,-1,-2,-6,4
1537913800667870,0,-3,-5,-2,-3,0,-2,-1
1537913800667870,-5,-3,3,1,-1,1,2,-1
1537913800676847,7,12,8,3,1,0,2,4
1537913800676847,-9,0,0,3,-4,-2,0,1
1537913800691807,-1,-5,3,-1,-2,-1,-1,-4
1537913800691807,0,5,-1,0,-1,-1,0,-3
1537913800692806,-1,-8,-3,-4,-3,-2,-1,1
1537913800692806,-5,-4,-5,-3,-3,-1,0,-4
1537913800704772,-8,-11,-2,0,-1,1,-1,2
1537913800704772,-1,-7,0,2,-3,1,-1,-3
1537913800713749,5,8,5,2,3,-1,1,-1
1537913800713749,-2,2,0,0,-3,0,-1,-2
1537913800727711,0,5,0,0,3,0,1,1
1537913800727711,-2,-4,4,-5,3,-3,-2,-1
1537913800736686,-3,7,0,5,-3,-1,-2,-4
1537913800736686,2,-21,-9,-9,0,-3,-1,-2
1537913800751646,-11,6,10,4,2,0,-1,-4
1537913800751646,-4,-10,-3,-3,-4,-1,-2,0
1537913800752643,7,8,-1,-2,-4,2,-5,-1
1537913800752643,-8,-10,0,-3,-3,2,-3,-1
1537913800764611,1,-4,2,1,-2,-1,-1,-1
1537913800764611,4,8,2,0,0,1,1,2
1537913800773587,-8,-3,-3,0,0,-5,3,-1
1537913800773587,-4,2,3,3,2,-2,3,1
1537913800787550,4,0,-4,-2,-5,-4,-2,-5
1537913800787550,-3,-16,0,-1,1,-1,-2,3
1537913800796526,5,6,-2,-3,-3,0,-3,-1
1537913800796526,-1,23,6,1,1,2,-3,0
1537913800811486,-2,-5,0,-1,-1,1,1,0
1537913800811486,-3,-5,-2,1,2,3,2,-5
1537913800812483,3,7,2,0,1,-3,0,2
1537913800812483,-8,-9,1,-1,2,1,0,-2
1537913800825449,2,8,-1,-2,0,1,-2,0
1537913800825449,2,-5,-3,-2,-3,-2,0,0
1537913800834426,-1,7,-5,2,-4,0,1,-2
1537913800834426,4,16,5,3,0,2,0,0
1537913800847391,-4,-4,-3,-3,-1,2,-1,-1
1537913800847391,4,9,4,-1,4,0,-1,-2
1537913800856367,-1,-5,-2,-3,2,-2,-3,-1
1537913800856367,3,6,-4,-2,-2,-5,-3,-3
1537913800871326,1,5,1,1,-3,-2,0,2
1537913800871326,-1,5,4,4,-2,-1,-1,-2
1537913800873321,1,-4,-1,-1,-2,2,-1,-1
1537913800873321,-3,5,4,-2,-5,-1,-2,-3
1537913800885289,0,-5,-1,-3,-1,0,-2,-1
1537913800885289,-7,-1,0,-2,-3,0,3,-2
1537913800894265,17,12,0,-2,1,-3,-2,-1
1537913800894265,-5,-7,-1,0,2,0,1,0
1537913800907231,0,1,2,-2,-1,-1,3,-1
1537913800907231,-5,-8,-2,-1,0,0,-5,1
1537913800916206,1,-8,1,1,-1,2,-2,0
1537913800916206,-6,-14,-2,-2,0,-1,-2,-3
1537913800931167,5,4,1,-2,1,-1,0,2
1537913800931167,4,4,-2,-2,-2,-2,0,-1
1537913800933161,-19,-11,-1,-1,0,-3,0,-4
1537913800933161,-2,-15,-2,-2,1,-2,-1,1
1537913800945129,0,0,2,1,-3,2,0,-3
1537913800945129,2,7,7,4,0,2,0,-1
1537913800961086,1,-4,-5,-5,-4,-3,-1,-3
1537913800961086,-2,6,0,-2,-4,-2,-2,0
1537913800968067,-5,-7,2,3,0,-2,-3,1
1537913800968067,1,-4,-3,-2,1,-1,-2,-1
1537913800975049,3,7,8,5,1,1,2,0
1537913800975049,-1,5,-6,-1,-2,1,4,2
1537913800991006,-3,-5,-3,-1,-2,-1,3,-4
1537913800991006,3,3,3,-2,-3,-4,0,0
1537913800993001,-3,15,-1,2,-2,3,3,-1
1537913800993001,-1,-1,1,1,1,0,-3,-3
1537913801004968,-1,0,4,-4,1,1,-3,1
1537913801004968,1,-1,-7,1,-1,-1,0,2
1537913801013945,-3,-13,0,-2,-2,-2,-2,-3
1537913801013945,1,0,3,0,-2,0,0,-1
1537913801027907,1,6,3,2,1,-1,0,-1
1537913801027907,-3,3,-3,0,-1,-1,-4,-3
1537913801034889,1,5,2,0,-2,-2,-2,3
1537913801034889,0,0,-3,-1,-1,-1,0,1
1537913801051843,-2,-1,1,-1,-1,-1,0,-4
1537913801051843,-5,-3,-1,-1,-3,1,3,0
1537913801052841,1,-5,1,-3,-3,0,1,3
1537913801052841,5,5,2,1,3,0,1,-1
1537913801073784,4,2,-4,0,-4,-2,0,1
1537913801073784,-1,-5,-6,-4,-4,-2,-5,-4
1537913801075779,0,4,4,3,0,-2,-4,-1
1537913801075779,-3,-7,2,-3,0,0,-3,-1
1537913801087747,1,-3,-8,-4,0,-1,3,-3
1537913801087747,4,6,3,-1,-4,-3,1,-1
1537913801094728,-2,-5,-1,0,3,-1,-3,1
1537913801094728,3,18,3,0,1,-1,-1,0
1537913801110686,2,5,0,1,2,0,-1,-1
1537913801110686,-17,-8,-3,1,-1,-1,-3,-4
1537913801117667,-2,-7,0,-2,-1,0,0,-2
1537913801117667,-1,-13,-2,-2,-3,-1,-1,1
1537913801124649,-6,-29,2,-5,-1,-1,-4,-2
1537913801124649,3,-7,-4,-1,1,2,3,0
1537913801133625,-22,-21,-3,-2,2,-1,-2,-2
1537913801133625,0,-17,2,-1,3,2,1,-4
1537913801148584,-7,-7,-6,-3,-2,4,0,1
1537913801148584,3,1,1,3,-1,-2,-4,2
1537913801154568,4,3,1,-1,2,1,-2,-2
1537913801154568,-2,4,1,1,0,-1,3,-1
1537913801170526,-4,-3,-2,-3,0,-2,-5,-3
1537913801170526,1,-2,-1,-2,0,0,3,-1
1537913801177507,15,9,-3,0,-2,-2,1,-2
1537913801177507,-6,-3,-1,-2,0,-3,0,0
1537913801185486,14,23,7,3,1,-4,0,0
1537913801185486,2,-5,-4,-1,-1,-3,-1,-4
1537913801193464,-15,-16,-2,-7,-1,-3,-4,-1
1537913801193464,-7,5,2,0,-4,-3,-6,-5
1537913801208424,2,6,-1,0,-4,-4,0,-3
1537913801208424,-1,2,4,-1,-2,-2,2,1
1537913801215406,9,2,-4,2,-2,-1,2,3
1537913801215406,1,-11,-3,0,0,-1,0,0
1537913801230366,-7,-1,2,0,-1,-2,-2,2
1537913801230366,-5,-6,2,-3,0,-3,-1,-1
1537913801237347,-2,0,2,0,-2,-1,-1,-3
1537913801237347,2,4,1,1,-2,-2,0,0
1537913801254302,-1,-5,-1,-1,1,-1,-1,-2
1537913801254302,-2,-6,3,-1,0,0,-1,-2
1537913801255299,2,4,-2,-1,-2,-2,-1,0
1537913801255299,4,-7,2,0,0,-1,3,1
1537913801268265,-1,4,4,1,-1,-1,0,1
1537913801268265,-6,-12,-9,-5,-2,-3,-2,-3
1537913801275246,0,12,6,0,0,1,2,-4
1537913801275246,0,6,1,2,2,-1,2,-1
1537913801291203,-4,2,-2,-3,0,0,-1,-1
1537913801291203,11,15,1,4,2,-1,-1,2
1537913801297187,-12,-14,-2,2,-1,-2,-1,-1
1537913801297187,17,18,0,-5,-1,1,-1,1
1537913801314142,-12,-2,0,0,0,2,0,-1
1537913801314142,2,4,1,1,-1,1,0,1
1537913801315139,1,2,1,-1,0,1,0,5
1537913801315139,-5,-1,2,0,-3,-2,-1,-5
1537913801328105,-5,-5,-3,-2,0,-1,-3,-1
1537913801328105,0,6,1,-4,0,2,1,-3
1537913801335087,-1,-2,1,0,1,0,0,-4
1537913801335087,-3,-6,-3,-1,-2,2,-1,0
1537913801351043,3,-2,2,-1,-1,0,1,0
1537913801351043,-10,-10,2,-1,-3,-1,-2,-1
1537913801357027,4,2,3,-2,-6,-4,-4,-2
1537913801357027,-1,0,0,2,-4,-3,-3,0
1537913801373982,-9,-11,-1,-1,-1,1,-3,-2
1537913801373982,1,-2,0,-1,3,-2,0,-1
1537913801374980,-2,-6,0,-2,1,0,-1,0
1537913801374980,0,-1,1,-4,-2,2,-1,-1
1537913801387945,-2,-4,0,2,1,1,2,-3
1537913801387945,-4,-6,-4,-2,-4,-1,-1,-4
1537913801394926,0,7,3,2,2,1,2,-1
1537913801394926,-8,-8,2,4,3,-1,-1,0
1537913801410884,3,1,1,-2,0,-3,-1,0
1537913801410884,-2,2,-7,-2,-3,-3,-1,-3
1537913801417865,2,8,4,-1,-2,-2,-1,1
1537913801417865,0,4,3,-1,0,0,-2,-1
1537913801433822,-7,-4,6,1,1,-1,-2,-1
1537913801433822,6,4,-3,-1,-4,0,0,0
1537913801435817,-2,-4,-2,3,-4,-3,1,0
1537913801435817,1,4,2,2,-2,-2,-1,-3
1537913801447785,4,-2,-1,-1,-1,0,0,3
1537913801447785,-5,-4,1,1,1,3,-1,1
1537913801454766,8,3,-1,-2,-2,1,-4,1
1537913801454766,-14,-1,-2,-1,0,-1,-2,-3
1537913801470724,3,-6,-1,1,2,0,-2,-2
1537913801470724,-4,-5,-1,-3,1,-2,-1,-1
1537913801477705,2,0,-1,1,1,0,0,2
1537913801477705,1,4,0,-1,-2,-1,-1,1
1537913801493662,3,5,3,0,2,-3,-1,1
1537913801493662,0,11,3,0,-1,-1,0,1
1537913801495657,-1,-5,-3,-6,-3,-3,-3,-5
1537913801495657,0,-17,-1,-1,0,-2,-4,2
1537913801508622,1,-1,-1,-1,-2,-1,1,-1
1537913801508622,5,-3,-1,0,0,-1,-2,-1
1537913801514606,-3,-7,1,1,1,1,-2,1
1537913801514606,1,-6,-5,-4,1,-2,-2,-1
1537913801530563,0,7,4,0,-4,0,-2,-1
1537913801530563,-4,2,3,1,0,1,1,-1
1537913801537545,1,2,-2,-2,-1,-1,-2,-2
1537913801537545,-6,-11,-3,-4,2,-2,-3,-4
1537913801553502,1,0,3,-1,-3,-2,-2,-1
1537913801553502,7,2,-2,-4,-2,-4,-3,-2
1537913801555497,0,6,5,1,-1,1,4,0
1537913801555497,4,6,2,1,-1,0,2,2
1537913801568463,2,4,-2,0,-4,-1,-3,-8
1537913801568463,4,18,3,0,-5,1,-3,0
1537913801575443,-7,-16,-3,-4,0,-1,-4,-2
1537913801575443,-1,2,2,2,1,-1,0,1
1537913801590404,10,7,-6,-2,-1,-1,3,2
1537913801590404,-5,2,2,2,1,-1,0,0
1537913801597385,3,13,4,1,2,-1,-2,-3
1537913801597385,8,5,1,0,-3,1,4,1
1537913801614340,-5,-1,6,0,-2,-6,-4,3
1537913801614340,-5,-8,2,1,1,-1,3,-1
1537913801615339,20,19,-4,-3,-1,0,-1,-3
1537913801615339,-14,-10,0,-1,0,-2,-4,0
1537913801628302,4,-2,-3,-1,-2,1,-2,0
1537913801628302,-8,-4,0,2,-1,-3,-10,-1
1537913801635284,-2,17,6,4,-2,2,-1,-6
1537913801635284,1,-4,5,2,0,7,3,2
1537913801650243,8,3,-1,-4,-2,-2,-4,1
1537913801650243,-5,9,3,2,0,0,5,-4
1537913801657225,-12,-12,2,3,3,9,16,2
1537913801657225,-11,-9,2,-7,-3,-1,2,4
1537913801674179,-6,9,8,11,2,0,-12,6
1537913801674179,12,-4,0,-4,-3,-4,-2,-1
1537913801675177,-3,-2,0,4,0,-1,-3,-3
1537913801675177,3,19,5,1,-2,-3,-6,-4
1537913801688142,-6,-13,1,-2,0,-3,3,1
1537913801688142,-3,-1,1,3,4,2,1,-5
1537913801695123,-2,-8,1,-4,0,4,7,5
1537913801695123,3,4,2,-2,-1,-2,-4,-6
1537913801711081,-13,-18,-3,-1,-3,-5,-5,-1
1537913801711081,7,6,3,2,-4,-4,0,3
1537913801717065,-4,-37,-10,-11,-9,-10,-9,-16
1537913801717065,0,-19,1,-1,1,1,2,2
1537913801734019,-3,-5,2,1,6,6,8,-4
1537913801734019,-1,-1,-4,-6,2,3,0,3
1537913801735018,1,8,-3,1,-2,-8,-15,6
1537913801735018,6,7,-3,-3,-6,-7,-2,-1
1537913801747982,1,3,4,-3,-3,0,4,-7
1537913801747982,-9,-13,1,0,0,5,11,9
1537913801755961,-15,-8,3,-5,-3,0,0,5
1537913801755961,0,-12,3,6,-2,-3,-10,-5
1537913801770921,-8,-3,-2,-1,3,4,1,-5
1537913801770921,12,18,5,4,-3,-1,-6,-2
1537913801777902,-9,-16,0,2,1,-1,6,2
1537913801777902,3,-6,-2,0,-2,-6,-3,3
1537913801793860,-1,-6,-3,-3,0,1,4,-7
1537913801793860,-10,-12,1,0,1,4,5,3
1537913801794857,8,16,4,-3,0,-2,-9,1
1537913801794857,0,9,1,1,-1,0,1,-6
1537913801807822,-4,7,2,3,0,-6,-4,-2
1537913801807822,-1,-5,0,-2,1,-5,-2,-1
1537913801816798,0,6,3,1,2,2,8,5
1537913801816798,1,10,2,-1,-1,4,2,0
1537913801830761,4,5,-4,-2,-5,-2,-7,-1
1537913801830761,5,9,1,1,-5,-2,-5,-13
1537913801837742,-4,8,0,1,-1,-1,0,-4
1537913801837742,-5,-12,-7,-5,0,-2,-2,-4
1537913801853699,3,7,1,-1,-2,0,2,2
1537913801853699,-3,-1,-1,1,-1,-4,-1,-3
1537913801855694,9,11,3,1,-1,-2,-3,-3
1537913801855694,2,-8,-2,-2,0,1,0,-1
1537913801867662,0,24,3,4,-2,-3,-4,1
1537913801867662,-3,-10,-4,-1,-4,0,-2,1
1537913801876638,-12,-4,-1,4,1,5,11,-1
1537913801876638,-2,4,7,1,3,6,18,11
1537913801890601,8,16,-1,-1,-1,1,2,1
1537913801890601,-4,-13,0,-2,0,-6,-3,0
1537913801897583,18,10,2,3,-2,-6,-11,-6
1537913801897583,-34,-13,2,1,0,0,-4,-6
1537913801913540,0,-29,-6,-5,0,2,-5,-3
1537913801913540,8,3,3,1,3,1,3,2
1537913801915534,7,11,-1,0,0,0,3,3
1537913801915534,1,7,-2,1,-4,-5,-10,-2
1537913801927503,-8,-8,2,1,-3,-2,-6,-2
1537913801927503,6,6,-3,-4,-8,6,-7,-7
1537913801936478,20,3,4,4,9,-1,12,13
1537913801936478,-19,-19,-7,-8,-1,-8,-1,-4
1537913801950441,-12,-21,-2,-2,2,2,-2,-4
1537913801950441,-5,4,1,-2,-1,-2,-5,-2
1537913801957423,11,25,5,1,-4,2,-2,-2
1537913801957423,1,12,-5,1,2,5,-5,-7
1537913801973380,17,54,11,15,1,-9,10,14
1537913801973380,-49,-26,-5,-2,-1,-2,-8,-14
1537913801975374,-25,-19,-5,-6,0,6,-3,-6
1537913801975374,12,-14,6,0,0,1,17,9
1537913801987343,9,-7,2,-5,0,1,6,9
1537913801987343,2,-16,-5,-4,2,-3,-15,-14
1537913801996318,10,5,-1,1,-5,-5,-8,-5
1537913801996318,9,26,3,9,-3,2,8,-5
1537913802010281,-4,-5,-5,-5,9,9,7,2
1537913802010281,17,14,6,-2,1,-7,-3,9
1537913802017262,-2,-11,-2,-2,-6,-6,-16,-7
1537913802017262,17,23,0,-2,-2,8,12,11
1537913802033220,-29,-59,-11,-10,-10,-9,-11,-8
1537913802033220,3,-17,1,2,8,1,7,6
1537913802040201,14,-17,-4,0,-1,-2,0,10
1537913802040201,-31,26,-1,0,-10,-11,-25,-21
1537913802047182,19,28,8,-2,2,8,20,18
1537913802047182,-8,-15,-7,-6,1,3,-8,-15
1537913802064137,7,37,5,12,-9,6,-4,7
1537913802064137,-1,-4,1,-4,5,-3,-13,-2
1537913802071119,-6,-16,-6,-2,-6,-22,-16,-6
1537913802071119,-1,33,8,0,-5,-2,9,1
1537913802077102,1,1,5,-9,3,2,17,5
1537913802077102,9,-4,-1,-5,2,12,9,-1
1537913802093060,3,9,4,-2,4,3,-3,-8
1537913802093060,8,8,4,-3,3,-3,-1,9
1537913802100041,-16,-33,-10,-5,-1,-3,-14,-16
1537913802100041,6,6,4,10,0,-4,1,9
1537913802107022,-10,-32,-1,2,0,3,-2,-10
1537913802107022,-12,-35,-2,5,-5,-6,4,17
1537913802115998,-6,-2,-14,-6,-10,-11,-32,-27
1537913802115998,-19,-8,4,7,-5,0,-3,-8
1537913802130958,6,12,3,3,5,13,25,12
1537913802130958,-2,15,4,-8,-1,-4,1,-6
1537913802137940,23,45,4,-1,3,0,7,11
1537913802137940,-17,-15,-1,-2,-3,-10,-5,1
1537913802152900,-1,-19,-4,-4,-10,-11,-30,-17
1537913802152900,-3,-8,-10,-1,0,0,-3,-12
1537913802159881,-1,-3,7,0,12,13,25,15
1537913802159881,0,-8,-2,-11,3,2,-12,-2
1537913802176836,-7,-1,7,-1,-1,-3,0,-5
1537913802176836,48,25,2,2,-3,5,0,3
1537913802177833,-34,7,-3,6,-5,-11,-2,-10
1537913802177833,18,6,4,0,2,5,9,2
1537913802190799,-20,-9,-4,-6,-10,6,-10,0
1537913802190799,61,5,3,6,4,-12,6,5
1537913802197780,-71,-35,-7,-2,6,-1,4,-10
1537913802197780,-21,-31,-1,-2,-5,-7,-18,-3
1537913802212740,5,19,-1,0,-2,-2,-1,-2
1537913802212740,-36,-13,-8,-1,-3,7,5,1
1537913802219721,40,6,7,-4,1,2,-2,13
1537913802219721,2,3,-2,4,2,-6,-1,-5
1537913802236676,-4,-19,-4,-2,-1,2,-7,-7
1537913802236676,-8,3,6,1,-2,-2,3,4
1537913802237673,-17,-28,3,1,5,1,15,-1
1537913802237673,22,4,-6,-10,1,-1,11,15
1537913802250638,-5,5,-11,5,-6,1,-7,-5
1537913802250638,16,26,6,3,-3,-3,-7,-2
1537913802257620,-9,-1,3,3,-2,1,3,0
1537913802257620,34,30,5,3,0,0,5,-3
1537913802273577,36,35,8,4,3,-1,5,11
1537913802273577,-24,-7,-5,0,-3,-2,-13,-9
1537913802279561,1,-1,-1,-3,-6,-3,-7,-8
1537913802279561,-12,-5,-1,-1,3,4,10,7
1537913802296516,36,25,0,-6,-2,-3,-6,0
1537913802296516,-21,-8,-1,4,-3,-7,-6,-8
1537913802297513,14,7,2,2,5,13,26,21
1537913802297513,-7,-29,-6,-11,6,11,11,4
1537913802310479,-12,-1,1,-7,-1,-9,-7,-16
1537913802310479,7,-11,7,8,5,9,2,7
1537913802317460,-5,-41,-13,-13,-6,-16,-20,-7
1537913802317460,2,27,4,6,-9,-3,5,10
1537913802333417,-2,21,7,3,2,-2,3,5
1537913802333417,-14,7,-2,-4,-5,-4,-16,-10
1537913802340399,21,6,1,3,1,-5,-9,-1
1537913802340399,8,-2,2,3,1,6,10,6
1537913802356356,-11,-36,0,-7,-2,2,10,-7
1537913802356356,14,25,-1,-1,-2,-5,-7,-6
1537913802357353,-16,-12,-1,3,1,3,1,-6
1537913802357353,7,21,13,-1,0,1,3,-1
1537913802370319,-1,-2,-3,0,0,0,0,9
1537913802370319,-3,-25,-10,-5,3,2,-1,-2
1537913802377300,4,10,0,-1,-2,6,-8,6
1537913802377300,-2,-18,0,4,3,4,-1,-4
1537913802393257,-2,6,5,-2,10,2,14,4
1537913802393257,-47,-45,-6,-4,-6,-10,-17,-5
1537913802400239,1,-12,-7,-3,-2,-13,-14,-7
1537913802400239,-7,7,-1,-6,1,8,3,-15
1537913802416196,-26,-40,-5,2,6,12,10,0
1537913802416196,-18,-21,5,-7,2,-4,1,5
1537913802418191,35,52,2,8,-5,-3,-2,-5
1537913802418191,-1,0,-3,-4,-6,9,-3,-1
1537913802431156,4,25,-4,2,-7,-19,-13,-6
1537913802431156,48,31,8,6,7,0,10,10
1537913802437140,-44,-31,3,-5,7,8,5,-6
1537913802437140,-29,-45,-6,-3,-1,-12,-12,3
1537913802453097,39,26,2,-3,-8,-4,-15,-9
1537913802453097,-8,8,1,1,-8,-1,11,4
1537913802460078,7,13,11,4,16,17,16,7
1537913802460078,31,2,-3,-6,1,-7,-15,1
1537913802476036,-53,-56,-2,7,-4,-5,0,-11
1537913802476036,-6,-13,-5,-5,-1,8,21,10
1537913802478031,8,1,-10,-3,-6,-3,-8,-9
1537913802478031,-11,17,8,1,-2,-1,-3,1
1537913802490996,7,0,-1,1,1,-2,-3,0
1537913802490996,15,9,6,3,2,19,15,-1
1537913802496980,-13,0,-5,-9,-5,-13,-8,-1
1537913802496980,10,14,1,7,3,-8,-6,-4
1537913802512937,6,14,1,-1,-1,-4,-3,6
1537913802512937,0,12,3,3,-1,-4,-3,-6
1537913802519919,-6,-5,-4,1,-5,7,3,6
1537913802519919,11,-1,0,-1,-4,-2,-1,-1
1537913802535876,-22,25,-1,9,-1,1,4,-1
1537913802535876,47,20,3,-2,4,7,-1,7
1537913802536874,7,4,0,5,-2,-1,3,-4
1537913802536874,17,26,5,3,-5,-12,-7,-1
1537913802551834,-16,-15,-1,0,2,7,11,2
1537913802551834,-29,-23,-1,-4,2,-1,-3,0
1537913802557817,6,-14,-3,-2,-4,-4,1,2
1537913802557817,-16,-8,-4,-3,-3,-5,-1,-4
1537913802572778,11,1,1,-1,3,10,3,7
1537913802572778,-6,7,1,-1,-3,-6,-6,-6
1537913802579759,-2,-4,0,-2,-3,-5,0,1
1537913802579759,-8,-28,-13,-2,-3,2,-8,3
1537913802595716,8,15,3,-2,0,0,-3,-8
1537913802595716,6,2,-1,-3,0,-2,-1,7
1537913802596714,18,6,4,3,-1,-3,-5,5
1537913802596714,-23,-32,-9,-4,3,0,1,-7
1537913802611674,9,14,9,3,-5,-3,-5,-2
1537913802611674,-11,-11,0,2,-2,2,3,-2
1537913802617657,1,3,1,-3,-1,-1,0,2
1537913802617657,8,12,6,3,1,-4,-5,-8
1537913802632617,-14,-21,-1,-4,4,3,4,-1
1537913802632617,0,8,-2,-1,-3,-3,-3,-1
1537913802639599,5,8,4,10,0,3,3,6
1537913802639599,-6,15,-1,1,-2,-1,3,-9
1537913802655556,11,5,5,-1,1,0,-2,4
1537913802655556,-3,5,4,0,0,0,2,-1
1537913802656553,-5,-1,-2,-6,0,-3,-3,-3
1537913802656553,0,0,-4,-3,-3,-1,1,0
1537913802671514,0,-4,0,-3,-1,-1,-1,0
1537913802671514,2,3,5,2,2,-1,-2,-7
1537913802677497,-5,5,-5,-3,0,-2,-3,-1
1537913802677497,3,6,2,-1,-1,0,-3,-3
1537913802692457,-5,-5,-2,-2,-3,-3,-3,-2
1537913802692457,-9,-23,6,1,4,1,1,-1
1537913802700436,15,12,-3,-4,-1,-1,-4,-2
1537913802700436,2,7,0,3,-2,0,0,0
1537913802715396,2,2,-2,-2,-1,-1,2,3
1537913802715396,-1,-11,-7,-2,-2,0,4,3
1537913802716393,-11,0,4,-3,-2,-3,-6,-8
1537913802716393,-3,-10,-1,-2,-1,-1,-2,1
1537913802731354,10,8,5,-1,2,-1,0,2
1537913802731354,-3,1,-5,1,0,-3,-4,-3
1537913802737338,-5,-20,1,-5,0,0,-1,0
1537913802737338,-1,2,2,1,0,0,-1,1
1537913802752298,-2,-4,0,-1,-2,1,-3,-2
1537913802752298,3,6,-3,-2,-2,-2,2,0
1537913802760276,-4,-7,3,0,0,-1,1,-2
1537913802760276,2,-6,2,0,-1,-1,-1,-3
1537913802775236,-1,11,-1,-1,-2,-1,3,2
1537913802775236,1,5,0,-1,-1,-3,-1,0
1537913802776234,-3,-2,0,1,-1,-3,-3,-3
1537913802776234,2,9,6,2,0,-4,-1,-1
1537913802791193,1,-2,-5,-3,0,0,-1,-5
1537913802791193,0,5,-3,-4,-4,0,-2,-1
1537913802797177,-6,-5,2,1,1,-1,-1,0
1537913802797177,0,-1,4,0,-1,0,-2,-2
1537913802812137,-1,-1,6,3,0,0,-2,3
1537913802812137,1,13,-5,-3,-3,-1,-4,1
1537913802820116,-1,-1,3,0,-2,1,1,1
1537913802820116,0,3,-1,-2,0,1,2,-1
1537913802836073,2,-1,2,-2,-3,-3,0,3
1537913802836073,4,0,1,0,-1,1,3,-3
1537913802836073,4,1,0,0,-1,0,1,1
1537913802836073,-2,0,-3,-3,-3,-1,-1,-3
1537913802851034,-2,-5,1,1,1,-1,-1,-1
1537913802851034,-1,-2,1,-4,1,-1,-2,0
1537913802857017,3,3,-1,0,-2,-1,-1,-2
1537913802857017,-1,-5,-1,3,0,-8,0,1
1537913802872975,1,-2,-1,-2,-4,-2,-2,-3
1537913802872975,-4,-4,0,-3,0,6,-3,-1
1537913802879956,-4,1,1,3,1,-8,-3,-2
1537913802879956,-2,-6,-4,1,0,3,-1,0
1537913802895913,-3,-6,0,1,0,-3,0,-1
1537913802895913,-2,4,1,2,-1,-1,3,1
1537913802895913,-2,-1,0,-1,0,9,6,0
1537913802895913,2,-1,0,-2,2,2,-1,-2
1537913802911871,-2,1,0,1,-4,-3,-1,-1
1537913802911871,-2,-9,-1,1,-1,15,3,1
1537913802917855,-1,-4,-1,-2,-7,0,3,-2
1537913802917855,-2,-6,4,3,3,-8,-7,-4
1537913802932815,0,-2,0,-1,0,-15,-8,-2
1537913802932815,-3,1,-2,0,-4,-18,-4,-1
1537913802939796,-5,-3,4,-1,-1,20,3,1
1537913802939796,1,0,-5,1,2,-4,-2,2
1537913802954756,4,4,2,-2,0,13,4,1
1537913802954756,-3,0,2,0,-9,2,6,-2
1537913802962735,-1,-3,-4,-4,10,-32,-13,-2
1537913802962735,0,2,-2,0,-8,3,0,-2
1537913802971712,-2,-1,3,1,1,-11,-8,0
1537913802971712,2,2,-5,3,0,-3,1,1
1537913802977695,-1,-6,1,-1,-1,37,9,2
1537913802977695,-2,-3,2,-8,2,-25,-6,-2
1537913802992655,0,-3,-3,3,0,3,4,-3
1537913802992655,-1,1,1,0,-4,12,3,-2
1537913802999636,0,0,0,1,0,-26,-12,-3
1537913802999636,-2,1,-1,-1,0,15,10,1
1537913803014596,0,-2,-4,-5,-4,-22,-5,-2
1537913803014596,0,-1,-1,0,0,3,-8,0
1537913803022575,1,-4,-4,0,-4,25,4,0
1537913803022575,2,0,2,0,4,-2,-4,-2
1537913803031551,-3,-4,0,1,-5,-14,-4,-3
1537913803031551,2,1,-2,-1,-3,8,1,1
1537913803037535,-4,-3,0,-4,-6,-37,-16,-2
1537913803037535,-2,-1,2,-1,-5,11,10,-1
1537913803052495,0,3,-4,1,9,22,12,2
1537913803052495,1,-4,-1,1,9,15,6,0
1537913803060473,0,0,1,-2,-2,35,12,-1
1537913803060473,0,-3,-1,-2,-1,-39,-20,1
1537913803075434,0,-3,-1,-2,-6,-5,-11,-3
1537913803075434,-2,0,0,-1,3,-13,-1,-2
1537913803082415,1,-2,-1,-1,1,15,7,2
1537913803082415,0,-2,0,0,2,-1,7,1
1537913803098372,-1,1,0,1,1,-5,-6,-2
1537913803098372,0,-1,0,0,3,10,6,-3
1537913803098372,-2,1,-1,2,1,2,5,0
1537913803098372,-2,4,-1,-1,3,-6,-22,-3
1537913803112335,1,-1,-1,-4,-14,-24,-5,1
1537913803112335,-3,-2,-3,-4,-6,-21,-11,-2
1537913803120314,1,-1,4,-1,-3,-13,-4,-1
1537913803120314,0,0,-1,0,1,17,12,1
1537913803135274,0,-1,0,-2,5,62,9,-1
1537913803135274,-1,1,0,-3,0,-29,2,-1
1537913803142255,-2,-1,2,-3,-4,-13,-4,-1
1537913803142255,0,-1,1,-2,-7,-19,-13,-1
1537913803158213,-3,1,2,1,5,-1,-8,-2
1537913803158213,-1,1,1,0,-4,-17,-8,1
1537913803159210,-1,1,0,0,-4,-27,-4,0
1537913803159210,0,-1,1,0,-3,22,11,1
1537913803172176,0,1,1,0,9,20,7,0
1537913803172176,0,3,2,-1,4,34,8,-2
1537913803180154,0,-1,0,0,-2,-44,-17,-4
1537913803180154,-4,1,-3,-3,-15,-34,-20,-2
1537913803195114,1,1,0,3,4,19,15,3
1537913803195114,-2,0,-1,-1,11,17,13,0
1537913803202095,1,0,1,0,2,54,5,-2
1537913803202095,-2,-2,-2,-1,-7,-56,-10,-3
1537913803218053,-1,-3,1,-3,-7,-20,-9,0
1537913803218053,-1,-3,1,-1,3,25,13,2
1537913803219050,-2,-3,-3,2,13,66,25,2
1537913803219050,-2,-2,2,-1,1,-9,-8,-1
1537913803232015,-2,0,-1,-5,-25,-81,-37,-5
1537913803232015,-1,-12,0,-2,-9,-42,-20,-5
1537913803239994,5,28,6,7,1,-2,7,4
1537913803239994,1,4,0,2,11,62,26,3
1537913803254954,-1,-3,-1,-1,8,14,11,-1
1537913803254954,7,7,4,-5,0,-6,-10,1
1537913803262932,-6,-5,-2,0,-1,-8,-4,-2
1537913803262932,4,7,-2,2,1,17,6,0
1537913803277892,2,5,1,1,2,3,5,0
1537913803277892,4,1,-2,-1,-1,13,-1,-2
1537913803278890,8,-1,-2,-3,-6,-25,-5,10
1537913803278890,-25,-13,-2,0,-9,-2,-4,-14
1537913803292852,11,8,-1,1,5,15,9,3
1537913803292852,15,3,-1,4,4,30,14,7
1537913803299834,-29,-3,1,-3,-6,-10,-1,-6
1537913803299834,-3,-17,2,-1,-7,-42,-18,0
1537913803314794,0,3,1,4,2,8,4,-1
1537913803314794,-5,0,0,4,10,52,16,-1
1537913803322772,9,0,-3,-5,16,-37,-22,-4
1537913803322772,5,-1,1,-1,-32,-2,-1,6
1537913803337732,-7,-6,0,-4,1,4,12,-5
1537913803337732,-7,-3,0,10,17,88,59,9
1537913803338730,2,-4,-6,8,81,51,47,-3
1537913803338730,-3,6,-1,-8,-5,-84,-92,-12
1537913803352693,1,-3,0,-11,-49,84,9,-4
1537913803352693,1,7,3,16,-9,-16,46,5
1537913803359674,-5,-3,-2,-5,81,24,36,-8
1537913803359674,1,2,0,-11,-67,-30,-67,-3
1537913803374634,1,-14,-2,-15,-46,-98,-50,-3
1537913803374634,-4,-7,3,4,-31,-30,-29,4
1537913803382613,3,-5,3,15,43,105,83,14
1537913803382613,1,0,-3,11,82,-7,67,11
1537913803398570,-3,2,0,-11,40,87,1,-8
1537913803398570,-5,2,0,-18,-121,-109,-84,-14
1537913803398570,1,1,-1,12,19,45,41,-4
1537913803398570,1,-5,-2,-2,12,-48,-10,-9
1537913803412532,-5,-5,-4,-3,-25,-96,-77,-6
1537913803412532,5,-1,-1,-8,29,58,4,3
1537913803419514,4,-40,-2,-11,-90,-115,-88,2
1537913803419514,12,-8,-9,8,10,127,57,7
1537913803434475,-30,11,-5,9,78,-33,59,-3
1537913803434475,-22,-3,-9,-19,42,-60,-36,-23
1537913803442453,8,25,16,-5,68,52,-5,12
1537913803442453,-12,61,15,2,52,127,77,-1
1537913803458410,-2,-5,16,1,127,121,97,2
1537913803458410,19,20,-3,-20,127,-53,-8,0
1537913803458410,-15,13,-20,40,21,-123,-55,-9
1537913803458410,-1,-74,-19,106,-60,-43,-97,-6
1537913803472373,115,-11,25,127,-128,-15,-57,24
1537913803472373,-72,-42,41,-73,-107,83,32,8
1537913803480352,-85,-22,31,-127,-117,-128,-23,-23
1537913803480352,-127,7,6,-128,-7,-32,-11,-2
1537913803495312,-28,25,-16,-105,-96,5,17,-24
1537913803495312,88,4,-22,8,-128,108,76,3
1537913803502293,96,-22,-19,24,-128,127,45,-5
1537913803502293,105,-15,-13,46,-39,-35,-49,-13
1537913803518250,56,8,-4,66,88,-45,-12,9
1537913803518250,37,22,0,61,127,45,7,7
1537913803519247,9,20,-9,23,126,-110,-62,-2
1537913803519247,23,20,6,30,61,-18,-5,6
1537913803532213,-31,-7,-2,0,42,63,21,11
1537913803532213,17,3,0,13,85,-123,-34,2
1537913803540191,99,21,1,34,51,127,42,10
1537913803540191,127,-7,5,-12,-21,7,67,9
1537913803555151,63,-42,-5,-30,-14,-128,-120,-11
1537913803555151,-107,0,1,10,-54,67,14,-1
1537913803562133,-111,-6,4,8,-1,74,27,4
1537913803562133,-128,-22,5,-12,81,122,27,-7
1537913803578090,-101,29,0,-19,-49,-65,-16,-14
1537913803578090,61,55,10,11,-95,-44,-38,-5
1537913803579088,-19,-75,-1,-14,-19,-19,-32,5
1537913803579088,53,82,-4,-4,25,127,67,2
1537913803592053,-124,72,4,4,43,47,61,4
1537913803592053,-83,62,4,2,30,25,-9,18
1537913803600031,-104,-38,-2,-9,-84,-88,-58,-34
1537913803600031,6,-74,14,15,-13,-44,10,-10
1537913803614991,-73,-116,-9,-7,24,41,25,5
1537913803614991,-91,-67,-3,2,78,63,40,-5
1537913803621973,4,19,2,-1,-42,19,-56,-7
1537913803621973,26,-3,0,-4,-93,-110,-39,3
1537913803637930,127,48,14,-2,-26,-22,4,-3
1537913803637930,127,-14,-2,-2,49,23,8,-2
1537913803638928,123,39,-8,-3,5,127,61,13
1537913803638928,47,28,-5,-14,-10,-85,-87,-15
1537913803652890,60,16,-1,-1,-58,-7,7,12
1537913803652890,1,-4,1,0,-12,-62,-16,7
1537913803659871,-38,23,3,5,25,-27,6,1
1537913803659871,0,-3,-10,-3,29,60,34,7
1537913803674832,96,10,-16,-9,35,105,31,-6
1537913803674832,118,24,2,-6,17,-69,-49,5
1537913803682810,-63,97,7,0,20,20,-3,-5
1537913803682810,97,123,11,11,-30,-26,28,7
1537913803697770,8,-26,-2,-1,5,-5,14,-4
1537913803697770,-8,-100,-4,8,3,35,-43,-36
1537913803698767,43,-125,3,4,-93,-104,-2,3
1537913803698767,-78,-103,-1,-2,-20,-56,14,4
1537913803712730,-14,10,9,1,4,8,5,3
1537913803712730,21,60,7,-3,14,-1,-15,-7
1537913803719711,7,35,3,-5,11,-13,1,6
1537913803719711,-50,51,7,-2,55,70,11,4
1537913803734672,-17,14,-10,-1,-19,32,13,8
1537913803734672,-53,-35,-14,-2,-4,30,16,-6
1537913803742650,-3,0,6,-5,31,19,12,1
1537913803742650,20,-19,-24,-17,-19,79,-2,-7
1537913803751626,24,-11,15,1,3,-18,-1,25
1537913803751626,-80,-16,-1,3,-27,-58,-36,-41
1537913803757610,0,-21,-10,17,-12,-50,-14,-3
1537913803757610,-51,15,8,9,23,18,-5,-2
1537913803772570,-128,-25,0,-1,53,19,7,5
1537913803772570,-87,0,2,0,-78,-5,22,7
1537913803779551,-7,32,11,1,1,-54,-15,8
1537913803779551,24,-6,-3,-4,-14,-26,-4,-1
1537913803794511,102,-7,2,-2,28,24,-7,-10
1537913803794511,118,0,-2,-8,5,-2,11,8
1537913803802491,27,-14,-9,-11,5,23,4,-2
1537913803802491,-33,-27,1,9,28,127,29,1
1537913803811466,-25,39,5,-7,-41,-128,-63,-5
1537913803811466,-43,-13,-13,-2,7,0,12,9
1537913803817450,14,-8,-5,9,-4,78,17,-6
1537913803817450,-26,-4,3,-5,30,-21,8,0
1537913803832410,-19,-4,8,-2,-14,7,-21,-14
1537913803832410,13,-11,-10,-1,3,-44,1,4
1537913803840389,20,41,2,-5,15,3,9,2
1537913803840389,8,6,3,1,-32,58,1,-4
1537913803855349,-8,-9,-2,-10,-44,-70,-16,-1
1537913803855349,3,13,9,2,16,52,7,7
1537913803863328,15,8,-1,-6,-57,-78,-14,9
1537913803863328,1,-6,-5,-5,12,15,14,-3
1537913803870309,-10,-6,-3,5,27,48,1,-1
1537913803870309,4,22,10,-3,1,6,7,-1
1537913803885272,11,12,8,1,8,22,1,0
1537913803885272,-6,-22,-10,-2,-4,-81,-12,4
1537913803892251,-17,-30,-20,-7,10,47,-3,-9
1537913803892251,7,-10,3,3,7,-52,-14,-2
1537913803900230,8,19,4,1,4,32,12,0
1537913803900230,-3,-20,1,2,10,37,12,4
1537913803915189,-7,3,0,-1,0,-67,-28,-7
1537913803915189,5,0,3,3,-9,7,14,1
1537913803923168,0,-18,-1,-7,-6,40,-17,-3
1537913803923168,1,10,7,6,-16,-33,15,10
1537913803930149,0,4,0,3,19,99,20,-4
1537913803930149,-5,4,-2,-6,-32,-64,-17,-1
1537913803946106,0,-4,0,2,24,13,12,0
1537913803946106,0,3,1,-1,11,-6,-10,-1
1537913803952090,-1,2,4,1,13,13,18,-2
1537913803952090,4,6,-3,-1,-9,6,-6,-2
1537913803960069,-5,-12,0,-2,6,-3,-8,-5
1537913803960069,2,4,7,0,14,13,2,1
1537913803975029,2,4,-2,-5,-30,-27,-4,0
1537913803975029,0,-8,-6,0,1,15,-4,-2
1537913803983008,5,-2,1,-1,-4,-32,-3,-1
1537913803983008,-10,-3,3,-1,-4,0,-3,-7
1537913803989990,-3,0,-1,6,12,18,9,0
1537913803989990,-3,7,0,-2,2,-15,-6,3
1537913804005947,-4,-8,2,1,-4,-4,-3,-4
1537913804005947,2,0,4,1,-12,-14,2,0
1537913804012928,0,-5,3,1,6,25,13,3
1537913804012928,-2,-4,1,-1,2,42,9,2
1537913804019910,2,-10,-2,-3,8,-27,-16,-3
1537913804019910,-1,4,0,0,-9,-7,5,-1
1537913804034869,-1,5,2,0,12,17,2,0
1537913804034869,2,-1,-2,-4,-5,-5,-2,-1
1537913804042848,-5,0,0,0,-2,-29,-15,-1
1537913804042848,-2,-1,1,1,-3,-22,-13,-4
1537913804051824,-3,-5,-4,1,-10,-13,7,2
1537913804051824,1,6,2,1,4,20,3,0
1537913804065787,-3,-6,-1,-3,4,13,6,0
1537913804065787,1,0,2,0,-6,1,-6,-4
1537913804072768,-3,4,2,4,-5,-9,0,0
1537913804072768,5,-1,0,2,0,9,1,-2
1537913804079749,1,-4,-1,-1,-2,-19,-4,-1
1537913804079749,3,2,-2,-2,4,-3,0,1
1537913804094709,-2,1,-3,-2,-3,7,4,-3
1537913804094709,-7,-3,0,-2,-3,-13,-8,-4
1537913804102688,4,6,1,2,5,17,4,1
1537913804102688,-10,-5,1,-1,5,10,1,0
1537913804111664,0,-2,0,-1,-6,-10,-5,0
1537913804111664,-1,3,0,-1,4,18,-4,2
1537913804125626,-1,3,-3,-3,-11,-34,-11,-3
1537913804125626,-1,-1,-1,1,-6,-14,-2,0
1537913804132608,-1,-1,0,0,0,2,2,0
1537913804132608,-2,-1,-1,-1,6,10,6,1
1537913804139589,-2,-2,0,1,8,27,7,-2
1537913804139589,2,-3,1,-3,-4,-9,-5,0
1537913804154549,1,0,2,-3,-4,4,3,-2
1537913804154549,4,8,-1,2,0,-14,-6,-1
1537913804162528,-3,6,-1,-1,1,7,1,-2
1537913804162528,1,4,0,0,-3,-16,-8,-2
1537913804171504,2,3,-1,1,4,6,0,-1
1537913804171504,-5,-2,-2,-1,-1,7,3,-3
1537913804185467,-1,0,0,-1,-2,-25,-9,0
1537913804185467,1,0,2,-3,10,21,6,-1
1537913804192449,-5,-7,1,-3,-3,5,-3,1
1537913804192449,0,-2,0,1,-2,-19,-7,-2
1537913804200428,-2,0,-2,0,-7,19,-3,-2
1537913804200428,1,0,-2,2,-5,-25,-4,-2
1537913804215387,-1,-2,1,0,0,-16,-1,-1
1537913804215387,0,-4,3,0,2,-13,-6,1
1537913804222369,2,-1,0,1,6,21,8,1
1537913804222369,-1,-4,-1,-3,3,9,0,1
1537913804231345,-1,-1,-2,-2,-3,-4,3,-1
1537913804231345,0,-1,-2,-2,10,32,12,1
1537913804245307,-2,-1,0,0,7,21,-1,-2
1537913804245307,0,1,2,-1,-20,-40,-5,-1
1537913804252288,-3,0,-1,5,-2,-17,-15,-3
1537913804252288,0,2,0,-1,-11,-18,-1,1
1537913804260266,-1,-3,1,-1,5,-1,0,1
1537913804260266,1,-1,1,0,5,20,4,-2
1537913804275226,1,5,2,-1,2,1,4,-1
1537913804275226,1,2,-1,2,6,10,5,1
1537913804283205,0,-3,2,0,0,28,1,0
1537913804283205,0,2,1,-1,-6,-53,-12,2
1537913804290186,-1,4,1,2,-1,11,0,-2
1537913804290186,-2,-3,1,-1,3,-1,-3,-4
1537913804305147,0,1,2,-1,-4,19,12,2
1537913804305147,0,3,-1,-4,-3,-13,-12,-3
1537913804344043,2,3,1,1,4,-9,7,3
1537913804344043,-1,4,-1,1,4,51,8,-3
1537913804345040,-2,-3,1,-1,-2,-50,-28,-6
1537913804345040,0,-5,1,1,-4,6,-5,-4
1537913804350026,-1,-1,0,-2,-13,-36,-10,0
1537913804350026,0,2,1,-3,-12,-11,4,2
1537913804359003,0,1,-2,3,6,19,16,2
1537913804359003,-4,-1,-2,0,7,52,11,0
1537913804365984,-3,1,8,-2,-1,-4,-7,-5
1537913804365984,-1,3,11,3,7,-1,-5,-4
1537913804371968,-2,3,6,-1,-1,-24,2,-1
1537913804371968,-5,-2,9,0,-2,50,11,-2
1537913804380944,1,2,8,-1,3,-49,-14,-5
1537913804380944,-5,-1,13,3,-17,-3,-4,-2
1537913804380944,-3,0,4,-1,-12,-59,-23,-7
1537913804380944,-3,1,8,2,-4,-1,7,1
1537913804403884,-1,-4,6,1,-3,31,8,3
1537913804403884,-1,-1,2,1,-1,8,4,-2
1537913804404882,-3,1,6,5,5,33,19,0
1537913804404882,1,2,8,2,1,10,8,-3
1537913804425824,-2,4,8,3,2,42,-1,-2
1537913804425824,-2,-3,4,-2,-9,-65,-2,-1
1537913804426821,-3,1,2,0,-26,-28,-26,-4
1537913804426821,-3,-3,-3,-2,-15,-49,-8,-2
1537913804440784,-1,1,9,5,-7,23,11,2
1537913804440784,1,1,1,-3,5,27,13,1
1537913804441781,-4,1,3,4,10,58,21,0
1537913804441781,-1,-3,2,-3,-3,-6,-5,-1
1537913804454746,-3,3,6,3,-14,-28,-2,0
1537913804454746,-3,-10,-2,2,-17,-14,-10,-5
1537913804462725,-2,5,5,-3,1,-43,-14,-5
1537913804462725,1,-7,1,3,-3,23,13,-1
1537913804477685,-5,7,-2,1,-1,69,27,-3
1537913804477685,-3,-11,0,-5,-10,-78,-30,0
1537913804485664,2,9,3,4,3,88,33,3
1537913804485664,0,0,-2,3,-1,-5,-3,0
1537913804492645,-2,-4,-1,-8,-23,-111,-57,-6
1537913804492645,-1,9,0,9,4,32,20,5
1537913804499627,0,-8,1,0,12,75,28,-1
1537913804499627,0,4,2,-3,8,-63,-26,1
1537913804514587,-1,-4,0,-1,3,81,50,0
1537913804514587,-3,6,-1,0,-2,-53,-53,-5
1537913804523563,-4,-13,-2,-5,-23,-105,-51,-3
1537913804523563,3,2,4,5,2,113,46,2
1537913804537528,2,2,-1,-3,14,-50,-7,5
1537913804537528,0,2,3,-1,14,127,47,2
1537913804545506,0,-4,-1,0,-12,-43,-8,-2
1537913804545506,-4,-9,0,-7,-22,-97,-44,-3
1537913804552488,4,-1,-2,3,21,75,60,5
1537913804552488,-1,-1,-2,-1,31,102,31,-3
1537913804560466,2,-2,-1,-9,-37,-77,-90,-9
1537913804560466,-3,2,3,1,-29,55,1,-2
1537913804575424,7,-3,2,0,-4,-43,-27,2
1537913804575424,-21,-14,-3,2,-1,22,17,-1
1537913804583404,4,-9,-3,-3,44,112,66,7
1537913804583404,-1,5,2,-1,7,4,22,-4
1537913804597368,-1,0,1,-3,-20,-58,-85,-5
1537913804597368,6,8,6,4,-17,0,29,-1
1537913804605346,-4,6,0,0,13,-89,-29,-5
1537913804605346,-2,5,-1,1,-5,78,10,3
1537913804612326,2,2,-2,-1,21,17,32,5
1537913804612326,2,3,0,-5,-10,11,-5,-1
1537913804620305,-2,0,-1,5,7,-67,-36,-10
1537913804620305,-1,3,-5,-3,-7,-43,-18,-4
1537913804635265,-3,0,1,0,-18,4,-3,-2
1537913804635265,3,0,-2,-4,24,50,39,11
1537913804643243,0,0,1,2,3,127,71,2
1537913804643243,-8,-10,1,-3,-20,-110,-105,-26
1537913804657205,1,-6,2,-4,-14,-52,2,4
1537913804657205,2,1,0,5,7,51,40,4
1537913804666182,-2,-4,-3,-10,36,-54,2,2
1537913804666182,-2,2,1,1,-12,-42,-3,2
1537913804672166,-4,0,1,-4,-58,-78,-62,-8
1537913804672166,4,-5,2,1,-1,28,2,2
1537913804680144,1,-3,1,0,-23,59,47,5
1537913804680144,-2,1,1,1,19,-60,-24,-4
1537913804695105,-3,-8,0,-4,13,52,33,0
1537913804695105,-5,0,-2,-9,4,-119,-63,-9
1537913804703084,2,3,-2,3,-37,4,4,4
1537913804703084,3,7,5,5,74,66,62,13
1537913804717045,-2,4,2,8,33,127,70,-1
1537913804717045,-5,-4,-1,-5,-48,-128,-103,-19
1537913804726021,5,0,2,-2,0,-85,-22,3
1537913804726021,-23,-9,-2,-7,-7,29,21,-3
1537913804740981,1,-11,5,3,-7,39,13,6
1537913804740981,5,9,-4,2,36,58,15,4
1537913804740981,0,0,-5,1,-10,4,-11,-2
1537913804740981,37,35,10,5,-25,-9,22,14
1537913804754944,-27,-21,-5,-9,13,-54,-18,-4
1537913804754944,-55,0,-13,1,-28,47,8,-17
1537913804762923,11,-21,-8,-4,-4,7,-17,-5
1537913804762923,-5,-20,4,8,34,61,30,-6
1537913804809797,34,39,6,4,-6,89,8,3
1537913804809797,10,22,13,8,-18,13,-44,-11
1537913804811792,17,14,1,-1,-7,-26,3,19
1537913804811792,-21,-1,1,-6,-7,50,3,0
1537913804822763,6,2,-4,4,14,-62,-14,-1
1537913804822763,6,-4,-2,1,19,40,45,7
1537913804831739,-4,23,13,-2,19,37,-8,-10
1537913804831739,55,19,4,2,-38,-53,-15,24
1537913804831739,-102,-87,-22,-5,18,-6,-2,-42
1537913804831739,112,41,-8,-2,13,-27,-5,-1
1537913804832737,103,9,6,1,-14,69,22,3
1537913804832737,124,-1,-1,-10,9,-49,-29,4
1537913804837723,-6,-44,-5,-9,37,55,-5,23
1537913804837723,-58,96,8,-8,-28,-99,-27,26
1537913804846699,73,112,-3,21,-2,41,38,-19
1537913804846699,-64,32,-9,4,-41,39,18,-16
1537913804859665,65,-66,3,13,-38,-40,16,-19
1537913804859665,-23,-128,7,0,-33,-5,-27,-23
1537913804868640,-57,-128,-7,2,12,-39,-5,-2
1537913804868640,17,18,0,-4,7,18,17,-8
1537913804883600,42,111,4,-4,8,86,7,17
1537913804883600,35,114,-4,-3,25,-78,5,23
1537913804885595,1,127,-4,-10,17,38,-29,-11
1537913804885595,-10,65,1,-2,-28,-72,-21,-10
1537913804897563,-7,61,0,1,12,-11,9,-2
1537913804897563,18,8,3,-3,-3,45,13,-2
1537913804906539,-28,-30,-6,3,3,-19,-4,5
1537913804906539,-32,-45,0,-3,-1,35,7,6
1537913804919504,20,-1,5,0,-5,-43,-19,9
1537913804919504,31,-14,7,4,1,-8,8,5
1537913804928480,-43,-44,-17,-4,-10,36,4,-9
1537913804928480,-14,-35,-5,-7,15,30,14,-12
1537913804943440,20,26,7,-2,-34,-36,-25,-1
1537913804943440,0,-30,4,8,33,9,7,-4
1537913804945435,-17,-8,5,-6,1,11,11,-6
1537913804945435,16,0,0,1,-13,-38,-22,9
1537913804957403,-3,3,0,-2,-4,-7,9,2
1537913804957403,-15,-14,-2,-10,-19,-18,-3,-9
1537913804966379,4,8,12,3,-5,-37,7,11
1537913804966379,4,-8,-3,1,17,67,6,3
1537913804980342,-5,2,-13,-9,-15,-87,-25,-6
1537913804980342,7,-5,0,2,7,14,0,1
1537913804989319,-21,-10,-7,-4,-18,-15,-3,4
1537913804989319,6,-22,2,1,10,8,5,-2
1537913805004278,-5,4,13,5,2,24,13,1
1537913805004278,-2,-12,-8,-4,-6,-6,16,10
1537913805005278,9,12,7,1,-11,-62,-40,-14
1537913805005278,-14,7,1,0,-3,26,10,1
1537913805017244,2,-9,-9,-1,21,-9,-14,2
1537913805017244,15,17,7,2,-12,23,34,11
1537913805026220,-6,-18,-5,-1,-27,-25,-12,0
1537913805026220,-19,-16,-9,-8,-15,-83,-25,-3
1537913805040183,8,-5,4,-2,-2,12,8,2
1537913805040183,1,-14,-5,0,7,32,3,-6
1537913805049159,-11,9,6,-1,17,-3,7,-2
1537913805049159,16,4,-1,2,9,-14,-8,4
1537913805064118,-16,-2,3,0,-3,-2,1,-8
1537913805064118,-1,12,1,-5,6,-12,-16,-10
1537913805065115,-5,-11,-4,1,9,26,11,1
1537913805065115,0,3,5,-1,-8,-43,-20,0
1537913805077083,1,3,-2,1,20,32,25,3
1537913805077083,-7,-8,-3,-3,-14,16,-3,-11
1537913805086059,10,-1,2,1,-12,-67,-38,-1
1537913805086059,-2,7,2,2,-1,28,21,-4
1537913805100022,2,9,1,3,-6,0,1,4
1537913805100022,-8,-14,-2,0,-7,-17,15,5
1537913805108998,5,-6,-3,-2,6,39,-7,2
1537913805108998,-8,-8,2,4,17,-12,-11,-3
1537913805123958,1,-1,0,-1,-8,0,-7,-6
1537913805123958,-4,-5,-2,2,14,9,10,5
1537913805124956,-1,5,6,1,4,52,12,-2
1537913805124956,0,-2,2,2,4,0,-2,-2
1537913805137920,-4,2,-5,-2,-6,-1,2,-4
1537913805137920,7,3,0,-1,-8,15,-13,-2
1537913805145899,-11,-9,1,-1,-11,-35,13,0
1537913805145899,-3,-11,-7,-1,8,11,8,-6
1537913805159862,2,1,-2,-2,6,14,-7,1
1537913805159862,-12,-12,1,-3,-5,-50,-22,-12
1537913805168838,8,6,0,2,-2,57,27,8
1537913805168838,-1,7,2,-3,-14,-32,-23,-3
1537913805183798,2,8,3,1,-14,-40,-8,-2
1537913805183798,-4,-16,-4,-2,4,4,-5,-4
1537913805184795,3,-1,-1,-3,19,18,10,2
1537913805184795,-4,-1,0,-3,6,29,6,1
1537913805197761,2,-1,-1,4,-5,12,-6,-7
1537913805197761,-2,6,4,-3,-11,-24,-12,2
1537913805206738,1,1,-2,0,6,-5,5,2
1537913805206738,-4,1,9,1,10,39,17,2
1537913805219702,-3,-14,-9,-5,-6,-5,-3,-3
1537913805219702,1,-3,-4,-2,3,-22,-9,-2
1537913805228679,5,5,2,3,-5,-1,8,3
1537913805228679,2,-5,-2,-1,-1,3,2,4
1537913805243640,3,13,4,1,7,-4,-7,-1
1537913805243640,-10,1,-1,-2,-5,-12,-3,-4
1537913805245635,0,-3,3,-3,1,20,2,0
1537913805245635,4,1,-2,1,2,14,2,3
1537913805257603,5,7,0,3,-5,-35,-4,3
1537913805257603,-5,-3,5,2,7,31,10,-1
1537913805266578,-2,1,-3,-6,-11,-47,-26,-4
1537913805266578,-1,-2,0,2,6,47,12,-4
1537913805279542,-5,-4,5,0,-4,-21,-3,-1
1537913805279542,4,3,-1,-1,1,-9,-2,1
1537913805288518,-4,-11,-2,0,-1,-2,-1,-3
1537913805288518,-1,-7,-4,-4,5,-9,1,1
1537913805303478,-4,-14,1,-2,9,41,5,1
1537913805303478,2,10,1,4,-5,-29,-8,-2
1537913805305473,-4,-11,-2,0,6,-1,4,3
1537913805305473,-2,3,-3,-2,-2,5,-1,-3
1537913805349355,-3,-5,1,-6,-5,-19,-10,-5
1537913805349355,1,-9,-2,0,-2,-2,-6,0
1537913805351350,-2,8,-1,0,-4,11,5,-3
1537913805351350,2,9,3,-1,2,-33,-6,-3
1537913805362321,-4,0,-1,0,-2,20,3,-1
1537913805362321,4,-3,-3,-2,-7,-7,-3,-1
1537913805371297,1,8,3,-2,-3,-10,-3,-2
1537913805371297,1,-4,-1,-2,-3,-5,2,-1
1537913805386259,2,-10,-5,-2,7,15,4,2
1537913805386259,2,13,-5,0,6,-5,-6,2
1537913805388252,-3,-2,-1,-2,9,2,-4,4
1537913805388252,-4,-4,-6,-2,-2,-4,-2,0
1537913805400220,1,-2,-5,-1,6,0,1,2
1537913805400220,-2,-2,-6,-5,3,5,-6,-1
1537913805401218,-3,2,-5,3,4,1,1,-1
1537913805401218,2,4,5,-2,12,12,-4,2
1537913805415180,0,3,-3,0,9,6,5,0
1537913805415180,-4,4,1,-1,5,28,0,-2
1537913805423159,0,-6,-3,-6,-6,-49,-11,0
1537913805423159,-3,-9,-4,0,3,4,0,-3
1537913805424156,-2,8,2,0,3,5,-1,-2
1537913805424156,-2,-5,1,-4,11,5,-1,4
1537913805431137,4,10,4,-1,10,13,-2,1
1537913805431137,-5,-1,0,-1,11,21,8,1
1537913805437122,-2,7,5,-2,-8,-29,-23,-1
1537913805437122,-4,5,1,-2,-10,-42,-11,-2
1537913805446097,0,-2,3,1,7,12,2,-3
1537913805446097,-3,10,5,-3,7,-9,-4,-1
1537913805460059,-2,-5,4,0,12,34,4,2
1537913805460059,-3,3,9,-2,0,-6,-2,-2
1537913805469036,3,1,0,1,-1,-6,5,2
1537913805469036,-2,-4,-6,0,1,25,5,-1
1537913805483995,0,0,-2,-4,-5,-26,-10,-2
1537913805483995,0,0,-2,2,2,14,6,-1
1537913805484993,-4,-6,-2,-2,31,19,9,1
1537913805484993,0,1,-2,0,-21,14,-4,-3
1537913805496960,-2,3,2,-1,-14,-53,-19,-1
1537913805496960,-1,-2,-2,1,0,-4,3,-1
1537913805505936,-2,3,0,1,-1,18,-1,-3
1537913805505936,-1,-1,3,-2,8,-11,-1,4
1537913805542839,-2,-4,0,0,8,28,11,-1
1537913805542839,0,1,-1,3,5,35,1,0
1537913805552813,0,5,2,-3,-9,-35,-8,0
1537913805552813,0,-2,0,-3,-11,-62,-25,-4
1537913805566774,-3,-2,-5,-1,-7,-4,0,0
1537913805566774,1,-3,3,-3,4,-2,3,0
1537913805567773,0,0,2,0,-1,17,-1,0
1537913805567773,-2,-1,-3,-4,-1,-6,1,2
1537913805579740,0,1,-1,2,6,3,3,-1
1537913805579740,-1,-9,-7,-1,-4,3,0,1
1537913805588716,3,-5,2,2,-13,-3,-3,1
1537913805588716,-15,-6,5,3,-8,-14,0,-2
1537913805602679,0,1,-2,2,-4,20,10,-1
1537913805602679,7,6,-2,-4,-1,-1,-2,-5
1537913805603676,-1,-4,-2,0,-10,8,5,-3
1537913805603676,-1,-2,-2,0,2,14,13,-3
1537913805618636,-1,5,0,-4,-8,0,2,-1
1537913805618636,-2,-1,2,5,-13,-16,-14,-6
1537913805620632,-2,-3,-2,-4,-10,-44,-13,-1
1537913805620632,2,-5,-4,2,4,6,8,1
1537913805633596,-4,-6,-5,0,3,47,10,-3
1537913805633596,0,0,-3,-2,0,-24,0,1
1537913805635592,1,-14,-6,-2,-9,14,6,0
1537913805635592,-2,7,1,0,-3,-16,-10,-3
1537913805647559,3,-7,-4,-2,-9,-7,-3,0
1537913805647559,-1,2,-3,3,-4,15,4,0
1537913805656535,-4,-4,-3,1,-3,9,6,1
1537913805656535,3,7,-6,-2,-7,-10,3,1
1537913805671494,-2,-12,-10,-3,2,12,9,-3
1537913805671494,-4,8,1,-4,-7,5,6,-3
1537913805672492,-1,-8,-6,-2,1,-21,-10,-3
1537913805672492,3,1,-8,-3,-2,0,-1,-2
1537913805693435,0,-5,0,3,-1,0,-1,2
1537913805693435,-2,-5,-4,1,1,65,31,1
1537913805695430,-1,-1,-4,-2,-10,8,8,-1
1537913805695430,0,-6,-4,-4,-10,-97,-54,-5
1537913805707398,0,5,-2,-7,-12,-29,-18,-4
1537913805707398,-1,-12,-4,2,0,-15,1,2
1537913805716374,0,5,-4,2,12,82,31,2
1537913805716374,-1,-4,-11,0,14,101,48,3
1537913805723355,-1,-2,-2,-5,11,-56,-22,-2
1537913805723355,-1,1,-5,-6,-29,-53,-45,-8
1537913805725350,-1,-1,-9,-2,-15,-61,-17,1
1537913805725350,-1,-13,-3,-2,-11,6,7,2
1537913805737319,-3,5,-7,-2,7,38,25,4
1537913805737319,-2,-7,-11,0,15,28,13,4
1537913805746295,0,-8,-8,-1,-6,5,3,1
1537913805746295,0,2,-4,-5,7,13,6,2
1537913805760257,1,-6,-7,4,5,34,16,4
1537913805760257,2,-10,-4,-5,-1,17,2,-4
1537913805767239,-3,13,11,-3,-7,-102,-56,-8
1537913805767239,2,1,-1,3,-11,-23,-10,-1
1537913805783196,-2,-5,-2,3,-1,11,4,2
1537913805783196,-1,5,-1,0,3,41,18,0
1537913805790178,-1,-6,-3,-1,7,-4,13,3
1537913805790178,2,2,3,-1,-3,-11,-13,-4
1537913805797159,-1,4,4,-2,-10,-3,9,3
1537913805797159,-1,-3,-5,-1,14,23,3,-1
1537913805806134,0,0,-3,-4,9,23,-10,-5
1537913805806134,-2,-1,4,0,-4,-30,-14,-2
1537913805820097,0,0,-2,-3,-21,15,7,-3
1537913805820097,-3,-8,-3,0,15,-7,9,1
1537913805827078,-1,-23,1,-4,1,6,-9,-3
1537913805827078,-1,6,2,3,-5,7,1,5
1537913805843037,0,17,0,-1,-4,-10,3,-1
1537913805843037,1,14,1,-4,-17,-102,-49,-2
1537913805850016,0,6,-3,7,1,6,11,0
1537913805850016,0,-7,-4,-1,16,75,34,4
1537913805865974,2,-7,2,2,12,91,30,-3
1537913805865974,-2,-6,0,-1,0,-39,-20,-1
1537913805867969,0,-1,1,-3,-6,-68,-37,-1
1537913805867969,1,1,6,0,-26,-51,-17,-3
1537913805880934,-2,-2,-3,0,24,-11,-4,0
1537913805880934,-2,-3,-1,2,3,107,65,3
1537913805886918,-1,6,0,-4,-7,-73,-15,1
1537913805886918,-4,1,0,4,15,43,8,0
1537913805902875,0,-4,1,-1,-11,-18,-3,-4
1537913805902875,0,0,-2,-6,-11,-115,-66,-8
1537913805909857,-3,1,0,1,-27,26,16,1
1537913805909857,2,1,-1,1,5,-52,-16,1
1537913805925814,-1,-2,4,3,-19,45,13,3
1537913805925814,1,0,1,6,75,127,91,7
1537913805927809,-5,-1,-1,-7,3,-31,-8,-5
1537913805927809,-2,0,2,-11,-47,-109,-73,-11
1537913805939777,3,3,0,2,-16,-85,-25,0
1537913805939777,0,-2,-2,6,-7,64,31,9
1537913805948753,-1,-2,-2,8,56,127,50,2
1537913805948753,-3,-7,-2,-7,27,1,27,-2
1537913805962716,-4,-4,-3,-8,-49,-127,-75,-8
1537913805962716,3,8,5,0,-86,-128,-26,-2
1537913805969697,3,6,2,8,18,29,14,4
1537913805969697,-2,-5,0,6,33,127,70,6
1537913805986653,-1,-1,2,-2,37,-11,-42,-9
1537913805986653,-5,-6,-1,-3,-31,-94,-65,-4
1537913805987650,0,2,-1,-2,-16,35,10,0
1537913805987650,3,2,-1,1,29,64,63,10
1537913806000615,-5,-3,-3,3,63,127,84,-2
1537913806000615,-4,-6,-1,-9,-22,-77,-100,-18
1537913806007596,0,-1,1,-5,-58,-97,-29,-3
1537913806007596,0,-1,-2,8,-7,74,54,5
1537913806023553,0,-3,-2,-2,37,96,38,2
1537913806023553,-5,-5,-2,-6,-17,-61,-49,-8
1537913806029537,0,0,1,0,-64,35,8,2
1537913806029537,-1,-1,2,2,10,-49,-35,-1
1537913806046492,-5,-2,2,-4,-20,-42,-38,-7
1537913806046492,0,-1,0,5,41,93,59,6
1537913806047490,-3,-2,-4,-3,45,15,0,-6
1537913806047490,1,3,3,-1,-31,-101,-31,-4
1537913806060455,1,3,-1,1,-9,-18,-37,-1
1537913806060455,1,-7,-2,-4,6,18,32,5
1537913806067436,-1,4,0,3,-8,110,38,2
1537913806067436,-1,-4,-2,1,23,-4,0,-1
1537913806083393,-2,2,0,0,-5,43,28,-2
1537913806083393,0,0,1,-4,-29,-80,-14,-2
1537913806090374,0,-1,1,3,-4,-32,-13,1
1537913806090374,0,3,2,-7,30,-91,-47,-5
1537913806106332,0,-2,2,-1,-33,26,5,0
1537913806106332,-4,-3,1,2,52,37,25,2
1537913806107331,1,-4,-7,-5,17,7,14,3
1537913806107331,-3,-8,0,-3,-6,32,-20,-9
1537913806120296,1,-1,0,-3,-35,-82,-9,6
1537913806120296,5,8,0,0,5,30,31,1
1537913806129271,-4,-3,2,-5,-8,-57,-20,-4
1537913806129271,-3,-3,-1,0,-11,76,27,5
1537913806143233,7,14,0,-1,25,22,3,-2
1537913806143233,1,0,1,5,4,14,-1,2
1537913806150215,2,3,2,-1,22,-19,-17,-5
1537913806150215,-11,0,0,5,44,48,48,11
1537913806166173,-3,-1,0,2,-33,85,6,-9
1537913806166173,-7,0,-5,-11,-63,-120,-106,-17
1537913806168167,0,2,3,4,-6,88,20,4
1537913806168167,1,-3,1,1,13,39,-1,1
1537913806180135,-1,2,2,-1,31,19,41,17
1537913806180135,8,10,3,6,27,76,15,-2
1537913806189111,0,-1,-1,-1,28,-24,-5,-4
1537913806189111,-18,-14,-2,-4,-63,-17,-11,-10
1537913806203073,11,16,2,0,-4,-101,-30,0
1537913806203073,-6,-9,-6,-2,12,32,34,6
1537913806210054,4,1,4,-2,17,-9,0,2
1537913806210054,5,6,-1,1,-18,-18,-16,-6
1537913806226011,-5,-12,-1,-2,-23,-62,-18,-3
1537913806226011,-4,-3,3,5,52,62,41,8
1537913806228006,1,2,0,-4,-20,-23,-27,-9
1537913806228006,6,12,2,1,-26,-43,-22,-4
1537913806239974,1,-6,0,0,3,0,0,2
1537913806239974,-16,-1,-1,-2,30,1,11,1
1537913806248950,6,-11,1,-1,4,42,28,7
1537913806248950,11,25,0,-7,8,-54,-42,-16
1537913806262913,6,-1,-3,-6,-33,-46,-33,-3
1537913806262913,0,-4,3,4,-16,-19,14,0
1537913806269898,10,22,-3,-2,6,0,13,3
1537913806269898,-4,2,1,1,-21,-11,-23,-2
1537913806285852,5,9,5,7,58,22,16,11
1537913806285852,-14,1,-2,-10,-42,-12,-14,-6
1537913806287847,-12,102,-4,-4,-19,-17,-10,-9
1537913806287847,14,123,1,-3,22,-5,-1,1
1537913806299815,-1,105,-5,-7,4,-4,21,4
1537913806299815,6,-8,2,2,-12,26,-19,-5
1537913806308790,2,-124,0,0,8,-37,-3,4
1537913806308790,1,-128,0,0,-6,22,9,4
1537913806322753,-16,-128,0,2,-20,2,-3,-8
1537913806322753,5,-90,-1,3,40,50,31,-1
1537913806329734,0,49,3,2,-29,50,-5,-6
1537913806329734,1,97,-1,-2,3,-50,1,3
1537913806346689,2,106,3,-2,18,-7,-16,-4
1537913806346689,9,80,1,-4,-16,42,13,10
1537913806347687,-9,8,-1,4,5,3,12,1
1537913806347687,-2,1,2,-4,8,-45,-22,5
1537913806359654,5,-16,-5,-7,8,34,6,0
1537913806359654,13,52,6,4,-28,-42,-8,-1
1537913806368631,4,6,2,8,26,-13,23,11
1537913806368631,-21,-7,2,0,-1,120,20,-11
1537913806382593,23,-4,-1,-4,-22,-128,-43,3
1537913806382593,-9,1,-7,-11,-11,6,4,-9
1537913806389575,29,19,2,1,-5,6,7,3
1537913806389575,3,-12,-3,5,-4,11,-4,1
1537913806406531,-2,-7,5,8,87,122,1,-11
1537913806406531,-8,-10,2,-4,-85,-73,-3,16
1537913806407528,-8,-7,-4,-6,0,-44,-17,-14
1537913806407528,11,-22,-2,-7,2,13,15,8
1537913806419497,-37,-28,0,5,12,31,14,0
1537913806419497,14,12,3,4,-2,44,3,-7
1537913806428472,-14,-17,-1,-5,-8,-69,-34,-8
1537913806428472,8,-8,-1,-11,-35,9,23,12
1537913806443432,91,-3,-3,-8,-5,-49,-12,-17
1537913806443432,127,0,-5,-3,17,98,26,20
1537913806450413,37,-44,-7,-14,-12,-73,-40,20
1537913806450413,-81,12,-7,-13,-16,-22,-21,95
1537913806466370,-128,-17,1,3,-26,8,19,33
1537913806466370,-128,-18,5,24,49,9,-6,-94
1537913806467369,-102,16,6,10,2,117,38,-87
1537913806467369,55,-25,-2,-4,-3,-61,-40,-91
1537913806480332,-39,0,5,-4,-72,-41,3,3
1537913806480332,49,20,-1,-1,36,1,6,18
1537913806489308,9,-7,-3,-10,-23,11,9,40
1537913806489308,57,1,8,12,59,36,10,8
1537913806503271,102,10,12,-3,-36,-3,-4,34
1537913806503271,36,-20,-5,-7,5,-29,-11,32
1537913806510252,11,-7,-1,-1,1,-11,-2,7
1537913806510252,8,7,5,14,4,32,29,4
1537913806526209,0,14,-4,5,20,5,-12,-45
1537913806526209,-9,24,-2,-6,-16,-33,-11,-8
1537913806528204,-23,-4,7,11,32,63,7,-10
1537913806528204,6,3,6,-7,-53,-89,-41,-17
1537913806540172,-21,-8,-2,4,1,-15,11,-6
1537913806540172,1,-3,7,16,31,60,42,30
1537913806549148,7,-20,-5,-9,7,-35,-24,19
1537913806549148,3,-12,-2,-2,16,27,11,-7
1537913806563111,-1,28,-4,-12,-20,-88,-25,7
1537913806563111,-10,19,-4,-8,-40,-75,-67,-8
1537913806570093,19,27,0,1,23,61,21,4
1537913806570093,-21,7,-2,-4,-26,-21,-13,-1
1537913806586052,-4,-22,-1,-4,21,32,22,-3
1537913806586052,-1,-16,1,-3,10,16,4,2
1537913806588046,-18,-16,-3,-2,-6,-39,-11,0
1537913806588046,-13,-20,-9,-6,7,29,3,-9
1537913806600013,5,-16,-2,3,9,39,21,3
1537913806600013,2,-23,-5,1,38,2,0,-17
1537913806608989,19,15,0,-6,-24,9,-23,4
1537913806608989,-27,-16,-1,-6,-17,-41,-6,-13
1537913806622952,-11,-1,-1,6,30,25,3,-12
1537913806622952,1,-5,-1,-7,-43,-27,-11,13
1537913806629933,-3,-9,-5,-1,-5,-24,-2,4
1537913806629933,1,5,1,2,-2,-23,7,-9
1537913806645890,-2,2,3,1,-12,24,-6,-2
1537913806645890,1,2,0,2,26,4,-2,5
1537913806647886,-25,-11,-4,-3,-17,22,25,1
1537913806647886,7,4,2,4,1,5,-2,9
1537913806659853,-5,0,2,0,8,28,7,-6
1537913806659853,13,2,-2,-4,7,-23,3,8
1537913806668831,-7,3,0,-2,-12,13,-22,-11
1537913806668831,-1,-4,-1,4,-9,-23,12,-1
1537913806682792,6,9,4,1,13,38,18,5
1537913806682792,9,7,4,-1,-16,-7,-14,12
1537913806689774,-54,-32,-5,1,-5,-71,-27,-14
1537913806689774,11,0,-5,-3,26,26,17,-12
1537913806705731,-5,-29,-2,4,-13,22,0,4
1537913806705731,-1,-1,0,-5,-1,-33,-8,1
1537913806712712,22,13,0,1,11,-10,17,12
1537913806712712,-4,-1,2,-2,-3,13,-18,1
1537913806719695,1,-3,-1,-2,-7,-2,5,-2
1537913806719695,-5,0,-5,-10,-7,-54,-44,-12
1537913806728668,18,7,0,3,24,20,27,7
1537913806728668,-7,-1,-1,-1,-3,32,0,-2
1537913806742631,9,3,-4,-4,0,-41,-14,5
1537913806742631,-37,-7,2,0,3,36,26,-11
1537913806749612,-8,-7,-4,-2,5,18,-17,-8
1537913806749612,5,4,-1,5,-2,-11,3,7
1537913806765569,6,11,-2,-1,-6,2,-3,0
1537913806765569,-8,-5,-4,1,8,20,17,-2
1537913806772551,13,13,2,4,14,6,5,2
1537913806772551,-4,2,-2,-4,-21,-33,-21,-5
1537913806788508,0,3,0,-5,-36,-35,-8,-6
1537913806788508,-4,-5,0,4,4,15,6,5
1537913806790503,22,6,-2,-7,-1,-7,-1,1
1537913806790503,2,5,5,3,-18,14,12,13
1537913806803468,-1,-2,-3,-3,19,14,-7,-4
1537913806803468,7,-1,-2,-4,-19,-19,10,0
1537913806809452,-17,-7,-3,-2,0,15,3,-1
1537913806809452,11,9,-3,2,18,17,5,4
1537913806825410,-10,-8,-1,-1,-3,-19,-8,-6
1537913806825410,6,0,2,8,20,31,14,7
1537913806832391,12,7,4,0,-12,10,-9,-5
1537913806832391,12,18,15,-4,1,-15,-2,0
1537913806848348,-6,-19,-16,-1,0,-4,-3,0
1537913806848348,-1,8,-9,2,0,4,-6,5
1537913806850344,-1,9,8,3,-9,-13,-3,-9
1537913806850344,6,14,6,1,15,27,13,3
1537913806863308,3,3,-3,1,-2,-1,-2,-2
1537913806863308,-7,-40,-7,-9,-9,-3,-8,-6
1537913806870289,17,3,-1,0,-9,-18,-7,9
1537913806870289,-8,11,-1,8,11,21,11,-6
1537913806885249,8,15,6,-1,6,-10,-5,5
1537913806885249,14,1,3,-5,-13,-2,3,4
1537913806892231,2,12,0,4,-4,-5,1,5
1537913806892231,-36,-30,-6,-7,5,4,-5,-10
1537913806909185,3,9,15,2,-2,-10,-7,-3
1537913806909185,16,28,0,1,0,12,9,0
1537913806910183,-6,10,9,7,1,-1,-2,6
1537913806910183,4,13,3,6,6,6,-1,8
1537913806923148,-9,-31,-12,-8,-5,-6,-4,-8
1537913806923148,-10,6,6,-6,-3,-3,-2,0
1537913806930129,22,7,2,0,2,-6,-1,-1
1537913806930129,-3,-1,-6,1,0,2,-2,-5
1537913806946087,1,2,4,-3,1,-1,-3,-4
1537913806946087,-7,6,6,4,2,1,5,-1
1537913806952071,-2,-18,-7,-2,2,-6,-2,-3
1537913806952071,-2,-8,4,2,2,4,3,5
1537913806969026,-6,3,4,1,1,6,1,-10
1537913806969026,7,-6,-1,-3,-4,-14,-7,4
1537913806970023,-10,3,0,4,1,9,6,-18
1537913806970023,0,-28,-3,-4,-1,-7,0,8
1537913806982988,5,13,1,7,3,8,-4,2
1537913806982988,-1,14,0,-2,-7,5,-2,-5
1537913806989969,-3,-17,-8,-9,-8,-18,-2,2
1537913806989969,-7,-4,-2,1,5,5,1,-6
1537913807005927,0,11,-4,-4,0,-4,-5,-3
1537913807005927,-2,-4,-1,4,-2,-2,-2,-3
1537913807011911,7,4,-3,-7,-5,0,2,4
1537913807011911,-2,-1,-1,3,-3,10,6,-3
1537913807028865,-9,-6,2,4,8,20,5,4
1537913807028865,-6,7,2,-2,-5,9,1,-2
1537913807029863,-3,-3,-3,-4,-8,-46,-17,-1
1537913807029863,1,0,-4,-3,-3,6,4,-2
1537913807042828,-1,0,1,6,6,15,4,1
1537913807042828,-4,-8,1,-3,3,-3,2,0
1537913807050807,3,-3,-3,2,12,31,8,-1
1537913807050807,1,4,4,-2,-9,-54,-34,-1
1537913807066764,3,5,-1,-4,-14,-17,-3,1
1537913807066764,-9,-10,1,-2,-4,3,6,-2
1537913807072748,8,-3,-5,-2,-3,23,22,4
1537913807072748,-7,-2,0,1,3,25,-1,-2
1537913807087708,-4,5,2,0,-8,-16,-11,-3
1537913807087708,1,2,1,4,18,89,40,1
1537913807088706,0,4,-1,0,4,-5,3,1
1537913807088706,9,12,-1,-3,-11,-68,-52,-9
1537913807110647,2,4,-3,-1,-16,-79,-17,3
1537913807110647,-9,-14,-2,-2,-9,-48,-12,-2
1537913807111645,4,-1,4,4,-17,79,41,2
1537913807111645,-1,6,-1,-3,32,42,36,0
1537913807126606,-3,-5,-2,-4,2,-66,-45,-10
1537913807126606,4,3,2,-4,-10,0,-3,4
1537913807132589,-4,-4,3,5,7,-15,-5,3
1537913807132589,8,-11,-4,-9,-10,27,18,3
1537913807147548,-9,-2,2,8,15,56,26,6
1537913807147548,-2,5,-3,0,-2,-15,0,-4
1537913807148545,0,3,-2,-1,13,-4,-15,-5
1537913807148545,8,-1,-2,-4,-4,1,2,1
1537913807163505,-10,-10,0,-4,3,6,13,1
1537913807163505,-4,-12,-4,-1,-5,-18,-25,-11
1537913807169490,-16,-4,3,-1,-1,-27,-12,0
1537913807169490,5,-9,0,5,2,-1,0,-2
1537913807184450,8,6,-4,-3,-1,12,8,1
1537913807184450,5,27,5,0,-2,-1,-1,0
1537913807192428,-15,-12,-8,-4,-1,-7,-9,-11
1537913807192428,-12,-1,3,2,1,5,3,1
1537913807208385,13,7,0,-7,-5,11,1,0
1537913807208385,-14,3,-5,-2,5,-9,-10,-9
1537913807208385,26,38,4,3,-1,-6,-2,3
1537913807208385,-5,-7,-5,-8,-9,-2,-3,-5
1537913807223346,4,-3,5,6,1,7,5,5
1537913807223346,-2,-14,-4,-6,4,4,0,5
1537913807230327,-27,-39,-5,-12,-5,-11,-12,-5
1537913807230327,-1,15,13,11,-3,0,3,-2
1537913807245287,-1,-9,-6,-7,0,7,3,1
1537913807245287,-6,-11,3,0,1,-9,-4,0
1537913807252269,2,-2,4,3,-4,-2,0,1
1537913807252269,14,6,0,-1,-3,-2,1,5
1537913807268226,-30,-5,0,-2,2,4,-1,-6
1537913807268226,-20,-33,-4,-3,0,-4,-3,-4
1537913807269223,1,-6,6,4,-4,-5,-5,2
1537913807269223,3,-5,-5,-3,-4,3,3,0
1537913807284183,6,11,6,3,-2,3,2,-1
1537913807284183,8,9,1,1,0,-1,3,3
1537913807290167,2,7,-2,-2,3,-1,1,-1
1537913807290167,-13,-15,-2,-4,2,-3,-3,-3
1537913807305128,-1,-11,-2,-1,0,3,-2,1
1537913807305128,4,4,2,3,3,-3,-7,-3
1537913807312109,-1,1,0,-3,2,-2,0,0
1537913807312109,-3,2,-2,0,-2,-2,0,-3
1537913807328067,-9,-17,-6,-5,-4,1,-2,-1
1537913807328067,11,-3,-2,-2,-1,-2,-3,-3
1537913807329064,12,34,6,5,-3,-2,-3,-2
1537913807329064,16,15,0,-1,2,3,2,1
1537913807344024,2,-24,-5,-7,-3,-2,-7,-6
1537913807344024,-1,1,4,2,7,-1,0,-3
1537913807350007,-17,-28,-7,-3,2,-3,-3,-1
1537913807350007,8,21,1,-2,-5,-3,0,0
1537913807364968,3,4,3,1,2,-1,1,0
1537913807364968,3,16,-1,3,-7,-1,-2,2
1537913807371949,15,15,3,-1,-6,1,2,1
1537913807371949,-12,-9,-2,-2,-2,2,-3,-1
1537913807387907,8,9,-1,-3,-1,1,1,3
1537913807387907,0,1,-2,-1,-3,-1,-1,1
1537913807388904,-2,-1,4,1,4,0,3,3
1537913807388904,-12,-28,-4,-2,-2,-3,-5,-2
1537913807403864,2,18,7,6,2,2,5,4
1537913807403864,10,3,-2,-1,-2,-1,-1,-3
1537913807409847,-28,-25,-3,-5,-1,-2,-3,-2
1537913807409847,1,-13,-2,-3,-3,-1,0,-6
1537913807424808,2,-6,3,0,1,-1,-1,-3
1537913807424808,-4,-1,1,-1,-1,0,2,1
1537913807432787,17,21,1,4,-3,-3,0,-3
1537913807432787,8,24,1,1,-3,-2,-1,0
1537913807447746,-3,11,-6,-3,-1,0,-1,-3
1537913807447746,7,23,4,2,-3,-2,0,2
1537913807448744,3,-8,-3,-5,-2,-1,-1,-1
1537913807448744,-11,-9,4,0,-1,0,1,-1
1537913807463703,11,13,6,4,-1,-1,1,0
1537913807463703,-1,4,-3,1,-2,-1,0,-1
1537913807469688,-9,-5,-3,-1,2,0,-1,0
1537913807469688,2,9,4,3,3,-1,-3,-1
1537913807484648,0,-7,-4,-4,-1,-3,1,-1
1537913807484648,-9,-6,4,2,0,0,-1,-3
1537913807492626,10,11,3,-1,0,3,2,2
1537913807492626,0,-4,-8,1,1,2,4,8
1537913807507587,-27,-31,-2,-6,-5,-7,-13,-12
1537913807507587,4,-6,-7,-2,4,-1,-2,-1
1537913807508584,3,-3,3,-1,1,-1,-2,-3
1537913807508584,3,16,3,2,1,0,3,-2
1537913807523544,-10,-8,-3,-1,1,1,3,0
1537913807523544,26,16,0,-4,-3,-4,-1,2
1537913807529528,-20,-4,-3,1,0,1,-3,-1
1537913807529528,-10,-10,2,-1,-2,-3,-2,-2
1537913807544487,2,-4,0,0,-2,-1,1,0
1537913807544487,-1,3,5,3,3,1,0,1
1537913807552467,4,6,2,0,2,0,0,-1
1537913807552467,-2,-7,-5,-3,1,-1,-2,-1
1537913807568424,8,11,5,1,0,1,1,6
1537913807568424,-10,-13,-3,-2,-3,-1,-1,0
1537913807568424,5,1,-1,-1,-3,-2,-1,-1
1537913807568424,-5,-2,0,2,-1,-1,-4,-2
1537913807590365,5,0,-1,1,0,1,1,0
1537913807590365,-11,-9,0,1,-4,1,0,-4
1537913807591362,1,-13,-5,-3,-2,-3,-3,0
1537913807591362,4,13,5,-2,-1,-1,0,-3
1537913807605325,14,16,0,3,0,1,0,0
1537913807605325,-18,-24,-5,-5,1,1,0,-3
1537913807620285,-14,-18,3,3,-4,-3,1,1
1537913807620285,-14,-35,-12,-11,-1,-5,-3,-9
1537913807627266,5,5,4,3,3,1,0,1
1537913807627266,1,12,1,0,0,-1,1,-2
1537913807635245,1,1,-1,0,1,-1,2,1
1537913807635245,-2,-9,-5,-2,-2,-1,2,2
1537913807644221,-3,7,2,-1,-2,-2,-1,-2
1537913807644221,2,-4,-4,2,0,-4,-3,-2
1537913807650205,3,-3,-4,-4,-20,-1,0,-4
1537913807650205,4,12,7,0,-2,-1,0,1
1537913807665165,3,8,-2,-1,0,1,2,1
1537913807665165,-2,2,1,2,5,0,-1,2
1537913807672146,5,9,2,0,9,-1,-1,0
1537913807672146,-5,7,3,4,5,2,0,1
1537913807687106,11,-19,-9,-7,-2,-3,-8,-7
1537913807687106,-12,-15,-1,-7,1,-1,-3,-2
1537913807695085,-1,-7,-4,-1,-1,-3,1,4
1537913807695085,1,7,1,0,-1,-2,-2,-1
1537913807704062,-5,-10,3,2,4,2,0,3
1537913807704062,-9,1,-1,-2,0,-2,-2,0
1537913807710045,12,38,2,2,0,1,-1,0
1537913807710045,-2,-3,1,2,-1,1,0,-1
1537913807725010,-2,27,4,3,0,1,4,-1
1537913807725010,8,-13,1,1,-2,-1,2,-2
1537913807731987,-7,2,4,0,2,-3,-3,-6
1537913807731987,1,-1,-1,-1,0,1,0,1
1537913807746946,-5,0,3,-1,-2,-1,1,1
1537913807746946,2,4,3,-2,-1,0,1,0
1537913807754924,1,-1,-3,1,2,0,-3,-1
1537913807754924,0,4,-1,0,-2,-3,-1,-1
1537913807770882,-10,-8,-1,1,-1,0,-1,-1
1537913807770882,5,7,6,3,-3,-2,1,1
1537913807770882,5,7,3,3,2,1,1,0
1537913807770882,6,6,4,2,1,2,1,5
1537913807784845,-20,-7,1,-2,-3,0,0,0
1537913807784845,-2,0,-1,0,-4,-3,1,-2
1537913807792823,0,-4,3,1,0,-1,-1,0
1537913807792823,1,-1,-4,0,0,-3,-1,1
1537913807807783,4,8,-1,-1,-2,-1,0,-2
1537913807807783,1,-2,-1,4,-5,0,-3,3
1537913807814765,-4,2,-4,-4,-1,-2,0,-1
1537913807814765,-4,-4,-1,-2,-2,-1,-3,-4
1537913807830722,2,-37,-10,-9,-4,-4,-5,-7
1537913807830722,-2,-3,1,-1,0,0,1,2
1537913807831720,4,9,4,2,-1,-1,3,4
1537913807831720,-6,8,4,3,2,0,5,2
1537913807844685,-3,2,-2,-1,-3,-2,-5,-1
1537913807844685,-4,-11,-8,-4,-1,1,-1,2
1537913807852664,-2,-7,3,-2,-2,1,-1,2
1537913807852664,0,-4,1,-1,3,1,1,-3
1537913807867625,7,6,1,1,2,2,0,1
1537913807867625,0,14,6,3,-1,-3,0,-5
1537913807874606,1,10,-1,0,-1,0,3,0
1537913807874606,-4,-26,-7,-3,-4,-3,-5,0
1537913807890563,2,3,4,3,-1,0,-1,3
1537913807890563,0,5,1,3,2,0,-3,1
1537913807891561,-1,-6,-3,-5,-1,1,3,0
1537913807891561,1,2,4,1,-2,0,-1,-2
1537913807904526,5,9,-1,0,-1,-1,0,-2
1537913807904526,-6,-4,-2,-3,-3,-1,-2,-2
1537913807912505,-3,-9,0,3,2,-1,-3,0
1537913807912505,-2,1,-4,-6,-4,-1,-6,-2
1537913807927464,5,10,9,1,-1,0,0,-3
1537913807927464,-10,-12,-3,-2,2,1,4,-3
1537913807934445,17,25,4,-3,-3,-2,-4,-5
1537913807934445,-4,1,0,2,1,-3,0,-2
1537913807950403,-3,2,-1,-5,-1,-3,0,2
1537913807950403,4,9,5,-3,-2,0,0,2
1537913807951399,-5,-11,-2,-1,-4,-2,-1,0
1537913807951399,11,-2,0,-1,-4,-4,0,-3
1537913807965362,4,13,1,5,1,-2,2,0
1537913807965362,-1,3,-3,-5,-1,0,-1,-5
1537913807972344,-4,-6,-2,-1,-1,0,-4,-2
1537913807972344,0,2,0,-3,-3,1,1,5
1537913807987303,-3,-6,-1,-1,-2,-2,0,2
1537913807987303,6,6,2,0,-1,-6,-2,-1
1537913807995282,-7,-1,-1,0,0,0,1,-2
1537913807995282,-2,-5,0,0,0,2,2,-2
1537913808010242,-5,-8,2,-3,2,1,2,-1
1537913808010242,-4,-1,-1,1,2,-1,1,3
1537913808011240,0,-8,-1,2,1,-2,-3,-3
1537913808011240,-6,-2,1,-1,1,-1,-1,2
1537913808025202,5,8,2,-1,-1,0,-3,0
1537913808025202,14,29,8,6,1,1,-1,2
1537913808032184,-29,2,-4,-1,-3,-2,-4,-8
1537913808032184,10,12,-2,1,1,0,-3,2
1537913808047143,-3,-2,3,3,-2,1,0,0
1537913808047143,4,7,2,-2,-3,-1,-4,-4
1537913808055122,6,1,-1,-1,2,1,3,0
1537913808055122,-3,-3,0,0,-2,-1,2,-5
1537913808070082,-3,-2,1,-2,-3,-3,1,-5
1537913808070082,-2,-7,-4,-4,-3,-2,-1,-2
1537913808071079,3,-10,-1,-1,-3,-2,-2,4
1537913808071079,-3,-7,1,-1,-5,-1,-1,2
1537913808085042,1,-12,-3,-4,0,-1,-2,-1
1537913808085042,-5,-2,4,1,0,1,1,-2
1537913808092024,-3,-4,2,-1,-1,0,-2,-1
1537913808092024,-10,-8,-4,-1,1,-1,-1,-2
1537913808106984,4,4,2,0,1,0,-3,3
1537913808106984,-1,-2,-2,2,4,-1,-1,-2
1537913808114962,-14,-1,6,-3,4,1,1,1
1537913808114962,1,2,-3,0,2,0,0,3
1537913808130921,-4,-6,-3,-3,-3,-2,0,2
1537913808130921,-8,-14,-1,-1,1,-1,-1,-1
1537913808130921,9,-5,-1,-1,-3,-2,-1,0
1537913808130921,3,3,5,1,-2,0,-1,-2
1537913808144884,-3,2,1,0,0,-1,-1,-1
1537913808144884,1,-1,-3,-1,-1,-2,-2,2
1537913808152862,5,-6,0,0,1,0,2,-1
1537913808152862,-1,2,0,-2,-2,-1,-2,-4
1537913808167821,-3,0,-2,1,2,0,1,-1
1537913808167821,-4,-5,0,-4,-2,-1,-2,-3
1537913808174802,2,5,-2,1,0,-1,-1,-1
1537913808174802,-5,-7,-3,-1,2,-2,-3,-5
1537913808190760,-3,1,2,-1,2,2,1,1
1537913808190760,1,-14,1,0,-4,1,2,4
1537913808190760,4,2,-1,-2,3,-4,-4,4
1537913808190760,0,7,3,-1,-1,-1,0,-1
1537913808204722,11,17,-1,0,-5,-2,-4,-3
1537913808204722,-9,2,3,1,-4,-1,1,2
1537913808212701,8,5,-3,-3,-5,-4,-1,-2
1537913808212701,19,24,1,-3,-1,-4,-1,-7
1537913808227661,-7,-8,-2,0,4,-1,2,-2
1537913808227661,-2,10,0,-1,0,0,1,-1
1537913808234642,5,0,3,0,4,2,-4,-2
1537913808234642,-8,-3,-11,-1,-2,-1,-3,0
1537913808250600,-3,3,0,1,-3,-2,-4,-1
1537913808250600,4,-3,-2,-4,2,-1,-3,-3
1537913808251597,-2,-7,3,2,0,-1,2,1
1537913808251597,-1,-4,0,-3,2,1,0,1
1537913808264562,-5,-6,3,2,-1,1,-1,1
1537913808264562,1,-5,-8,-3,1,-1,-4,-5
1537913808272541,-6,0,-2,-1,-4,-1,-2,0
1537913808272541,2,2,4,-1,1,1,1,-2
1537913808287501,-5,-8,-4,1,-2,-2,-1,0
1537913808287501,-6,-8,4,3,0,-1,2,3
1537913808295480,3,-2,2,1,1,0,-2,0
1537913808295480,-1,-2,-2,-1,1,0,0,3
1537913808310440,1,1,1,-4,2,1,-1,-1
1537913808310440,-15,2,-2,2,-1,-2,0,-3
1537913808311438,9,3,0,-3,-2,1,0,-2
1537913808311438,-3,-1,1,-1,-3,-1,-3,3
1537913808325400,-3,-1,3,-1,0,-1,-3,1
1537913808325400,0,0,4,2,-1,0,-1,-1
1537913808332382,2,6,0,1,1,3,3,1
1537913808332382,-6,4,4,0,1,0,-3,0
1537913808347342,2,-3,-5,-4,0,-1,3,0
1537913808347342,4,-2,-3,-1,0,-4,-1,-1
1537913808355320,-6,4,5,0,-2,-2,-1,-3
1537913808355320,3,-15,-7,-2,-2,-4,-2,0
1537913808370280,-5,-8,2,1,-5,-3,-6,-1
1537913808370280,3,0,-4,-3,-3,-4,1,-2
1537913808371277,-5,-6,-3,-1,2,-2,3,1
1537913808371277,-3,-2,5,4,0,-2,0,-1
1537913808385240,-4,-8,-1,-3,2,-3,-1,-6
1537913808385240,20,10,2,0,2,0,-2,0
1537913808392221,-15,-8,-3,-1,1,-3,0,-3
1537913808392221,-6,-6,1,0,-1,1,2,1
1537913808407181,-3,-8,-3,-1,-3,-2,1,2
1537913808407181,7,4,1,-1,-3,0,-4,-4
1537913808415159,4,0,0,-2,-2,-1,-4,2
1537913808415159,0,-4,-4,1,0,1,0,-4
1537913808430120,0,4,2,-2,-1,2,-1,-1
1537913808430120,-2,7,0,-1,-1,-1,-2,-1
1537913808431117,4,-9,-2,-3,-2,-3,-7,-4
1537913808431117,-1,-5,0,-2,-1,-3,-4,1
1537913808445080,2,-1,3,1,0,-3,-3,1
1537913808445080,-9,-9,-5,1,2,-1,-1,0
1537913808452061,0,-2,0,-3,-2,1,-2,-4
1537913808452061,1,9,7,1,1,1,1,-2
1537913808467021,-2,1,-4,-3,-1,2,0,1
1537913808467021,-14,-21,-3,-2,-7,-3,-2,0
1537913808475997,1,0,4,0,-2,0,3,2
1537913808475997,-3,-3,-1,0,-2,-2,-2,-2
