timestamp,emg1,emg2,emg3,emg4,emg5,emg6,emg7,emg8
1537907328941797,7,36,7,-4,3,1,-1,1
1537907328941797,-7,-28,27,8,2,1,0,0
1537907328941797,2,-4,2,2,3,-1,-2,0
1537907328941797,0,9,15,3,-1,0,-1,-2
1537907328942796,1,2,0,-2,-3,-2,0,-3
1537907328942796,4,18,-21,-2,1,0,0,-1
1537907328943793,-2,3,-4,3,1,2,0,1
1537907328943793,-3,-14,28,3,2,-2,-2,0
1537907328955759,-6,-14,-84,-13,-6,-2,-2,-2
1537907328955759,2,14,43,-2,-2,-2,0,-1
1537907328963737,-1,-9,-20,-1,-1,0,-2,1
1537907328963737,2,9,-7,1,0,2,0,2
1537907328969721,-3,-10,21,2,-1,0,-1,-2
1537907328969721,1,5,-17,-2,-2,-3,-2,-1
1537907328984680,1,3,5,-2,-3,-3,0,-1
1537907328984680,-1,2,0,-4,0,2,-1,-2
1537907328994654,-1,4,7,7,2,0,0,-2
1537907328994654,-1,-19,-2,1,-1,-1,-2,0
1537907329009614,-1,7,23,6,2,3,0,-3
1537907329009614,-1,-2,-93,-27,-17,-11,-5,-2
1537907329015598,1,-4,28,3,3,2,1,1
1537907329015598,0,6,-2,-1,-2,0,0,0
1537907329029561,0,2,21,-4,3,1,-1,-1
1537907329029561,-1,-7,-5,-1,3,1,-1,-3
1537907329070454,-2,-5,-5,3,1,0,-1,-1
1537907329070454,2,-2,-4,6,1,-2,-1,0
1537907329075439,-6,3,-1,7,8,2,-1,-1
1537907329075439,-3,-20,-11,-29,-10,-3,-1,-2
1537907329076437,-3,9,4,6,-2,-3,-2,-2
1537907329076437,2,10,-5,-4,-4,-1,-1,-1
1537907329077435,-3,-21,2,3,-1,-1,-1,-2
1537907329077435,2,8,-12,9,6,2,1,1
1537907329082421,0,-2,12,-3,-2,-3,-3,0
1537907329082421,1,-1,12,-8,0,-1,-2,1
1537907329089402,3,2,-13,4,-2,-3,1,-2
1537907329089402,-5,-12,-5,6,0,-2,-1,-2
1537907329096384,5,10,-41,-9,-1,1,1,-1
1537907329096384,1,-4,12,-4,3,2,-1,-2
1537907329111344,0,16,13,0,-4,-2,-1,2
1537907329111344,-2,-40,21,8,-1,-2,-2,-1
1537907329119322,2,14,-41,-7,-1,1,1,1
1537907329119322,0,-13,31,5,4,0,0,1
1537907329143258,-3,-4,-22,-5,-10,-3,-3,-2
1537907329143258,-3,15,-3,-6,-4,-2,-1,0
1537907329144255,4,1,21,2,2,0,-1,-1
1537907329144255,-5,0,-2,-4,2,3,0,-3
1537907329157220,-1,-4,-12,2,0,-3,-2,-2
1537907329157220,1,8,-11,15,0,-1,-2,-1
1537907329158217,-7,-11,9,-2,-5,-2,-1,-1
1537907329158217,4,5,-13,-20,-5,-1,0,2
1537907329180158,1,6,11,-3,1,-2,-2,-1
1537907329180158,-1,10,-1,-3,2,1,-1,-2
1537907329181156,-2,1,4,-2,-2,-2,-1,-1
1537907329181156,-3,-9,1,11,5,0,1,-2
1537907329203097,-3,1,-7,-16,-12,-3,-3,-3
1537907329203097,0,-7,-7,-7,-3,-1,-1,0
1537907329204094,0,14,19,2,7,4,-1,-1
1537907329204094,-6,-12,-16,2,-6,-4,-1,-2
1537907329217059,4,3,24,-4,-3,0,1,2
1537907329217059,-1,-5,-14,8,0,0,-1,-2
1537907329218057,-2,-10,5,-2,1,-1,-1,1
1537907329218057,-3,-19,-6,3,-4,-2,-2,-3
1537907329239999,1,3,3,2,15,4,1,0
1537907329239999,4,6,13,0,-17,-7,-3,0
1537907329240996,-1,-7,-6,-1,-2,0,-1,0
1537907329240996,0,8,-7,4,0,0,-1,0
1537907329262937,-1,-9,-3,-4,-2,0,-3,0
1537907329262937,-2,1,3,-2,7,3,2,-1
1537907329263934,-3,-3,1,3,0,-1,-1,-2
1537907329263934,-2,8,0,-1,0,-1,-1,-1
1537907329277896,-1,-2,-1,-4,-4,-4,0,-1
1537907329277896,-1,8,4,4,5,2,0,1
1537907329277896,0,-3,8,-3,-7,-2,-1,1
1537907329277896,-2,9,-26,1,-2,0,-1,-1
1537907329299838,0,-3,3,0,2,3,0,-1
1537907329299838,0,1,-4,2,0,0,0,-1
1537907329300835,-2,-6,17,-10,-7,-5,-2,-4
1537907329300835,-1,-1,-18,4,1,1,1,1
1537907329330755,0,-5,-3,0,2,0,-1,-1
1537907329330755,0,2,8,0,-3,-1,0,1
1537907329331753,-1,-1,-2,-2,10,5,1,-2
1537907329331753,1,-21,25,-3,-9,-4,-1,1
1537907329337737,-1,-18,-33,12,1,0,0,-1
1537907329337737,-1,4,9,-5,1,0,-1,0
1537907329337737,1,21,-3,3,2,1,1,1
1537907329337737,-4,-24,12,4,-12,-7,-2,-2
1537907329359678,0,11,8,-1,2,-1,-1,1
1537907329359678,-2,-8,-7,2,3,4,-1,-2
1537907329360675,1,6,-8,8,2,-2,0,0
1537907329360675,-2,13,21,-11,5,0,-1,-1
1537907329383614,0,-4,24,5,-7,-2,-1,-2
1537907329383614,0,3,-79,-24,-2,-1,-1,-1
1537907329383614,-3,-27,3,-1,-3,-1,-3,-1
1537907329383614,3,19,-19,-8,1,0,-2,0
1537907329397576,-1,3,39,4,-3,-2,-1,0
1537907329397576,-1,11,38,-7,1,-1,-1,0
1537907329398574,0,-14,-10,-6,-3,-3,-1,0
1537907329398574,1,1,-1,14,3,1,1,-1
1537907329419518,-2,2,-17,-7,0,1,0,-2
1537907329419518,-3,-7,-4,-4,-10,-8,-4,-3
1537907329420516,3,3,-3,2,2,1,-1,0
1537907329420516,-2,4,17,-3,15,9,2,-2
1537907329443455,0,-2,-2,27,-12,-7,-2,-1
1537907329443455,4,9,-39,26,15,0,0,-2
1537907329443455,0,6,63,32,42,19,3,0
1537907329443455,-3,6,6,-97,-71,-29,-11,-5
1537907329457419,-10,-13,-8,-8,-24,-14,-6,-7
1537907329457419,7,7,-39,38,52,16,7,7
1537907329458415,3,10,-26,6,-20,-8,4,4
1537907329458415,3,19,101,-36,12,7,4,0
1537907329480357,2,14,-12,12,-41,-14,-3,-2
1537907329480357,-1,-22,24,26,21,19,4,3
1537907329480357,-2,7,84,7,74,24,9,2
1537907329480357,-8,6,-123,-66,-61,-35,-13,-11
1537907329503296,-1,-42,-101,-57,-3,3,6,1
1537907329503296,8,48,115,17,12,14,3,5
1537907329504293,3,-17,-36,53,29,15,6,6
1537907329504293,-2,16,78,9,-58,-21,-6,-2
1537907329517257,4,39,71,-8,17,2,0,1
1537907329517257,-1,-12,-105,-100,-57,-17,-7,-1
1537907329525237,-3,1,47,23,12,6,-2,-3
1537907329525237,-3,-47,13,36,57,22,5,4
1537907329540197,1,24,43,-5,-16,-9,-4,-2
1537907329540197,-1,-12,-7,59,17,1,-4,-4
1537907329540197,-4,7,7,-63,-48,-28,-5,-3
1537907329540197,3,7,-84,-51,49,11,5,1
1537907329563135,4,12,-51,68,-58,-11,-6,-6
1537907329563135,1,18,63,-47,-31,-16,-3,0
1537907329564134,4,44,16,-56,-26,-1,-3,-2
1537907329564134,1,17,-65,-31,46,23,3,2
1537907329577098,-7,-9,-53,25,27,1,-1,0
1537907329577098,-5,-8,-14,-61,-57,-21,-2,-2
1537907329585077,-9,-34,-5,37,20,9,-4,-4
1537907329585077,10,69,78,-8,-35,-14,-4,1
1537907329601034,1,-20,-1,6,6,-2,-2,2
1537907329601034,-9,-13,5,22,-8,-1,-3,-6
1537907329601034,-2,-53,-59,-39,-7,-5,-2,-3
1537907329601034,0,-10,-9,81,26,8,2,-1
1537907329629956,-3,-16,-13,-16,26,9,2,-1
1537907329629956,-2,2,22,-13,-7,-5,-2,-1
1537907329646911,-2,8,23,6,-17,-9,-3,-2
1537907329646911,-3,-24,-109,8,-2,3,1,0
1537907329648906,1,3,44,16,14,6,1,1
1537907329648906,-2,-12,11,-2,18,3,1,0
1537907329648906,0,12,-17,4,7,7,-1,-1
1537907329648906,-1,-13,57,115,34,11,-1,1
1537907329667855,-7,-21,-56,-119,-65,-20,-9,-6
1537907329667855,-4,-7,45,20,16,4,2,-1
1537907329668852,2,9,7,13,-16,-13,-3,-2
1537907329668852,5,10,24,1,3,5,1,0
1537907329682815,-4,-14,67,4,28,9,3,0
1537907329682815,8,19,-9,-10,23,6,0,1
1537907329683813,-12,-18,1,-24,-43,-16,-7,-5
1537907329683813,0,16,-43,37,8,4,1,0
1537907329696777,-6,-33,34,1,18,4,0,-1
1537907329696777,-2,-2,-22,16,-6,-2,-2,-4
1537907329712735,0,4,-14,4,5,0,-1,-2
1537907329712735,-3,-4,17,-6,-13,-5,-2,-1
1537907329719717,1,14,-7,9,9,2,0,0
1537907329719717,-3,-4,-13,-6,-3,-1,-2,-2
1537907329720716,-1,-9,-10,0,-4,-2,-1,-1
1537907329720716,-5,-21,11,-1,-6,-3,0,-3
1537907329743653,2,13,-6,-5,10,4,0,1
1537907329743653,-3,-10,21,9,4,0,-2,-2
1537907329743653,3,8,-24,-11,-13,-7,-2,1
1537907329743653,-1,-16,-2,-3,-6,-3,0,0
1537907329756617,4,10,12,13,19,6,3,2
1537907329756617,-3,-2,2,9,-1,-2,-1,-2
1537907329764596,-3,-8,-19,-2,-6,-2,-1,-3
1537907329764596,1,-22,2,-6,-3,0,-2,1
1537907329779556,-1,-8,10,3,5,3,0,0
1537907329779556,-3,-18,-4,0,-5,-4,-2,-1
1537907329780554,0,-12,-14,-1,-1,0,-1,0
1537907329780554,0,-10,19,-1,0,-1,0,0
1537907329809476,3,-1,-1,-12,2,-1,-2,-1
1537907329809476,-1,-21,-11,9,-1,-2,-1,0
1537907329818452,0,-24,-3,1,0,-2,-1,1
1537907329818452,-2,-18,0,1,0,1,-1,-1
1537907329819450,-2,-91,4,4,4,3,0,-1
1537907329819450,0,-76,46,-10,-12,-6,-2,-2
1537907329824435,-2,-37,-97,-24,-6,-4,-2,-2
1537907329824435,-2,-20,16,4,-2,-1,0,0
1537907329840393,0,63,-2,2,6,3,1,-2
1537907329840393,-1,52,7,6,5,1,1,1
1537907329841390,0,58,21,-4,-3,-3,0,-2
1537907329841390,-1,47,-1,-5,-7,-7,-3,-2
1537907329863331,0,34,-8,9,5,1,2,2
1537907329863331,-1,27,0,-11,0,-1,-1,-1
1537907329864329,0,23,54,6,10,5,2,1
1537907329864329,-1,13,-74,19,-12,-7,-4,0
1537907329876297,2,30,53,-5,-6,-2,-2,0
1537907329876297,1,26,-13,0,-1,0,0,1
1537907329885273,0,15,-6,-3,2,3,0,2
1537907329885273,-1,2,37,-3,12,4,2,-1
1537907329908212,-1,3,-11,1,-2,-2,-2,-1
1537907329908212,-2,5,-41,-9,-9,-3,-1,-2
1537907329909210,1,2,17,2,0,0,-2,1
1537907329909210,-1,-13,2,-1,-2,-1,-1,-2
1537907329923173,0,2,-10,1,-1,0,-2,0
1537907329923173,-2,4,-6,-1,0,0,1,-1
1537907329924172,-1,-2,20,8,-7,-3,-1,-1
1537907329924172,0,1,-32,-12,0,-1,0,1
1537907329946111,-1,4,-5,12,10,3,1,-1
1537907329946111,3,2,8,-11,0,-1,-1,1
1537907329946111,-1,2,0,-8,-10,-4,-2,-2
1537907329946111,0,4,-1,15,3,-1,1,0
1537907329960075,0,2,10,-8,10,2,-1,-1
1537907329960075,0,-9,-8,2,-5,-1,-3,-3
1537907329961073,-1,-6,-23,-2,-21,-12,-4,-3
1537907329961073,-1,-10,30,-2,3,4,-1,-1
1537907329983014,0,-15,-29,-8,3,0,1,1
1537907329983014,-2,4,45,8,3,1,-1,0
1537907329984012,1,-13,-29,-3,2,2,-1,2
1537907329984012,-5,-10,1,-7,-3,-2,-1,-3
1537907330005952,-2,-7,15,1,-5,-3,-2,-3
1537907330005952,0,1,-11,3,2,2,0,-1
1537907330005952,0,1,6,3,4,2,-1,0
1537907330005952,0,-5,2,3,0,0,-2,-1
1537907330019914,-2,0,2,-5,-3,-2,0,-1
1537907330019914,0,7,-15,-11,-10,-3,0,-2
1537907330020911,-1,-12,0,7,10,4,1,-1
1537907330020911,0,11,34,13,-5,-3,-1,0
1537907330041854,1,2,-18,-13,-3,0,1,-1
1537907330041854,-1,-2,-21,5,3,-1,-1,-1
1537907330050830,-1,-3,3,-4,-2,-1,1,0
1537907330050830,0,-6,-6,1,-1,-1,-1,-2
1537907330065790,0,1,2,4,0,-2,-2,1
1537907330065790,-2,-8,7,4,-4,-4,-2,-3
1537907330066788,0,-2,-7,3,5,-2,-1,1
1537907330066788,-2,4,87,16,7,4,1,0
1537907330087732,-4,-12,-104,-31,-14,-5,-5,-4
1537907330087732,2,9,78,-2,2,0,1,1
1537907330089727,-2,-20,-2,-4,-6,-2,-1,1
1537907330089727,-1,1,11,-6,0,0,-2,1
1537907330101695,-3,3,20,14,2,0,-1,0
1537907330101695,-3,-4,-20,0,0,-1,0,-2
1537907330110673,-1,8,0,-7,-1,0,1,-2
1537907330110673,-2,6,-12,-3,-3,-3,1,0
1537907330125632,0,-6,9,2,-3,-4,-3,-1
1537907330125632,-2,-5,-30,-3,-3,0,0,2
1537907330126630,-1,-15,11,3,0,-2,-1,-2
1537907330126630,0,2,-34,-13,3,0,0,0
1537907330148572,-1,11,23,4,10,4,1,-1
1537907330148572,-1,-42,-42,-17,-17,-5,-3,-2
1537907330149570,5,42,68,75,43,6,1,0
1537907330149570,-3,-25,-49,-51,-54,-16,-5,-1
1537907330161537,-3,4,-8,-30,15,5,-1,0
1537907330161537,-4,36,-60,90,44,10,1,-2
1537907330170511,-1,2,79,-81,-50,-12,-5,-5
1537907330170511,7,-24,77,111,20,5,3,4
1537907330185471,-6,51,-72,27,-26,-16,-9,-8
1537907330185471,-1,-30,69,-20,-15,1,3,2
1537907330191455,-1,-18,-37,-25,42,20,8,6
1537907330191455,-5,2,-95,-26,-25,-11,-5,-7
1537907330208410,-5,4,123,47,-38,-9,0,-1
1537907330208410,2,11,-95,-42,-11,-12,-9,-5
1537907330209407,-7,3,-53,4,10,3,-1,-1
1537907330209407,5,42,32,-4,26,8,5,3
1537907330221375,7,-23,30,-35,33,18,7,6
1537907330221375,-9,14,44,81,-30,-14,-6,-11
1537907330230351,3,20,-55,50,-13,0,0,1
1537907330230351,-4,0,-57,-116,6,3,-3,-2
1537907330244314,1,12,87,98,-6,-6,0,0
1537907330244314,0,40,-36,-23,-15,-5,0,0
1537907330253290,2,-25,51,1,10,3,0,2
1537907330253290,-7,-25,68,62,14,2,-3,-5
1537907330268250,11,28,-65,-27,5,2,2,4
1537907330268250,-7,-87,25,-73,-7,-4,-6,-4
1537907330269248,10,30,45,81,22,4,6,5
1537907330269248,4,-25,5,-36,15,3,-1,0
1537907330282213,-7,-25,-35,46,-15,-15,-4,-4
1537907330282213,7,15,25,2,8,5,1,5
1537907330298171,-10,-20,-31,-42,5,1,-5,-6
1537907330298171,1,12,20,-3,-34,-15,-4,-2
1537907330305153,-5,-30,-21,-31,8,9,-1,-4
1537907330305153,1,-5,87,20,19,2,2,-1
1537907330312134,-6,-17,-120,-32,-29,-7,-2,-3
1537907330312134,6,14,68,48,35,12,4,3
1537907330328090,-8,-31,-66,-27,-9,-3,-1,-2
1537907330328090,6,33,32,21,4,5,4,5
1537907330330084,1,10,44,-24,-26,-12,-4,-2
1537907330330084,-5,-15,-29,-17,-2,-1,-2,0
1537907330352025,1,0,-11,0,15,3,-1,-1
1537907330352025,0,-5,-6,-13,-1,0,0,-1
1537907330353023,-4,-2,-10,2,-8,-2,-1,-4
1537907330353023,-2,5,-34,10,-8,-1,0,0
1537907330364991,4,-5,40,-11,1,2,-1,1
1537907330364991,-1,2,-18,-6,7,2,0,-1
1537907330371972,-1,1,14,6,-7,-4,-1,0
1537907330371972,-2,-1,-22,-4,-2,-1,-1,-3
1537907330387929,2,5,30,-13,3,2,-1,1
1537907330387929,0,1,-14,0,4,2,1,-2
1537907330389924,-2,-6,-22,-7,0,-2,-2,-2
1537907330389924,1,1,11,3,-11,-4,-1,0
1537907330410868,0,2,5,3,1,1,-2,-1
1537907330410868,0,-1,-11,4,0,-1,-1,2
1537907330411866,0,-6,12,2,-3,-3,-1,-2
1537907330411866,-2,3,-10,-6,-3,-1,0,-1
1537907330432809,-1,1,15,-1,0,0,1,-2
1537907330432809,-1,-6,-14,-3,2,1,-1,-2
1537907330434804,-1,1,8,-4,-3,-3,-1,1
1537907330434804,-2,2,-7,1,1,0,-1,-1
1537907330447769,-1,-4,-1,-5,-3,-3,-2,1
1537907330447769,-1,-17,-1,-4,1,1,1,1
1537907330449764,0,-13,0,5,0,0,0,-2
1537907330449764,0,-8,-5,7,2,1,-2,-2
1537907330470708,1,-9,6,-11,-6,-4,-2,-2
1537907330470708,0,-14,41,-12,-3,0,-2,0
1537907330471706,-2,-25,-81,17,3,-1,1,-1
1537907330471706,-1,-6,34,-6,-2,-1,-1,-2
1537907330484671,1,-9,-15,2,2,0,1,2
1537907330484671,0,5,27,-17,22,6,2,0
1537907330491653,-4,7,3,38,-31,-14,-7,-7
1537907330491653,-1,-9,-6,-13,-7,-3,-2,-1
1537907330508608,0,-11,-48,-4,4,0,1,2
1537907330508608,-2,2,12,10,-4,-3,-2,-2
1537907330509606,3,-3,27,-2,17,5,1,1
1537907330509606,-3,1,-5,2,-3,-2,0,-1
1537907330530549,-4,-6,19,-6,-9,-3,-3,-3
1537907330530549,0,31,-31,7,4,0,0,1
1537907330532544,-1,28,17,-15,-1,-2,0,-3
1537907330532544,-3,30,-1,5,-4,-2,1,-1
1537907330544512,0,32,6,-6,6,2,2,-1
1537907330544512,0,25,-22,-3,-10,-4,-1,0
1537907330553489,1,35,17,-9,2,1,-1,0
1537907330553489,1,15,-12,-3,-2,1,1,0
1537907330568448,0,25,4,9,6,1,2,1
1537907330568448,-1,25,1,-1,-3,1,-2,-1
1537907330569446,-3,12,-14,-9,-7,-5,-2,0
1537907330569446,1,-7,13,4,8,2,-1,1
1537907330590390,-2,4,82,24,10,3,-1,-3
1537907330590390,-2,-25,-97,-36,-29,-14,-4,-3
1537907330592386,2,-25,13,5,12,5,2,3
1537907330592386,2,-18,9,27,11,0,0,1
1537907330604352,-1,-29,2,-25,-21,-9,-4,-1
1537907330604352,-5,-46,40,-9,-2,1,-2,-4
1537907330613328,-1,-37,-7,-9,-2,-1,-2,-3
1537907330613328,-2,-28,-33,-9,-2,-1,0,-3
1537907330628287,0,-12,-4,0,5,1,0,0
1537907330628287,-3,-5,-6,10,3,0,0,-2
1537907330629284,-3,11,3,-11,-4,-2,-1,-1
1537907330629284,0,29,10,5,4,3,1,0
1537907330650228,-3,13,-14,-5,-4,-4,-2,-3
1537907330650228,-1,12,-8,7,-1,-1,-2,1
1537907330652223,-4,18,4,4,5,3,0,-1
1537907330652223,1,-10,11,-9,-7,-2,-1,0
1537907330664191,0,1,-46,-7,-5,-1,-1,0
1537907330664191,0,7,0,9,5,-1,-1,1
1537907330679151,0,-6,22,-4,0,0,-2,-1
1537907330679151,-3,-3,-2,-2,-2,-2,-1,-1
1537907330688127,1,-4,-29,-10,0,-2,0,-1
1537907330688127,1,-3,31,13,-10,-5,-2,-1
1537907330689124,1,-6,10,-10,0,0,-1,-1
1537907330689124,-2,1,-8,-6,-2,-2,-1,-2
1537907330711066,-2,-3,-9,-3,10,4,1,-1
1537907330711066,-2,-2,4,18,-5,-4,-2,0
1537907330712063,0,-4,5,0,-2,-2,-1,-1
1537907330712063,0,3,-19,-6,-3,-1,0,0
1537907330724031,-1,1,19,5,3,1,-2,-2
1537907330724031,0,-3,-12,-6,3,2,1,0
1537907330733007,-1,-4,8,-4,-5,-2,-1,-1
1537907330733007,0,19,5,-1,-1,-1,-2,-1
1537907330747967,-3,-6,1,5,0,0,-1,-1
1537907330747967,0,1,1,-3,0,0,0,0
1537907330749962,0,-3,-2,-2,-1,-1,0,0
1537907330749962,0,-1,-8,-3,0,1,0,0
1537907330769908,-1,3,6,2,-4,-1,-1,-1
1537907330769908,-1,1,4,1,5,0,-2,-1
1537907330776889,-1,-3,5,-4,-4,-3,1,0
1537907330776889,-1,-5,-21,-3,1,0,-1,-2
1537907330783871,-2,-4,6,5,-4,-3,-1,-2
1537907330783871,-2,-11,-3,-3,0,-1,-2,1
1537907330792847,2,15,-2,-1,10,5,1,4
1537907330792847,-6,-19,57,10,18,4,1,-4
1537907330809802,1,3,-36,4,-27,-16,-9,-6
1537907330809802,6,-18,71,19,19,8,5,6
1537907330810799,-11,-9,-9,-15,-7,-5,-8,-8
1537907330810799,8,-12,-107,64,19,11,10,7
1537907330830746,4,15,0,2,24,5,1,4
1537907330830746,-3,28,75,7,-12,-5,-3,-3
1537907330831743,3,-15,36,5,16,13,6,7
1537907330831743,-2,16,11,-46,-40,-17,-11,-7
1537907330852687,10,4,-101,36,38,15,8,8
1537907330852687,-3,-23,75,63,16,-2,2,2
1537907330854682,-5,10,-14,-56,-57,-23,-9,-9
1537907330854682,-8,-33,-20,-12,13,10,0,-2
1537907330868645,1,14,6,39,11,3,-2,-2
1537907330868645,6,25,-111,7,23,7,3,0
1537907330869643,-2,12,-73,-27,-25,-7,-2,0
1537907330869643,-2,-12,35,46,9,0,1,-1
1537907330890587,0,33,73,3,-31,-11,-3,-1
1537907330890587,-2,11,8,35,39,16,1,-2
1537907330892582,2,-17,-79,2,6,-1,1,0
1537907330892582,-2,23,-22,-53,-31,-11,-7,-4
1537907330904550,-7,-11,27,-10,-7,-2,-3,-3
1537907330904550,8,15,-32,-20,-14,-3,-1,1
1537907330913527,3,-1,68,35,16,2,1,1
1537907330913527,-3,-41,-18,-14,2,-3,-3,0
1537907330928486,-2,9,56,-48,-22,-10,-3,-2
1537907330928486,-6,-36,-15,-21,-14,-6,-4,-6
1537907330929485,7,20,-29,-31,-3,0,0,1
1537907330929485,1,-21,41,52,33,8,2,0
1537907330958407,-7,-18,-23,-9,-12,-2,-1,-4
1537907330958407,-3,-15,-43,-51,-40,-9,-1,-2
1537907330960405,-3,-9,-17,61,26,10,2,1
1537907330960405,0,3,7,-21,-2,-1,0,-1
1537907330964390,-2,-24,6,-19,-10,-4,-2,-1
1537907330964390,-3,20,4,-11,-7,-3,-2,-1
1537907330973366,-3,-11,15,15,9,3,0,-1
1537907330973366,0,16,6,-22,-17,-7,-2,1
1537907330995309,-1,-20,-14,13,7,4,0,-1
1537907330995309,-1,-17,-18,-47,-9,-2,-1,0
1537907330997304,1,1,-14,10,-9,-4,0,-2
1537907330997304,5,26,37,1,-6,-2,0,1
1537907331018247,-2,-9,-16,-17,13,6,3,-1
1537907331018247,-2,-5,-3,20,1,-2,-1,-2
1537907331019243,1,2,29,15,6,1,1,-1
1537907331019243,-1,3,-12,-20,-11,-6,-3,0
1537907331024229,-3,-1,-6,-1,0,3,0,-1
1537907331024229,-4,6,11,-2,-3,0,0,-2
1537907331033205,0,1,-21,-8,-3,-6,-1,-1
1537907331033205,-1,7,4,8,3,0,-1,1
1537907331048165,1,-1,16,2,2,-2,2,0
1537907331048165,0,3,-7,2,1,0,0,-3
1537907331063125,-1,-4,32,-7,-3,-2,-2,0
1537907331063125,0,4,-9,-1,1,1,0,-2
1537907331070106,-2,-1,-4,2,0,0,-3,-2
1537907331070106,0,1,-5,-5,-2,0,-2,0
1537907331072101,0,-3,7,2,5,0,-1,-1
1537907331072101,-1,2,-7,1,-2,-1,0,-2
1537907331084069,-1,0,0,-5,-6,-3,-1,0
1537907331084069,-1,-2,0,2,1,0,-1,-1
1537907331101024,-1,-2,13,0,3,2,0,-1
1537907331101024,-1,1,-4,2,-3,0,-1,-1
1537907331108005,0,-2,8,-3,-2,-1,-2,0
1537907331108005,-1,-2,6,-3,-1,1,-1,-2
1537907331110000,-2,-3,-19,-9,-3,-1,0,-1
1537907331110000,-1,-6,-5,7,1,-1,-1,-1
1537907331130945,-1,-7,-3,1,-4,-3,-1,-2
1537907331130945,-1,-10,2,0,-1,-2,-1,-1
1537907331131943,1,-9,19,-4,-3,-3,-1,0
1537907331131943,-2,-19,-28,-9,-3,2,1,0
1537907331143911,1,-4,20,11,5,2,-1,0
1537907331143911,0,3,-23,4,-7,-3,-1,-1
1537907331169842,0,-5,9,-4,1,1,0,0
1537907331169842,-2,0,7,6,13,3,0,-1
1537907331169842,-5,-4,64,0,-28,-11,-6,-6
1537907331169842,1,-21,-88,-32,4,2,2,3
1537907331173830,-3,-27,23,-1,-4,-2,-2,0
1537907331173830,3,22,5,11,6,2,0,2
1537907331198764,1,25,17,2,10,2,0,0
1537907331198764,-1,9,31,-20,2,0,-1,0
1537907331206743,-3,12,-11,14,-14,-6,-2,-3
1537907331206743,-2,10,-10,-1,1,0,0,-1
1537907331206743,0,16,-12,-3,3,1,0,0
1537907331206743,-3,14,3,8,-2,-2,-1,-3
1537907331212726,2,19,-14,-7,5,3,0,-2
1537907331212726,-1,10,14,-5,-9,-4,-3,-2
1537907331227688,-1,10,-28,6,5,3,1,0
1537907331227688,-3,6,4,2,0,-1,-1,0
1537907331234677,0,18,15,3,2,1,0,-1
1537907331234677,0,9,-1,0,-7,0,0,-1
1537907331250624,-1,-10,-19,-6,1,-1,-2,0
1537907331250624,1,2,-14,-11,2,-1,-1,1
1537907331251621,-2,0,33,18,1,-4,-1,-3
1537907331251621,1,-23,-5,0,-4,-1,1,0
1537907331273562,2,-17,-9,-8,3,1,0,2
1537907331273562,2,3,71,27,-7,-3,-3,-3
1537907331274559,-3,-48,-85,-17,5,3,-1,-1
1537907331274559,-2,-20,10,-4,-2,-4,0,-1
1537907331287524,1,-9,-2,10,1,0,1,-1
1537907331287524,-1,-4,13,2,0,-1,-1,0
1537907331303482,0,1,17,1,5,1,0,1
1537907331303482,-1,-16,-5,-1,-4,-2,-1,-1
1537907331310463,-3,1,-12,-4,3,1,0,-2
1537907331310463,-2,5,3,8,-1,-1,0,-1
1537907331312458,-2,16,5,-4,0,-1,-1,-1
1537907331312458,1,15,-27,-7,-3,-2,0,-1
1537907331340383,-2,5,6,-2,0,-1,-1,-1
1537907331340383,-2,-2,-12,-4,-4,-2,-1,-2
1537907331342378,-1,1,11,0,0,0,-1,0
1537907331342378,0,8,12,1,-2,-1,-2,-1
1537907331347365,-1,-5,-9,-8,-8,-4,-2,1
1537907331347365,0,-7,-3,16,7,3,0,0
1537907331354346,-1,0,18,-18,-9,-5,-2,0
1537907331354346,0,-2,-53,-22,-1,0,-1,0
1537907331378282,-2,0,22,2,-16,-9,-4,-3
1537907331378282,-1,-9,-7,8,1,3,-1,-2
1537907331379279,1,11,-17,7,0,-2,0,1
1537907331379279,-4,-13,10,-6,-1,-2,-3,-2
1537907331393242,5,14,-13,0,7,3,2,2
1537907331393242,-3,-13,-6,-1,3,0,0,0
1537907331394239,-2,-6,11,-11,-2,-1,-1,-4
1537907331394239,3,18,58,8,-5,-2,-1,-1
1537907331407204,-1,-6,-45,-13,2,3,0,-1
1537907331407204,-3,-17,47,19,-1,-1,-1,-1
1537907331414186,1,-15,-48,-1,9,0,-4,-4
1537907331414186,-9,25,86,26,4,-3,-3,-6
1537907331445103,-5,0,-72,9,-11,-9,-4,-2
1537907331445103,8,23,32,-59,-34,-9,1,2
1537907331447098,-5,-35,10,-8,10,2,-2,-3
1537907331447098,2,-10,-33,75,5,-2,-1,1
1537907331453082,-1,5,72,-23,-4,-3,0,-2
1537907331453082,-10,13,76,33,20,5,-2,-6
1537907331454079,-3,-7,-91,-11,-57,-19,-4,-4
1537907331454079,5,-3,-31,-38,3,9,6,8
1537907331467044,-3,7,71,73,10,6,0,-1
1537907331467044,0,-11,-29,-37,-13,-8,-4,-1
1537907331476021,8,36,79,55,61,23,9,6
1537907331476021,-17,-34,4,-59,-76,-29,-13,-15
1537907331490981,17,53,40,-37,-1,8,8,12
1537907331490981,-1,-15,64,28,29,10,2,0
1537907331491979,0,31,7,-19,-19,-3,-3,-3
1537907331491979,0,7,61,7,26,10,1,1
1537907331512923,-1,-15,-20,1,6,-6,-3,-3
1537907331512923,2,-4,-77,-33,-21,-4,-1,1
1537907331514918,0,11,45,19,23,8,3,2
1537907331514918,0,25,-5,3,-10,-10,-6,-3
1537907331526886,-12,-71,-54,7,18,3,-2,-9
1537907331526886,4,29,-4,-47,-39,-10,-2,2
1537907331535863,-2,-22,12,7,2,-1,-2,0
1537907331535863,5,2,-19,-32,8,2,0,-1
1537907331550822,-15,-50,12,2,-6,-3,-3,-6
1537907331550822,7,20,-1,14,14,3,2,3
1537907331551819,0,0,29,-10,-4,-2,-2,0
1537907331551819,-1,-5,-8,-25,1,2,2,1
1537907331580743,-1,5,4,-2,1,0,0,-3
1537907331580743,-5,-16,-8,32,11,-1,0,-4
1537907331581740,0,4,-21,-3,-7,-1,0,-3
1537907331581740,0,-14,65,21,10,2,0,-2
1537907331586727,5,1,-94,-33,-12,-5,-1,1
1537907331586727,-2,-8,-39,18,4,0,-1,1
1537907331595704,-1,-4,14,1,-2,-3,-1,-2
1537907331595704,-1,3,-16,-5,-7,1,-1,0
1537907331618641,3,15,33,-16,-4,-1,-2,0
1537907331618641,-7,-22,-48,-20,-11,-6,-6,-5
1537907331619639,6,-7,15,23,16,7,4,5
1537907331619639,-1,-11,-5,14,3,0,0,0
1537907331634600,3,12,11,-5,-7,-3,0,1
1537907331634600,-1,-6,-2,7,8,2,-1,-1
1537907331635597,-5,-1,5,-6,-6,-3,-4,-3
1537907331635597,3,6,-13,-14,10,2,2,2
1537907331646566,-4,3,-13,11,-9,-3,-2,-3
1537907331646566,-1,0,-5,15,4,-1,-2,-1
1537907331655541,1,7,-41,-19,-9,-5,-1,0
1537907331655541,0,1,-18,10,6,2,2,2
1537907331685462,-2,0,16,2,2,0,0,-2
1537907331685462,-1,5,12,-5,7,0,0,-2
1537907331687456,-2,2,-12,-7,-6,-2,-1,-1
1537907331687456,-1,-2,-2,3,1,-2,-2,-3
1537907331693440,-1,1,4,3,3,-1,-1,1
1537907331693440,-1,0,-5,0,-1,0,-1,-1
1537907331694437,-1,0,14,3,-1,-1,-2,-2
1537907331694437,-2,-2,-19,8,4,1,0,0
1537907331723360,-1,-5,12,-1,3,2,0,-2
1537907331723360,1,6,-11,-4,-2,0,0,0
1537907331724357,-3,-3,10,0,-5,-3,-3,-3
1537907331724357,1,-2,-4,-2,1,2,-1,0
1537907331730341,1,1,-6,2,4,3,1,-2
1537907331730341,-3,-1,8,-1,-4,-2,-2,-1
1537907331732336,0,-3,-1,-5,-3,-1,0,0
1537907331732336,0,-4,-9,-2,-3,-3,0,0
1537907331753281,1,-3,9,7,6,3,1,0
1537907331753281,1,-2,-4,0,1,0,-1,-3
1537907331754279,-1,-2,8,-5,-2,0,0,-1
1537907331754279,-1,-5,-22,-10,-1,1,-1,-1
1537907331767243,-2,0,27,15,3,-2,-4,-1
1537907331767243,-1,-1,-26,-4,-4,-1,0,1
1537907331774224,0,-1,-1,-2,-3,-1,-2,-1
1537907331774224,0,-1,19,16,8,3,0,-1
1537907331790182,-3,-8,-33,-16,0,-3,-2,-3
1537907331790182,3,-3,53,3,-8,-2,0,0
1537907331792177,-1,-9,6,-4,-3,-2,-1,-1
1537907331792177,0,-14,-9,5,3,1,0,1
1537907331829078,1,-9,15,-15,5,0,0,1
1537907331829078,-1,4,0,12,0,-1,-1,-2
1537907331831074,-2,3,-28,-4,-9,-2,0,-1
1537907331831074,1,-4,-17,1,5,1,2,1
1537907331831074,-2,0,-11,-7,-8,-2,0,0
1537907331831074,-1,11,-9,-6,3,1,-1,-2
1537907331836060,-3,9,-2,-1,4,-1,-2,-2
1537907331836060,-4,19,42,-18,-21,-8,-4,-4
1537907331858000,5,31,-43,-3,0,0,-1,1
1537907331858000,2,19,12,10,2,0,-1,0
1537907331859995,0,9,13,6,6,3,1,1
1537907331859995,-1,3,-1,3,7,0,0,0
1537907331872960,-3,1,19,0,-7,-2,0,-2
1537907331872960,0,2,-25,-9,7,3,0,1
1537907331874955,1,3,2,15,6,1,1,2
1537907331874955,0,4,-15,-22,-22,-8,-5,-1
1537907331895898,0,-2,11,21,-4,-1,-1,-1
1537907331895898,-4,-7,37,6,2,0,0,-2
1537907331896896,0,-12,-16,0,5,0,1,2
1537907331896896,1,-11,4,-11,1,0,1,-1
1537907331910859,-2,-12,-13,7,-1,-2,-2,-3
1537907331910859,-2,-15,-21,-1,2,0,-1,0
1537907331911857,-2,-16,-14,-8,-5,-3,-1,-2
1537907331911857,-3,-7,3,12,7,3,0,-2
1537907331933798,-2,-3,14,-7,-2,0,0,1
1537907331933798,0,23,-1,-3,-2,0,0,-3
1537907331934796,-5,-35,33,1,-2,-3,-1,-3
1537907331934796,0,8,-30,5,4,1,-1,-1
1537907331946764,1,0,-13,-8,-4,-2,0,0
1537907331946764,-2,-7,1,2,-1,-1,-2,-1
1537907331962721,2,15,-18,-9,-3,-1,-1,0
1537907331962721,-2,0,8,4,1,0,-1,-2
1537907331970700,-2,-4,10,3,3,1,0,-2
1537907331970700,-1,-5,-6,-6,-6,-5,-2,-1
1537907331971700,0,6,2,-7,-5,-3,-1,0
1537907331971700,0,-7,-4,-2,-1,-1,0,-2
1537907332000620,-1,5,3,10,3,-1,0,0
1537907332000620,-1,-10,-11,-4,-1,-2,-1,-1
1537907332001618,-3,-1,6,-9,-1,-1,-2,-1
1537907332001618,0,4,28,-3,6,-1,0,0
1537907332006604,-1,-5,4,1,-12,-2,-1,-2
1537907332006604,-1,-9,-65,-8,-3,-2,-2,-1
1537907332032535,1,9,22,0,-5,0,-1,-1
1537907332032535,-1,-3,-26,-4,1,1,-1,0
1537907332033533,1,-13,69,-1,3,0,0,0
1537907332033533,-2,15,-17,3,2,1,2,0
1537907332036525,-3,-23,-15,-1,-2,-3,-3,-3
1537907332036525,1,43,8,5,4,0,2,-1
1537907332068438,-3,-9,-18,-7,-5,-3,-2,-2
1537907332068438,-3,0,-8,-6,1,1,-1,-1
1537907332070434,7,12,55,12,9,4,1,0
1537907332070434,-2,-7,35,-3,-13,-6,-5,-5
1537907332071431,-3,-2,-30,26,7,2,0,-1
1537907332071431,3,1,-68,-1,7,2,2,5
1537907332075420,-9,1,78,68,26,4,0,-3
1537907332075420,-9,-24,-40,-56,-66,-22,-11,-8
1537907332091376,6,-9,-72,-33,-2,1,1,6
1537907332091376,3,8,86,35,15,2,0,2
1537907332104341,-5,-12,27,31,15,5,1,-1
1537907332104341,-2,0,-37,-36,33,10,-1,-4
1537907332113317,1,4,15,71,-9,-8,0,0
1537907332113317,-6,-3,40,-93,-52,-14,-5,-5
1537907332114315,6,35,-54,-42,-3,0,0,1
1537907332114315,0,-16,-94,0,26,6,5,6
1537907332136256,1,7,-12,41,14,6,1,1
1537907332136256,-2,14,123,-1,-1,-5,-4,-2
1537907332137253,3,14,-87,-40,-23,-8,-3,0
1537907332137253,1,31,81,28,10,2,2,0
1537907332150219,-7,-9,22,6,15,6,-1,-4
1537907332150219,5,10,-50,45,24,7,3,1
1537907332157200,-4,-2,-85,-38,-29,-13,-6,-4
1537907332157200,4,1,37,38,15,4,2,5
1537907332173157,1,-1,21,-30,-15,-7,-3,-2
1537907332173157,-8,-24,3,-17,-16,-6,-4,-6
1537907332174155,2,-11,-27,-1,5,4,3,0
1537907332174155,5,-11,-9,25,5,1,1,0
1537907332187120,-5,-12,18,-23,-1,-2,-4,-6
1537907332187120,0,-5,58,-13,-7,-1,2,0
1537907332196097,-3,-27,-2,23,11,2,1,0
1537907332196097,2,-4,26,5,-10,-3,0,0
1537907332210060,3,14,37,-6,6,1,0,1
1537907332210060,1,-10,5,18,12,6,0,-3
1537907332217041,-2,-22,-5,-26,5,3,-1,-1
1537907332217041,2,-11,-43,32,-40,-16,-5,-2
1537907332240977,-1,12,10,-23,7,6,2,1
1537907332240977,-2,-24,-33,9,5,2,-3,1
1537907332241976,-4,6,26,-17,-13,-4,-1,-2
1537907332241976,-2,-12,2,-8,11,5,1,0
1537907332255938,3,14,-18,1,0,-1,-2,-1
1537907332255938,-1,1,-28,11,2,0,1,0
1537907332256936,-1,-5,15,-10,-12,-4,-2,-1
1537907332256936,2,9,2,-9,0,1,2,1
1537907332278875,-1,6,-2,0,-9,-4,-1,-2
1537907332278875,-1,-4,-7,9,9,3,0,-1
1537907332279873,0,5,13,14,5,1,0,0
1537907332279873,-3,3,3,-9,0,-1,0,2
1537907332306800,-2,-1,-18,-15,-3,-2,-4,-2
1537907332306800,-1,-2,-14,-5,-5,-4,-2,-2
1537907332317771,2,15,12,4,-9,-4,0,0
1537907332317771,-3,-1,3,2,3,2,1,-1
1537907332318768,-1,-3,-6,-16,-3,-2,-1,-2
1537907332318768,0,6,-7,5,1,0,1,0
1537907332321760,0,4,12,1,-3,-2,-2,1
1537907332321760,-4,-3,12,1,7,6,-2,-3
1537907332330736,-2,0,-11,-7,-11,-7,-2,-1
1537907332330736,-1,4,-9,-5,-3,-2,-1,0
1537907332345696,-2,5,6,1,-1,-1,1,-1
1537907332345696,-2,-2,-2,1,0,-1,-2,-2
1537907332352678,0,3,15,-3,-1,0,-1,0
1537907332352678,-1,-4,-25,-9,-2,-1,-2,-1
1537907332354672,-1,-7,-5,6,0,-2,-2,-2
1537907332354672,-1,2,3,-2,0,0,-1,-2
1537907332375616,-2,-6,3,-2,1,2,2,-2
1537907332375616,1,-4,4,-28,-1,0,1,1
1537907332383595,-4,-6,-31,25,0,-5,-4,-5
1537907332383595,2,0,19,-3,-10,-3,1,2
1537907332389578,0,-7,4,7,0,-2,1,2
1537907332389578,-2,-11,-8,-1,1,1,-1,-1
1537907332412518,0,-6,47,-12,3,2,-1,-1
1537907332412518,-3,-15,-12,-16,-2,-3,-5,-4
1537907332413515,-1,-25,-38,0,6,3,1,0
1537907332413515,1,-6,25,9,-6,-4,-1,1
1537907332420496,4,15,8,-3,-1,0,2,2
1537907332420496,-3,-3,0,4,2,-1,0,2
1537907332451413,-1,20,10,-12,-4,-1,-1,0
1537907332451413,-3,17,-11,2,-4,-3,-1,-2
1537907332452411,-1,11,-3,2,-3,0,-1,0
1537907332452411,2,14,-5,-5,-2,-2,0,0
1537907332453408,-2,9,-4,2,3,0,1,0
1537907332453408,0,7,0,6,1,1,0,-2
1537907332458395,-1,14,5,-3,-3,1,0,1
1537907332458395,-1,6,-27,-3,2,0,-1,0
1537907332480336,0,2,-7,-5,-7,-4,-2,-2
1537907332480336,0,2,-6,0,6,2,-1,0
1537907332482331,1,-6,38,8,0,0,2,0
1537907332482331,-5,-13,-19,2,-11,-7,-6,-6
1537907332495296,4,-11,-18,6,13,4,3,3
1537907332495296,2,-10,-6,7,-9,-3,-2,1
1537907332497290,-1,-14,24,3,9,4,-2,-1
1537907332497290,-2,-13,-41,-16,-1,-3,-1,-1
1537907332518234,-1,-12,-7,12,-3,-2,-1,-2
1537907332518234,-1,-11,9,-3,5,2,1,-1
1537907332520230,0,0,-10,1,-1,-1,-1,-2
1537907332520230,-2,-14,48,6,-5,-1,-3,-2
1537907332533195,-4,4,-3,-9,-4,-1,-2,-3
1537907332533195,-1,8,-11,-1,0,0,0,0
1537907332534192,-1,0,-11,-1,-4,-2,-1,-1
1537907332534192,1,20,7,0,3,1,1,1
1537907332556134,0,-4,-4,-1,-1,-1,-1,-1
1537907332556134,-2,1,7,-1,-2,-2,-1,-2
1537907332557132,-1,3,-6,-4,-6,-3,-2,-1
1537907332557132,1,3,0,3,4,0,1,2
1537907332578076,0,-1,7,-7,-3,-1,-2,-1
1537907332578076,-1,3,0,7,-3,-3,-2,-1
1537907332585057,-2,-7,4,-6,4,0,-1,1
1537907332585057,0,-4,-1,-12,-12,-1,-3,0
1537907332592040,-2,-2,-33,-10,0,0,0,-1
1537907332592040,-2,-4,19,7,0,0,0,-3
1537907332593038,2,-7,-15,7,2,-2,-1,-1
1537907332593038,0,-3,23,3,2,3,0,0
1537907332623953,-2,8,41,-9,-7,-5,-2,-3
1537907332623953,-2,-18,-66,-22,-8,-1,-1,0
1537907332623953,0,7,12,3,-1,-1,-1,0
1537907332623953,0,-5,3,3,0,-3,0,-2
1537907332637916,1,15,13,0,6,3,0,1
1537907332637916,-1,3,31,-14,5,1,-3,-3
1537907332638915,0,-8,-42,11,-20,-5,-2,-3
1537907332638915,1,-18,21,-26,1,2,-1,2
1537907332652876,-1,-11,72,53,38,11,3,2
1537907332652876,-7,27,-105,-61,-59,-17,-9,-6
1537907332652876,-1,-23,19,58,41,11,5,6
1537907332652876,2,61,62,36,-23,-9,-3,0
1537907332690775,-3,-10,-106,6,20,2,-4,-3
1537907332690775,0,-27,127,5,-13,-4,0,2
1537907332691772,-7,2,27,-70,-15,-5,-6,-5
1537907332691772,5,-12,-36,61,51,17,8,6
1537907332697758,-4,27,87,61,-16,-14,-7,-6
1537907332697758,10,15,-18,-12,-1,2,4,8
1537907332698755,-3,6,64,-18,31,12,0,-2
1537907332698755,-4,-20,-29,-38,-22,-14,-3,-2
1537907332712716,-3,-8,-64,-15,-7,-2,-2,-3
1537907332712716,-7,5,56,15,8,0,-2,-9
1537907332712716,8,11,-91,-16,-7,3,2,3
1537907332712716,-3,10,56,8,21,7,1,-1
1537907332734656,-1,2,-98,-21,-9,0,0,-3
1537907332734656,-3,-3,-20,8,6,-1,-1,-3
1537907332735654,2,13,-4,-17,-11,-2,-1,2
1537907332735654,-4,-7,-1,27,0,-1,-4,-3
1537907332757595,0,-11,44,-28,-19,-8,-1,0
1537907332757595,1,-14,-30,-2,1,0,-1,0
1537907332758592,-2,-15,28,19,5,0,0,-3
1537907332758592,-2,-17,-75,-30,-11,-3,-2,-4
1537907332772555,1,-19,63,-19,-11,-2,-3,1
1537907332772555,2,-22,22,9,29,11,3,1
1537907332773552,-1,-24,-21,25,-15,-6,-1,-2
1537907332773552,-6,-17,11,-15,-4,-2,-1,-3
1537907332794496,2,-5,-8,-5,-3,-2,1,1
1537907332794496,0,12,-16,24,17,3,0,-1
1537907332795494,-2,13,-11,-20,-21,-8,-3,-1
1537907332795494,-2,8,-17,4,2,4,-1,-2
1537907332834390,0,11,3,-17,-5,0,1,0
1537907332834390,-1,-1,-5,-3,3,-2,-2,-1
1537907332835388,-5,-11,-1,-16,-8,-4,-2,-3
1537907332835388,1,-2,5,3,-1,0,-1,2
1537907332836385,0,-4,0,7,-3,-2,-2,0
1537907332836385,-2,-11,-8,11,2,-1,0,-1
1537907332839377,-2,2,-7,-5,-1,0,0,-2
1537907332839377,0,10,-3,-12,-4,1,1,-1
1537907332870294,0,9,-1,-6,-3,0,-1,-1
1537907332870294,-2,12,14,4,-5,-2,-1,-3
1537907332871292,1,11,1,3,2,-1,-1,0
1537907332871292,-1,10,0,-2,1,0,-1,-2
1537907332878273,-1,5,19,0,-3,-1,-1,0
1537907332878273,0,4,-8,6,5,2,1,1
1537907332879270,-1,4,-4,5,-1,-1,-1,0
1537907332879270,1,5,0,-4,-5,-3,-1,0
1537907332901212,-2,-2,-3,-7,-3,-2,-2,-2
1537907332901212,-1,3,-7,0,-2,-1,0,-1
1537907332902210,0,2,-1,2,2,0,0,-3
1537907332902210,1,0,12,-4,-4,-2,0,-1
1537907332915174,-1,-1,1,-4,1,0,-1,2
1537907332915174,-1,-1,-3,4,-1,-2,-1,0
1537907332915174,-1,-1,7,0,-4,-2,-2,1
1537907332915174,0,-1,7,-1,1,1,2,-1
1537907332939109,-1,-2,-9,-14,-2,0,1,-1
1537907332939109,-1,-3,-12,20,3,0,-1,-1
1537907332940107,-1,-3,-15,1,1,-1,0,-1
1537907332940107,1,1,6,-1,0,-2,-2,-1
1537907332952075,-1,-3,11,0,2,1,0,-1
1537907332952075,4,3,37,-17,-8,-1,0,1
1537907332953072,-1,-14,-90,-13,-6,-8,-3,-2
1537907332953072,0,-6,5,-5,-6,-2,-2,-2
1537907332975014,-2,-9,-26,5,2,2,-1,-1
1537907332975014,-1,0,24,0,-2,0,-1,-2
1537907332976011,1,0,26,8,15,5,1,0
1537907332976011,2,-1,-10,-21,-8,-4,-1,1
1537907333005932,-3,-7,-14,7,-1,-4,-2,-4
1537907333005932,5,4,72,15,-3,1,0,4
1537907333005932,0,-1,0,4,0,-1,-1,0
1537907333005932,-1,-2,-20,2,5,0,0,1
1537907333011916,0,5,16,-6,5,4,2,0
1537907333011916,-5,0,3,4,2,0,-2,-1
1537907333012914,-2,4,-11,1,2,0,0,-2
1537907333012914,-1,10,30,2,-7,-3,-3,-3
1537907333035853,1,-2,-57,-15,-3,0,-1,1
1537907333035853,0,4,-15,4,4,-1,-2,-1
1537907333036850,0,0,30,0,-1,1,-1,1
1537907333036850,-4,0,7,8,1,0,0,-1
1537907333048818,1,6,20,-13,-8,-3,-3,-2
1537907333048818,-2,-2,-39,18,4,0,-2,-2
1537907333073751,1,10,37,0,-2,0,0,0
1537907333073751,-1,-7,-21,-4,2,1,-1,0
1537907333074749,0,0,13,6,0,0,0,-2
1537907333074749,0,-8,-18,-22,-6,-2,0,-1
1537907333075747,-2,-8,4,8,-4,-4,-2,-2
1537907333075747,-1,-7,-4,3,2,-2,-1,-1
1537907333095694,0,-5,18,1,-2,-3,-2,2
1537907333095694,-4,-8,-19,-8,-3,-1,-2,-3
1537907333110652,0,-2,-2,-10,-8,-4,-2,1
1537907333110652,-1,-4,-1,2,4,1,0,0
1537907333111650,0,-1,11,7,5,3,-1,-1
1537907333111650,-2,-1,-8,-6,-4,-3,-1,-1
1537907333117636,-1,2,0,-6,-2,-1,0,-1
1537907333117636,-2,1,-1,1,2,1,-1,-2
1537907333132594,-2,2,3,3,0,-2,-1,0
1537907333132594,-1,-1,-5,0,0,0,-1,0
1537907333139574,0,5,3,-6,-4,-1,-1,-1
1537907333139574,0,-2,-6,0,-2,0,0,-2
1537907333154534,0,-3,3,2,-2,0,-1,-2
1537907333154534,0,-2,10,-2,5,-1,-1,0
1537907333155531,-4,3,22,9,-4,-3,-3,-4
1537907333155531,5,-13,-9,1,0,3,6,3
1537907333179468,-4,10,-29,-4,6,0,-9,0
1537907333179468,7,17,-11,-21,6,-1,0,-3
1537907333180465,-4,-73,48,25,0,6,2,3
1537907333180465,-6,61,43,38,0,-7,-4,-5
1537907333192433,5,11,-118,-51,-24,-8,0,0
1537907333192433,-11,-56,68,30,0,-3,-2,-3
1537907333193430,-5,70,87,-27,-27,-12,-10,-10
1537907333193430,6,-50,-93,35,25,18,10,10
1537907333215372,7,-32,10,-22,11,2,5,7
1537907333215372,-7,17,-58,11,-8,-8,-5,-4
1537907333215372,2,23,56,-30,-16,-4,0,-3
1537907333215372,-6,3,-60,-33,-14,-6,-5,-1
1537907333245292,-1,12,38,20,18,8,2,1
1537907333245292,3,1,-21,-30,-4,6,3,3
1537907333246289,-5,3,38,41,25,8,2,-2
1537907333246289,-1,22,-41,-90,-15,-4,-3,-5
1537907333252274,3,18,46,73,11,4,4,2
1537907333252274,-5,11,-7,12,-7,-4,-4,-5
1537907333253272,7,18,-59,-7,1,2,2,7
1537907333253272,-5,-13,118,5,3,-2,-5,-6
1537907333283191,-4,-25,-78,-10,-12,-6,-1,-1
1537907333283191,2,6,18,-9,-11,-6,-4,-1
1537907333284189,-1,-29,20,14,11,2,1,0
1537907333284189,-1,-38,-69,-28,-2,-1,0,1
1537907333298151,-5,-17,59,14,4,-1,-2,-4
1537907333298151,1,-36,-75,4,2,1,1,1
1537907333299149,0,-63,-57,-37,-6,-2,0,1
1537907333299149,-1,-35,24,31,2,-2,-1,-3
1537907333312114,-3,-1,23,3,-7,-2,-2,-3
1537907333312114,-1,9,-23,-5,6,2,1,-1
1537907333313113,-3,16,-44,-27,-4,-3,-1,-2
1537907333313113,0,34,55,30,4,0,-1,0
1537907333335052,-2,16,-1,-10,-1,-1,-2,-2
1537907333335052,2,8,37,-15,3,4,3,2
1537907333336050,2,7,-41,32,2,-1,-1,1
1537907333336050,-1,7,37,4,0,0,-3,-1
1537907333357990,-2,0,-14,2,-1,-2,-1,-3
1537907333357990,3,9,19,-10,-1,2,2,3
1537907333358987,-1,6,-11,8,6,1,0,0
1537907333358987,-2,6,-28,-5,-2,-2,-2,0
1537907333388907,-1,4,46,2,-7,-4,-3,-1
1537907333388907,1,7,8,-1,1,0,-2,-2
1537907333389905,1,6,-21,3,1,0,-1,0
1537907333389905,0,-3,11,-3,-3,-1,0,0
1537907333394891,-3,0,2,-7,1,1,0,-3
1537907333394891,-1,4,14,6,-3,-2,1,2
1537907333395889,0,7,-21,-10,-1,1,-1,1
1537907333395889,-2,3,10,5,-1,1,-2,-2
1537907333418827,2,3,12,-9,-7,-2,-1,0
1537907333418827,0,2,10,3,0,-2,-2,-2
1537907333419825,0,-2,-21,5,5,-1,-1,-2
1537907333419825,0,2,1,-2,-5,-3,-1,-1
1537907333432790,-2,-1,6,2,0,1,-2,-2
1537907333432790,-2,-2,-2,-5,1,0,-1,0
1537907333432790,-1,-3,2,-5,-2,-2,-2,-1
1537907333432790,1,1,14,5,-5,-3,4,0
1537907333456728,0,2,-9,-5,1,0,-5,0
1537907333456728,-1,-2,2,-3,-4,-3,-2,-1
1537907333456728,0,-2,7,-2,1,2,2,-2
1537907333456728,1,-1,-29,-2,0,2,3,0
1537907333477670,-1,-1,19,-1,-3,-1,3,2
1537907333477670,-1,1,-5,7,4,-3,2,-7
1537907333478667,-1,0,1,-4,-4,-2,-14,-2
1537907333478667,-1,1,9,-3,1,-1,0,-1
1537907333495622,-2,-3,12,0,-3,0,-1,-2
1537907333495622,2,-4,-38,1,2,3,5,2
1537907333495622,-1,-4,-2,2,1,-1,2,-1
1537907333495622,-2,-3,2,-1,1,3,-2,-1
1537907333514571,2,0,37,-4,-5,-4,1,2
1537907333514571,-4,-4,-22,-7,-8,-4,-7,-4
1537907333515569,-2,-18,-80,-9,3,4,1,-2
1537907333515569,3,11,78,21,3,-1,-2,1
1537907333538507,2,-3,-14,6,-2,-2,-1,0
1537907333538507,0,-1,25,1,-2,-1,-1,0
1537907333538507,0,1,31,-4,-4,-3,0,0
1537907333538507,-3,-11,-56,-17,-2,-1,-1,-1
1537907333552470,-3,4,22,-7,-1,-3,-1,-2
1537907333552470,-1,-2,-28,9,4,0,-3,0
1537907333553467,0,1,5,1,-2,0,2,0
1537907333553467,-3,2,-6,5,1,0,0,-3
1537907333574411,-1,4,9,-6,-3,-2,-1,-2
1537907333574411,-2,1,3,-6,-3,0,-1,2
1537907333575409,-1,1,14,14,7,3,2,0
1537907333575409,1,0,2,-1,-1,-2,-2,-2
1537907333597350,0,-1,-19,-4,-1,-1,-1,0
1537907333597350,1,0,5,-9,-5,1,0,-1
1537907333605329,0,5,4,9,2,0,0,1
1537907333605329,1,1,3,-3,-2,-3,-4,0
1537907333612310,1,-3,-21,-4,-2,2,-1,0
1537907333612310,1,0,5,1,4,0,-1,-1
1537907333613308,-2,-1,19,-1,-3,-3,1,-1
1537907333613308,-2,-5,-13,-1,1,-1,-4,-1
1537907333635250,-2,-7,-13,-2,-4,-3,1,0
1537907333635250,0,-3,12,4,2,-1,-2,-1
1537907333635250,-1,-3,2,-2,-3,-1,-2,-2
1537907333635250,0,-4,-10,-8,-6,-3,-1,-1
1537907333658189,-1,-2,-4,8,5,4,0,0
1537907333658189,-1,-2,6,-5,-8,-2,0,1
1537907333658189,-1,-1,0,-1,0,0,0,-2
1537907333658189,-1,-2,-4,-12,-3,2,0,1
1537907333672151,-1,1,-7,-9,5,-1,-2,-1
1537907333672151,-2,-1,13,26,2,-3,-1,-2
1537907333673149,0,-4,-20,-5,-5,-1,-1,1
1537907333673149,-1,-1,74,6,-1,0,0,-1
1537907333703069,0,-6,-52,-19,-9,-2,-1,-5
1537907333703069,4,11,-8,-6,19,7,5,6
1537907333705065,-2,18,32,-8,7,-2,-4,-3
1537907333705065,-12,-52,-101,9,-8,-7,-6,-6
1537907333720024,5,21,127,60,-13,-8,-3,-1
1537907333720024,-7,-23,-119,0,19,5,-2,-4
1537907333721021,10,26,72,-73,-45,-8,2,12
1537907333721021,-12,-47,116,70,4,-4,-4,-6
1537907333724013,7,-17,-116,-86,16,11,2,5
1537907333724013,-2,-26,74,29,-10,-9,-1,2
1537907333731991,-1,29,45,42,3,-2,-1,-1
1537907333731991,2,29,28,20,0,-2,-5,-5
1537907333746950,-11,-4,-13,-26,-16,-9,-8,-9
1537907333746950,6,44,-19,-19,-11,-1,1,0
1537907333753932,2,-2,-9,32,14,13,5,2
1537907333753932,13,40,-86,-17,13,7,5,9
1537907333770886,-5,10,33,23,1,-4,-1,-5
1537907333770886,5,8,-48,-22,-5,3,2,5
1537907333771884,-4,-4,4,24,-4,-4,-4,-3
1537907333771884,-2,5,-28,-27,-4,-2,0,-1
1537907333783851,0,8,32,7,5,0,1,1
1537907333783851,-2,-10,43,-10,-9,-4,-2,-2
1537907333791830,-4,-25,-24,-9,-3,-6,-3,-7
1537907333791830,5,0,-18,-6,10,5,5,4
1537907333806790,-1,-24,-24,-7,-2,-1,1,0
1537907333806790,-2,-16,41,12,-6,-4,-6,-4
1537907333813771,-1,-51,-38,10,16,3,0,-2
1537907333813771,1,-32,1,-25,-9,-2,-1,0
1537907333839703,0,-10,11,22,-1,0,1,0
1537907333839703,-3,-7,-1,-3,4,2,-1,-1
1537907333840700,-3,9,1,-10,0,-1,-2,-1
1537907333840700,0,18,10,-9,-3,0,0,-1
1537907333843692,-1,8,0,6,-2,-2,0,-2
1537907333843692,-1,19,21,4,5,1,-1,-3
1537907333851671,0,6,-23,-11,-1,-1,-1,-1
1537907333851671,0,14,5,-9,-18,-8,-4,-1
1537907333874609,0,10,-10,10,6,3,-1,0
1537907333874609,-4,-1,6,-5,-1,-1,-3,-2
1537907333875607,1,6,1,6,3,0,1,-1
1537907333875607,-2,10,-6,-9,-1,1,-1,-1
1537907333889569,-2,-6,3,6,2,-2,-2,-1
1537907333889569,1,4,9,-3,-3,-1,-1,-1
1537907333890567,-2,-8,-7,0,0,-3,-2,-1
1537907333890567,0,14,5,-1,0,1,0,-2
1537907333912508,-1,2,-6,-2,-2,0,0,1
1537907333912508,-1,3,5,-2,-3,-1,-1,-4
1537907333913505,-1,5,-4,14,12,3,0,1
1537907333913505,-3,-8,-15,-37,-5,-1,0,-1
1537907333926471,-1,-6,16,23,-12,-5,-2,-2
1537907333926471,0,13,2,-3,-5,-3,-1,-2
1537907333942431,0,6,-1,-25,12,5,-1,1
1537907333942431,-1,15,2,29,-12,-7,-1,0
1537907333949410,4,2,-1,-10,0,0,0,0
1537907333949410,0,-6,3,3,2,0,0,-1
1537907333950408,-3,-3,-6,-5,-6,-3,-2,-4
1537907333950408,-1,1,4,0,10,3,0,0
1537907333964372,-1,5,-5,-2,4,2,0,0
1537907333964372,1,-1,5,-4,-8,-3,-1,-1
1537907333980326,-1,-4,-3,6,4,3,0,-3
1537907333980326,0,0,-3,2,1,0,0,0
1537907333986311,-1,3,0,-4,-3,-1,1,-2
1537907333986311,-1,-3,-9,-28,5,0,-1,-1
1537907333994289,-1,0,16,18,-18,-5,-1,-1
1537907333994289,-1,-1,-56,-15,10,3,0,1
1537907334011244,0,5,42,4,-17,-6,-3,-5
1537907334011244,2,-2,-14,1,2,1,1,2
1537907334012241,2,6,30,-11,-2,1,1,1
1537907334012241,0,-8,0,4,8,2,1,-2
1537907334024209,-4,-27,-85,-17,-16,-7,-4,-3
1537907334024209,3,30,-2,-2,0,-1,2,0
1537907334032188,6,32,16,2,2,0,1,3
1537907334032188,-6,-79,25,22,5,2,0,-2
1537907334048146,2,32,-51,0,14,6,2,4
1537907334048146,-10,-32,8,8,-4,-2,-5,-4
1537907334054130,0,-6,-25,-14,-9,-5,-2,-1
1537907334054130,1,25,25,-4,-3,-1,-1,0
1537907334078066,-4,-23,48,-4,0,-2,-2,-4
1537907334078066,0,-8,-82,-2,0,0,1,1
1537907334079064,-2,25,44,3,3,0,0,-1
1537907334079064,3,3,20,-4,-5,-5,-3,-1
1537907334094024,-1,-14,0,1,5,0,1,1
1537907334094024,0,-12,51,3,0,0,0,-2
1537907334094024,-4,-36,-60,-2,-3,-2,-2,-3
1537907334094024,-1,24,4,-8,-7,-4,-3,1
1537907334114966,1,13,27,4,3,2,0,1
1537907334114966,0,-11,-30,2,3,1,-1,-3
1537907334115964,0,-2,28,3,-2,-3,0,0
1537907334115964,2,-2,-23,-6,-2,0,2,0
1537907334129927,2,12,-1,0,6,-1,-1,1
1537907334129927,-1,-3,0,2,1,1,-1,1
1537907334130924,-4,-11,31,1,-3,-2,-1,-2
1537907334130924,0,7,-11,-1,0,-1,0,-1
1537907334143889,-1,-7,-6,-6,0,1,-1,0
1537907334143889,-2,-8,27,10,-2,-2,-1,-2
1537907334151869,1,8,-33,-21,-2,-1,-2,-2
1537907334151869,-2,-3,14,5,3,1,0,1
1537907334166829,-1,-20,-25,10,-3,-4,-2,-3
1537907334166829,1,7,16,3,-4,-3,0,-2
1537907334173810,3,1,5,5,4,1,0,2
1537907334173810,0,-5,-10,-18,-2,0,0,0
1537907334188769,0,5,-16,-17,-4,-2,0,0
1537907334188769,-4,-1,14,-1,-14,-5,-4,-2
1537907334197745,-5,-13,-14,-3,0,1,-1,-2
1537907334197745,2,14,-1,-6,1,2,-2,1
1537907334203729,-2,5,5,16,1,-1,0,0
1537907334203729,-1,1,3,-1,4,-1,-1,-1
1537907334211707,0,8,-33,0,2,1,-2,-2
1537907334211707,-1,13,40,17,3,0,-2,-1
1537907334226668,-1,-3,-20,-18,2,1,1,2
1537907334226668,-1,1,22,11,-3,-2,-1,0
1537907334233649,-4,0,-7,1,0,-1,-2,-3
1537907334233649,0,-17,-7,-2,-4,0,0,0
1537907334249606,1,-2,5,1,2,1,0,-2
1537907334249606,-3,-3,47,1,3,0,-1,-1
1537907334257585,3,11,-17,6,2,4,1,1
1537907334257585,-2,-8,-17,-2,-6,-5,-1,0
1537907334264566,0,14,15,-6,-2,1,-1,0
1537907334264566,-2,3,2,-6,3,2,1,0
1537907334271548,-2,-16,-25,4,-1,-6,-3,-2
1537907334271548,0,-5,-29,3,-3,0,2,-2
1537907334286508,0,3,4,2,0,-3,-2,0
1537907334286508,0,1,-10,7,3,1,-2,-3
1537907334294487,-3,-30,-26,-16,-6,0,0,0
1537907334294487,-2,14,46,-5,-4,-4,-2,-3
1537907334309448,0,-7,9,17,5,0,-1,-1
1537907334309448,1,10,0,-5,-4,0,1,0
1537907334317426,-3,2,-3,5,-1,-1,-2,-2
1537907334317426,-3,-15,-3,-11,2,-1,1,-2
1537907334332388,-3,-7,-4,10,2,0,0,-1
1537907334332388,1,17,-22,-2,-4,-2,-2,1
1537907334333385,2,1,21,-1,-3,-1,-1,-1
1537907334333385,-1,5,1,-5,3,1,-1,1
1537907334346349,-3,-7,18,-1,2,0,-1,-1
1537907334346349,1,4,-23,-8,-6,-1,0,-1
1537907334363304,-1,-3,27,-1,1,-1,-1,0
1537907334363304,3,18,-19,0,-7,-4,-2,-2
1537907334369287,-3,-5,-9,-1,4,0,0,-2
1537907334369287,-1,-16,4,-2,7,1,0,0
1537907334377266,1,3,-37,0,-5,-2,-2,-1
1537907334377266,-3,-9,45,5,-2,-2,-3,-2
1537907334400204,1,10,-1,-9,-5,0,-2,-1
1537907334400204,0,-15,4,-10,0,0,0,0
1537907334401201,0,16,-5,10,1,0,1,-2
1537907334401201,2,14,3,12,3,2,1,-3
1537907334406188,-1,-13,-27,-12,0,0,1,-1
1537907334406188,-2,-5,-24,-1,-1,-2,0,0
1537907334415164,-3,4,34,2,3,-2,0,-2
1537907334415164,-1,-3,17,2,2,1,-1,1
1537907334429126,-3,-5,-4,-6,-3,-1,0,-1
1537907334429126,1,1,34,8,4,1,1,-2
1537907334437105,-2,-34,-49,-15,-6,-3,-1,1
1537907334437105,-2,17,-23,1,-14,-4,-1,-2
1537907334452065,1,8,60,0,-5,-1,-2,-2
1537907334452065,-2,7,-61,-6,0,1,-2,-2
1537907334453063,0,-8,10,-8,-1,1,-2,0
1537907334453063,0,-5,-41,-7,1,1,1,0
1537907334467025,2,14,32,2,1,-1,-1,1
1537907334467025,-4,-32,-21,-1,-3,1,-1,-2
1537907334475004,2,35,61,9,3,1,0,-1
1537907334475004,-2,-25,-30,-1,5,-2,-1,-3
1537907334488967,4,23,-2,10,4,2,1,-1
1537907334488967,2,34,-8,-6,-8,-5,-2,-1
1537907334496945,0,-74,23,-1,2,0,1,1
1537907334496945,-3,1,-5,2,2,2,-1,-1
1537907334511906,-5,-7,10,-1,-1,-1,-1,-1
1537907334511906,-2,-18,-34,-3,-2,-2,-1,-1
1537907334512903,2,26,37,5,2,2,3,2
1537907334512903,-2,3,32,2,2,-1,1,15
1537907334535842,1,-6,-30,-2,-1,-1,-4,-6
1537907334535842,-2,-12,55,6,-3,-3,-1,-1
1537907334535842,2,53,-72,-15,0,1,4,23
1537907334535842,-8,-34,-37,-1,2,2,-2,-28
1537907334548807,-11,-5,21,-2,-3,-5,-8,-25
1537907334548807,3,51,-37,-7,-2,-1,0,-2
1537907334573740,7,-28,50,15,3,0,2,17
1537907334573740,-3,17,20,7,2,0,-5,-24
1537907334574737,1,2,-37,-8,-3,-1,2,-4
1537907334574737,8,-10,16,1,-1,-2,-3,6
1537907334575734,-7,-2,-16,0,0,-2,-3,-5
1537907334575734,5,11,-11,-5,0,-1,1,12
1537907334602663,-2,-20,16,0,6,4,2,1
1537907334602663,-3,-9,4,8,-3,-5,0,0
1537907334610641,-2,21,22,-1,5,3,-2,-7
1537907334610641,1,-12,-77,3,-7,-6,-5,0
1537907334617622,-6,-42,78,1,-8,-4,-1,2
1537907334617622,3,-13,-52,-5,5,5,2,7
1537907334619617,-13,-40,-6,-3,-1,-1,-4,-11
1537907334619617,6,9,23,2,4,0,2,-1
1537907334640561,-2,19,-28,1,3,1,1,10
1537907334640561,0,15,28,-13,-8,-1,0,-1
1537907334641559,-6,-10,2,9,-1,-3,-3,-11
1537907334641559,-2,-6,8,-3,-1,2,0,4
1537907334654524,1,17,-23,5,1,-2,0,4
1537907334654524,-2,-7,25,-6,0,0,-3,-5
1537907334663500,-2,13,-41,-11,-8,-4,-1,-9
1537907334663500,3,7,16,-7,4,1,2,6
1537907334678460,4,6,-8,10,17,7,3,3
1537907334678460,-6,1,-2,29,-10,-5,-3,-6
1537907334680455,2,-7,-10,-33,-16,-4,0,-1
1537907334680455,1,-5,9,-1,-2,-1,-1,4
1537907334700402,1,-21,-12,-4,2,-1,-2,0
1537907334700402,-2,-12,-5,-2,16,5,2,0
1537907334702399,-4,-12,-15,14,-2,-3,0,-2
1537907334702399,4,9,-5,-11,-7,0,-1,3
1537907334723341,1,11,37,-3,0,-2,1,1
1537907334723341,-2,-3,35,9,1,-1,-3,-2
1537907334725337,-1,-5,-8,3,2,1,-2,-2
1537907334725337,-3,-6,-6,6,1,0,-1,-2
1537907334738302,0,-4,-13,-28,-22,-8,-3,2
1537907334738302,-1,2,-36,-12,0,1,0,-2
1537907334739299,1,3,17,-17,4,3,-1,-3
1537907334739299,-1,-8,23,36,5,3,1,2
1537907334760243,-1,11,-27,32,-8,-7,-4,-1
1537907334760243,1,3,12,-28,-5,0,0,1
1537907334762238,0,3,-30,-4,-6,-4,-4,-3
1537907334762238,-1,4,5,-7,4,-1,0,1
1537907334774205,-1,-6,1,-1,0,4,1,0
1537907334774205,-1,-1,11,18,6,1,-2,-2
1537907334783182,1,10,-11,-7,0,0,0,0
1537907334783182,-1,-6,23,-8,-9,-1,0,-1
1537907334798141,2,0,-7,-1,-1,-2,2,1
1537907334798141,-3,-15,-28,-8,0,-2,-2,2
1537907334799138,-4,5,10,7,1,-2,-3,-4
1537907334799138,1,33,38,9,-5,-4,1,3
1537907334820082,-4,-5,-16,-7,-1,1,0,-25
1537907334820082,4,1,4,4,-2,0,-2,7
1537907334822076,-1,3,0,2,1,1,-1,5
1537907334822076,-6,-20,-43,-18,-3,-2,-3,-9
1537907334834044,4,9,16,-1,4,3,2,3
1537907334834044,1,3,-1,5,-9,-4,2,-4
1537907334843020,-1,-4,6,9,7,-2,-1,-1
1537907334843020,-2,-3,-4,-1,-4,-1,1,-2
1537907334857980,0,-2,2,1,3,1,-1,5
1537907334857980,-7,-15,-1,-18,-5,13,4,-4
1537907334859975,3,5,0,-2,-6,-27,-7,-1
1537907334859975,1,1,9,16,4,1,2,2
1537907334880919,-1,-2,-16,-17,-4,-3,-4,2
1537907334880919,0,2,11,14,10,1,0,3
1537907334881918,-4,-4,-16,-7,-14,3,1,-6
1537907334881918,-3,-12,-15,-12,-2,-3,-10,-5
1537907334893884,0,2,49,7,0,-1,0,2
1537907334893884,-1,-12,-47,3,5,0,0,-4
1537907334902861,4,-7,4,-6,-2,6,4,1
1537907334902861,-2,-3,-2,5,3,-2,2,1
1537907334917820,0,8,-12,2,4,3,0,4
1537907334917820,-1,9,32,2,0,-3,-2,-1
1537907334923805,-3,10,3,10,5,4,1,-7
1537907334923805,-2,11,-6,-13,-4,-2,-3,-9
1537907334940760,0,-20,-13,-1,-3,-1,3,34
1537907334940760,-6,10,-11,-6,-2,-6,-7,-6
1537907334941759,8,-2,0,0,-3,3,2,20
1537907334941759,-10,-3,0,-8,-4,1,6,-17
1537907334953728,0,-3,-14,-6,1,-4,-15,-19
1537907334953728,0,-1,1,3,-2,6,10,-6
1537907334962702,-5,8,9,17,6,-7,-13,0
1537907334962702,-1,-8,2,-5,-2,12,4,4
1537907334977662,3,7,-23,-1,0,10,6,-4
1537907334977662,4,10,19,-6,-2,-10,-5,11
1537907334984643,-10,-29,-36,-9,-1,1,-3,-14
1537907334984643,10,13,23,15,0,-10,-3,5
1537907335000599,5,-4,-42,2,8,7,5,5
1537907335000599,-4,-8,6,0,-2,1,-1,1
1537907335001597,1,-5,3,-4,2,4,5,-2
1537907335001597,-1,9,-12,-12,-7,-6,-9,-7
1537907335014562,5,-5,15,2,-2,3,10,54
1537907335014562,-4,7,3,-6,-1,-2,-3,-23
1537907335023538,4,24,4,1,3,0,0,-3
1537907335023538,-4,-33,-20,-5,-1,-1,-1,11
1537907335037501,-4,20,22,7,-3,-8,-4,-22
1537907335037501,6,-8,-4,-1,0,-2,0,4
1537907335044482,2,7,7,4,3,16,4,9
1537907335044482,-2,4,-1,-6,-7,-14,10,-2
1537907335060439,-3,-2,-3,-6,-3,-9,-21,-15
1537907335060439,-3,-6,5,4,1,-1,-2,1
1537907335062434,-3,-7,-3,-5,-4,-5,0,-10
1537907335062434,5,2,11,0,2,5,-1,11
1537907335074402,-8,-12,-12,-5,-2,-1,3,-12
1537907335074402,-1,-2,3,-3,-5,-6,-1,0
1537907335083379,1,-21,-2,8,8,7,1,2
1537907335083379,-1,3,19,1,2,2,-1,2
1537907335097343,-2,17,-11,3,-2,-4,1,-5
1537907335097343,0,-2,5,2,3,5,-1,-23
1537907335104324,-1,-18,-23,-9,-12,-12,0,30
1537907335104324,2,9,-4,-2,6,12,1,4
1537907335120282,-5,-6,6,-1,-2,-6,1,-13
1537907335120282,-4,2,-17,-2,2,-1,-5,4
1537907335122277,1,8,40,9,1,2,5,-12
1537907335122277,5,0,-28,-5,-3,-5,-6,-16
1537907335143219,-8,-22,-27,-8,-1,6,-3,0
1537907335143219,5,18,-8,-9,-5,-6,-3,-6
1537907335144217,-5,-7,9,-5,-2,-4,-4,-10
1537907335144217,-4,0,-27,-1,-3,-2,-6,-2
1537907335157182,8,8,-1,8,4,3,9,8
1537907335157182,-5,-15,48,10,0,-1,1,4
1537907335164164,-4,0,-30,-4,1,-1,0,-6
1537907335164164,2,-1,10,-1,2,1,3,7
1537907335180120,-4,-14,-18,-10,-5,-5,-4,-7
1537907335180120,1,38,64,-1,-6,-3,-2,7
1537907335182116,-2,-16,-32,18,1,1,-2,-4
1537907335182116,3,8,30,7,12,5,4,7
1537907335203060,-2,-18,-13,4,-7,-4,-1,-3
1537907335203060,1,-3,1,-9,-1,2,0,3
1537907335204056,1,12,30,3,4,0,3,0
1537907335204056,-4,-8,-15,-17,-13,-6,-4,-4
1537907335217020,0,3,20,4,2,-3,-2,-5
1537907335217020,3,1,-3,6,3,4,4,6
1537907335224002,-1,14,-3,-7,-3,-3,-3,-4
1537907335224002,-6,-24,-13,3,0,-1,-2,0
1537907335240957,3,13,21,-15,7,8,3,2
1537907335240957,-3,-17,-30,21,-10,-8,-3,3
1537907335241954,-2,7,-1,-15,-5,-1,-3,-4
1537907335241954,-2,3,3,63,22,9,3,0
1537907335262898,4,3,8,-67,-32,-12,-2,0
1537907335262898,0,14,-17,-37,-1,3,0,-1
1537907335264893,1,-7,2,27,1,-1,0,1
1537907335264893,1,-1,7,-30,-8,-5,-3,-1
1537907335276861,-4,-25,-1,50,26,9,2,-1
1537907335276861,0,-27,-18,-17,-14,2,3,1
1537907335285837,4,16,7,-17,-3,-1,2,2
1537907335285837,1,-4,8,9,3,1,0,0
1537907335300797,-7,-4,-7,8,11,4,-1,-2
1537907335300797,0,16,-6,1,2,-3,-2,-1
1537907335301794,0,1,7,11,3,1,-4,-4
1537907335301794,-2,-3,-7,-13,-4,-1,0,-8
1537907335322738,-2,-26,0,-7,-18,-10,-2,28
1537907335322738,-5,-2,-1,12,3,0,-6,-23
1537907335324733,-3,-19,-15,-4,2,5,7,23
1537907335324733,1,33,8,-7,-4,-5,-5,0
1537907335345677,-2,-25,-5,-6,-8,-5,-3,-12
1537907335345677,-5,14,-1,15,9,1,2,-2
1537907335346675,0,24,1,-10,-5,-3,-3,-7
1537907335346675,0,-15,-7,-7,-2,-1,0,-3
1537907335360636,-5,7,-10,7,1,2,1,-3
1537907335360636,7,17,12,2,3,0,3,7
1537907335361634,-3,-11,34,-7,-4,-3,-3,-11
1537907335361634,-1,9,-81,-22,-8,-6,-2,5
1537907335383575,3,0,32,15,6,5,1,-6
1537907335383575,-4,-19,-19,-1,4,-1,-1,7
1537907335385570,3,16,18,-2,4,1,-1,-4
1537907335385570,0,-8,7,13,-7,-2,-2,-3
1537907335397538,-2,-2,-41,-14,-8,-6,-4,-3
1537907335397538,-2,-18,40,-3,-2,-1,0,1
1537907335404519,-4,1,15,18,7,-1,-1,-1
1537907335404519,2,-2,-14,5,4,3,2,2
1537907335420476,1,21,-5,11,4,2,-1,-6
1537907335420476,1,9,0,-9,-7,-5,-1,5
1537907335421474,1,-10,-29,-12,-7,-2,1,-3
1537907335421474,-2,6,15,-16,-4,-2,-1,-1
1537907335443415,2,20,30,9,3,-2,-2,-3
1537907335443415,-1,8,-12,2,-8,-4,-3,-2
1537907335444413,0,6,-22,-3,1,0,-1,1
1537907335444413,-2,-14,12,7,6,1,0,0
1537907335457378,-1,3,9,6,-4,-3,-1,-1
1537907335457378,-2,-22,-13,13,8,-2,-2,-2
1537907335464360,3,47,3,-10,-1,1,0,-2
1537907335464360,-4,-16,20,-15,-4,-2,-1,0
1537907335480318,3,-14,3,20,7,3,2,2
1537907335480318,-3,-12,-17,-19,-4,1,0,0
1537907335482314,0,7,1,-7,-1,-1,-2,-4
1537907335482314,-2,1,3,1,-2,-1,0,0
1537907335503257,-3,-6,-4,-7,4,-1,-1,-4
1537907335503257,1,11,-9,10,-2,-1,2,0
1537907335504255,-2,-25,-3,-8,-1,1,2,2
1537907335504255,0,13,31,2,-7,-4,-4,-1
1537907335516222,1,9,-4,13,0,0,0,-1
1537907335516222,1,-12,-3,-3,4,4,0,1
1537907335525198,-13,-35,2,-5,0,0,-3,-6
1537907335525198,4,27,-28,-9,-2,0,2,-2
1537907335540158,0,20,11,-12,-2,0,-1,1
1537907335540158,0,-33,2,13,1,-1,-4,0
1537907335542154,5,24,-12,-1,-3,-2,-3,1
1537907335542154,-7,-64,4,14,1,-1,-2,-2
1537907335563097,1,14,-9,-10,6,3,2,0
1537907335563097,-2,5,0,-10,-6,-2,-1,-1
1537907335564095,0,21,15,3,-9,-3,-1,0
1537907335564095,0,3,15,2,2,1,0,0
1537907335577058,0,18,-32,1,4,1,2,0
1537907335577058,-2,-14,12,5,3,-2,-1,0
1537907335586035,3,3,-15,-5,4,-1,-1,0
1537907335586035,-1,13,2,-1,0,2,1,0
1537907335599997,3,14,8,-4,-7,-2,-1,-1
1537907335599997,-2,28,-14,-1,-1,-1,0,0
1537907335615955,4,-1,26,-4,-3,-2,-1,1
1537907335615955,-3,-23,-33,4,2,0,-1,-2
1537907335622936,-1,-7,8,-11,-3,-3,-1,-4
1537907335622936,0,18,2,-4,0,0,0,1
1537907335624930,-5,-19,21,16,2,-4,-3,-3
1537907335624930,2,11,-42,-14,-5,-2,0,-1
1537907335636898,-2,0,17,2,-8,-3,-3,0
1537907335636898,-1,-22,-17,4,8,3,0,1
1537907335645874,1,-10,8,3,-3,-2,-1,0
1537907335645874,0,-1,14,-11,0,1,1,0
1537907335660834,-9,-18,12,-23,-10,-6,-3,-4
1537907335660834,7,16,8,-1,-1,2,3,0
1537907335661831,-3,-7,-16,8,-1,-3,1,-1
1537907335661831,0,-9,15,10,4,-1,-2,0
1537907335682775,6,33,-13,2,9,3,3,1
1537907335682775,-1,-20,20,16,1,1,1,-1
1537907335684770,-2,9,-13,-21,-11,-4,-3,-3
1537907335684770,1,-12,7,-1,-4,-2,-2,1
1537907335696738,-2,-17,0,-5,0,-2,-4,-3
1537907335696738,0,-4,-9,8,5,1,1,-1
1537907335705714,-5,-30,-16,-2,2,2,-1,-3
1537907335705714,0,18,27,1,3,-3,-1,0
1537907335720674,-1,-3,-35,-1,0,0,0,-2
1537907335720674,3,20,6,-13,-9,-2,0,0
1537907335721671,-3,5,26,12,-1,-1,0,1
1537907335721671,3,-4,-52,-19,1,1,-1,-1
1537907335742616,-3,-22,-10,20,-5,-3,0,-2
1537907335742616,-3,8,2,-7,-4,-3,-2,-1
1537907335744611,0,9,-19,-2,4,0,-1,2
1537907335744611,-5,1,6,4,-3,0,0,-3
1537907335756578,1,15,63,2,1,1,-2,1
1537907335756578,-6,-28,-8,-3,-6,-1,-1,-2
1537907335765555,3,-5,6,-1,-2,1,0,0
1537907335765555,-1,8,12,3,-1,-1,0,0
1537907335780514,-3,-16,-29,-6,-3,-2,-2,-3
1537907335780514,-3,-11,6,3,3,-1,0,-1
1537907335781512,1,19,12,0,3,-1,0,-2
1537907335781512,-2,-47,-41,-4,-2,0,2,1
1537907335802455,-3,-11,29,-7,-13,-3,-2,1
1537907335802455,2,30,-25,-8,-3,-4,-3,0
1537907335804450,-1,-6,-14,-1,1,1,0,0
1537907335804450,-4,-1,53,9,15,5,0,-2
1537907335825394,-1,-4,-44,-1,-23,-7,-3,-2
1537907335825394,-2,-18,-58,-19,3,-1,-2,-1
1537907335827389,-5,15,43,25,5,-1,0,1
1537907335827389,5,17,27,-18,-5,-2,1,2
1537907335839357,0,-7,32,9,10,3,1,-1
1537907335839357,-3,-3,-32,6,-8,-4,-3,-1
1537907335846338,-2,-9,-13,-15,-3,-3,-2,-1
1537907335846338,-3,7,7,19,8,2,-1,-2
