timestamp,emg1,emg2,emg3,emg4,emg5,emg6,emg7,emg8
1537907844346103,-4,-4,2,-9,-4,-2,-2,-2
1537907844346103,0,-13,-29,3,3,1,0,1
1537907844351089,-2,-6,16,-2,-3,1,-1,1
1537907844351089,-1,-7,-37,-4,0,0,1,2
1537907844351089,1,9,22,5,0,-1,0,1
1537907844351089,0,-8,11,1,-1,-3,-2,-1
1537907844354081,0,-4,-3,-1,2,-1,-1,-2
1537907844354081,0,7,12,1,1,-1,-1,-3
1537907844357073,1,-1,-19,9,3,3,0,-1
1537907844357073,-4,-8,2,-24,-7,-1,-1,-3
1537907844368044,-2,-19,17,6,1,-1,-2,-3
1537907844368044,1,18,36,-3,-1,1,-2,0
1537907844381009,0,2,-20,5,-3,-2,-1,0
1537907844381009,2,7,-4,8,1,3,-1,1
1537907844387991,-1,0,-37,-11,-1,0,1,1
1537907844387991,-3,-4,-21,-13,-3,-3,-11,-51
1537907844395969,2,-9,30,10,1,-1,3,43
1537907844395969,-2,5,10,-2,-3,-2,-1,1
1537907844417911,1,13,0,9,1,0,0,0
1537907844417911,-3,-5,10,4,1,-1,-2,-4
1537907844424892,0,4,20,-11,-1,-1,-1,-15
1537907844424892,0,-10,-27,4,1,-2,-1,-4
1537907844463788,1,13,42,0,2,0,2,0
1537907844463788,2,-2,-11,-2,-2,0,0,3
1537907844464785,-1,0,-4,3,1,-1,1,4
1537907844464785,-4,-6,-22,-9,-4,-3,-5,-10
1537907844465783,1,8,47,10,1,3,0,1
1537907844465783,-2,-1,-41,-4,0,-1,-2,-2
1537907844468775,0,-6,3,2,6,3,1,1
1537907844468775,0,4,-13,-7,-10,-6,-1,3
1537907844476753,-6,-11,3,-5,-2,0,-1,-1
1537907844476753,-2,2,1,-4,-1,-2,-3,-2
1537907844485729,0,6,-47,-4,2,2,0,1
1537907844485729,1,8,34,25,8,3,2,0
1537907844491713,-4,-26,-48,-14,-8,-4,-4,-2
1537907844491713,2,24,21,-30,-7,-1,-1,2
1537907844507671,-1,3,8,6,-2,-4,-1,-2
1537907844507671,0,-14,0,-5,0,0,0,0
1537907844513654,4,8,-4,17,4,0,1,2
1537907844513654,-2,-1,17,-1,1,-3,0,-2
1537907844537591,-1,-5,8,-4,-1,1,-2,-2
1537907844537591,1,7,2,-3,1,0,0,0
1537907844537591,-2,1,-13,-3,-1,-1,-2,-1
1537907844537591,-2,-15,17,6,0,-1,-1,-1
1537907844553548,-2,-2,-66,-9,-5,-3,-2,-4
1537907844553548,0,4,60,4,2,1,0,3
1537907844554545,4,5,-27,-3,1,0,2,2
1537907844554545,-2,-4,4,0,-1,-1,1,0
1537907844574492,-1,-5,17,-6,-3,-1,-2,0
1537907844574492,-1,-4,-22,3,0,0,0,-1
1537907844575489,-2,3,1,-4,-7,-6,-3,-3
1537907844575489,-1,-16,11,7,-1,2,-1,-4
1537907844597430,1,1,21,6,0,0,0,13
1537907844597430,-2,1,-49,-10,-1,1,-2,0
1537907844597430,-4,-4,-1,1,1,0,-1,-5
1537907844597430,1,-1,12,10,0,0,1,5
1537907844612391,1,3,24,2,1,-1,-2,-10
1537907844612391,-1,-5,-1,-15,-4,-2,-1,-1
1537907844612391,-2,-4,-19,7,0,-1,-1,2
1537907844612391,0,-1,-25,1,2,-1,0,-7
1537907844634332,0,-5,16,2,0,-1,1,-2
1537907844634332,2,6,33,7,4,0,0,1
1537907844635330,1,11,-20,0,-1,0,-4,-4
1537907844635330,0,-5,-6,-5,-2,-1,-2,0
1537907844657271,-2,13,9,1,-3,-2,0,-2
1537907844657271,1,-3,1,3,-1,0,-1,1
1537907844658268,-6,-13,-17,-11,0,-1,-2,-3
1537907844658268,0,6,10,7,3,2,0,1
1537907844672230,1,6,7,-6,-3,-2,0,0
1537907844672230,-3,-8,-17,-2,-2,-2,-2,-5
1537907844673228,-1,9,26,7,2,1,-4,-30
1537907844673228,4,-3,-26,-4,0,0,12,74
1537907844694172,-2,-14,-17,-7,-3,-1,1,7
1537907844694172,1,9,67,4,0,-1,-3,-8
1537907844695170,3,0,-11,-6,-2,-1,2,4
1537907844695170,-6,-1,23,2,-1,0,-7,-23
1537907844717110,-1,3,0,3,-3,-1,-3,-9
1537907844717110,-2,-12,-104,-7,-2,-3,1,13
1537907844718108,4,2,30,-3,2,1,1,6
1537907844718108,-1,9,16,0,-1,-2,-3,-16
1537907844732071,1,-2,21,19,5,0,0,6
1537907844732071,-2,8,-2,-13,-4,-3,-4,-11
1537907844733068,-3,-20,-11,-10,1,-2,0,4
1537907844733068,2,3,-3,12,-3,-1,-2,-7
1537907844755009,-5,7,4,-22,-9,-2,-4,-7
1537907844755009,0,-16,-23,6,5,2,2,3
1537907844755009,1,9,18,1,-1,0,-1,5
1537907844755009,-2,-7,5,5,3,0,-3,-1
1537907844776951,0,-4,-35,2,0,-1,-2,-2
1537907844776951,-1,8,26,2,-3,-1,-1,-2
1537907844777949,-3,-5,20,-7,-2,-1,2,7
1537907844777949,-5,-3,-44,-2,-2,-2,-2,-14
1537907844791912,-2,-7,17,1,2,-2,-1,-4
1537907844791912,2,10,-8,-7,-7,-3,-1,0
1537907844792909,2,0,-9,0,-2,-2,0,1
1537907844792909,-4,-3,1,-9,-3,-1,-2,-5
1537907844814850,-4,-7,3,-3,-2,0,-1,-2
1537907844814850,-2,-7,16,16,6,2,0,4
1537907844814850,-1,2,20,-10,0,1,1,1
1537907844814850,1,1,-11,-8,-5,-3,-2,-5
1537907844836791,2,0,5,-1,1,2,0,0
1537907844836791,-4,-8,5,2,0,1,-1,-3
1537907844837788,-1,1,-37,4,0,0,0,0
1537907844837788,0,1,20,3,-1,-2,-1,-3
1537907844851751,-1,3,-22,-1,3,-1,0,0
1537907844851751,-4,2,12,-3,-2,-1,0,-21
1537907844859730,-1,-6,-21,8,-1,-2,-4,1
1537907844859730,-1,-7,24,7,3,1,-1,-1
1537907844874690,-3,-7,-22,-8,-4,-1,-3,-1
1537907844874690,2,20,-11,1,-2,-2,-3,-4
1537907844875687,-3,-17,-7,-15,-4,-1,0,-3
1537907844875687,3,9,22,2,-2,-2,1,-3
1537907844897628,-1,3,-9,6,1,0,1,-5
1537907844897628,2,3,5,-4,0,1,0,5
1537907844897628,-3,-4,2,-2,-1,-1,-2,0
1537907844897628,0,4,-2,6,-3,0,-1,0
1537907844911591,1,-5,-28,-12,-3,-1,0,3
1537907844911591,-1,-4,-14,-5,-2,-2,0,5
1537907844919570,1,15,33,-2,-3,-1,-1,0
1537907844919570,-4,-22,-46,-6,1,1,0,-6
1537907844934529,-2,4,27,6,0,-2,-2,-1
1537907844934529,0,-4,16,1,-2,-2,-2,2
1537907844935527,-1,-11,-25,1,-2,1,-2,-2
1537907844935527,-2,19,-1,-11,6,3,-1,0
1537907844957468,0,-2,-4,25,-6,-3,0,-1
1537907844957468,-2,-7,6,-18,0,0,0,5
1537907844957468,1,1,2,7,-1,-3,1,-1
1537907844957468,1,1,-2,-6,0,0,-1,-1
1537907844971431,-3,7,30,-2,2,0,0,0
1537907844971431,-2,-11,-37,-8,-4,-2,-4,-3
1537907844979410,0,8,-9,3,1,-1,0,0
1537907844979410,0,0,-3,-4,0,-1,2,1
1537907844994370,1,0,16,0,1,-1,-2,-2
1537907844994370,-2,1,8,2,-1,-2,-1,1
1537907844995367,-2,-3,-5,-4,-1,1,0,3
1537907844995367,-5,-1,-1,6,-1,-2,-5,-30
1537907845017308,1,-1,-9,-7,-3,1,0,11
1537907845017308,0,0,27,3,1,1,-2,-2
1537907845018305,-1,-2,-9,1,-3,-2,0,1
1537907845018305,0,0,-15,5,0,-1,0,-2
1537907845031271,0,-2,3,-12,-2,1,-1,-5
1537907845031271,0,3,-5,10,3,1,0,1
1537907845039250,-1,-10,30,-11,-8,-4,-2,-5
1537907845039250,-4,6,-17,-17,-10,-2,0,6
1537907845054210,2,-3,8,-2,1,-2,0,-1
1537907845054210,-2,1,-18,14,4,-1,-1,5
1537907845055207,-2,-2,-19,6,3,-1,-2,-1
1537907845055207,0,11,44,8,2,-1,-1,7
1537907845077148,-4,-23,-12,-20,-3,0,1,1
1537907845077148,0,2,-12,1,0,0,0,-4
1537907845078146,-3,-2,2,3,1,0,-1,-5
1537907845078146,0,-4,-10,-4,-4,-2,0,3
1537907845100087,-2,6,38,8,3,0,0,-5
1537907845100087,1,-6,-28,-4,-2,-2,0,-1
1537907845101085,0,-1,0,5,1,-1,-3,2
1537907845101085,-2,-5,7,6,-1,-1,0,5
1537907845115047,-3,-7,-11,3,0,1,0,-3
1537907845115047,-2,-1,7,-15,-6,-2,0,-2
1537907845115047,-2,10,-3,-1,-1,-1,-1,2
1537907845115047,1,-14,-7,3,2,0,-1,4
1537907845136988,-3,3,8,5,1,-1,-2,-8
1537907845136988,0,-4,-17,2,1,0,-2,1
1537907845137986,-3,0,2,3,1,0,0,-25
1537907845137986,5,2,12,-7,1,1,0,40
1537907845150951,2,-2,-45,-4,-9,-3,0,4
1537907845150951,-2,-3,39,10,-2,-2,0,-1
1537907845159927,1,4,14,-17,-3,-2,-1,-3
1537907845159927,-2,-3,-31,-8,-3,-1,-1,-13
1537907845174887,2,12,14,-8,1,0,0,1
1537907845174887,-2,-2,-19,-4,1,1,0,3
1537907845174887,0,-1,17,20,1,0,-1,4
1537907845174887,-3,-7,13,1,2,1,0,-9
1537907845196829,1,5,-20,-14,-8,-2,-1,2
1537907845196829,-1,-6,5,-1,-1,-2,-4,-6
1537907845197826,0,-4,-24,-4,2,-2,-1,4
1537907845197826,0,5,1,6,2,1,0,-2
1537907845211789,0,2,16,14,4,0,-1,-1
1537907845211789,-1,0,3,0,1,1,1,0
1537907845219767,0,1,-8,-9,-5,-2,1,2
1537907845219767,-3,-7,-22,0,-2,1,0,-4
1537907845234727,-1,-5,17,1,0,0,-1,-3
1537907845234727,2,9,26,1,-1,-1,0,0
1537907845235725,1,-3,-19,0,2,-2,0,3
1537907845235725,-1,1,2,2,1,-1,0,-5
1537907845256668,-2,-5,-25,2,-2,-1,-2,-2
1537907845256668,0,-3,-4,-9,-4,-1,0,0
1537907845257666,-3,-14,50,9,-1,1,-2,0
1537907845257666,0,-6,-56,-15,-2,-2,-2,-4
1537907845271628,-1,6,34,6,-1,-2,0,-1
1537907845271628,0,-5,-11,0,1,0,1,2
1537907845279607,2,17,-16,-11,0,2,0,11
1537907845279607,-2,0,33,11,-5,-4,-3,2
1537907845294567,-4,-3,-12,0,1,0,-3,-3
1537907845294567,0,-1,13,3,-1,-1,-1,2
1537907845295565,0,7,-11,3,3,0,0,-7
1537907845295565,1,-2,-4,-7,-1,1,0,-3
1537907845317506,-1,5,3,-3,0,-2,-2,-2
1537907845317506,-1,-14,-13,3,1,-1,-1,-6
1537907845317506,-2,14,22,-3,-4,-1,-1,-2
1537907845317506,-4,-12,-19,2,1,1,0,-1
1537907845340444,-1,-14,-23,12,0,2,0,1
1537907845340444,1,18,-9,-25,1,0,-1,1
1537907845341442,-2,-10,-3,0,-8,-3,-3,-2
1537907845341442,0,10,43,-8,-5,-3,-2,0
1537907845354407,-1,-7,-40,-11,0,1,-1,-1
1537907845354407,-2,-7,-8,2,1,-1,-1,1
1537907845355405,-1,-3,5,2,1,0,0,1
1537907845355405,1,7,5,6,0,-1,-1,-5
1537907845377346,0,1,11,2,2,0,-2,0
1537907845377346,-3,-7,8,4,-4,0,-1,-1
1537907845377346,1,2,-24,-2,1,-1,-1,-1
1537907845377346,-1,-3,32,0,-1,-3,-1,-3
1537907845400287,1,6,-8,-5,-1,-2,-2,-1
1537907845400287,-1,-7,4,1,-2,-2,0,-1
1537907845401285,-1,-3,1,3,-1,-1,-3,-2
1537907845401285,1,-1,-15,-7,2,-1,1,1
1537907845414248,0,15,27,7,2,-2,-1,2
1537907845414248,-2,-1,-12,-2,-2,-2,-3,-3
1537907845415246,-2,-11,-11,7,1,0,1,1
1537907845415246,2,4,-10,-7,0,2,1,0
1537907845437187,-2,-2,-7,-14,2,0,-1,-1
1537907845437187,0,6,11,10,-4,-1,0,-1
1537907845438184,0,-3,29,3,-2,-2,1,-1
1537907845438184,-3,-10,-36,2,-1,-1,-3,2
1537907845460125,3,4,20,-2,-2,0,-1,1
1537907845460125,0,-4,-4,11,5,1,-1,1
1537907845461123,0,4,3,-20,-5,-1,-1,-1
1537907845461123,1,9,12,3,0,-3,-1,-2
1537907845482066,-2,-13,-13,-2,1,-1,0,-6
1537907845482066,1,1,-1,2,0,-2,1,28
1537907845483064,-3,-7,-10,0,-1,-1,0,3
1537907845483064,-1,1,7,1,0,-1,-1,-4
1537907845496028,1,-4,38,8,0,0,1,5
1537907845496028,0,1,-35,-6,-2,-3,0,-12
1537907845505005,-2,0,16,4,3,0,-2,-2
1537907845505005,-1,-7,-17,-2,0,-1,-3,3
1537907845519965,-4,3,3,-2,-6,0,-1,-6
1537907845519965,1,1,3,-7,-4,-1,-1,-5
1537907845521960,0,3,0,4,0,0,-1,-1
1537907845521960,0,3,5,12,4,0,1,-5
1537907845542904,1,-3,-12,5,2,-1,-1,2
1537907845542904,-3,-3,7,-16,-8,-2,0,-6
1537907845543901,0,-2,-15,-4,-2,2,1,4
1537907845543901,-3,-3,13,-3,-3,-1,-1,-2
1537907845556866,1,2,-10,-5,1,-1,2,1
1537907845556866,-1,8,-16,4,-4,0,0,-2
1537907845565843,-4,-24,-26,5,0,-2,0,-6
1537907845565843,2,12,4,-10,-5,-2,1,3
1537907845579807,1,16,7,-1,-2,-1,-1,0
1537907845579807,-3,-19,-1,-9,0,-1,-3,-5
1537907845586788,3,13,3,4,2,0,0,-1
1537907845586788,-2,-10,-21,-2,-1,0,-1,-2
1537907845602746,0,1,-12,-4,-3,-2,1,-1
1537907845602746,-2,1,45,5,-1,-2,-2,-3
1537907845604740,3,7,-8,4,2,0,-1,-1
1537907845604740,-2,-5,11,0,0,-1,0,-2
1537907845616708,-1,-2,0,-4,-1,-1,0,0
1537907845616708,-1,-2,-1,1,4,0,0,-3
1537907845625684,-1,0,12,8,-3,-2,0,-2
1537907845625684,-1,2,-26,-31,-10,-4,-2,-4
1537907845640643,-3,-14,4,2,3,2,0,-10
1537907845640643,4,21,-1,1,0,0,1,32
1537907845641641,-3,-13,-8,-9,0,-1,-1,3
1537907845641641,-1,-4,7,11,1,1,0,-3
1537907845662584,1,0,-11,2,0,-1,-2,4
1537907845662584,-2,-14,6,2,0,0,0,-12
1537907845664578,1,14,13,-9,-5,-1,-1,-3
1537907845664578,-1,-7,-44,3,1,0,0,5
1537907845676546,-1,2,27,0,-3,-2,-1,-3
1537907845676546,0,3,-7,9,7,1,0,-8
1537907845685523,-2,-1,10,-9,-6,-3,0,0
1537907845685523,0,-3,9,0,0,-2,-2,-6
1537907845700482,-1,4,-11,0,0,-2,-1,1
1537907845700482,-2,-8,-20,-3,1,0,0,-3
1537907845701480,-3,-5,-8,4,-2,-3,-3,-5
1537907845701480,-1,0,11,-9,-1,0,-1,-1
1537907845722424,1,4,-6,-4,-6,-2,-2,0
1537907845722424,-1,0,22,7,-3,-3,-1,-1
1537907845724419,0,0,-24,-4,3,-1,0,-2
1537907845724419,-2,-3,6,3,-1,1,0,-1
1537907845736387,-1,-12,-4,3,0,-3,-1,0
1537907845736387,0,6,27,-5,0,0,0,-5
1537907845745363,3,9,-22,2,1,3,-1,0
1537907845745363,0,2,22,6,-2,-1,-1,1
1537907845768301,-3,-9,-10,-14,-1,0,-1,2
1537907845768301,-2,7,-3,3,-4,-1,-1,-2
1537907845769300,-1,-8,-14,-4,1,0,1,-2
1537907845769300,0,5,-7,3,2,-1,-1,1
1537907845783261,1,2,10,-3,-1,1,0,-1
1537907845783261,1,3,12,14,-1,-1,2,3
1537907845784259,-6,-5,15,0,0,1,-5,-7
1537907845784259,-3,-10,-27,-35,-11,-5,-1,-2
1537907845805204,-1,-3,-13,-1,-1,-1,-1,1
1537907845805204,-3,-3,-3,-12,-1,0,-1,-3
1537907845807198,-3,2,16,2,-2,-1,-2,-24
1537907845807198,1,2,1,17,4,0,0,12
1537907845820163,-4,-2,13,-3,-2,-1,-1,-3
1537907845820163,1,-5,-8,6,0,0,1,2
1537907845822159,0,16,13,3,1,-1,-1,-2
1537907845822159,-2,-7,-6,3,0,0,-3,-7
1537907845850082,3,-1,12,0,-1,-1,0,2
1537907845850082,-3,-2,-32,-7,-3,-1,-2,-10
1537907845852077,2,-4,5,-6,1,0,1,10
1537907845852077,0,12,30,17,1,-1,0,-1
1537907845865042,-2,3,5,7,1,-1,-1,4
1537907845865042,-2,-4,-13,-15,-3,-2,-1,-2
1537907845867037,1,-11,-11,-2,-1,-1,1,7
1537907845867037,1,10,-2,3,3,1,-1,2
1537907845880002,-2,-4,-6,4,0,0,-2,-6
1537907845880002,-1,1,45,1,3,-1,0,-2
1537907845885986,-1,-12,-52,-2,-3,0,0,5
1537907845885986,0,-2,-2,-1,1,-1,-1,-5
1537907845902941,-3,8,13,8,1,1,0,-1
1537907845902941,-2,-13,-12,-8,-3,-2,-3,-1
1537907845903938,3,17,25,5,1,1,-1,6
1537907845903938,-1,-9,-14,-4,0,-1,-1,-2
1537907845924883,-1,-5,-32,-5,-1,-1,-2,-1
1537907845924883,-1,14,12,6,-1,-3,-2,2
1537907845926878,-4,-25,7,-3,-1,0,-1,-2
1537907845926878,-5,-9,5,-5,-2,0,0,-2
1537907845939843,3,-1,16,3,1,0,0,1
1537907845939843,2,8,-37,-17,-5,2,-1,1
1537907845941838,-1,1,-4,8,-2,-3,-2,-1
1537907845941838,-2,-1,11,9,1,1,0,-2
1537907845962781,-1,-8,-28,-19,-8,-2,0,0
1537907845962781,-1,-1,4,0,1,-1,-1,-3
1537907845963779,4,-1,6,-4,2,0,0,4
1537907845963779,-3,7,1,11,-3,-3,-2,-3
1537907845985721,-2,0,-2,5,3,0,-3,-3
1537907845985721,4,2,8,4,-3,0,-1,0
1537907845986720,-2,-12,6,-6,-2,-1,-1,1
1537907845986720,-2,7,-12,7,3,0,0,-1
1537907845999683,0,-1,-25,-10,1,-2,-1,-1
1537907845999683,-1,4,26,-2,1,-1,-1,1
1537907846006665,0,4,14,1,-1,0,-2,0
1537907846006665,1,4,-7,-9,-2,0,-1,-2
1537907846022622,-4,-7,8,4,-1,-3,-2,-1
1537907846022622,-2,-5,-24,5,1,-1,0,0
1537907846024617,-1,4,3,7,0,-1,0,0
1537907846024617,1,-3,9,-3,1,0,0,1
1537907846045560,0,6,-3,1,-2,-1,0,-1
1537907846045560,0,8,6,6,3,1,1,-2
1537907846046557,0,8,-2,-8,-5,0,-1,0
1537907846046557,-1,-5,32,-1,-1,-1,-2,-2
1537907846059522,0,-1,-11,5,1,1,2,4
1537907846059522,-2,-9,-11,-1,0,-1,-3,-4
1537907846066503,-2,0,-7,2,-3,-2,-1,-3
1537907846066503,2,2,16,-1,-4,0,-1,-1
1537907846082461,0,-4,-27,-6,-2,-1,-2,-4
1537907846082461,2,4,30,2,-2,-1,0,1
1537907846084456,-1,-1,-10,-8,3,-3,-1,0
1537907846084456,0,-6,-6,-1,-7,-2,-1,-1
1537907846105400,-2,14,22,-2,0,-1,-2,-2
1537907846105400,-2,-15,-39,-5,2,0,2,2
1537907846106397,0,-6,-2,-1,-2,1,-1,0
1537907846106397,-5,-1,6,2,-1,-2,-2,-1
1537907846119363,-3,-1,19,10,0,-2,-2,-3
1537907846119363,-5,-2,-1,-9,-5,-2,-3,-4
1537907846126344,0,2,-20,-5,1,-1,2,-1
1537907846126344,1,0,20,0,3,0,-1,1
1537907846142302,1,1,-5,-3,0,1,-1,-1
1537907846142302,0,-6,-6,3,-1,-2,-3,-1
1537907846144297,0,-6,-5,3,-1,-1,0,0
1537907846144297,1,10,13,-6,-3,0,0,-1
1537907846165241,-2,-4,10,1,-1,-1,0,-2
1537907846165241,1,0,-17,-3,0,1,0,-1
1537907846167236,-2,-7,6,1,-1,-2,-2,-1
1537907846167236,0,5,-39,-1,-4,-4,-1,-1
1537907846179204,-3,-15,26,-1,-1,0,0,-1
1537907846179204,0,4,-19,-3,-3,-2,-1,1
1537907846186186,0,3,3,2,1,0,0,-1
1537907846186186,-2,-5,-12,0,-3,0,-1,-2
1537907846203139,2,10,6,4,3,3,0,1
1537907846203139,-5,-9,11,-9,-7,-4,-2,-4
1537907846204137,-4,0,27,4,-4,-2,-4,-3
1537907846204137,1,2,-38,0,2,-1,-1,0
1537907846233059,0,-8,-35,6,2,1,0,0
1537907846233059,3,13,27,-3,4,0,1,0
1537907846234056,0,0,4,-4,-2,1,1,1
1537907846234056,-2,-3,22,-4,-2,-1,0,-2
1537907846240040,-2,-5,1,2,-1,-2,1,0
1537907846240040,1,-2,-20,3,5,2,-1,1
1537907846246024,-2,-3,27,1,-2,-3,0,0
1537907846246024,2,-2,-27,4,0,-1,-2,-1
1537907846262978,-1,4,-10,-6,-2,-1,-3,-2
1537907846262978,-2,-3,3,0,-2,-2,-1,-2
1537907846263976,1,10,-11,-4,0,0,0,2
1537907846263976,-1,-1,7,0,0,0,0,-1
1537907846284920,-1,-6,5,-4,-3,-2,-1,-1
1537907846284920,-2,-6,7,-1,-4,1,-1,0
1537907846286914,-2,-4,-27,-1,2,1,-1,-1
1537907846286914,1,7,-2,-11,-2,0,-1,-1
1537907846298883,-1,-1,-8,-3,-3,-2,-2,0
1537907846298883,-2,6,52,0,-4,0,1,0
1537907846307858,0,-7,-47,0,1,-2,1,-2
1537907846307858,-2,-12,10,-1,2,-2,-1,1
1537907846322819,-2,-1,-13,-1,-1,0,-1,-2
1537907846322819,-1,-2,26,4,2,0,-2,-2
1537907846323816,-1,2,-16,-5,-4,-1,-2,-1
1537907846323816,-2,-9,-26,4,3,0,-2,1
1537907846344759,1,2,29,-12,-3,-1,-1,-1
1537907846344759,4,10,-38,1,1,-2,0,0
1537907846346755,0,0,26,6,0,0,1,-2
1537907846346755,0,-3,5,-3,2,1,-1,0
1537907846358722,-1,-6,-9,-2,-5,-2,-1,-2
1537907846358722,1,-7,-10,10,-1,-1,-1,-1
1537907846367699,-3,4,20,-16,-4,0,-2,-1
1537907846367699,1,6,-14,2,-1,-2,1,0
1537907846382658,-4,-8,13,7,1,-1,-2,-4
1537907846382658,-2,-11,-32,-8,-3,-2,-1,0
1537907846384653,2,1,4,6,3,1,1,-2
1537907846384653,-2,-5,21,4,-3,-1,0,0
1537907846405597,-2,2,0,-4,0,-3,0,0
1537907846405597,-1,1,-3,13,0,-2,-1,0
1537907846406595,-2,-14,-61,-23,-2,-1,0,0
1537907846406595,-1,-4,27,-4,-4,-3,-1,0
1537907846418563,-1,2,-12,0,-2,0,0,1
1537907846418563,-2,-3,13,-1,2,-1,-3,0
1537907846427539,1,3,-6,4,-2,-1,-2,0
1537907846427539,-3,6,15,-7,-2,-1,-2,-3
1537907846442499,3,-7,16,6,1,1,-1,1
1537907846442499,-2,1,-13,-4,1,-1,-1,1
1537907846444494,-2,-2,15,3,-1,-1,0,-2
1537907846444494,-2,2,-8,1,0,-1,-1,-1
1537907846465438,1,4,-3,0,-2,-2,-1,-2
1537907846465438,-3,5,-1,-11,-1,1,-2,-2
1537907846471421,3,-10,-1,10,0,-2,-4,0
1537907846471421,-2,-4,-3,-14,-3,0,0,0
1537907846478403,-1,-3,22,4,1,1,1,-1
1537907846478403,-1,4,-49,-5,-1,-1,3,-1
1537907846487379,0,8,40,5,-1,-2,-1,-1
1537907846487379,-1,-6,-34,3,0,-2,-2,-2
1537907846502339,-2,-7,-25,-9,-3,0,-1,0
1537907846502339,3,6,46,-1,2,2,-2,-1
1537907846504333,-2,5,-6,11,-7,-3,-1,-2
1537907846504333,1,-6,10,0,2,1,1,2
1537907846525278,-2,-1,-20,9,1,-1,0,2
1537907846525278,-4,-16,-11,-15,-5,-1,-2,-2
1537907846526275,0,8,25,1,2,0,0,0
1537907846526275,1,-3,9,-4,-1,0,-2,-2
1537907846539241,0,3,-8,-3,0,-2,-2,0
1537907846539241,0,2,9,6,1,0,1,0
1537907846548218,-5,-24,-39,-18,-6,0,-1,-1
1537907846548218,1,15,-1,4,-1,-1,-1,0
1537907846563178,1,11,22,1,1,-1,-1,-1
1537907846563178,0,-4,-5,3,-1,-3,-3,0
1537907846564176,0,6,-16,-2,2,0,0,-1
1537907846564176,0,-8,-14,0,-2,-1,1,-2
1537907846586116,-2,0,12,2,-2,-2,0,0
1537907846586116,-2,1,2,5,-2,-1,2,-1
1537907846587114,-1,-11,-46,-4,2,0,-1,3
1537907846587114,0,15,26,2,0,0,-1,-5
1537907846599081,0,-1,-2,-2,-1,0,-2,0
1537907846599081,-1,-4,8,1,0,-1,0,-2
1537907846615038,2,6,26,3,0,-1,0,1
1537907846615038,-2,-2,-13,0,-3,-3,-2,1
1537907846623016,-1,1,-2,0,1,2,-1,-1
1537907846623016,-3,-1,13,-2,-3,-2,-1,-1
1537907846624014,0,-9,-17,-4,-1,-2,0,-2
1537907846624014,-1,0,0,2,0,2,1,0
1537907846644958,1,0,-16,-14,-6,-2,-1,-1
1537907846644958,-1,-4,-25,-13,0,-1,-1,0
1537907846646953,-1,14,52,10,-2,-1,-3,-1
1537907846646953,-2,-10,0,5,-1,-1,-1,-1
1537907846658921,-2,-6,-41,-7,-2,-2,0,1
1537907846658921,1,4,37,4,0,-1,-1,-2
1537907846667896,-3,2,-59,-4,-1,-1,-1,-2
1537907846667896,1,4,29,3,0,0,-2,0
1537907846682857,-2,-6,1,1,2,0,0,0
1537907846682857,-1,-10,-19,-5,-4,-1,-2,-2
1537907846683854,1,24,36,5,0,-1,-3,-2
1537907846683854,-2,-19,-26,-8,1,-2,0,0
1537907846705795,0,6,30,0,2,-1,0,-2
1537907846705795,-4,-5,-19,5,-3,-1,-2,-3
1537907846707790,-1,-6,20,-2,1,1,0,0
1537907846707790,-1,6,0,0,-2,-1,1,0
1537907846718761,-1,0,6,1,0,-2,-1,-1
1537907846718761,-1,-6,-13,-1,-2,0,2,1
1537907846727736,-2,-2,11,3,0,-1,-1,0
1537907846727736,-1,4,-22,-12,-1,-2,0,-1
1537907846742696,-1,-3,2,2,1,0,1,-2
1537907846742696,2,2,5,2,1,1,-1,2
1537907846744691,-2,-11,-34,-5,-2,-2,0,-2
1537907846744691,-1,-3,45,5,2,1,2,0
1537907846765635,-1,12,-20,-4,-4,-2,-3,-1
1537907846765635,-1,3,25,5,3,1,-2,-4
1537907846766632,0,-7,-38,-2,-3,-1,-1,-2
1537907846766632,-3,-3,4,1,0,-2,-3,-1
1537907846787576,1,-1,5,3,-2,0,1,2
1537907846787576,0,8,-20,2,1,-1,0,0
1537907846789571,-4,-21,30,0,-1,0,-2,-3
1537907846789571,3,16,9,-3,0,-2,-1,0
1537907846802537,0,1,6,0,-1,-1,-1,0
1537907846802537,-2,-6,-10,-10,-1,-2,0,1
1537907846804531,-1,3,2,6,-1,-1,0,-2
1537907846804531,-3,-4,-7,-2,2,1,-2,-27
1537907846825475,1,-3,7,-4,-4,-1,-1,14
1537907846825475,0,7,-13,1,-2,-2,0,0
1537907846826472,-4,-3,16,-7,-1,1,-2,2
1537907846826472,-2,-7,-17,0,-2,1,-1,-4
1537907846846419,-1,0,-28,-1,-4,-3,-2,-8
1537907846846419,-1,-2,18,15,6,1,-1,0
1537907846855395,0,6,21,-23,-10,-2,-1,-3
1537907846855395,0,3,0,5,2,1,0,6
1537907846862376,-3,-2,-14,-9,2,1,0,-3
1537907846862376,-1,-11,-2,3,-2,-1,-1,3
1537907846864371,-2,4,8,5,3,-1,-1,0
1537907846864371,-2,-10,3,-2,-2,-1,0,3
1537907846892296,1,7,2,0,1,0,-2,-2
1537907846892296,-2,2,10,-2,-1,-2,-1,-7
1537907846894291,4,9,0,8,1,1,2,1
1537907846894291,-3,-4,-16,-25,-9,-2,-2,8
1537907846907256,-2,-1,0,15,1,-2,-2,-9
1537907846907256,1,1,-13,-4,-3,0,-1,0
1537907846909251,0,1,-2,-1,0,0,-1,-1
1537907846909251,1,3,18,5,1,-2,1,5
1537907846922216,-1,-8,27,-4,-1,-2,-2,-2
1537907846922216,2,-2,-45,-12,-1,-2,-1,-1
1537907846929197,2,6,13,9,0,-1,1,3
1537907846929197,0,-3,-13,5,0,1,-1,-2
1537907846945155,-3,-4,7,3,0,-1,0,-1
1537907846945155,-2,-12,17,-6,-4,-2,-2,-2
1537907846947150,-1,11,-16,-2,3,-3,0,-2
1537907846947150,-1,2,11,1,0,-3,-2,1
1537907846968093,-1,7,-4,-4,0,0,-1,0
1537907846968093,-2,-10,9,5,-1,-1,-1,1
1537907846969091,-1,-2,-5,2,1,0,0,-1
1537907846969091,2,5,29,2,-1,0,-1,-1
1537907846982056,0,-6,-26,-6,1,1,0,2
1537907846982056,-2,-3,27,0,0,-2,1,0
1537907846989037,0,-4,-27,0,1,1,0,-1
1537907846989037,1,10,22,5,0,-3,-1,-2
1537907847004995,-1,-9,-34,-11,-1,1,0,-3
1537907847004995,-2,-7,-17,-3,-5,-1,-1,-1
1537907847006989,0,1,16,-2,-1,0,-1,-2
1537907847006989,-4,-6,-14,3,1,-1,0,1
1537907847027933,0,3,26,4,3,0,-1,1
1537907847027933,0,2,-8,-7,0,0,-1,-2
1537907847028931,1,9,18,12,-3,-2,-2,0
1537907847028931,-4,-20,-49,-12,-3,-1,-1,-1
1537907847041896,2,-5,12,1,-2,0,-1,0
1537907847041896,0,9,-3,-5,0,-1,0,0
1537907847048877,-1,-5,-20,-1,0,-2,-1,-1
1537907847048877,0,-5,-13,1,1,0,-1,-1
1537907847064835,-1,7,9,0,0,0,-1,-1
1537907847064835,-1,4,18,10,0,-2,-2,-2
1537907847066830,-1,-11,-9,-15,0,1,0,1
1537907847066830,0,5,24,2,-4,-1,1,3
1537907847087774,-2,-1,-35,0,-1,-1,-3,-1
1537907847087774,0,2,21,1,0,2,0,0
1537907847088771,-3,-8,-12,5,-3,-3,-1,-1
1537907847088771,-1,5,36,1,-3,-1,-1,-3
1537907847101736,0,-1,-9,1,0,-1,1,2
1537907847101736,-1,-2,-10,-16,-5,-3,-1,0
1537907847108718,-3,-2,7,2,0,0,-3,-3
1537907847108718,2,11,-10,2,0,0,0,2
1537907847125672,-2,-16,-8,-6,-1,-3,-1,3
1537907847125672,3,7,-8,1,1,-1,-1,-1
1537907847126670,0,-1,-10,-10,0,-2,-1,-1
1537907847126670,-2,-9,-5,1,1,0,-1,-3
1537907847146616,2,10,52,9,-3,-2,-2,-2
1537907847146616,-1,-5,-29,-2,-3,-2,-2,-1
1537907847155592,0,1,12,0,0,0,1,0
1537907847155592,0,-4,-19,-1,2,-1,-2,1
1537907847162573,0,-10,2,0,1,0,0,-2
1537907847162573,0,4,12,-6,-3,-2,-1,-1
1537907847168558,0,-3,3,2,2,1,0,-2
1537907847168558,-3,-2,-27,-8,-5,-1,-2,-1
1537907847185512,-3,-1,-14,-3,-4,-1,-1,-2
1537907847185512,-4,4,15,14,5,0,-3,-2
1537907847186512,1,-3,0,-5,-1,0,0,1
1537907847186512,0,1,3,1,2,0,0,-2
1537907847207454,1,0,4,2,-1,1,1,1
1537907847207454,-3,-4,-12,-8,-1,0,-2,0
1537907847209448,-1,-4,15,-6,-1,0,-1,-1
1537907847209448,-2,2,-28,10,1,1,0,-1
1537907847222414,1,9,4,-1,0,0,-2,-1
1537907847222414,1,-2,1,4,0,-1,0,-3
1537907847228398,-1,1,22,3,1,0,0,2
1537907847228398,1,-3,5,7,-3,-2,1,2
1537907847245352,-3,-8,-27,-14,-2,-2,-2,-5
1537907847245352,0,0,13,9,1,1,-1,-2
1537907847246350,1,2,-33,-17,-3,-2,-3,-3
1537907847246350,1,7,11,1,2,3,-1,0
1537907847267294,-2,0,15,3,-2,-1,-2,1
1537907847267294,0,-3,0,2,-1,-2,1,1
1537907847269289,-3,-3,2,7,0,-1,0,-2
1537907847269289,-2,-6,-4,-8,-2,-1,-2,-1
1537907847281258,-1,0,-3,-1,0,0,-1,-2
1537907847281258,4,7,-3,-6,-4,0,0,0
1537907847290233,-1,3,8,9,0,-2,-2,1
1537907847290233,-4,-15,-9,-5,-3,-1,-2,-2
1537907847305192,-1,-15,4,4,-1,1,0,1
1537907847305192,0,-5,-14,-3,0,0,1,-2
1537907847307187,-2,7,3,4,-3,-2,-1,0
1537907847307187,-2,-7,-22,-5,-2,-2,0,-1
1537907847328131,0,3,6,-4,-2,0,-1,0
1537907847328131,-1,4,7,4,-1,0,-2,1
1537907847329128,-1,-9,-27,-6,0,0,-1,0
1537907847329128,0,5,23,-2,0,-1,-1,-1
1537907847341097,-3,-16,-16,-2,-1,-2,0,-3
1537907847341097,1,5,17,9,5,1,-1,2
1537907847350072,0,1,9,-6,0,0,-2,0
1537907847350072,1,-1,-9,0,-5,-3,-2,-1
1537907847365032,-2,-1,23,-4,-2,-2,-2,-2
1537907847365032,0,1,1,6,4,1,0,-1
1537907847367027,-1,-8,-9,1,-3,0,0,-2
1537907847367027,0,-4,0,-6,-2,-1,0,0
1537907847387971,0,12,-1,6,-1,0,-2,-1
1537907847387971,-6,-11,-8,-10,-4,-1,-2,-1
1537907847388969,-2,0,-3,0,0,0,-1,-1
1537907847388969,0,-1,2,-1,-2,2,1,2
1537907847400936,1,7,-2,0,-2,-2,0,1
1537907847400936,-2,-3,-10,-7,-2,1,-2,-3
1537907847409912,0,1,33,12,0,-2,0,1
1537907847409912,0,5,-48,-4,2,1,-1,-1
1537907847424872,2,2,12,1,-2,-2,0,0
1537907847424872,0,4,11,4,-4,-1,-1,-1
1537907847426867,0,-5,-5,-12,-2,-1,-1,-1
1537907847426867,0,4,19,0,1,1,0,-1
1537907847447811,-2,1,-12,-1,1,-1,1,0
1537907847447811,0,0,-5,1,2,0,0,2
1537907847448808,-1,-2,-6,2,-2,0,0,-6
1537907847448808,-2,2,11,10,-2,-2,-2,-4
1537907847461774,-1,-3,-22,-8,0,2,-1,-2
1537907847461774,0,0,16,-5,-4,-2,1,1
1537907847470750,3,7,27,2,-4,-2,-2,1
1537907847470750,-1,-26,-49,-10,0,-1,1,-1
1537907847485709,-1,12,45,7,-2,1,0,0
1537907847485709,-1,-1,-22,-3,0,0,1,0
1537907847486707,1,0,0,1,1,1,0,2
1537907847486707,0,8,40,1,-3,-3,-1,-2
1537907847507651,-4,-13,-37,-3,1,-2,-2,-2
1537907847507651,-2,-5,-2,0,-1,-2,-3,-1
1537907847509646,-1,6,-13,-2,-2,-1,-1,-1
1537907847509646,0,-7,-8,3,0,1,-1,-1
1537907847521614,1,2,13,3,3,-1,0,1
1537907847521614,3,5,5,-6,-3,-2,-2,-1
1537907847530590,-1,6,-25,-3,-2,-1,-1,-1
1537907847530590,0,1,4,-4,-3,-2,-2,-1
1537907847545550,-1,1,4,-1,-2,0,1,-2
1537907847545550,0,-2,-16,5,1,1,1,-2
1537907847546548,-2,-1,12,-11,-3,-3,-1,-1
1537907847546548,0,5,28,7,2,1,-2,0
1537907847567492,0,1,-14,-8,-2,-1,-1,-2
1537907847567492,-1,-6,20,7,-2,-2,-2,-2
1537907847569488,0,5,10,-2,3,1,1,0
1537907847569488,-3,4,-23,0,2,0,-1,-2
1537907847581455,-1,-8,-6,-11,-7,-3,-2,-2
1537907847581455,0,3,-7,-8,-2,-1,-1,0
1537907847590432,-3,-17,-21,4,1,0,0,0
1537907847590432,3,12,18,-3,0,0,1,1
1537907847605391,1,7,42,17,4,1,0,-2
1537907847605391,-2,-13,-18,-5,-1,-2,-1,-1
1537907847606389,0,0,11,-2,-5,-2,-2,-3
1537907847606389,1,2,-18,-3,-2,-1,-1,2
1537907847627332,-1,-9,-17,1,1,0,0,-1
1537907847627332,-1,15,31,-1,-4,-2,0,-1
1537907847629328,-3,-19,-15,-1,2,0,0,-1
1537907847629328,0,4,23,1,-1,-2,-1,-2
1537907847641296,0,1,-20,-1,-3,-2,-1,1
1537907847641296,-1,-11,-16,-1,1,0,0,3
1537907847650271,1,8,-1,-2,-1,0,-1,-1
1537907847650271,-3,-3,2,5,3,-2,1,-2
1537907847665231,-2,-4,27,-6,-3,-2,0,-1
1537907847665231,-1,7,-22,-3,-1,1,-2,0
1537907847666230,-1,-7,-30,-4,-3,-1,-1,-1
1537907847666230,-1,3,9,0,-1,0,0,-2
1537907847688170,-2,-6,-14,-4,4,2,0,-1
1537907847688170,-2,-8,16,2,-9,-4,-3,-2
1537907847689167,1,18,15,3,1,0,-2,0
1537907847689167,-3,-5,-30,-7,-2,-1,0,-2
1537907847710110,-1,2,7,5,2,0,-3,1
1537907847710110,-3,-4,-21,-6,0,-1,0,-2
1537907847712105,-2,0,47,1,-1,0,0,-2
1537907847712105,-1,3,51,11,-3,-1,0,-1
1537907847725070,1,-17,-85,-11,-1,1,0,0
1537907847725070,0,15,3,4,4,1,-1,-2
1537907847727064,2,-4,-7,3,0,-1,-1,-1
1537907847727064,-1,-2,6,-7,0,-1,0,0
1537907847748008,-1,4,22,2,-4,-3,-1,-3
1537907847748008,-1,-8,-24,-2,1,-1,-1,-2
1537907847749006,1,3,-8,3,-1,-3,0,-1
1537907847749006,-1,-4,-5,-6,0,-1,-2,0
1537907847769950,1,6,6,5,0,-2,-2,0
1537907847769950,-3,-13,3,0,0,0,-1,-1
1537907847771945,-2,-1,-2,-1,-1,1,-1,-2
1537907847771945,0,-5,-7,-2,-2,-1,-2,0
1537907847784910,-2,1,-4,-6,-2,0,-1,-1
1537907847784910,1,9,19,7,0,0,-2,-2
1537907847786905,0,-4,-23,0,1,-1,1,1
1537907847786905,0,-1,0,-1,-1,-1,-2,-2
1537907847807849,1,6,-4,3,0,-1,-1,0
1537907847807849,0,-7,4,-10,-5,-1,-1,1
1537907847808847,0,-6,33,1,0,0,0,1
1537907847808847,-3,-5,-48,-6,-4,-2,0,-1
1537907847829790,2,9,13,1,2,0,1,-1
1537907847829790,-1,-6,30,0,3,1,-1,0
1537907847831785,-1,1,-50,5,0,-2,-1,-1
1537907847831785,-1,-11,6,-7,-2,0,-1,-2
1537907847844750,-4,8,-1,-5,0,-1,-1,-1
1537907847844750,-3,-13,-5,1,-4,-1,0,-1
1537907847851731,0,0,24,0,0,1,-2,-1
1537907847851731,0,3,-4,6,2,1,-1,-2
1537907847867689,1,-2,6,-8,-2,-1,-1,-2
1537907847867689,0,3,-9,0,0,1,1,-2
1537907847868687,-3,-4,-3,-6,-2,-2,0,0
1537907847868687,-4,-8,-7,2,2,-1,-2,-2
1537907847890628,2,7,16,0,0,0,0,-1
1537907847890628,-2,9,1,17,2,-2,0,-1
1537907847891626,0,-7,-14,-17,-4,-1,-1,-2
1537907847891626,-1,-3,-4,-8,-1,0,0,1
1537907847904590,-3,-19,-33,2,2,-1,0,0
1537907847904590,-2,5,51,2,-1,-1,-2,-2
1537907847911572,1,3,8,7,2,1,0,0
1537907847911572,1,4,-17,-1,0,-1,-1,0
1537907847927529,-1,-4,-4,5,-1,-1,-2,0
1537907847927529,0,-9,-12,-7,-1,-2,0,-1
1537907847929524,-2,10,3,-4,-1,-1,0,-2
1537907847929524,-2,1,15,5,-2,-1,0,-1
1537907847950467,-1,1,0,2,0,0,-2,0
1537907847950467,1,9,-8,-4,-1,0,1,3
1537907847951465,-2,-9,8,0,2,1,0,-1
1537907847951465,0,4,-5,0,-1,-1,-1,0
1537907847964430,-1,2,3,-1,-6,-4,-1,-1
1537907847964430,-2,-1,-1,-4,-3,0,-2,-2
1537907847971412,-1,-4,-10,-4,-3,-3,-2,-1
1537907847971412,-1,-2,0,3,1,1,-1,1
1537907847988367,1,-3,6,0,-1,0,-2,-1
1537907847988367,-1,-1,11,-4,-1,-1,0,0
1537907847989364,0,7,-9,3,1,-1,0,1
1537907847989364,-1,-11,-4,0,1,0,0,-1
1537907848010309,-3,3,6,-12,-2,-2,1,-1
1537907848010309,0,-3,-12,8,1,-1,-1,-1
1537907848011307,1,7,-1,-3,-3,-2,-1,-1
1537907848011307,0,6,15,1,0,-1,0,0
1537907848024270,-3,-29,-7,-5,-5,1,0,0
1537907848024270,2,24,-16,2,2,0,0,-1
1537907848031251,-1,-4,14,-2,-3,-1,-1,0
1537907848031251,2,4,-3,-1,-2,-3,-1,-2
1537907848047209,1,0,10,-15,-2,0,1,0
1537907848047209,1,1,-11,6,2,-2,-2,-2
1537907848049204,-1,-10,-2,4,-1,-1,-1,0
1537907848049204,0,2,0,3,-2,0,0,-1
1537907848070147,-1,2,4,5,5,2,0,0
1537907848070147,0,-5,-3,-4,-3,-3,-1,-3
1537907848072142,-1,11,0,-4,1,2,-1,-1
1537907848072142,0,-15,-9,1,-2,-3,-1,-1
1537907848084110,-2,6,2,-1,2,1,-2,-1
1537907848084110,-1,3,23,0,-1,0,0,0
1537907848091091,-1,-13,-43,18,8,1,1,-2
1537907848091091,-1,-1,-12,-38,-12,-3,-1,-1
1537907848108046,-1,4,8,8,-6,-4,-2,-2
1537907848108046,-1,-4,-13,-11,-3,0,-1,0
1537907848109044,-3,-10,29,8,1,0,0,0
1537907848109044,-1,7,9,3,0,-2,-1,0
1537907848129988,-1,-1,-30,0,2,-1,-1,0
1537907848129988,0,-1,16,-1,0,-2,1,1
1537907848131983,-1,-2,1,-2,-1,0,-1,-2
1537907848131983,1,0,-1,3,0,1,-1,-1
1537907848143951,1,5,6,1,-1,0,0,-1
1537907848143951,-2,-7,-19,2,1,-1,0,-1
1537907848152927,-3,1,0,-7,-2,-2,-1,0
1537907848152927,-1,-2,-6,-1,1,-1,-1,0
1537907848167887,-2,2,13,8,-2,0,-1,-1
1537907848167887,0,1,-7,-7,0,0,-1,-1
1537907848168885,1,-12,-10,-12,-1,-2,0,0
1537907848168885,0,6,25,18,-1,2,0,-3
1537907848189829,1,0,-19,3,2,1,2,1
1537907848189829,0,-6,-12,-6,-1,2,0,0
1537907848191824,-1,4,15,-12,-11,-5,-4,-3
1537907848191824,-1,-5,-25,1,-1,-2,-2,0
1537907848203792,0,-2,5,-1,-1,-1,-3,-1
1537907848203792,1,-5,-6,1,-1,0,-1,-1
1537907848212769,-2,1,0,1,4,2,0,1
1537907848212769,-3,-4,6,-4,-2,0,-1,0
1537907848227727,1,2,-11,-8,0,0,0,0
1537907848227727,-2,3,57,19,10,2,1,-1
1537907848228725,0,-5,-77,1,-8,-6,-4,-3
1537907848228725,-1,0,23,-9,-3,-3,0,1
1537907848250665,2,9,23,4,0,-1,-1,2
1537907848250665,-3,-2,-6,-9,-6,-2,-1,0
1537907848251662,-1,-1,35,11,5,2,1,0
1537907848251662,-2,-3,-20,9,3,-1,-1,-2
1537907848263630,0,-9,-9,1,-4,-3,-1,-2
1537907848263630,1,-1,-5,-24,-4,-2,-2,0
1537907848272606,-1,1,4,-14,-5,0,-1,-2
1537907848272606,1,12,-21,2,6,3,1,1
1537907848287566,-2,-5,34,10,-9,-5,-4,-3
1537907848287566,-2,-20,-43,23,9,0,-3,-2
1537907848289561,-1,2,-28,-9,7,-1,-1,-1
1537907848289561,3,-5,52,-9,-7,1,1,1
1537907848310505,-3,11,-58,12,32,7,1,-2
1537907848310505,-3,15,84,-44,-49,-18,-6,-6
1537907848311502,-1,-11,-49,-49,-35,-11,-2,-2
1537907848311502,-2,-21,-24,52,61,24,9,7
1537907848323470,11,11,-68,-59,-6,1,3,3
1537907848323470,-9,1,99,39,-12,-3,-3,-4
1537907848332446,1,-4,-89,54,36,12,4,1
1537907848332446,-2,-6,6,-111,-80,-34,-16,-6
1537907848347406,4,15,1,-40,-16,-3,0,4
1537907848347406,2,12,3,65,5,-6,-1,-2
1537907848349401,-5,-1,127,106,18,2,-4,-2
1537907848349401,-3,-45,-118,35,25,8,5,1
1537907848370345,-5,-2,76,-53,9,4,-5,-5
1537907848370345,1,-5,60,23,4,1,-1,-2
1537907848371343,-8,6,34,-111,-53,-21,-11,-12
1537907848371343,19,43,80,94,64,28,17,13
1537907848384307,-8,-6,73,64,-52,-27,-13,-8
1537907848384307,-2,-14,18,-27,21,14,8,1
1537907848393284,1,10,28,74,5,-5,-4,-1
1537907848393284,-1,40,-72,-78,-8,4,-3,-3
1537907848407246,-4,-22,-65,89,12,-14,-2,-1
1537907848407246,9,18,-33,9,3,2,2,8
1537907848414228,-2,-8,42,-50,-7,2,1,1
1537907848414228,-2,-26,62,-80,-28,-11,-7,-7
1537907848430185,-6,-25,-89,8,12,8,3,-1
1537907848430185,3,20,34,4,5,-2,-1,0
1537907848431182,0,-26,-63,-42,1,3,4,0
1537907848431182,2,7,40,30,17,3,1,2
1537907848444148,-5,18,59,1,-7,-2,-4,-4
1537907848444148,-5,-35,-85,12,14,2,4,3
1537907848453124,2,7,-19,-28,1,1,1,1
1537907848453124,-8,-32,10,28,-16,-12,-8,-6
1537907848467086,-2,-1,23,-7,9,3,5,-1
1537907848467086,1,14,-12,-48,-14,-6,-5,-4
1537907848474068,5,12,10,6,8,7,4,4
1537907848474068,-5,-2,-71,1,-18,-11,-2,-5
1537907848490025,1,-7,4,36,26,13,4,2
1537907848490025,-5,-20,86,-34,-18,-4,-4,-2
1537907848492020,0,2,-52,13,-18,-3,5,3
1537907848492020,4,7,-51,-9,-10,0,1,0
1537907848503989,2,-1,99,-36,1,5,1,0
1537907848503989,-2,0,-30,6,-1,-4,-1,-3
1537907848512964,-3,1,20,2,3,0,-2,-3
1537907848512964,-3,-2,26,10,-4,1,0,-1
1537907848526926,2,-4,-67,-4,-4,-5,1,2
1537907848526926,-2,8,-56,-18,2,0,-2,-4
1537907848540889,3,0,28,1,4,2,-2,1
1537907848540889,-6,-8,2,-1,1,2,0,-3
1537907848549865,-1,0,-10,1,0,2,-1,0
1537907848549865,-4,-22,-26,11,5,-3,-2,-3
1537907848551860,0,18,-56,-10,4,1,-1,0
1537907848551860,3,17,75,9,0,-5,-2,-1
1537907848563828,-7,-11,44,-56,-24,-9,-6,-5
1537907848563828,9,14,25,21,0,4,3,4
1537907848572804,0,-12,-10,10,4,1,1,2
1537907848572804,-6,-9,-11,-9,4,-2,-3,-5
1537907848586766,2,10,12,-12,5,1,2,-1
1537907848586766,-3,2,-6,-13,-12,-2,-3,-2
1537907848593748,-2,-1,-37,10,3,-2,-2,-2
1537907848593748,1,9,15,14,-2,2,1,1
1537907848610702,-1,-7,28,-18,5,-1,-2,-2
1537907848610702,0,9,-80,-9,-7,0,1,0
1537907848611700,-1,-23,-5,26,8,2,2,1
1537907848611700,-1,-1,15,7,0,0,-2,-1
1537907848632644,1,8,-4,4,-4,-1,0,1
1537907848632644,-1,-11,2,-10,3,2,1,-1
1537907848634638,0,14,6,-1,0,0,-1,-2
1537907848634638,0,-6,-9,-1,-1,-2,-2,-2
1537907848647604,3,11,-7,11,0,3,2,1
1537907848647604,0,-5,-16,1,9,2,-1,1
1537907848649598,1,1,32,-3,-3,-3,0,-2
1537907848649598,-1,3,4,-2,-4,-3,-2,-1
1537907848670542,-2,-2,-21,10,6,1,1,0
1537907848670542,-3,-2,-22,-23,0,0,-2,-2
1537907848671540,0,2,26,10,-2,-4,-1,-1
1537907848671540,-1,0,3,0,-3,-4,1,-1
1537907848693481,-1,-6,-4,10,3,2,-1,-2
1537907848693481,0,2,-2,-6,4,0,1,2
1537907848694479,-1,-2,10,9,8,1,-1,-2
1537907848694479,-2,-2,1,-8,-9,-7,-2,-1
1537907848706446,-2,-10,-2,8,1,0,-1,-1
1537907848706446,-1,-8,-8,2,1,-2,0,-1
1537907848715423,-1,-3,3,-6,-3,-1,-1,2
1537907848715423,-1,0,4,0,1,1,1,1
1537907848730383,-2,-5,-8,-1,-7,-5,-1,-1
1537907848730383,-2,-2,-8,0,0,0,-1,-1
1537907848731380,-1,-2,9,-6,-3,0,-1,0
1537907848731380,-1,0,6,3,3,-1,-1,-1
1537907848752324,7,-7,-5,-6,-7,0,-1,2
1537907848752324,-7,-5,-4,2,0,-1,0,-1
1537907848754318,-16,-5,4,-5,0,0,-1,-2
1537907848754318,2,-2,2,1,-3,-2,-4,-8
1537907848766286,-9,3,-2,4,1,-1,0,1
1537907848766286,36,10,-2,4,2,2,1,3
1537907848775263,-16,-4,2,-10,-4,-1,0,0
1537907848775263,13,4,-3,7,0,-1,0,0
1537907848790222,-33,-9,-8,-2,-5,-2,-2,-4
1537907848790222,21,11,1,1,1,-2,-1,0
1537907848791220,-8,-1,-1,-5,-1,-2,-2,-7
1537907848791220,-23,9,1,0,1,0,-1,-2
1537907848820142,49,15,4,3,-2,-3,-2,0
1537907848820142,-29,-6,-3,-1,-2,0,1,4
1537907848822138,24,5,2,-5,-5,-3,-4,-3
1537907848822138,-22,5,4,6,3,2,1,-1
1537907848826127,16,10,0,14,12,3,2,2
1537907848826127,-19,-5,-7,-13,-10,-5,0,-4
1537907848835103,17,1,0,5,3,1,3,8
1537907848835103,-5,-7,0,-7,-6,-1,2,5
1537907848849065,-3,1,-2,0,10,4,1,-4
1537907848849065,21,0,2,37,2,-2,-6,-9
1537907848850063,-35,-6,-1,-4,-9,-3,0,-1
1537907848850063,29,5,-1,-4,-1,-3,-2,-5
1537907848872004,-26,1,-2,-5,-6,-4,-5,-3
1537907848872004,-13,-1,-3,-4,8,3,1,-3
1537907848873001,-23,-12,0,-3,0,1,-2,-3
1537907848873001,49,14,1,3,0,1,-1,9
1537907848896937,-31,-10,-2,0,-1,1,-1,-1
1537907848896937,22,3,-2,-9,-5,-3,0,2
1537907848896937,14,13,3,2,3,1,-7,-6
1537907848896937,12,-2,-5,-5,-2,0,8,12
1537907848909903,-69,-16,-5,-7,-11,-2,15,-35
1537907848909903,13,0,-1,-1,5,6,-29,6
1537907848909903,6,-2,-5,-5,-3,-9,-24,-13
1537907848909903,-5,-7,4,1,4,30,51,34
1537907848931844,-17,1,0,1,5,19,16,-47
1537907848931844,-40,-9,-4,-11,-17,-67,-27,-38
1537907848932841,-12,7,-4,-4,-6,2,-19,-6
1537907848932841,-9,-25,-3,-4,0,8,-43,7
1537907848954782,15,1,-2,-4,-2,23,34,90
1537907848954782,-65,-17,4,1,0,-43,-48,-96
1537907848955780,80,13,4,2,-3,17,58,127
1537907848955780,-116,-25,-2,2,1,-3,-8,-78
1537907848969743,118,35,-6,-2,11,46,30,-14
1537907848969743,-32,-16,-6,-6,-18,-75,-35,76
1537907848969743,-54,-9,1,1,15,61,17,-9
1537907848969743,-65,-9,-5,-4,-28,-49,4,-76
1537907848991684,44,5,0,3,24,89,-60,-61
1537907848991684,45,10,3,-1,1,96,60,96
1537907848992681,-15,-11,9,3,-19,-89,-16,-30
1537907848992681,-5,2,3,6,19,110,3,-63
1537907849015620,-2,-15,3,5,10,38,-7,51
1537907849015620,0,14,-5,-7,3,82,22,-20
1537907849015620,7,3,13,7,-14,-88,-10,-87
1537907849015620,35,7,-3,-5,-14,-4,-101,27
1537907849029583,-47,-16,-9,-10,-21,-128,14,-70
1537907849029583,23,20,7,8,17,96,11,-76
1537907849030580,35,-12,-10,-3,37,94,70,95
1537907849030580,-19,-5,-4,-10,-36,-101,-82,-128
1537907849051524,-27,-13,-6,-7,-3,38,-28,29
1537907849051524,-17,-9,-1,-2,8,13,41,116
1537907849052521,21,-1,-14,-6,-2,-66,-29,-48
1537907849052521,27,12,-1,-2,1,8,39,42
1537907849075460,-9,-2,-8,-7,-12,42,-27,63
1537907849075460,-29,-14,-3,-7,-11,-61,-10,-101
1537907849075460,-1,8,11,5,11,90,30,5
1537907849075460,-18,-2,-3,0,2,-27,-6,15
1537907849089423,32,-7,7,-4,-19,-42,33,38
1537907849089423,35,14,-6,2,22,52,-14,28
1537907849090420,-40,-21,-14,-16,-29,-58,-27,66
1537907849090420,55,5,-1,-1,4,-13,15,-53
1537907849112361,23,18,3,4,6,-3,14,-69
1537907849112361,-1,-16,-2,-3,3,-2,2,-26
1537907849112361,8,7,2,2,0,1,-7,33
1537907849112361,22,10,3,4,7,45,22,64
1537907849136298,-20,1,3,2,-6,-69,-35,26
1537907849136298,4,3,3,4,7,3,29,30
1537907849137296,-7,4,-2,0,-1,16,-25,-1
1537907849137296,0,0,-3,-5,-4,-26,26,24
1537907849149263,-15,-10,8,1,-2,-5,-5,-32
1537907849149263,3,6,4,6,14,65,15,-11
1537907849150260,0,0,3,1,-3,5,-17,-60
1537907849150260,5,-2,0,6,12,23,29,91
1537907849172201,-15,-10,-2,-3,-4,-8,-21,-45
1537907849172201,2,-3,-5,0,-7,-9,-1,1
1537907849173199,6,17,4,3,11,59,6,-31
1537907849173199,-14,-7,1,2,-1,-13,19,-75
1537907849186164,27,11,8,4,-2,14,25,4
1537907849186164,-5,0,-3,-5,-9,-28,-22,-115
1537907849194143,-6,-8,-3,-3,2,3,-23,14
1537907849194143,16,10,-1,-1,8,28,11,18
1537907849209103,-15,0,3,4,6,8,4,5
1537907849209103,16,-5,1,-3,-11,-39,-8,9
1537907849210100,4,-3,3,4,3,20,23,-12
1537907849210100,-12,-12,-2,-6,-7,-32,-27,-1
1537907849232042,-24,-4,-4,-1,-1,14,4,-43
1537907849232042,16,-3,-7,-3,-7,-23,-12,42
1537907849233039,20,1,-4,-3,-5,2,-11,-30
1537907849233039,8,6,-4,-2,4,6,11,40
1537907849246004,2,-3,-3,-1,-2,10,-1,5
1537907849246004,-12,2,2,0,4,-12,12,16
1537907849254980,-23,-4,-2,-3,-3,-15,-35,-73
1537907849254980,0,-1,2,0,-1,15,8,1
1537907849269940,21,0,-1,-2,-7,-18,-11,26
1537907849269940,-15,-4,-1,-2,-2,4,5,2
1537907849269940,2,-1,-2,0,0,1,5,8
1537907849269940,-3,-1,0,0,0,3,-7,15
1537907849291882,-22,-5,-3,-4,-6,-9,-9,-2
1537907849291882,21,7,1,2,-1,-6,-3,1
1537907849292879,0,5,1,0,0,-3,6,-4
1537907849292879,0,-1,-1,-1,3,9,-3,-9
1537907849305844,-3,0,0,1,1,-3,1,1
1537907849305844,3,0,0,-1,-7,-7,-8,-12
1537907849314820,-5,-2,2,1,3,3,0,3
1537907849314820,-7,2,1,-1,1,1,5,14
1537907849329780,-4,2,-1,0,3,3,-2,2
1537907849329780,9,0,-1,-6,-7,-5,-3,1
1537907849329780,-4,-1,-2,-2,-6,-13,-9,-4
1537907849329780,-5,0,-3,-3,0,-3,-4,0
1537907849351722,5,0,-2,1,2,0,1,0
1537907849351722,-11,-2,1,3,2,5,-1,-1
1537907849352720,1,1,1,6,2,1,5,-3
1537907849352720,8,0,-1,-1,-2,0,0,0
1537907849375658,0,1,-3,-14,-5,-6,-8,5
1537907849375658,-6,-4,-7,-11,-6,-6,-1,-1
1537907849375658,-5,-6,-2,-10,-6,-2,1,-1
1537907849375658,2,0,3,6,3,0,-3,0
1537907849389620,4,-3,-4,50,11,4,2,3
1537907849389620,-6,2,6,-58,-4,-2,0,-2
1537907849390618,-5,-3,-8,46,10,-1,0,-7
1537907849390618,4,5,8,-50,-11,-1,-1,2
1537907849411562,-1,0,-1,-13,-13,-6,-3,-1
1537907849411562,0,-2,-2,72,15,2,-1,-2
1537907849412559,2,2,-6,-21,1,4,3,4
1537907849412559,5,-2,0,-15,12,7,5,6
1537907849435498,-3,9,10,18,-29,-16,-10,-6
1537907849435498,-4,-3,30,30,-4,-8,-5,-4
1537907849435498,-4,0,-11,-87,-27,-5,0,-3
1537907849435498,4,4,-71,87,32,8,3,5
1537907849450458,3,-1,35,-2,19,11,5,2
1537907849450458,-9,-14,-38,-99,-28,-7,-3,-3
1537907849451455,3,8,63,30,-9,-8,-6,-3
1537907849451455,2,2,-20,-27,-22,-8,-2,-1
1537907849472399,-1,-6,-11,71,20,7,3,3
1537907849472399,-1,-10,-25,127,59,16,5,2
1537907849472399,3,-2,16,-97,-28,-4,0,-3
1537907849472399,-10,25,29,-13,-45,-21,-12,-8
1537907849486362,12,3,-6,-11,0,3,4,8
1537907849486362,-7,-6,7,-83,-17,-6,-5,-2
1537907849494340,4,-7,4,127,56,16,6,6
1537907849494340,2,4,-20,-9,18,10,5,0
1537907849509300,-13,-15,0,6,13,-1,-3,-9
1537907849509300,4,13,0,-12,2,-2,0,-1
1537907849510298,2,-5,-31,-99,-33,-12,-5,1
1537907849510298,-1,-16,32,119,20,5,0,2
1537907849532239,1,16,0,-40,7,1,-2,-1
1537907849532239,-1,-13,-32,-94,-33,-8,-3,-2
1537907849532239,-12,-16,-45,73,10,-1,-1,-4
1537907849532239,14,38,67,-8,11,4,3,5
1537907849555178,-6,-29,80,114,-6,-3,-1,-2
1537907849555178,-5,19,-60,-79,-83,-19,-8,-7
1537907849556175,-6,-44,-12,62,4,7,1,0
1537907849556175,1,-14,-63,34,16,6,3,0
1537907849569140,6,6,4,66,22,3,3,5
1537907849569140,3,8,34,7,27,9,3,5
1537907849570138,-4,-12,12,46,1,-1,-3,-4
1537907849570138,-11,12,97,-23,-14,-4,-5,-9
1537907849592079,9,38,-29,15,13,4,-1,-1
1537907849592079,-13,-17,-55,-42,-62,-18,-6,-3
1537907849593076,-5,29,37,-51,9,4,2,0
1537907849593076,11,2,-38,-43,19,9,6,6
1537907849615018,-8,-9,-35,50,8,-1,1,0
1537907849615018,8,37,98,94,69,19,6,5
1537907849616015,-4,-4,-74,-56,-82,-33,-10,-5
1537907849616015,5,-41,-25,42,81,28,9,9
1537907849629978,-7,-22,-34,-126,-93,-29,-12,-6
1537907849629978,2,-18,25,70,40,4,0,-1
1537907849629978,11,11,29,-56,40,13,4,5
1537907849629978,-2,-15,42,58,-37,-15,-5,-6
1537907849652916,-1,-8,-4,-105,-23,-2,1,1
1537907849652916,-9,-27,-4,55,-15,-9,-5,-9
1537907849652916,5,-1,-28,-40,0,4,2,3
1537907849652916,-4,2,-8,-56,-32,-9,-5,0
1537907849676852,-11,3,14,90,29,9,-1,-8
1537907849676852,-4,6,13,1,29,7,1,-5
1537907849676852,-6,11,-2,-4,-35,-11,-5,-2
1537907849676852,4,-19,-41,-12,-20,-7,-3,2
1537907849689818,5,39,31,-40,-6,0,1,3
1537907849689818,2,-1,-32,-5,6,4,1,3
1537907849689818,-3,-11,-3,61,47,16,4,1
1537907849689818,-9,13,41,-33,-30,-15,-7,-5
1537907849711759,-3,-33,-32,-41,-13,-5,-3,-1
1537907849711759,7,29,45,34,6,-2,1,2
1537907849712757,2,3,-16,-22,4,3,3,2
1537907849712757,-6,0,-1,-14,-15,-7,-4,-4
1537907849735695,-2,-11,31,-14,13,1,0,-3
1537907849735695,0,-1,-41,35,-4,-1,-1,0
1537907849735695,0,-4,25,-19,-9,-2,0,-2
1537907849735695,-2,5,-20,-18,-11,-4,-1,-3
1537907849749658,3,0,-17,34,8,2,1,2
1537907849749658,2,0,14,-15,-2,0,-2,1
1537907849750655,-3,4,-2,25,3,0,-2,-2
1537907849750655,-2,-2,-27,16,26,7,1,-2
1537907849771599,-1,-1,13,-28,-22,-7,-5,-2
1537907849771599,-4,-12,0,-14,0,1,1,-3
1537907849772597,0,3,-44,11,-3,-4,-1,-2
1537907849772597,-1,-5,11,-8,-2,-2,-1,0
1537907849795535,2,7,11,18,17,6,2,4
1537907849795535,3,-3,-26,-7,2,0,0,1
1537907849795535,-1,16,44,23,-2,-2,-2,-3
1537907849795535,-4,-13,-37,8,6,1,0,-3
1537907849809498,-1,-1,-16,1,9,0,-1,0
1537907849809498,-5,-4,-9,-12,-13,-5,-3,-2
1537907849810495,2,5,28,14,8,2,-1,2
1537907849810495,-1,0,12,18,5,2,0,-1
1537907849832437,-2,-3,-14,-21,-4,-1,0,-4
1537907849832437,3,6,15,-11,-14,-4,-1,1
1537907849832437,0,-4,-8,26,8,0,-1,-1
1537907849832437,-2,-1,-3,-8,-2,-1,0,-1
1537907849855375,-3,-1,-18,-5,5,1,-1,-2
1537907849855375,-1,-6,37,1,5,1,0,3
1537907849856373,-1,4,-28,-3,-3,-2,-1,-3
1537907849856373,0,-6,-8,4,-2,-2,-2,-1
1537907849869338,3,-13,3,-14,-1,-3,-1,2
1537907849869338,-3,18,2,2,-4,-2,-1,1
1537907849870335,-3,0,11,33,27,7,1,-1
1537907849870335,-5,-7,-2,-22,-31,-8,-4,-3
1537907849892276,1,14,-8,-1,3,-1,0,-1
1537907849892276,-2,-20,16,-10,-9,-3,-2,-3
1537907849892276,4,3,-32,9,7,0,0,3
1537907849892276,-3,3,7,3,5,2,0,-1
1537907849915216,-2,-1,-6,-10,-5,-1,0,1
1537907849915216,-1,-2,4,4,-4,-2,1,0
1537907849916213,-2,2,52,5,1,0,0,-2
1537907849916213,-2,-7,-47,-19,-13,-5,-1,-1
1537907849929178,0,4,-11,-6,-2,0,-1,0
1537907849929178,-1,-3,-10,2,6,1,-1,-1
1537907849930175,0,-7,7,-2,-7,-3,-1,-3
1537907849930175,1,7,19,10,3,1,-1,0
1537907849952117,-1,-2,3,0,3,2,0,-2
1537907849952117,-2,-3,-10,4,1,0,-1,-1
1537907849953114,0,0,-4,6,-3,-3,-2,0
1537907849953114,-1,-24,-3,-16,5,3,0,-2
1537907849975055,2,52,20,-10,-23,-7,-2,-3
1537907849975055,-1,-19,-3,1,-1,-1,0,0
1537907849976053,-4,-4,7,-4,-11,-3,0,-2
1537907849976053,0,1,-4,7,7,0,0,2
1537907849989018,-1,-8,-8,0,5,1,0,-1
1537907849989018,0,9,-12,-1,1,2,0,-2
1537907849996996,-4,-1,10,-4,-2,-2,1,-2
1537907849996996,0,8,73,12,-2,-3,-2,-2
1537907850011957,0,-16,-98,-20,-4,-1,1,1
1537907850011957,2,6,34,-1,2,0,0,0
1537907850012954,-2,-9,-23,-1,-3,1,-1,0
1537907850012954,-1,8,41,8,-3,0,0,-1
1537907850034895,-2,-7,20,1,4,-1,-3,-2
1537907850034895,-1,-4,-23,2,-2,-1,0,-2
1537907850035893,2,0,2,-6,-4,-1,-3,0
1537907850035893,0,4,-8,6,9,2,0,0
1537907850048858,-2,-10,5,-8,-14,-6,-3,-1
1537907850048858,-2,0,-19,-14,-4,0,1,0
1537907850056837,1,0,14,-9,13,5,2,-1
1537907850056837,-1,1,-24,-9,-12,-7,-3,-2
1537907850071796,-1,-8,-1,3,3,0,0,-3
1537907850071796,1,20,10,8,-1,0,-2,-1
1537907850072794,-1,-14,-8,-5,-1,-2,-2,-2
1537907850072794,-1,-9,-14,1,5,1,0,0
1537907850094735,-1,-6,14,1,0,0,0,0
1537907850094735,-1,-3,-1,-6,1,0,0,-1
1537907850095733,0,13,-1,-2,-4,-3,-1,-1
1537907850095733,1,0,-3,6,1,-1,1,-2
1537907850108698,-2,-4,0,3,-3,-3,-2,-2
1537907850108698,0,1,-2,6,3,1,0,-1
1537907850116676,-1,1,-7,2,-4,-3,-2,-1
1537907850116676,-1,2,-2,-5,-3,-2,-1,1
1537907850132634,0,0,11,-5,11,4,0,1
1537907850132634,-1,-2,13,14,-6,-5,0,-2
1537907850133631,-2,-16,-27,-5,-14,-6,-2,-3
1537907850133631,-1,13,1,0,-1,-1,-1,-1
1537907850155573,-1,-8,5,-2,2,-1,0,0
1537907850155573,-1,-3,-8,2,5,2,-1,-1
1537907850155573,0,1,17,11,5,2,-1,-1
1537907850155573,-1,-1,-2,2,2,1,-1,1
1537907850168538,-3,2,-4,-8,0,2,0,-2
1537907850168538,1,-10,-2,11,-6,-3,-2,0
1537907850176517,2,24,8,-1,0,-1,-1,1
1537907850176517,-1,-5,-10,-7,-2,-1,-1,-1
1537907850191477,-1,-11,6,1,7,3,1,-2
1537907850191477,0,0,-5,-1,-5,-3,-1,-1
1537907850192474,-3,-3,17,-5,-1,0,-1,-1
1537907850192474,2,-6,-44,1,0,0,-2,1
1537907850215413,-3,-5,14,14,-5,-2,-1,-1
1537907850215413,-2,1,-4,-22,-2,-1,-2,-2
1537907850215413,-1,-6,-21,-2,-2,-2,-1,0
1537907850215413,0,6,13,25,9,3,0,-1
1537907850228378,-1,-7,0,-21,-8,-2,0,-3
1537907850228378,-2,-6,4,-3,-1,-1,-2,-2
1537907850237354,-1,3,7,2,-3,-2,1,-1
1537907850237354,0,-3,-4,-9,3,2,1,0
1537907850252314,1,4,-3,17,3,-1,-1,-2
1537907850252314,1,3,2,-1,2,-1,0,0
1537907850252314,0,-6,-6,-8,-1,1,0,-2
1537907850252314,0,-1,3,2,3,-1,0,0
1537907850275253,2,9,3,0,-9,-2,-2,0
1537907850275253,-2,1,2,-9,-1,-1,-1,0
1537907850276250,-1,-8,0,6,2,0,-1,-1
1537907850276250,0,1,-1,-7,-4,-2,-1,1
1537907850289215,2,5,3,-8,2,0,-1,1
1537907850289215,-2,0,-1,8,-1,2,-1,-1
1537907850297194,0,-2,-8,-10,-3,0,-1,0
1537907850297194,-1,2,5,-12,-7,-1,-2,-2
1537907850313151,0,1,3,9,6,0,0,-1
1537907850313151,0,-4,-4,1,1,-2,-1,1
1537907850313151,0,8,3,6,2,1,1,-1
1537907850313151,-2,-1,17,-8,-8,-3,-3,-2
1537907850335093,-2,7,-19,4,2,1,0,0
1537907850335093,2,-8,-10,-21,11,5,2,2
1537907850336091,-3,-6,1,7,-15,-7,-3,-2
1537907850336091,0,-1,-3,2,-3,-1,0,-1
1537907850349056,2,-7,-1,7,3,1,0,1
1537907850349056,0,0,-5,0,1,-2,1,-1
1537907850357035,-2,2,-2,-6,2,0,0,0
1537907850357035,-3,-10,1,-2,2,0,-1,-3
1537907850371994,-11,0,1,-3,-3,-1,-1,-6
1537907850371994,5,2,-2,3,-5,1,4,5
1537907850372992,12,-13,-3,-5,-1,4,-10,15
1537907850372992,-1,6,-3,2,-2,-7,5,-23
1537907850394933,-8,-2,2,0,0,-13,-19,-5
1537907850394933,-16,-4,2,0,7,61,22,7
1537907850395930,12,18,19,25,18,39,64,-16
1537907850395930,2,-7,-4,-8,-12,-57,-47,80
1537907850418869,-30,-13,0,-7,-3,-4,68,-34
1537907850418869,52,4,-18,-13,-32,-93,-80,-106
1537907850420864,-23,-3,-4,-3,12,78,37,68
1537907850420864,28,23,22,21,18,-14,70,32
1537907850430837,-8,-23,-4,-7,-18,-44,-84,-85
1537907850430837,-44,7,-4,-1,8,91,31,56
1537907850439813,-11,11,-7,-12,-27,-128,38,50
1537907850439813,83,12,-3,-9,-7,9,-52,-116
1537907850454773,-6,-9,2,9,24,86,14,101
1537907850454773,-7,11,3,5,1,-23,28,45
1537907850456768,12,-8,-7,10,2,-22,-59,15
1537907850456768,-23,9,1,-35,-12,-31,35,-37
1537907850476714,-7,-10,-12,-2,-3,26,-14,-41
1537907850476714,3,10,7,3,8,51,-7,-9
1537907850485691,45,2,2,14,13,28,40,42
1537907850485691,-34,-17,-2,-16,-18,-18,-16,40
1537907850491674,12,8,-3,13,2,-13,-35,-1
1537907850491674,-16,-9,4,-11,2,-16,28,36
1537907850500650,-25,-7,-4,-10,-12,-47,-46,-81
1537907850500650,-24,-5,-6,9,9,43,-10,-17
1537907850515610,18,11,4,-9,-3,6,25,22
1537907850515610,-6,-10,2,20,-7,-41,-7,-1
1537907850516608,-9,2,-3,-13,-2,-4,-29,-41
1537907850516608,-5,-5,-7,10,1,22,-1,18
1537907850537551,2,4,-4,38,15,-15,26,27
1537907850537551,15,-1,6,-48,-12,-15,-3,-6
1537907850539546,-14,-9,1,22,-3,16,-27,-27
1537907850539546,-7,-5,-5,-49,-6,7,14,9
1537907850551514,9,-2,7,23,0,-20,4,8
1537907850551514,1,-11,-39,91,30,9,-2,-16
1537907850560491,-4,6,37,-99,-50,-4,-6,-12
1537907850560491,-10,-8,2,39,1,2,0,9
1537907850575450,13,10,0,2,-4,0,8,5
1537907850575450,-4,-6,0,54,19,-1,-5,-3
1537907850576448,1,-4,-10,102,37,18,13,7
1537907850576448,-5,1,-10,-36,-41,-8,-7,-6
1537907850597393,-4,3,15,-2,-7,0,-4,-3
1537907850597393,-2,3,9,-36,-10,-10,2,-2
1537907850599386,-1,-5,-2,70,19,5,-3,-1
1537907850599386,-3,-3,-19,-26,16,13,1,1
1537907850611354,1,-3,-9,75,0,-4,5,4
1537907850611354,-1,4,8,-66,-32,-17,-6,-6
1537907850620330,-3,1,0,1,-2,6,-4,-9
1537907850620330,-5,-3,15,-5,12,8,1,4
1537907850635290,3,-7,-12,18,18,2,6,5
1537907850635290,3,18,16,29,15,1,2,-2
1537907850636288,4,14,-2,-10,1,2,-7,-5
1537907850636288,-8,-18,11,-32,-15,-3,1,0
1537907850657232,-2,6,-13,-30,-9,-11,-4,-2
1537907850657232,-2,-4,18,29,3,3,-3,-4
1537907850659226,0,0,-19,-34,-2,2,0,-2
1537907850659226,-9,-2,-2,36,9,3,2,2
1537907850671194,14,8,16,31,7,3,2,1
1537907850671194,-1,14,-20,-45,-23,-7,-4,-4
1537907850680170,-8,-12,-1,-12,0,-1,0,-4
1537907850680170,2,1,-9,27,11,4,1,4
1537907850695131,-3,-3,1,-8,-8,-2,-2,-1
1537907850695131,2,-9,1,16,8,0,1,-1
1537907850696128,-1,-5,2,-4,-1,-2,-1,0
1537907850696128,1,-1,-5,9,-2,2,-1,0
1537907850718069,-2,17,2,-21,-2,-1,0,-1
1537907850718069,-2,-10,1,0,-3,-3,-1,-1
1537907850719067,-1,-4,-3,-26,-6,-1,-2,-3
1537907850719067,0,2,-2,29,10,4,1,0
1537907850731034,1,-5,-3,-5,1,0,2,3
1537907850731034,1,-5,4,-48,-16,-7,-2,0
1537907850740011,-4,-1,-2,5,-2,-1,-2,-3
1537907850740011,0,1,0,20,4,2,1,-2
1537907850754970,-2,-2,2,-19,-7,-5,-1,0
1537907850754970,0,-5,-8,15,6,2,0,-2
1537907850760954,1,-1,1,5,4,3,0,-1
1537907850760954,2,1,-2,-10,-9,-2,0,-2
1537907850777909,-3,1,-1,-16,-2,-1,-1,-1
1537907850777909,0,1,4,45,5,-1,0,-1
1537907850778907,-2,-2,-8,-52,-5,2,0,-1
1537907850778907,0,-3,-2,8,-4,-2,-3,-1
1537907850790875,0,-1,-3,-20,-3,-1,-1,-1
1537907850790875,0,3,-2,9,-2,-2,-2,-1
1537907850799850,0,-3,0,18,4,-1,-1,-2
1537907850799850,0,11,3,11,3,0,0,2
1537907850814810,-5,-28,-3,-16,-2,-2,-1,-2
1537907850814810,0,-4,1,11,4,-1,2,-1
1537907850816805,2,2,2,8,-3,0,-2,0
1537907850816805,-3,-2,-13,-19,-3,1,-1,0
1537907850837749,2,7,5,5,-4,-2,-2,0
1537907850837749,-2,-6,-5,-10,0,-1,-2,-3
1537907850838747,1,-2,1,1,0,0,-2,0
1537907850838747,-1,-3,-5,8,8,1,1,-1
1537907850851712,-1,10,3,-9,-10,-3,-1,-2
1537907850851712,-3,-5,1,0,-7,-3,-2,-2
1537907850860688,-3,3,-4,-8,4,0,-1,0
1537907850860688,2,0,2,2,-5,-2,-2,1
1537907850882629,-2,3,-3,-9,1,0,-1,-1
1537907850882629,0,-6,-4,-11,1,2,1,2
1537907850883627,0,2,-1,19,3,0,1,1
1537907850883627,1,9,11,23,5,2,0,-1
1537907850897589,-3,-13,-4,-17,-11,-3,-1,-1
1537907850897589,-1,2,-2,2,2,0,1,-2
1537907850898587,-2,-2,3,6,0,-2,0,-2
1537907850898587,-1,0,-4,-3,-2,-1,-2,0
1537907850911552,3,3,1,-15,4,1,1,1
1537907850911552,0,8,1,6,-1,-1,-2,0
1537907850920528,-2,-11,0,-2,-2,0,0,-1
1537907850920528,0,3,-2,-13,-2,0,-2,-1
1537907850935488,-4,-2,0,3,1,-1,-1,-1
1537907850935488,0,-9,-10,-27,0,1,0,0
1537907850937483,1,1,4,25,-2,-5,-1,1
1537907850937483,-2,-3,-1,-31,-11,-5,-4,-1
1537907850957429,-1,-1,-4,21,3,-1,0,1
1537907850957429,-2,-2,-4,-4,-6,-3,-1,-2
1537907850959424,0,-1,-2,7,-1,0,0,0
1537907850959424,-2,0,-1,12,5,3,1,0
1537907850971392,0,6,1,-10,-10,-2,-1,-3
1537907850971392,-2,-12,3,16,1,-2,0,0
1537907850980368,-2,-2,-4,-13,-4,-2,-2,-1
1537907850980368,0,3,4,23,7,3,0,-1
1537907850995328,-1,5,-6,-25,-1,-1,-1,0
1537907850995328,-2,-8,-2,-4,-2,1,-1,0
1537907850996325,0,-4,0,-6,0,0,-2,-2
1537907850996325,0,4,-2,-7,-4,-4,0,1
1537907851017269,-1,-2,3,11,1,-1,0,-2
1537907851017269,-2,-4,-1,-1,0,0,0,0
1537907851019264,-1,-2,-5,-12,-6,-1,-2,-1
1537907851019264,3,-4,1,11,4,0,1,-1
1537907851031232,-6,-2,-1,0,-2,-2,0,-3
1537907851031232,-1,4,0,2,3,1,-1,-1
1537907851040208,1,-1,-2,-5,-1,-1,0,-1
1537907851040208,-4,-4,-1,4,0,7,0,5
1537907851055168,-4,-2,-3,-1,1,31,28,-33
1537907851055168,27,7,1,-3,-4,-26,-17,66
1537907851056165,9,8,1,-1,1,16,0,3
1537907851056165,-14,-14,0,-5,-18,-71,-19,43
1537907851078107,-46,-8,-2,-3,4,98,-11,-86
1537907851078107,46,19,10,7,8,-54,6,-7
1537907851079104,-47,-18,-11,-6,-10,-46,-6,31
1537907851079104,16,2,1,1,-1,18,-12,61
1537907851091072,8,12,1,-1,18,49,0,-35
1537907851091072,-20,-10,-9,-8,-36,-70,-36,-97
1537907851100048,28,16,2,0,8,90,33,30
1537907851100048,-2,6,2,5,12,21,1,20
1537907851115008,27,-7,-8,-3,-3,-3,18,76
1537907851115008,-5,2,2,2,17,64,63,59
1537907851117003,32,4,3,3,2,-31,-11,-26
1537907851117003,28,3,5,13,11,38,21,-13
1537907851137946,4,1,7,52,12,-21,-7,24
1537907851137946,-21,-13,-15,-53,-18,-8,-26,-32
1537907851139941,-17,-10,5,-18,-23,-22,1,-11
1537907851139941,7,0,-1,-31,4,21,4,-12
1537907851150912,-8,-4,-11,47,17,-51,-16,11
1537907851150912,-5,0,4,-24,-14,4,7,-7
1537907851159888,-6,-3,0,11,2,14,-7,-1
1537907851159888,-7,3,3,-26,-11,-10,4,-27
1537907851174848,3,1,2,-24,-10,-39,-10,4
1537907851174848,-13,-3,-9,49,24,29,-3,6
1537907851176843,5,2,-1,12,8,8,1,-2
1537907851176843,-12,-6,3,23,1,-17,-10,-29
1537907851197787,3,-2,-3,2,-7,-18,1,15
1537907851197787,1,0,0,20,7,28,0,14
1537907851198785,-5,-2,5,-28,-3,-13,-8,-8
1537907851198785,-6,-4,-5,33,0,-8,4,-15
1537907851211749,-2,-4,-6,-42,-14,-4,-4,11
1537907851211749,-3,0,-10,39,16,13,6,3
1537907851219729,-3,4,26,0,-15,-13,-6,-10
1537907851219729,-8,-9,-10,1,-6,2,-2,-8
1537907851234688,8,5,3,-26,2,-6,0,7
1537907851234688,-4,-2,17,-86,-23,-6,-11,-7
1537907851241670,-2,22,-14,51,16,0,2,2
1537907851241670,3,-18,3,-30,-10,4,1,2
1537907851257627,-6,-7,-2,125,19,-7,-2,4
1537907851257627,-3,0,-10,-72,-18,-1,3,-1
1537907851258625,-1,6,0,-9,-1,4,-1,-1
1537907851258625,-6,2,-6,-11,-1,-2,0,-6
1537907851271589,0,1,0,-19,-1,-8,-2,-1
1537907851271589,-5,-6,-4,22,8,8,0,2
1537907851280566,0,-2,-7,-21,-6,0,0,-2
1537907851280566,-4,4,-6,4,5,-3,-3,-6
1537907851294528,0,-8,3,-14,-11,-6,0,2
1537907851294528,-2,4,3,16,0,6,-1,0
1537907851301510,-2,-15,-7,19,2,-3,-1,-1
1537907851301510,1,11,8,-29,-7,-2,1,-4
1537907851318465,-1,-10,-5,-23,-7,-2,-2,4
1537907851318465,-2,0,7,36,10,5,1,0
1537907851319464,2,-1,-1,12,6,-3,-2,-2
1537907851319464,-4,2,-3,-5,-15,-4,-1,-4
1537907851331431,3,2,6,-25,-12,-3,-3,2
1537907851331431,0,-1,-4,4,5,0,-1,1
1537907851340408,-2,-8,-10,-3,4,-2,-2,0
1537907851340408,-1,1,4,17,5,3,-1,-2
1537907851354370,0,5,-1,-24,-9,-6,-3,-1
1537907851354370,-2,0,3,12,2,0,0,-2
1537907851361351,-2,-5,-4,-9,1,2,-1,-1
1537907851361351,0,-4,2,14,1,0,0,-2
1537907851377309,0,3,-4,-34,-7,-4,-2,0
1537907851377309,-3,-1,-3,20,9,5,0,-1
1537907851379304,2,4,1,-29,-8,-2,-2,0
1537907851379304,-5,-15,-3,28,5,0,-2,-4
1537907851391271,1,2,-2,-27,-4,-1,-1,1
1537907851391271,2,1,0,14,-3,-1,-2,1
1537907851400248,-5,-2,-8,-26,0,1,0,-2
1537907851400248,0,1,2,10,2,0,2,-1
1537907851414209,-1,2,4,14,1,1,0,-1
1537907851414209,-1,2,-2,-19,1,-1,0,-3
1537907851421190,0,4,-4,14,2,0,-1,0
1537907851421190,-1,-8,13,20,-1,-1,-1,-1
1537907851437147,-1,-2,-1,-16,-2,-1,1,0
1537907851437147,0,-8,-7,-18,-1,2,0,1
1537907851439142,-3,3,1,16,-2,-4,-3,-3
1537907851439142,-1,2,-3,1,0,0,-1,-1
1537907851460086,1,4,-3,-4,-4,0,0,0
1537907851460086,-1,-3,3,2,-3,-2,-1,0
1537907851461084,0,-8,-3,3,3,0,1,1
1537907851461084,0,3,-3,-15,1,-2,1,0
1537907851474048,0,-3,2,31,4,-2,-2,-1
1537907851474048,-2,2,-7,-30,-8,-3,-1,-2
1537907851481030,-2,-9,-1,-5,-6,-1,-1,-2
1537907851481030,0,13,-6,-9,5,0,0,-2
1537907851497985,-4,-10,5,13,-2,-2,0,-1
1537907851497985,0,1,-2,17,2,-2,-2,-1
1537907851498982,0,-1,5,2,-4,-2,-1,-1
1537907851498982,0,-5,-11,-15,0,0,0,1
1537907851519926,-1,7,10,6,1,-1,1,-1
1537907851519926,-1,-1,0,-4,-6,-2,-1,1
1537907851521921,-2,-6,-1,18,6,1,0,-2
1537907851521921,-4,-1,-7,-36,-9,-4,-2,0
1537907851534886,0,-1,-1,1,-1,-1,-1,0
1537907851534886,-4,-1,-1,-6,-2,-1,-1,0
1537907851540870,3,5,-2,1,-1,-1,1,1
1537907851540870,-1,-4,-2,2,-5,-3,-2,-1
1537907851557824,0,5,-2,0,2,0,0,0
1537907851557824,1,-1,2,2,0,2,-1,0
1537907851558821,-5,0,-1,2,-2,-2,0,-1
1537907851558821,-1,2,2,13,3,2,-1,-1
1537907851579765,-2,-8,-3,-10,-1,-1,-2,-1
1537907851579765,0,0,-2,6,-4,-3,-2,-2
1537907851581760,-1,-1,0,-9,-1,0,0,-1
1537907851581760,-3,-6,-1,-2,1,-2,-1,-2
1537907851594725,1,-1,-5,-7,-3,-1,0,0
1537907851594725,1,2,2,8,5,0,-3,-3
1537907851601707,2,-4,-3,-8,-1,11,12,7
1537907851601707,17,7,2,3,5,25,16,28
1537907851617664,-16,2,1,4,6,9,-10,-3
1537907851617664,-10,-7,-4,2,-9,-35,32,2
1537907851618662,-9,-7,-4,-10,-5,15,-28,43
1537907851618662,-20,2,5,6,5,-5,28,-40
1537907851640603,30,7,-7,-14,-9,69,-97,-106
1537907851640603,29,20,18,24,12,-85,52,42
1537907851641600,-56,-19,-20,-27,-21,78,-1,-57
1537907851641600,34,10,4,6,14,-26,-32,80
1537907851653568,-6,4,-6,-8,-9,-32,64,-33
1537907851653568,3,5,-3,-7,0,85,-61,-112
1537907851662545,9,9,5,6,0,-75,-7,68
1537907851662545,-10,5,4,12,9,41,69,-10
1537907851677505,-5,-6,10,13,16,15,26,56
1537907851677505,-4,-12,-8,-5,-24,-55,24,-15
1537907851679500,-18,-5,5,2,5,19,3,-32
1537907851679500,-9,-11,-8,-9,-9,17,-20,-39
1537907851700443,16,-2,-2,-3,-2,-12,1,31
1537907851700443,-8,-4,8,9,10,59,5,-1
1537907851701441,22,3,0,3,-2,-16,-1,20
1537907851701441,0,-2,1,-1,-7,-25,-13,-16
1537907851713410,-4,-8,-4,-4,0,-5,5,3
1537907851713410,-21,-7,-3,4,2,6,-31,32
1537907851722387,14,6,-1,-21,-1,-11,13,-24
1537907851722387,11,-7,-3,1,-4,-13,-25,0
1537907851737347,-37,-4,0,-1,-4,-7,1,-5
1537907851737347,8,0,-2,4,1,10,3,11
1537907851739341,13,1,3,4,2,-15,-3,-5
1537907851739341,-14,-4,-7,-5,-4,7,0,-17
1537907851760284,2,-3,0,-3,-5,-12,-3,18
1537907851760284,2,-1,-3,-5,2,-1,-1,11
1537907851761281,1,1,0,11,3,1,3,-14
1537907851761281,5,-4,-4,23,2,-4,-14,7
1537907851774246,6,1,9,-24,-11,-7,6,-1
1537907851774246,1,3,3,-32,-6,0,-9,8
1537907851782225,-8,-3,-2,1,1,0,0,-7
1537907851782225,-3,-3,6,57,10,2,-1,-1
1537907851797185,7,1,-11,-13,-2,-6,0,7
1537907851797185,-6,-3,-6,-56,-8,6,-2,-4
1537907851805164,2,-3,4,-2,-10,-6,-3,-1
1537907851805164,-5,-1,-4,-1,-5,-5,-5,-4
1537907851820125,0,-1,4,39,12,2,2,-1
1537907851820125,0,-3,6,49,14,6,-3,11
1537907851822120,5,4,-9,-64,-14,-2,3,-4
1537907851822120,1,0,-8,0,-2,-2,-5,1
1537907851835083,-5,2,9,-7,-2,-2,-1,1
1537907851835083,-1,-1,-9,61,15,6,0,2
1537907851843063,5,1,13,-15,-1,-3,0,-1
1537907851843063,-5,-1,-4,3,-1,2,0,-4
1537907851858022,-2,-3,4,-18,0,-4,-3,4
1537907851858022,-3,-3,0,-11,-8,-3,-3,0
1537907851859020,3,-8,-4,14,13,7,1,-2
1537907851859020,-4,3,-1,-61,-20,-6,-4,1
1537907851879963,-3,-4,-13,-9,-2,-5,-2,-1
1537907851879963,2,-8,1,3,1,3,-1,-1
1537907851881958,-3,3,0,19,6,-3,-3,-4
1537907851881958,1,-6,1,-12,-1,-1,-1,-1
1537907851893926,1,5,-3,26,6,1,1,1
1537907851893926,0,3,4,-20,-10,0,-3,-2
1537907851902904,1,-5,-1,24,8,0,0,1
1537907851902904,3,7,2,-5,-4,-3,-1,-2
1537907851917864,-2,-13,2,14,-2,-2,-2,0
1537907851917864,-3,14,-11,-1,2,0,-1,2
1537907851918861,3,1,3,-20,-8,-2,-1,-1
1537907851918861,-4,-2,1,-5,-1,-3,-2,-2
1537907851939805,2,1,-8,-15,-4,-2,-1,2
1537907851939805,-3,-7,5,16,2,1,0,1
1537907851941801,0,3,-2,27,7,0,0,-1
1537907851941801,-3,-3,-2,-15,0,1,-2,-1
1537907851953768,1,-2,2,9,0,-2,-1,-1
1537907851953768,0,-4,-1,-2,0,-2,0,0
1537907851962745,0,2,0,9,0,1,-1,-2
1537907851962745,-4,-3,-5,-18,-3,1,-1,-2
1537907851977703,-1,2,2,16,1,-2,0,1
1537907851977703,-2,0,-6,-39,-8,-2,-2,-1
1537907851978701,1,-2,-3,-2,-3,-3,0,-1
1537907851978701,0,-1,3,11,2,-1,0,0
1537907851999643,-1,1,-4,1,3,-1,-1,-2
1537907851999643,-2,-1,2,-7,-4,0,-2,-1
1537907852001638,0,-2,-5,10,1,0,1,1
1537907852001638,-1,-1,2,0,-4,-2,-1,0
1537907852013607,0,-3,-8,-5,-3,-1,1,-2
1537907852013607,-1,-3,4,4,1,2,-1,-2
1537907852022582,0,2,1,5,-4,-3,-2,0
1537907852022582,1,3,-5,0,5,3,2,-2
1537907852036545,-1,-8,0,-13,-8,-2,0,0
1537907852036545,-1,0,-1,-9,-1,-1,-2,-2
1537907852043526,1,1,3,27,4,-1,0,0
1537907852043526,-2,-2,-4,-20,-3,0,0,0
1537907852060480,-1,1,-4,-11,-3,-1,-1,1
1537907852060480,3,-1,-1,6,-2,-3,-1,1
1537907852061478,-2,-3,1,3,2,2,-1,-3
1537907852061478,-3,-1,-1,-2,0,-1,-3,-2
1537907852073446,0,2,0,1,2,1,-1,-2
1537907852073446,-1,-5,-1,4,1,0,-2,1
1537907852082422,-4,-1,-3,-4,-2,-2,0,-2
1537907852082422,-5,-4,-1,5,-3,-2,-1,-2
1537907852097382,6,4,-1,-5,-5,-1,-2,0
1537907852097382,-6,-2,1,7,0,1,3,-5
1537907852099376,18,3,-4,-10,3,23,10,15
1537907852099376,7,2,5,7,-1,-31,2,13
1537907852121318,-29,-10,-8,-6,1,32,-37,-27
1537907852121318,-13,6,10,17,16,31,76,88
1537907852123313,16,3,-8,-18,-26,-46,-35,-93
1537907852123313,-3,-6,0,3,-1,4,-1,48
1537907852134284,-23,0,3,5,6,49,-12,-14
1537907852134284,-8,-4,3,0,-10,-82,-31,23
1537907852142263,-44,-11,-12,-18,-19,-74,3,-66
1537907852142263,54,8,2,4,-1,-13,54,75
1537907852157223,-27,-8,-4,1,8,101,-53,-93
1537907852157223,9,-3,-8,-13,-13,-38,-29,84
1537907852164204,-40,5,11,7,9,45,-3,79
1537907852164204,-21,-5,-3,-1,-2,51,-24,-120
1537907852180162,27,2,-3,-2,-3,-32,48,43
1537907852180162,-2,-1,-5,1,8,49,11,-44
1537907852181160,9,-2,2,0,2,-3,8,33
1537907852181160,1,2,1,2,8,24,13,20
1537907852203100,0,-1,4,21,10,-5,21,21
1537907852203100,-1,-3,-2,-25,-13,-22,-21,-59
1537907852204099,9,-3,-3,-13,-5,7,4,9
1537907852204099,-11,-5,-4,18,10,12,2,-12
1537907852217062,12,3,-1,-42,-22,-57,-3,4
1537907852217062,-4,-3,6,57,9,-2,-22,-21
1537907852224043,9,-5,-7,15,15,24,10,13
1537907852224043,-4,5,9,-33,-26,-17,-17,-9
1537907852240001,3,-2,-12,27,1,-37,-2,16
1537907852240001,8,2,-6,-29,-5,28,9,-13
1537907852241996,0,-2,6,23,12,21,0,-2
1537907852241996,-5,-3,-5,27,11,-18,-10,-10
1537907852253963,3,2,9,27,0,-14,9,9
1537907852253963,-1,-4,-11,-1,4,20,6,-19
1537907852262940,7,0,1,27,8,-3,-3,-1
1537907852262940,-8,-2,-4,-63,-18,-14,-12,0
1537907852276902,7,3,2,-17,-6,-5,8,13
1537907852276902,2,-2,0,32,6,6,-4,-12
1537907852283883,2,0,-4,-47,-4,-5,-4,2
1537907852283883,-2,0,-4,-14,-7,1,0,2
1537907852299841,-5,-1,17,-3,-4,-3,3,0
1537907852299841,1,1,-2,-3,-5,-4,-5,-12
1537907852301835,1,1,-7,-44,-4,1,1,4
1537907852301835,1,-3,4,58,16,8,2,-1
1537907852322780,5,2,-5,-14,-2,-10,1,3
1537907852322780,6,0,-4,16,-4,-1,-3,-3
1537907852323777,-4,-1,4,-59,-15,1,-1,-1
1537907852323777,-6,-3,-12,-6,3,0,-3,-2
1537907852336743,2,1,10,26,4,-6,2,5
1537907852336743,1,0,6,21,3,2,0,-3
1537907852343724,1,0,-12,46,4,8,2,1
1537907852343724,-3,1,7,-16,-8,-8,-4,-4
1537907852360680,0,-2,-4,8,1,-2,0,1
1537907852360680,-1,-2,-13,-50,-6,6,1,-4
1537907852361677,1,-1,7,41,3,-5,-1,-2
1537907852361677,-3,-2,-6,5,1,-3,-5,-1
1537907852382621,2,-1,-8,-6,-5,-2,2,2
1537907852382621,-4,-2,3,-30,0,0,-2,-8
1537907852384616,1,0,9,17,-1,1,-1,2
1537907852384616,-1,-2,-3,5,3,2,1,1
1537907852396585,2,-1,-3,-12,-3,-2,1,1
1537907852396585,0,-2,1,8,-1,-3,-2,-4
1537907852403567,-3,-2,-1,-8,0,0,-2,0
1537907852403567,-2,-2,0,4,1,0,-1,-2
1537907852427500,-2,-2,-1,-1,2,-2,-2,-2
1537907852427500,0,0,-2,-9,-2,-1,-1,-1
1537907852429495,-1,-2,-1,-3,-1,1,-1,2
1537907852429495,-3,-1,-1,0,-1,0,-2,-4
1537907852442460,0,3,1,-1,-3,-5,-2,2
1537907852442460,-2,0,1,-5,-2,1,1,-2
1537907852444454,1,-1,-5,4,1,1,-2,-2
1537907852444454,-2,-1,9,15,4,1,0,-2
1537907852457419,0,-2,-11,-40,-5,-4,0,-1
1537907852457419,-1,1,5,8,2,1,0,-1
1537907852463403,0,1,4,-1,-8,-3,1,0
1537907852463403,-1,-1,-5,3,2,0,-2,-1
1537907852480359,-2,0,5,26,7,0,0,0
1537907852480359,1,-1,-4,-31,-6,-3,-2,-2
1537907852481356,-2,1,-3,-2,4,1,0,-3
1537907852481356,1,0,0,0,-2,-1,1,0
1537907852502300,-3,1,2,1,-2,-4,0,-2
1537907852502300,-2,-3,-4,10,-1,-1,-2,0
1537907852504294,3,-1,3,1,-2,0,-1,0
1537907852504294,0,-1,-3,-8,-3,-1,-2,-1
1537907852516262,-1,-2,0,8,3,1,1,-1
1537907852516262,2,2,-2,-5,0,-1,-1,-1
1537907852525238,-7,-3,1,2,-1,-2,0,-2
1537907852525238,4,1,-1,-6,-4,-2,-1,1
1537907852540198,-2,-2,-2,0,0,-1,-1,-2
1537907852540198,-3,-1,-2,-1,0,1,1,1
1537907852541195,5,-1,1,-2,-1,-1,0,1
1537907852541195,-9,-5,-3,6,2,-1,-2,-6
1537907852562140,-4,1,0,-5,-3,-1,-2,0
1537907852562140,1,0,-3,0,0,3,1,-2
1537907852564135,8,3,-1,-1,4,11,12,3
1537907852564135,-21,-5,2,5,9,21,19,45
1537907852576103,18,-4,-3,-6,1,14,-20,12
1537907852576103,-30,-5,-3,-3,-5,-10,27,-97
1537907852585079,22,10,4,3,1,-13,-30,67
1537907852585079,-11,1,-2,0,5,37,32,-19
1537907852600039,-22,5,1,2,9,25,1,-37
1537907852600039,34,-1,3,11,13,2,-15,-30
1537907852602034,-58,-11,2,-1,-16,-40,12,14
1537907852602034,68,6,-4,-6,-4,-11,-57,-29
1537907852622977,-30,1,-3,-7,-7,-13,-31,-45
1537907852622977,44,10,-3,-6,-9,4,9,68
1537907852623975,-6,-5,-4,-6,7,38,14,-34
1537907852623975,-3,-2,1,1,1,3,25,15
1537907852635942,-3,-6,-1,-3,-3,11,11,35
1537907852635942,-5,-5,3,18,9,26,-10,24
1537907852644918,1,-5,-5,7,-6,-10,-7,-22
1537907852644918,-15,-5,3,3,-9,-18,9,13
1537907852659878,25,-3,-9,34,0,-9,0,-4
1537907852659878,-27,-2,8,-52,-9,-16,-5,1
1537907852661873,9,1,-8,-13,-1,-2,7,-1
1537907852661873,-3,2,22,39,7,-6,-11,-18
1537907852682817,-7,-3,-5,-42,-10,-4,7,6
1537907852682817,-2,-6,-23,112,29,-4,-2,10
1537907852683814,1,4,6,-12,-8,-1,-4,-1
1537907852683814,-4,-4,6,-50,-22,-9,-16,-4
1537907852695782,5,-2,-6,21,11,-9,5,4
1537907852695782,-7,-3,5,-13,-11,-3,2,14
1537907852704758,7,-5,-11,6,16,10,-5,-15
1537907852704758,-10,-1,-11,45,11,-4,1,-3
1537907852719719,4,1,15,6,-2,-7,12,11
1537907852719719,-4,-2,-12,-8,4,2,-6,-3
1537907852726700,-1,0,-9,-48,-20,1,-2,-7
1537907852726700,2,1,1,3,1,-7,-2,1
1537907852742658,0,-1,2,-26,-10,-9,1,7
1537907852742658,-2,2,14,18,2,6,-3,5
1537907852743656,4,-3,-4,-7,1,-4,-4,-3
1537907852743656,-7,-2,-14,-16,-10,-5,-1,-1
1537907852765597,0,-4,2,-7,-3,0,1,-1
1537907852765597,0,0,8,-5,-11,-7,-4,-1
1537907852766596,-3,1,4,19,7,4,1,-4
1537907852766596,-3,0,-9,-7,-1,-4,-3,-5
1537907852778562,1,2,-6,7,4,4,1,1
1537907852778562,-2,-1,-2,-28,-8,-3,-1,0
1537907852787538,1,0,8,25,7,3,0,1
1537907852787538,1,-1,-5,2,4,4,-2,1
1537907852802497,2,1,10,48,8,-3,1,0
1537907852802497,-5,-1,-12,-65,-27,-5,1,1
1537907852804492,4,-1,-2,4,1,-1,-2,-3
1537907852804492,-3,-1,-5,2,5,0,0,-2
1537907852816460,1,0,6,-18,-10,-6,1,2
1537907852816460,-2,2,0,14,6,1,-1,-1
1537907852825436,0,2,1,6,-2,0,1,-1
1537907852825436,-1,1,5,12,-1,-2,-1,3
1537907852840395,0,-2,-14,-1,4,0,0,1
1537907852840395,0,0,8,-12,-5,1,-1,1
1537907852841393,-2,0,0,0,-3,-2,-1,-2
1537907852841393,-3,-2,-3,-6,0,-2,0,-1
1537907852862337,0,1,0,-27,-5,-3,-3,-1
1537907852862337,-3,-2,-2,5,-1,-1,-1,-1
1537907852864332,2,-3,-1,0,-1,0,0,1
1537907852864332,0,1,1,-3,-2,-2,-1,-2
1537907852876300,2,1,-5,2,-1,2,1,3
1537907852876300,-3,-1,-2,31,7,-2,0,-1
1537907852885276,-6,0,6,-34,-7,0,-2,-3
1537907852885276,0,-2,-4,18,-7,-2,-3,-2
1537907852900236,0,1,-4,-41,-1,-1,1,1
1537907852900236,0,1,-1,-22,-6,-3,-2,-1
1537907852901233,3,0,-8,7,0,-1,0,-2
1537907852901233,-2,-1,2,-18,0,-1,1,-1
1537907852922178,-1,-4,2,21,1,-1,0,-3
1537907852922178,1,-1,-1,15,5,1,0,0
1537907852924174,-2,1,3,11,0,-3,-3,-1
1537907852924174,-1,-3,-2,-15,-4,-1,-1,0
1537907852936142,0,0,1,18,-1,0,0,0
1537907852936142,-3,-1,-3,-8,3,0,0,-1
1537907852945117,1,-3,-4,12,1,0,-2,-1
1537907852945117,2,2,2,-31,-6,-1,-2,-1
1537907852960077,0,-2,-5,-2,0,-1,0,-1
1537907852960077,-3,-2,2,0,-1,-2,-2,-1
1537907852962071,-2,-3,-1,-10,-4,-3,-2,-1
1537907852962071,1,1,-7,4,4,-1,2,0
1537907852983016,-2,0,4,2,-5,-1,-1,-3
1537907852983016,-1,-3,-1,10,0,1,-1,0
1537907852984014,1,1,3,15,3,1,0,-1
1537907852984014,0,0,0,-8,2,0,-2,-1
1537907852995981,0,0,-1,9,-3,-2,-1,1
1537907852995981,-2,-2,5,2,2,0,-1,-2
1537907853004956,-1,-1,-9,-14,-4,-2,-1,-2
1537907853004956,-2,-2,-1,4,0,-1,-1,-1
1537907853018920,-1,-4,-3,-9,-2,0,0,1
1537907853018920,-3,-2,1,3,0,-1,-2,-4
1537907853027895,-2,-1,1,11,3,2,0,-2
1537907853027895,4,-1,0,-5,-2,-1,-1,2
1537907853042855,1,2,-2,-1,1,0,0,0
1537907853042855,-1,0,-4,-1,-3,-2,-2,0
1537907853043853,0,-1,0,3,1,3,0,3
1537907853043853,-2,-2,0,3,0,8,3,-2
1537907853055820,15,2,0,4,11,53,-12,-7
1537907853055820,-19,-7,-1,0,20,85,47,22
1537907853064796,25,4,6,2,-27,-85,-34,75
1537907853064796,-40,-18,-15,-14,9,116,25,-44
1537907853079756,38,-6,-1,-5,-26,-128,-26,8
1537907853079756,-23,7,-4,-4,5,70,-31,-79
1537907853081751,-8,-4,9,10,21,96,4,-64
1537907853081751,-15,-5,-9,-11,-52,-93,-48,47
1537907853102695,10,1,-6,-6,0,81,20,-11
1537907853102695,-6,4,0,-2,-1,-3,-8,24
1537907853103692,-24,-13,-9,-6,-5,-9,8,-46
1537907853103692,29,20,10,11,21,3,24,14
1537907853116657,-43,-9,-2,0,12,15,28,14
1537907853116657,21,-1,1,0,-7,-15,4,29
1537907853125633,-1,7,0,9,9,8,17,9
1537907853125633,-1,-3,2,25,8,-18,-5,13
1537907853139597,-3,0,-6,-5,-6,-21,-6,-9
1537907853139597,-5,-3,10,-32,-13,-28,-2,-23
1537907853146579,-3,-4,-15,-38,-8,-10,-7,7
1537907853146579,10,2,18,68,6,-11,3,-12
1537907853162536,-11,-5,-24,40,14,15,-6,-8
1537907853162536,9,11,44,-84,-38,-38,-9,5
1537907853164531,1,-3,-9,74,11,-1,3,6
1537907853164531,7,0,-22,-82,-13,10,-4,-1
1537907853185474,-5,7,27,-6,-1,2,2,-3
1537907853185474,4,-7,-18,64,18,-13,-3,11
1537907853186474,6,2,-12,-67,-14,-1,1,0
1537907853186474,-3,0,22,38,2,5,2,-19
1537907853198440,-8,-4,-10,-34,-8,-3,-4,2
1537907853198440,6,0,-7,2,1,-12,4,2
1537907853207416,0,1,6,14,5,10,-2,-1
1537907853207416,2,-3,-10,25,11,0,-1,-1
1537907853222377,-3,0,1,-31,-10,-1,-1,2
1537907853222377,0,-4,-6,30,4,-2,-3,1
1537907853224373,1,0,1,22,7,2,1,1
1537907853224373,2,0,3,-26,-2,-2,0,3
1537907853245313,-4,2,5,-32,-10,-5,-4,-6
1537907853245313,1,-3,-10,-6,-6,-5,-2,-4
1537907853246311,-4,-2,6,0,-2,3,-1,3
1537907853246311,6,3,-3,-1,0,-3,1,-2
1537907853259276,-3,-2,3,14,8,8,0,0
1537907853259276,0,-3,-4,17,3,-7,-3,0
1537907853267255,0,0,0,-12,-3,-2,-1,-1
1537907853267255,-3,-2,1,22,10,5,-1,-1
1537907853282214,-1,-2,-13,-52,-15,-3,-1,-2
1537907853282214,2,0,-6,-4,1,-4,-1,3
1537907853284210,4,3,13,-5,-7,-3,-1,0
1537907853284210,-2,-1,-9,10,6,2,0,-4
1537907853305153,0,0,3,28,5,1,-1,0
1537907853305153,0,0,-2,-9,-5,-4,0,-1
1537907853306151,-2,-2,-4,3,1,3,0,-1
1537907853306151,-2,-1,-1,-12,-3,-1,-2,-1
1537907853319116,-2,-1,2,13,2,-1,0,0
1537907853319116,3,1,-1,-2,-2,-4,-1,2
1537907853326098,-2,0,-1,5,4,2,2,0
1537907853326098,-1,-2,1,-15,-4,-2,-2,0
1537907853343052,0,-1,-1,2,0,0,0,-1
1537907853343052,-2,-2,-5,18,7,1,0,-3
1537907853344051,-2,-2,-1,-6,-4,-2,-2,0
1537907853344051,-2,-1,0,-22,-11,-3,-1,-3
1537907853364994,2,2,1,16,3,0,-1,-1
1537907853364994,-2,-1,-4,4,1,-3,-1,-1
1537907853366990,1,1,0,-10,-3,-3,0,1
1537907853366990,3,1,3,1,1,0,-2,1
1537907853379955,-4,-2,-3,1,0,0,0,-2
1537907853379955,-2,-4,0,4,-1,-2,-1,-1
1537907853385940,1,-1,-1,0,-1,0,0,-1
1537907853385940,0,1,2,-24,-6,-1,-2,-1
1537907853409875,4,0,-1,0,-5,-2,0,2
1537907853409875,-1,-1,0,-6,-2,-1,-1,1
1537907853411870,-1,-1,-2,3,2,0,0,0
1537907853411870,1,-3,-2,12,4,-1,-1,-2
1537907853425832,-2,-3,-1,13,-2,0,-2,0
1537907853425832,-1,0,4,-13,-3,0,-2,-2
1537907853426830,-1,0,0,4,1,0,-1,0
1537907853426830,0,-1,-4,-1,0,-1,0,-1
1537907853438797,-2,-1,5,5,2,0,-1,-1
1537907853438797,1,0,-5,5,0,-1,0,-1
1537907853447773,-1,-1,0,-6,-4,-2,-1,1
1537907853447773,-3,0,0,0,0,0,-4,-2
1537907853461736,0,1,-3,9,2,0,0,1
1537907853461736,-3,-2,-3,-2,-5,-3,-2,-2
1537907853469715,2,0,-4,-12,-3,0,-1,-1
1537907853469715,-4,-1,10,9,0,-3,-2,-2
1537907853484673,-3,2,-3,6,2,0,-1,0
1537907853484673,0,-2,1,0,-2,-1,0,2
1537907853486668,-3,-1,-3,-5,-1,0,0,-3
1537907853486668,0,-2,-5,2,3,0,0,0
1537907853499633,2,0,0,-4,-2,1,0,-1
1537907853499633,-1,1,-3,-2,-3,-2,-2,1
1537907853506614,-1,-2,3,14,4,1,-1,0
1537907853506614,2,0,-7,-17,-6,-2,-2,0
1537907853522572,-8,-1,1,-1,-2,-1,-1,-4
1537907853522572,-2,-2,-3,-5,1,2,0,0
1537907853524567,1,-2,2,5,0,-1,0,-3
1537907853524567,0,-1,0,3,2,0,-3,-4
1537907853545511,3,1,0,-1,1,-3,1,1
1537907853545511,-6,-1,-2,-1,-1,1,1,-2
1537907853546509,2,-2,0,2,4,20,37,17
1537907853546509,3,-6,-2,0,3,26,-31,2
1537907853559474,-13,-3,-6,-9,-8,-29,-32,-34
1537907853559474,10,-6,-4,4,-6,-38,10,54
1537907853566455,-41,-2,4,0,5,67,-9,-75
1537907853566455,21,-8,-2,1,15,12,11,88
1537907853582413,-1,2,-1,-4,-27,8,-17,26
1537907853582413,40,4,1,4,25,106,24,72
1537907853584408,-32,-12,-9,-10,-12,-119,-36,-23
1537907853584408,-2,2,2,0,-7,-41,31,-122
1537907853605352,-19,2,0,3,2,4,-17,11
1537907853605352,44,4,-3,-8,-9,7,19,40
1537907853606349,-27,-3,-2,-4,6,56,3,1
1537907853606349,17,4,0,2,2,-1,4,-10
1537907853627294,-7,-7,0,2,2,-36,18,21
1537907853627294,27,12,2,0,3,8,17,-14
1537907853629290,28,1,-1,1,0,1,2,14
1537907853629290,-30,-4,-2,-1,-9,-19,-9,-2
1537907853642253,-7,0,1,-2,1,13,4,-7
1537907853642253,-29,-7,2,26,5,-15,-18,-22
1537907853649234,14,1,-5,24,5,-5,-2,-4
1537907853649234,-12,0,-7,-18,-19,-17,-15,14
1537907853665191,19,-1,-1,-9,9,28,25,9
1537907853665191,-27,1,21,-35,-13,-14,-18,-57
1537907853666189,15,4,-9,13,-6,-25,-6,24
1537907853666189,-2,-2,-6,34,14,25,10,13
1537907853688129,8,-1,-7,-28,8,11,3,-8
1537907853688129,-15,-4,1,24,-12,-26,-16,-26
1537907853689127,3,3,11,-14,-4,1,-3,9
1537907853689127,1,-2,-16,-3,2,9,1,11
1537907853710071,3,2,32,44,4,3,4,-14
1537907853710071,-15,-5,-12,7,3,-14,-8,-11
1537907853711068,12,2,2,-6,2,11,8,17
1537907853711068,-3,0,-2,11,-1,6,1,-9
1537907853725031,4,0,-8,-31,-1,-9,2,0
1537907853725031,-8,-1,0,-2,-1,3,-2,-7
1537907853727025,0,0,-3,-12,-1,0,-1,0
1537907853727025,3,0,2,-16,-9,-4,-5,0
1537907853746972,0,-2,-3,11,1,3,0,-2
1537907853746972,-6,-1,2,-2,3,-2,-4,-6
1537907853747970,3,-3,-6,4,-5,-2,-2,0
1537907853747970,-8,0,-1,4,5,-2,-3,-1
1537907853761932,1,-1,2,-27,-9,3,3,-1
1537907853761932,-7,-2,-2,-18,-6,-4,-5,-12
1537907853762930,2,-1,0,0,1,-4,-1,3
1537907853762930,1,2,9,-5,-2,3,3,6
1537907853784872,2,-2,-7,33,8,2,3,-1
1537907853784872,-4,-2,-7,5,5,-3,-2,-5
1537907853784872,2,0,1,-11,-5,-3,-1,2
1537907853784872,-1,-2,0,-6,-4,1,-3,2
1537907853814792,0,0,-2,11,5,3,1,-3
1537907853814792,-4,-3,-4,-11,-5,-4,-3,-4
1537907853815789,3,1,0,-5,-1,2,-1,4
1537907853815789,2,0,-1,4,-1,0,0,-4
1537907853821773,1,-1,-3,-3,-4,-2,-2,-1
1537907853821773,-2,1,-2,-6,-2,-1,0,-1
1537907853822771,-1,0,0,5,2,2,-1,-1
1537907853822771,-2,0,2,-2,-1,-1,-1,0
1537907853844713,-1,-1,-3,-6,-3,0,-1,0
1537907853844713,-1,-1,-2,0,0,-1,-1,-1
1537907853844713,0,0,-2,-2,-2,-1,-1,-1
1537907853844713,-1,-1,-1,-4,0,0,0,-1
1537907853866654,-1,0,2,-4,-1,1,0,0
1537907853866654,0,-1,0,11,1,0,-2,-3
1537907853867651,-2,-1,-2,-14,-4,-2,-3,1
1537907853867651,-1,-2,1,-3,-3,0,1,0
1537907853881612,-1,-2,-10,2,5,0,-1,-2
1537907853881612,-1,1,2,-13,-4,0,-1,-2
1537907853882610,0,0,0,2,2,-2,-1,2
1537907853882610,0,0,-1,-12,2,1,0,0
1537907853904551,0,-2,8,10,-4,-1,-1,-2
1537907853904551,-2,-3,-8,-4,0,-1,-2,-3
1537907853905549,0,0,3,-2,-5,-2,-1,-1
1537907853905549,-1,-1,3,2,0,0,-1,1
1537907853918514,1,0,-2,3,2,-1,-2,0
1537907853918514,-2,1,-1,2,1,0,-1,-3
1537907853926492,0,-1,-1,8,1,0,-2,-2
1537907853926492,-1,-1,-1,-1,0,-2,-1,0
1537907853941453,-1,0,0,12,-1,-1,-2,0
1537907853941453,-3,-1,-3,-4,1,-2,-2,-1
1537907853942451,0,0,1,-4,-4,-2,-1,-2
1537907853942451,0,-1,-3,-6,-2,-1,-2,0
1537907853964392,0,-1,6,5,0,0,-1,1
1537907853964392,-2,-3,-6,-7,-2,1,0,-2
1537907853965390,0,-1,0,1,0,-1,-1,-1
1537907853965390,-2,0,2,14,0,-2,-1,0
1537907853978355,-2,-1,-10,-35,-4,-2,-2,-2
1537907853978355,-1,-1,-1,5,-2,-2,-3,-2
1537907853987331,-1,-1,-1,-4,-2,-3,0,-2
1537907853987331,0,0,1,13,-1,1,0,-1
1537907854002291,0,-1,0,0,-1,-1,0,-1
1537907854002291,2,1,3,-3,-2,-2,0,1
1537907854002291,-5,-3,-1,1,1,1,-1,-3
1537907854002291,-5,-2,-2,-4,-4,-3,-3,-3
1537907854024233,0,0,-4,2,0,0,0,0
1537907854024233,-1,-2,0,-4,-2,-2,-1,0
1537907854025231,-4,-3,-2,3,-2,-2,-1,0
1537907854025231,5,1,-3,-9,1,11,2,-9
1537907854039193,-3,2,2,-1,2,31,17,92
1537907854039193,36,5,4,11,8,11,68,-35
1537907854047172,-35,-2,2,4,9,35,-34,-80
1537907854047172,13,3,2,-9,-24,-68,-31,-3
1537907854062130,-6,-10,-7,-8,2,96,-24,-1
1537907854062130,-9,6,8,10,-3,-99,-10,7
1537907854062130,-4,2,1,-5,-10,-34,-36,-32
1537907854062130,2,-6,1,-3,17,62,58,-16
1537907854093047,-34,-1,-1,1,-16,-45,-59,34
1537907854093047,12,7,-11,-13,-18,-2,-60,61
1537907854093047,-9,2,-2,-4,7,5,43,-26
1537907854093047,35,4,0,0,-1,2,-6,-4
1537907854107010,-4,-1,0,7,16,50,58,15
1537907854107010,-8,-4,1,-1,6,38,14,-3
1537907854108008,9,-2,-1,0,-1,-18,1,37
1537907854108008,-13,-2,-2,-3,1,19,4,12
1537907854121970,13,1,4,6,2,-20,15,-48
1537907854121970,-1,-2,1,2,-1,-14,-13,-12
1537907854122967,8,-5,-2,4,-6,-3,-7,6
1537907854122967,-10,-6,0,27,8,14,-7,-6
1537907854143912,8,2,-5,-41,-20,-48,-11,-20
1537907854143912,-15,-9,-11,-8,-1,2,-11,-11
1537907854144909,1,2,23,-2,-7,17,11,29
1537907854144909,-9,-3,-7,26,9,-9,-6,11
1537907854167848,7,3,0,9,-1,-28,-4,-22
1537907854167848,-13,0,-3,-42,-9,23,2,-13
1537907854168846,8,-3,-17,5,7,10,9,5
1537907854168846,-1,7,10,-21,-11,-18,-9,2
1537907854181811,-2,-4,-5,55,7,-10,-5,-24
1537907854181811,-3,-7,-2,-16,6,23,3,-7
1537907854182809,7,2,13,27,1,-8,0,15
1537907854182809,-6,-1,-6,19,6,-5,-5,2
1537907854204750,-1,-5,-12,-23,1,1,4,-6
1537907854204750,-2,2,-9,16,1,6,0,2
1537907854204750,6,1,9,-26,-5,-5,0,10
1537907854204750,-9,-3,-4,-21,-8,3,-2,-5
1537907854227688,3,1,6,21,1,-3,4,-11
1537907854227688,-1,-3,-4,-8,4,0,-4,-5
1537907854228687,2,-1,-9,-29,-12,-1,0,-1
1537907854228687,-1,0,7,-7,-7,-1,-2,1
1537907854241651,2,3,6,-20,-2,-9,-1,-4
1537907854241651,-4,-4,1,29,4,0,-4,-5
1537907854242650,-1,0,-4,28,10,8,3,8
1537907854242650,-4,-1,-6,-7,-3,-3,-3,0
1537907854264590,1,0,8,6,-5,-9,-2,-4
1537907854264590,-2,-1,10,28,9,9,3,0
1537907854265587,2,0,-18,-30,-10,-1,0,0
1537907854265587,-1,-1,5,-7,2,-3,-2,1
1537907854287527,-1,1,-3,1,-2,-5,-3,-5
1537907854287527,-1,-2,2,4,-2,5,-1,-2
1537907854288525,1,-3,-4,-7,2,-2,0,4
1537907854288525,-2,0,-2,3,2,0,-2,-2
1537907854301490,-1,-1,-4,-5,-1,1,-1,-4
1537907854301490,-1,0,3,-2,-3,-1,-1,-2
1537907854302488,1,-1,-4,6,0,-1,0,1
1537907854302488,-2,-2,-3,-6,-1,0,-2,-1
1537907854324428,1,1,1,-4,1,-1,0,-2
1537907854324428,-1,-2,-2,-2,-4,-1,0,-2
1537907854325426,1,-1,0,5,3,2,0,0
1537907854325426,-1,0,-1,-7,0,1,1,-1
1537907854347367,1,-1,0,-2,-3,-3,-2,-2
1537907854347367,-1,-2,-2,-1,-4,-4,0,0
1537907854348365,-1,1,-3,-3,-6,0,-1,2
1537907854348365,-3,-1,0,-1,2,-1,-2,0
1537907854362328,3,0,-1,-1,1,-2,1,-1
1537907854362328,-3,0,0,-4,-1,-1,-1,-3
1537907854362328,-1,-2,0,3,0,0,-2,0
1537907854362328,-1,0,-1,2,-1,-1,-1,0
1537907854384270,-1,-2,-2,-2,3,1,0,0
1537907854384270,1,-2,2,0,-1,-1,-1,-1
1537907854385268,0,0,-1,-7,-3,-1,-1,0
1537907854385268,0,-2,0,6,1,1,-2,-1
1537907854407209,-3,-3,-2,-11,0,2,0,-2
1537907854407209,-2,-1,-2,-3,-9,-4,-1,-1
1537907854408207,-1,1,-2,-1,0,-1,-1,-2
1537907854408207,0,-3,-7,-1,-2,-4,0,1
1537907854422168,0,1,6,12,0,0,-2,-2
1537907854422168,-2,-1,3,6,3,3,0,-1
1537907854422168,2,-1,-3,-18,-8,-3,-1,0
1537907854422168,-2,1,-3,-15,-3,-1,-1,-1
1537907854444109,-1,-3,-5,2,2,0,1,-1
1537907854444109,0,0,3,11,-1,0,-1,0
1537907854445107,-2,-3,-5,-3,5,-1,1,-1
1537907854445107,0,0,1,-1,-3,-1,0,1
1537907854468045,-2,-2,-3,-5,-1,-1,-1,-1
1537907854468045,-2,1,-1,-2,2,2,-1,-1
1537907854468045,-1,0,2,12,2,-1,-1,1
1537907854468045,0,-1,2,0,-2,0,-1,-1
1537907854482008,0,-1,-2,-11,-2,-2,-2,0
1537907854482008,-2,1,-2,0,2,-1,-2,-1
1537907854483006,0,-1,-1,4,-3,0,-1,2
1537907854483006,2,0,2,-4,-1,0,0,-1
1537907854503949,-1,-1,0,1,-2,-1,0,0
1537907854503949,-5,-2,-1,-6,-3,-3,-1,-3
1537907854504946,-1,0,0,1,1,0,0,-2
1537907854504946,-1,-2,-1,3,1,0,9,1
1537907854527885,3,0,0,-4,0,-2,-14,5
1537907854527885,1,2,-3,-5,2,8,19,4
1537907854527885,-5,-3,-1,2,1,13,37,1
1537907854527885,0,-2,2,4,19,83,-35,12
1537907854541848,10,8,5,11,3,-22,-19,-43
1537907854541848,6,3,2,-3,-6,-6,81,27
1537907854542845,-14,1,-1,-2,-4,29,-89,-50
1537907854542845,-17,-10,-6,-6,-17,-100,8,27
1537907854564786,12,8,-4,-5,-7,-16,-35,-21
1537907854564786,-26,-12,-3,0,8,48,6,-17
1537907854564786,4,12,4,7,10,-8,-4,-14
1537907854564786,3,-10,-6,-9,-13,-7,42,-21
1537907854587725,8,-4,-3,-2,-7,-48,-23,17
1537907854587725,13,5,-2,-1,-3,-33,-30,14
1537907854588722,0,4,2,2,0,12,17,17
1537907854588722,4,30,0,8,6,22,2,10
1537907854601687,-9,-39,4,17,4,4,21,16
1537907854601687,-4,-6,-16,-21,-1,4,-7,-9
1537907854602685,-3,-5,2,-6,-8,-12,-8,7
1537907854602685,0,-1,9,13,0,2,-19,-13
1537907854624626,-8,6,-1,32,4,9,21,3
1537907854624626,3,5,4,-37,-7,0,-24,-12
1537907854624626,4,-9,-14,84,23,8,19,15
1537907854624626,2,3,0,-103,-28,-29,-3,-5
1537907854648562,-7,5,1,7,-1,19,13,-1
1537907854648562,-3,-5,2,13,-1,-5,-17,-3
1537907854648562,3,-1,-15,13,9,-20,0,4
1537907854648562,3,-4,9,92,23,15,5,-4
1537907854661528,-7,4,-1,-113,-22,7,-4,-3
1537907854661528,3,-6,-21,83,15,1,-8,0
1537907854669507,5,7,36,-109,-27,-15,10,6
1537907854669507,-4,-7,-20,41,2,4,-8,-7
1537907854684467,-3,-3,-3,38,10,15,14,6
1537907854684467,-1,9,8,-36,-7,-17,-7,-2
1537907854685467,-1,-4,-6,56,3,0,6,2
1537907854685467,-3,-6,-6,4,1,2,-3,-1
1537907854707405,-1,5,3,-24,-4,-2,-1,0
1537907854707405,0,-5,-5,10,-3,0,-2,-3
1537907854708403,-3,-4,-3,1,1,-2,-2,0
1537907854708403,-1,2,7,-40,-7,-2,-5,-3
1537907854730344,-2,-3,-9,30,10,5,6,4
1537907854730344,-1,0,15,0,-3,-3,-5,-3
1537907854730344,-2,-3,-5,-24,-10,-5,2,2
1537907854730344,0,-4,-11,-28,-9,-7,-1,-3
1537907854744306,1,0,-3,9,-4,3,2,2
1537907854744306,0,-2,4,-2,0,0,-5,-1
1537907854745304,-1,-2,3,-4,1,-4,-1,0
1537907854745304,1,0,-3,11,3,4,0,0
1537907854767245,-2,0,0,2,1,4,1,1
1537907854767245,1,-1,2,-5,-4,-2,-4,-1
1537907854768242,-2,-3,-5,-4,-5,-1,2,0
1537907854768242,-2,-2,4,9,7,3,-1,-3
1537907854782205,-1,2,-2,-17,-3,2,1,0
1537907854782205,-1,-1,-1,-1,-2,-3,-1,-1
1537907854782205,1,-2,-5,6,1,-1,0,1
1537907854782205,-2,-1,3,-8,-4,-2,-2,-2
1537907854804146,0,1,6,15,1,0,0,0
1537907854804146,2,1,-11,-19,-3,0,0,-2
1537907854805144,-2,-1,6,6,3,-1,0,-1
1537907854805144,-2,0,-4,-11,-2,0,-1,-1
1537907854827085,0,-1,-6,4,1,1,2,2
1537907854827085,1,-1,-1,-11,0,-1,-1,0
1537907854828082,-1,-3,1,9,-1,1,0,-1
1537907854828082,-2,0,12,-15,-6,-3,-3,-1
1537907854841048,0,0,-2,4,-2,1,0,-1
1537907854841048,-1,0,0,7,0,-1,-1,0
1537907854849026,1,-2,-8,-5,5,-1,-2,0
1537907854849026,0,-2,-2,16,3,0,0,-1
1537907854863987,-3,0,4,-5,2,0,-2,-1
1537907854863987,0,-2,-3,-5,-3,-1,0,-1
1537907854864984,0,-1,1,1,-4,-1,-1,-1
1537907854864984,-3,1,-2,4,3,0,-1,-1
1537907854887922,-3,-1,-1,3,1,1,1,-2
1537907854887922,1,1,-1,-3,-4,-3,0,0
1537907854887922,0,-3,-3,-9,0,0,0,-1
1537907854887922,0,-2,0,3,-1,-1,-1,-3
1537907854900887,0,-1,-5,-6,-3,0,-1,1
1537907854900887,0,1,10,9,5,2,-1,0
1537907854909863,-1,-1,-1,-8,-4,0,-2,0
1537907854909863,-1,-1,-2,2,1,0,-1,-1
1537907854924823,0,-1,-1,4,0,-2,-1,0
1537907854924823,-1,-1,1,7,3,0,-2,-2
1537907854924823,-1,1,-4,8,4,1,1,-1
1537907854924823,0,-1,-3,-13,-7,-4,-2,-1
1537907854947762,-3,-1,-1,-16,-8,-3,-2,-3
1537907854947762,-3,-3,-2,-4,-4,-2,-2,-1
1537907854947762,-1,-1,3,5,-1,-3,0,-2
1537907854947762,1,1,-1,9,5,2,0,1
1537907854960728,-1,0,0,0,1,-2,0,-1
1537907854960728,2,-1,-1,8,-1,-3,0,2
1537907854969704,0,-1,-2,-13,-4,-2,1,-4
1537907854969704,1,0,-3,0,1,2,0,0
1537907854984664,0,-1,2,-10,-5,-2,-3,-1
1537907854984664,-2,0,-1,0,1,0,-1,-1
1537907854984664,-1,-1,0,-6,-3,-2,-3,-1
1537907854984664,-1,-1,1,-4,0,0,-1,1
1537907855007604,0,-1,-2,6,1,0,0,-1
1537907855007604,0,-1,-3,-2,0,-1,-1,-1
1537907855008603,-2,-3,-2,-5,-2,-1,-2,-1
1537907855008603,0,-3,-1,1,-4,-3,-1,0
1537907855021567,-1,-2,-2,-3,-2,0,1,-1
1537907855021567,-1,-2,-1,-4,-2,-1,-3,-1
1537907855029545,-1,-1,-2,-4,-1,-3,0,-1
1537907855029545,-1,-1,-10,13,8,2,-1,0
1537907855044506,-2,2,20,13,-2,-3,-1,-1
1537907855044506,-1,-2,-1,-18,-6,0,-1,-2
1537907855045505,0,1,-4,-19,-5,-5,0,0
1537907855045505,-3,-1,-2,-12,0,-1,-2,-1
1537907855067443,-1,0,-4,17,0,-2,-1,-1
1537907855067443,0,-2,-1,7,1,0,0,-1
1537907855068440,-2,0,-3,-2,-5,-2,-2,0
1537907855068440,1,0,4,4,-1,0,0,-3
1537907855081405,0,0,-2,-2,2,0,0,0
1537907855081405,-1,-1,0,4,-1,-3,-1,-2
1537907855089384,0,0,-2,4,1,0,0,0
1537907855089384,0,-2,-9,-2,0,-2,0,1
1537907855104344,1,2,5,-16,-4,1,-2,-1
1537907855104344,-2,-3,-5,-8,-3,-3,-3,0
1537907855105341,-1,1,5,3,0,1,-1,-1
1537907855105341,-2,0,4,3,-2,-2,1,-1
1537907855127282,0,0,-2,18,3,1,-1,2
1537907855127282,-1,-1,-13,-24,0,-2,-2,0
1537907855128280,1,-1,7,5,1,-2,-1,-1
1537907855128280,-3,-1,-1,-20,-9,-3,-1,-1
1537907855141245,-2,-4,-5,-4,1,0,1,0
1537907855141245,1,1,2,2,0,0,0,0
1537907855149224,-1,0,-1,12,7,2,1,0
1537907855149224,3,1,0,0,-5,-3,-2,0
1537907855164184,-2,-4,-4,-1,1,0,0,-1
1537907855164184,0,-1,3,6,-4,-1,0,-1
1537907855165181,-1,-3,-1,-2,0,0,-1,-1
1537907855165181,0,-1,3,4,1,0,-2,-3
1537907855187123,-2,0,-5,-7,-2,0,-1,1
1537907855187123,0,-1,1,6,1,0,0,-2
1537907855188120,0,-1,-4,-4,-3,-2,-1,-1
1537907855188120,-1,-2,0,-1,-1,-2,0,-1
1537907855210062,1,-1,-4,-1,1,0,-1,-2
1537907855210062,-1,1,-1,-1,-2,-1,0,0
1537907855210062,0,-2,-1,-2,-2,0,-1,-1
1537907855210062,-1,-1,0,-2,-1,-1,-2,0
1537907855224025,-2,0,-1,-2,0,0,0,-2
1537907855224025,-2,-2,1,4,0,-1,0,0
1537907855225024,-3,-3,-1,-1,0,-1,-2,-2
1537907855225024,2,8,1,-3,-4,-2,-3,1
1537907855247961,-1,-1,-2,0,1,-1,-1,-1
1537907855247961,-2,-1,-1,-9,-5,-2,-1,-1
1537907855247961,1,2,-1,1,2,-1,0,0
1537907855247961,-1,0,-1,1,1,0,0,0
1537907855269903,-2,-7,1,0,2,1,-1,0
1537907855269903,-1,-9,-3,0,-2,-2,0,0
1537907855270902,-1,0,-11,1,0,-2,0,1
1537907855270902,-2,-4,16,-2,-3,-1,-2,-2
1537907855284862,-1,-15,-6,5,-2,-2,-2,0
1537907855284862,0,8,2,6,1,1,-1,1
1537907855285861,6,4,2,-3,-3,0,0,-1
1537907855285861,-3,-3,-9,4,2,-1,0,-3
1537907855307800,-4,-2,-10,-9,-4,-4,0,-2
1537907855307800,-1,-3,4,1,0,0,0,2
1537907855307800,-3,0,-9,2,-1,-2,-3,-2
1537907855307800,7,0,-12,-16,-1,3,-2,0
1537907855329741,0,2,6,-11,-8,-4,-2,-1
1537907855329741,1,2,10,-4,0,-2,-2,-2
1537907855331736,-1,3,-5,3,1,1,1,1
1537907855331736,-4,-1,17,17,1,-2,-1,-1
1537907855343704,4,3,-7,-27,-3,0,2,3
1537907855343704,4,-2,21,3,0,0,0,3
1537907855352680,-6,-6,-28,-3,-3,-3,-5,-7
1537907855352680,-15,-6,-13,7,4,-1,-5,-13
1537907855367640,-6,4,10,12,5,-1,-1,-5
1537907855367640,7,0,22,20,-2,-2,2,2
1537907855368637,8,-2,-8,0,-4,-2,4,9
1537907855368637,4,8,-3,13,9,5,3,3
1537907855390579,1,8,-6,-69,-20,-4,5,15
1537907855390579,-26,-17,8,-9,-3,-2,-15,-31
1537907855391577,7,-2,-7,-4,-1,-2,2,-1
1537907855391577,-7,8,16,46,13,8,11,14
1537907855403545,-6,-5,-9,1,8,4,8,-15
1537907855403545,24,9,-3,9,10,2,10,22
1537907855412522,-53,-9,16,63,6,-1,-32,-47
1537907855412522,11,1,-34,-65,-13,-2,-12,2
1537907855427482,17,30,41,12,5,3,6,18
1537907855427482,14,-15,-8,40,-1,2,12,13
1537907855429477,9,-11,-30,35,16,2,23,30
1537907855429477,8,-15,17,-70,-30,-7,3,9
1537907855449423,-16,-3,31,72,6,2,-18,-24
1537907855449423,-26,7,-14,-113,-16,-5,-11,-18
1537907855457401,35,10,6,41,-6,-2,6,7
1537907855457401,15,-4,-40,52,23,7,34,27
1537907855463386,-13,-12,6,-36,-35,-16,-32,-8
1537907855463386,-18,-10,-46,-66,1,-4,-28,-34
1537907855478346,-19,-10,21,8,-14,-5,-12,-15
1537907855478346,29,52,89,-34,-5,-1,8,9
1537907855487323,16,-22,-32,64,31,13,32,34
1537907855487323,-2,18,3,59,6,1,6,16
1537907855489317,-16,-27,-10,-80,-20,-10,-13,-15
1537907855489317,-6,-25,-25,2,-7,-7,-13,-18
1537907855510260,-7,6,18,7,5,2,0,-4
1537907855510260,12,-4,-20,23,2,4,8,19
1537907855511257,6,8,12,-8,8,4,4,-3
1537907855511257,-18,-2,12,23,-4,-6,-8,-9
1537907855523224,12,8,-11,-15,-3,-2,-3,-6
1537907855523224,-9,4,-16,20,6,1,6,7
1537907855532200,21,-1,34,-9,-2,-1,4,9
1537907855532200,-9,7,-6,47,-5,-3,-11,-11
1537907855547160,-8,-22,-23,-52,-8,-2,-2,-3
1537907855547160,3,-2,-2,3,-9,-6,-5,-12
1537907855549155,-1,15,3,-4,6,4,5,8
1537907855549155,-2,-11,-6,-1,6,3,4,3
1537907855570099,6,1,-13,1,3,-3,-5,1
1537907855570099,0,4,22,6,-4,-2,0,0
1537907855571097,6,2,-3,-20,3,3,0,9
1537907855571097,-30,-17,-15,-14,-4,-5,-10,-21
1537907855584062,9,7,1,3,-3,0,3,-1
1537907855584062,5,0,-1,7,7,3,2,1
1537907855593038,1,6,2,-7,-4,-1,0,3
1537907855593038,1,-3,-8,-5,4,1,0,2
1537907855608995,-9,1,-5,8,-4,-4,-3,-5
1537907855608995,-4,-3,2,-2,-10,-4,-5,-4
1537907855609994,5,1,0,-16,-3,0,1,3
1537907855609994,-2,-3,2,0,1,0,-2,-1
1537907855629939,-2,0,-4,12,5,1,-1,-3
1537907855629939,7,-2,-2,-10,-2,-1,2,4
1537907855631934,-6,2,0,-9,-4,-2,2,0
1537907855631934,1,-3,-8,-1,1,0,-5,-2
1537907855643902,0,1,0,-1,0,-2,0,-3
1537907855643902,-3,1,1,-1,-2,0,-1,-1
1537907855652880,-6,1,0,-1,5,0,-1,-2
1537907855652880,1,-2,-3,-3,-4,-3,-3,-1
1537907855667838,3,-1,-3,-5,-4,-2,-2,-1
1537907855667838,-1,1,3,4,1,0,1,2
1537907855668836,-8,-4,-4,-11,-2,0,-4,-4
1537907855668836,4,-1,-2,-4,-1,-2,0,0
1537907855689780,-1,-1,1,0,1,-1,0,2
1537907855689780,2,0,1,1,2,2,1,0
1537907855691775,-1,0,1,2,1,-1,-1,-3
1537907855691775,1,0,-2,-5,-4,-1,-2,1
1537907855704739,-2,-1,-2,-1,0,2,-1,-3
1537907855704739,0,1,1,7,1,1,1,1
1537907855712719,2,1,-4,-5,-2,0,-1,1
1537907855712719,-2,0,1,0,3,0,-1,-2
1537907855727678,0,1,-3,7,4,2,0,-1
1537907855727678,3,-1,3,4,-3,-3,0,2
1537907855728675,-1,-1,-4,-22,-4,-2,0,-1
1537907855728675,1,0,-4,1,-1,-2,-1,1
1537907855750617,-7,-2,5,4,0,-2,0,-4
1537907855750617,-2,-2,-2,-3,-1,-2,-1,-3
1537907855751614,-3,-1,-1,2,-2,0,0,-4
1537907855751614,2,0,0,2,-1,0,-2,-1
1537907855763582,-1,0,-1,-5,0,-3,-2,0
1537907855763582,-3,-2,0,3,0,-1,-1,-1
1537907855772558,0,0,-1,0,-1,0,0,2
1537907855772558,1,-3,-3,-5,-2,-1,2,1
1537907855787518,1,-1,1,8,2,1,0,0
1537907855787518,-10,-5,-10,-5,5,-1,-4,-9
1537907855789512,1,0,8,11,-7,-5,-2,0
1537907855789512,-3,-2,4,80,5,1,-1,-2
1537907855810456,-5,-3,-11,-68,-19,-8,-6,-3
1537907855810456,4,-1,-6,3,13,3,0,0
1537907855811454,1,-1,-7,12,-11,-5,-2,3
1537907855811454,0,0,30,94,23,5,4,3
1537907855823421,-3,-1,-6,-6,-6,-5,-4,-3
1537907855823421,1,-11,-6,3,-20,-7,-4,-2
1537907855832398,1,8,7,-29,11,5,-1,-5
1537907855832398,10,9,-7,-30,-14,-3,1,6
1537907855847357,1,-4,24,127,44,13,6,6
1537907855847357,-6,-6,-17,-102,-11,-7,-4,-3
1537907855849352,-8,-10,0,-85,-24,-6,-3,-8
1537907855849352,10,0,-38,-10,-5,-2,1,5
1537907855870296,-11,3,-30,79,59,20,8,0
1537907855870296,8,22,74,-33,-81,-28,21,7
1537907855871293,8,13,-3,-28,3,4,-25,7
1537907855871293,-25,-23,-39,16,11,-4,-31,-8
1537907855883261,-11,-1,-19,-121,-59,-21,-6,-30
1537907855883261,12,-11,-24,18,28,18,6,-1
1537907855892237,2,-2,-14,37,32,9,21,12
1537907855892237,-33,-2,15,-44,-4,1,6,1
1537907855907198,46,-4,11,36,-34,-14,-11,3
1537907855907198,-4,17,15,-3,13,-6,-8,-6
1537907855913182,-6,-4,36,102,37,13,1,6
1537907855913182,14,1,-20,-47,-52,-19,51,14
1537907855930136,-34,-8,1,-52,-20,-6,-36,-16
1537907855930136,10,3,-56,65,26,4,-15,-15
1537907855932132,-19,-5,34,32,0,3,2,2
1537907855932132,16,-2,8,-22,2,0,0,-7
1537907855944099,31,-3,12,-48,-16,-5,2,7
1537907855944099,-3,13,-5,27,2,2,-6,-6
1537907855953076,-17,-16,-28,12,11,1,7,-2
1537907855953076,46,8,12,40,33,13,44,46
1537907855967038,-7,-9,-13,-8,-20,-9,-12,-1
1537907855967038,-13,-18,-6,-33,-12,-14,-59,-28
1537907855974020,-26,-5,-22,25,-5,-12,-20,-39
1537907855974020,-14,11,-6,9,9,9,-3,-10
1537907855989979,35,6,-12,75,36,15,42,41
1537907855989979,-33,1,52,-79,-53,-17,6,19
1537907855991973,19,-8,-2,65,-2,5,1,-8
1537907855991973,-32,-3,14,2,-18,-9,-47,-21
1537907856003940,4,2,-5,37,2,-5,10,-26
1537907856003940,16,14,-4,43,28,17,22,13
1537907856012917,26,-1,-7,43,55,15,35,44
1537907856012917,-14,3,13,-46,-62,-17,-2,-10
1537907856026879,-26,-12,20,1,16,6,-28,-23
1537907856026879,-10,-13,-30,21,1,1,-9,-9
1537907856033860,12,11,-9,-13,-2,1,4,-2
1537907856033860,13,-1,-1,18,34,12,9,9
1537907856049818,-4,7,4,-25,-9,-3,13,13
1537907856049818,1,-10,-5,17,9,2,2,-3
1537907856051813,1,3,5,-47,-30,-12,-10,1
1537907856051813,1,-5,2,-18,4,1,-5,-7
1537907856063781,-15,1,7,-25,-13,-5,-9,-4
1537907856063781,4,1,2,23,21,9,6,6
1537907856072757,-2,-2,-2,-21,-17,-4,5,2
1537907856072757,-6,-3,0,-18,-7,-7,-17,-15
1537907856087717,-2,3,-5,3,11,3,0,1
1537907856087717,6,-3,0,23,11,7,12,9
1537907856088715,-2,2,-1,-23,-22,-9,-7,-6
1537907856088715,-3,-6,-12,-6,3,-2,-12,-11
1537907856109657,-4,3,14,-3,6,3,4,7
1537907856109657,2,-2,-3,5,-1,0,8,5
1537907856111651,-5,0,4,-21,-20,-7,-8,-8
1537907856111651,0,1,-4,4,13,4,-6,-4
1537907856132595,1,8,71,6,1,2,7,7
1537907856132595,-5,-10,-25,0,-3,-1,0,-1
1537907856133593,1,-7,-70,-14,-1,-1,0,0
1537907856133593,2,3,2,5,7,3,0,3
1537907856146558,-2,1,-9,-5,-3,-2,1,2
1537907856146558,1,2,37,6,-3,-2,-2,-3
1537907856153539,-3,4,29,-7,-7,-4,-3,-4
1537907856153539,-1,-4,4,-4,1,-1,-2,-3
1537907856170494,-3,-2,-40,-9,-4,-2,-1,-3
1537907856170494,-3,-1,4,3,3,1,1,0
1537907856171491,-1,1,19,1,-4,-1,-1,-2
1537907856171491,-1,0,-2,-3,-3,-3,-4,-1
1537907856192435,-1,-1,-5,-1,3,1,-1,0
1537907856192435,2,-3,-17,3,1,0,3,3
1537907856194430,0,-1,0,-6,-4,-2,-3,-3
1537907856194430,-3,-3,-1,-3,-2,-2,-3,-5
1537907856206397,0,5,1,-3,1,1,0,1
1537907856206397,-1,-2,-8,3,1,2,0,0
1537907856213379,-3,0,25,-5,-6,-3,-2,-1
1537907856213379,-2,-3,-28,-2,1,0,-2,-3
1537907856230334,-1,0,1,-1,3,1,3,4
1537907856230334,0,-5,-8,-4,-4,-4,0,-1
1537907856231331,0,-1,-3,-2,2,0,-2,-2
1537907856231331,-1,0,15,-3,-2,-2,1,0
1537907856252276,-3,-6,-20,-4,-6,-3,-1,-2
1537907856252276,1,3,11,6,3,1,2,0
1537907856254272,-1,7,-9,-5,-3,-4,-2,-2
1537907856254272,0,-2,-12,9,3,-1,-1,1
1537907856266240,0,0,-9,-8,-2,0,0,1
1537907856266240,-3,-8,7,4,1,-1,-2,-3
1537907856275216,-1,-9,-15,-6,-3,-1,-1,-1
1537907856275216,1,12,24,4,0,0,-2,-4
1537907856290176,-5,-9,-17,-2,3,2,0,-4
1537907856290176,1,4,8,-7,-5,-1,0,2
1537907856291174,0,-1,-3,6,-2,1,0,1
1537907856291174,2,-1,13,-4,-3,-3,-1,1
1537907856312122,-2,3,-2,3,3,0,1,0
1537907856312122,-2,1,-9,-5,-1,0,-1,-1
1537907856314112,-3,-2,2,-2,-1,-1,0,-2
1537907856314112,-1,-2,-14,-4,-2,0,-1,-1
1537907856327075,2,4,9,1,-1,-1,0,-1
1537907856327075,0,-2,-2,5,1,0,-1,-2
1537907856334056,-1,0,3,-3,-5,-1,-1,-1
1537907856334056,0,-6,-21,-4,3,2,0,1
1537907856350014,-2,-2,1,-3,-3,-2,-1,0
1537907856350014,-1,2,19,-2,-2,-1,0,-1
1537907856351011,1,1,0,0,-3,-3,-1,-1
1537907856351011,-2,-5,-15,-2,0,-1,-1,-1
1537907856372952,-3,-3,3,-3,-2,1,-2,-2
1537907856372952,1,4,-4,-1,-3,-3,0,2
1537907856373950,-1,2,4,-2,-2,-3,-1,-2
1537907856373950,-2,-2,12,-1,-4,-2,-2,-2
1537907856386915,0,1,-9,4,3,0,-1,-1
1537907856386915,1,5,3,-1,1,0,2,0
1537907856393897,-2,-5,-5,-3,-3,-2,-1,0
1537907856393897,0,0,-2,-1,0,0,-1,-2
1537907856409854,0,4,15,-1,-2,-2,1,0
1537907856409854,-1,-3,-8,0,1,1,-1,1
1537907856411849,-2,-3,-7,1,2,0,0,-2
1537907856411849,-2,-1,6,-6,-3,-3,-1,0
1537907856432793,-1,-3,-5,1,1,-1,-1,0
1537907856432793,-3,3,1,0,-1,-1,-1,-2
1537907856433791,-3,-10,5,1,0,0,-3,-2
1537907856433791,-1,1,-8,-2,-1,0,-1,1
1537907856446756,0,-1,0,-1,-1,0,-1,-1
1537907856446756,2,-1,-6,0,-3,-1,-1,2
1537907856453738,0,2,8,-2,0,1,-1,0
1537907856453738,-3,1,7,0,1,-2,0,-3
1537907856469696,-2,-8,2,3,-4,-3,-3,-1
1537907856469696,-1,1,-10,0,-3,-3,-1,-2
1537907856471690,2,3,-5,-9,-1,0,0,3
1537907856471690,1,-1,0,0,2,1,0,0
1537907856499615,-1,2,1,-2,-2,-2,0,1
1537907856499615,-3,-7,-1,0,-2,-1,-2,-2
1537907856501611,-3,2,0,3,-1,-2,1,1
1537907856501611,-1,1,21,3,0,0,0,-1
1537907856506597,2,-1,-15,-1,2,0,0,2
1537907856506597,0,-4,-17,-4,-2,-3,0,-1
1537907856513579,-5,-3,-8,-2,-1,0,-3,-4
1537907856513579,-1,0,4,-3,-1,0,-1,-2
1537907856530532,-1,-1,1,-1,-2,-2,-1,-1
1537907856530532,2,0,4,-1,2,1,-1,2
1537907856531530,5,6,11,2,-3,-2,1,4
1537907856531530,-5,-4,5,0,-2,-1,-3,-7
1537907856552473,3,-3,-44,-4,0,-1,0,2
1537907856552473,-6,-2,13,1,2,-1,-2,-4
1537907856554468,0,-4,-18,-2,-2,-2,-1,0
1537907856554468,3,7,26,3,0,2,1,7
1537907856566435,10,-2,3,-6,-1,-1,2,10
1537907856566435,5,-4,-13,-4,-6,-1,1,5
1537907856573417,4,10,50,17,2,-2,-2,7
1537907856573417,5,-1,-28,-17,-4,0,1,-3
1537907856590372,-64,-23,-51,3,-2,-3,-9,-26
1537907856590372,35,10,7,-7,7,2,0,4
1537907856592366,-5,-1,-26,-35,-4,0,-1,-9
1537907856592366,-42,-29,-14,-1,-10,-11,-11,2
1537907856612313,59,40,62,10,-6,-7,5,15
1537907856612313,-76,-18,-5,-35,0,-2,-21,-35
1537907856614308,19,15,7,39,8,6,6,6
1537907856614308,75,18,68,5,20,17,62,60
1537907856626277,-123,-102,-98,-101,-52,-39,-96,-103
1537907856626277,77,62,53,109,36,10,17,33
1537907856635253,-2,44,9,-46,-15,3,16,27
1537907856635253,-113,-61,-40,-65,-16,-14,-24,-33
1537907856650213,116,57,36,57,9,9,19,51
1537907856650213,20,-48,-38,-38,-17,-5,48,20
1537907856651210,-11,45,26,96,32,-13,-48,16
1537907856651210,-55,-29,-57,-39,-28,3,-18,-73
1537907856672154,76,-7,11,92,54,7,-1,58
1537907856672154,-117,-19,-38,-107,-84,-30,-85,-104
1537907856674150,100,15,-118,-32,-12,-7,-4,-7
1537907856674150,21,15,93,10,18,19,95,68
1537907856686117,6,-9,15,94,51,52,76,50
1537907856686117,-79,19,9,-45,-6,-35,-54,-56
1537907856695094,72,-10,25,-15,-17,-14,41,78
1537907856695094,-22,24,-28,51,17,-8,-86,-72
1537907856710054,-43,-45,40,-46,-37,-15,-19,-30
1537907856710054,24,9,14,76,30,20,52,54
1537907856711051,-47,-47,-24,-75,-21,5,17,-38
1537907856711051,41,25,0,17,-2,-5,5,24
1537907856732992,5,23,7,-2,7,6,28,26
1537907856732992,-3,-19,-10,-4,3,0,-14,-8
1537907856733991,-42,-29,11,-13,-1,-10,-54,-54
1537907856733991,35,12,-4,21,12,7,32,41
1537907856745957,-28,11,0,-27,-4,0,-10,-24
1537907856745957,37,0,2,-18,-9,3,15,25
1537907856754933,-17,-11,9,29,18,12,23,9
1537907856754933,5,0,-5,6,-6,-8,-40,-19
1537907856769892,-18,6,-3,-37,-14,-6,-9,-25
1537907856769892,20,-1,1,19,11,6,9,16
1537907856771887,-14,-8,17,19,6,13,3,-4
1537907856771887,-6,-9,-18,-12,-10,-19,-19,-17
1537907856792830,3,10,1,-21,-8,-5,-3,-2
1537907856792830,21,6,8,21,14,17,23,24
1537907856793828,-24,-12,-1,1,3,2,-3,-14
1537907856793828,13,5,-6,-14,-11,-4,-4,1
1537907856805796,-4,7,13,1,3,-8,16,4
1537907856805796,8,0,-17,8,3,6,-2,2
1537907856814772,-15,-13,-9,-14,-7,-3,-7,-12
1537907856814772,7,-2,6,10,6,8,4,7
1537907856829732,-3,5,-3,-8,-4,-1,-4,-8
1537907856829732,2,-2,-45,6,4,3,1,0
1537907856835717,-6,-9,7,-6,0,0,-7,-3
1537907856835717,7,2,0,7,3,1,3,9
1537907856852670,-6,4,43,-1,-1,-2,-5,-4
1537907856852670,5,-2,-18,-10,-9,-4,-3,2
1537907856853668,-5,4,18,12,4,0,8,-2
1537907856853668,5,-2,-15,-7,-4,-1,-2,-1
1537907856866632,-2,3,-55,-13,-5,4,-8,-15
1537907856866632,4,2,72,5,4,-12,7,35
1537907856874611,-7,0,4,8,-2,-6,1,-3
1537907856874611,-7,0,19,-4,-5,-1,-10,-12
1537907856889571,2,9,-20,-2,4,3,2,-1
1537907856889571,6,-10,-21,0,5,6,2,5
1537907856896553,-11,-5,-10,-8,-4,-4,2,-5
1537907856896553,7,4,11,0,-1,4,3,8
1537907856912510,-2,-3,-11,3,1,1,5,4
1537907856912510,-3,1,11,2,-2,-4,-4,-11
1537907856913507,2,4,49,-3,-2,2,-3,2
1537907856913507,3,8,-36,3,1,-1,5,0
1537907856926473,-8,0,-11,-3,-1,-7,-11,-9
1537907856926473,-6,-2,10,2,0,0,-6,-13
1537907856935449,-4,-8,-17,-3,-4,-3,-5,-7
1537907856935449,7,-5,-19,-11,-3,-3,3,13
1537907856950409,-10,-12,1,3,-4,-1,1,2
1537907856950409,29,24,44,29,10,7,9,14
1537907856951406,-34,-14,-26,-14,1,-3,-12,-24
1537907856951406,-1,-4,-10,-1,-1,1,32,12
1537907856972350,-22,17,-1,18,-17,-13,-38,-38
1537907856972350,58,-2,-22,66,35,9,42,78
1537907856974345,-78,-9,32,-45,-15,6,-17,-64
1537907856974345,26,-3,-44,28,-1,-17,-16,-8
1537907856986313,29,35,-74,-82,20,31,37,85
1537907856986313,-81,0,92,-43,-60,-41,-120,-120
1537907856995289,84,23,7,91,64,40,102,113
1537907856995289,-55,-10,1,88,0,-23,-72,-12
1537907857009251,-22,-54,-35,-54,-76,-23,41,14
1537907857009251,88,-35,-28,59,24,36,69,15
1537907857016233,-92,29,-38,-67,-43,-22,-110,-101
1537907857016233,103,20,44,104,56,2,-40,35
1537907857032190,-33,-5,-25,25,-45,-19,-90,-92
1537907857032190,8,-7,-42,-105,-17,-5,75,40
1537907857034185,-4,23,103,5,-15,12,76,50
1537907857034185,83,-2,-17,41,28,23,-2,39
1537907857055129,-23,-1,51,19,19,0,-108,-30
1537907857055129,-45,-7,-41,-34,5,-21,-69,-52
1537907857056127,31,-8,-20,-23,-32,-14,-29,-3
1537907857056127,21,24,-10,-56,-2,13,127,81
1537907857069093,1,8,80,36,31,16,27,-4
1537907857069093,-34,-4,-24,28,-4,7,-24,-41
1537907857076074,35,-8,-21,-33,10,0,23,34
1537907857076074,-60,-21,-7,-44,-22,-6,-31,-42
1537907857093029,40,-4,-2,6,9,-1,39,37
1537907857093029,-3,12,26,41,19,4,-21,29
1537907857094028,-9,-20,-36,20,0,-11,-41,-30
1537907857094028,-36,-25,7,-59,-25,-6,-8,-36
1537907857122948,-4,9,19,26,17,1,21,1
1537907857122948,9,9,-1,-5,-7,0,-9,22
1537907857123946,15,-16,-18,5,5,-2,-8,0
1537907857123946,-24,2,9,-21,-11,2,-11,-28
1537907857128932,15,-1,8,13,14,1,10,15
1537907857128932,-11,-5,-9,-4,-8,-2,2,-2
1537907857144889,19,-3,-17,14,2,15,8,8
1537907857144889,-28,-3,7,-3,5,11,-1,-18
1537907857152868,6,0,19,4,-2,-12,10,5
1537907857152868,-6,2,2,-12,-11,-15,4,-4
1537907857153865,-1,-2,-7,23,0,-68,-4,1
1537907857153865,-7,5,18,-11,-5,42,-3,-4
1537907857174809,3,-2,-3,-10,4,-12,6,3
1537907857174809,-2,-1,3,4,3,13,8,-2
1537907857176804,8,0,-13,9,1,11,1,6
1537907857176804,-8,-6,-50,-9,-1,-3,6,38
1537907857188772,3,1,-5,-5,-2,1,14,-4
1537907857188772,-2,6,27,12,6,5,5,7
1537907857197748,3,-1,12,12,4,7,-2,0
1537907857197748,-8,-3,-5,-16,-8,-9,-1,-21
1537907857212708,-3,5,22,3,-1,6,6,2
1537907857212708,0,1,-28,-5,-5,-9,1,6
1537907857213705,3,-4,-27,6,5,9,1,-4
1537907857213705,-5,4,21,-7,-6,-13,-6,-14
1537907857234650,5,-1,6,-7,0,-2,-2,3
1537907857234650,-3,1,-8,-1,4,4,-1,-6
1537907857236646,-3,-3,5,1,-6,-2,-2,-1
1537907857236646,-10,-1,8,12,-1,-6,-6,-9
1537907857248613,2,2,5,7,2,1,2,2
1537907857248613,2,4,-12,-12,-4,2,5,4
1537907857257589,1,1,10,16,7,9,3,1
1537907857257589,-1,4,21,-13,-6,-11,-5,-5
1537907857272549,-2,-9,-44,-8,1,5,2,-1
1537907857272549,-5,-1,19,3,-1,-1,1,-2
1537907857273547,5,2,-8,9,2,-2,-2,4
1537907857273547,-3,-3,16,-5,-4,-4,-4,-10
1537907857295487,2,-2,0,-3,2,0,0,2
1537907857295487,-1,-9,-9,3,0,-1,3,1
1537907857296486,0,13,12,3,0,2,-1,2
1537907857296486,0,-5,4,-8,-3,-5,-3,-8
1537907857308453,-5,2,-1,0,-1,-1,-2,-3
1537907857308453,2,1,0,-1,-3,-1,0,2
1537907857317429,-4,-6,0,-5,-2,-3,-4,-5
1537907857317429,0,3,-8,-3,-1,1,-2,-3
1537907857332389,3,3,31,7,4,2,3,2
1537907857332389,-1,1,-11,2,0,0,-2,-4
1537907857334384,5,-5,-10,-1,2,1,2,2
1537907857334384,-8,-3,-48,-6,-3,-5,-3,-6
1537907857355327,1,-2,-3,0,-1,3,1,4
1537907857355327,-5,3,14,2,-2,0,-1,-4
1537907857356325,1,2,15,-2,0,4,0,2
1537907857356325,-2,-5,15,0,1,0,0,-1
1537907857368292,3,6,-19,-3,-1,0,3,2
1537907857368292,-1,-4,2,4,2,-2,-2,0
1537907857377268,0,-1,6,1,-2,-2,-2,-1
1537907857377268,0,0,-15,-1,-3,-2,0,-3
1537907857391231,-3,-5,3,-2,-1,-1,-1,-3
1537907857391231,-2,-2,-10,-3,2,-1,2,-2
1537907857400207,-1,3,10,1,-4,0,-3,-2
1537907857400207,4,5,-1,2,6,3,3,1
1537907857422148,0,-4,-12,-1,-3,-2,0,-1
1537907857422148,-1,-2,-16,-3,0,-4,-2,-1
1537907857424143,-1,-6,0,-4,-1,-1,-1,0
1537907857424143,-4,0,17,-1,-2,-3,-2,-4
1537907857429129,0,2,-1,8,1,-2,-4,-1
1537907857429129,-7,-1,19,0,1,0,1,-1
1537907857436111,-3,-2,-21,-9,-8,-7,-4,0
1537907857436111,2,0,3,3,0,1,0,2
1537907857452068,2,-3,-10,-3,0,1,1,-1
1537907857452068,1,-1,-21,0,3,0,0,1
1537907857454064,-2,-6,0,0,0,-1,-1,-3
1537907857454064,-4,3,-9,-1,-3,-1,-1,-1
1537907857475007,3,3,2,5,1,-1,0,1
1537907857475007,0,-5,-8,-6,-4,-2,-1,2
1537907857476005,8,8,34,2,3,4,5,6
1537907857476005,2,-3,0,-1,-2,-2,-1,6
1537907857488970,-15,-6,3,-3,-5,-5,-10,-19
1537907857488970,19,8,-9,4,0,2,8,17
1537907857497946,-9,-4,-19,6,4,-1,1,-2
1537907857497946,-12,-13,-41,-26,-9,-7,-14,-22
1537907857512906,4,11,47,3,0,0,5,8
1537907857512906,-2,-3,-6,-4,1,2,-4,-4
1537907857513903,-8,2,18,29,4,-5,-6,-17
1537907857513903,25,-2,15,-1,12,9,34,42
1537907857534848,-3,11,-52,20,4,-4,-3,-6
1537907857534848,12,-32,3,-91,-57,-18,-22,0
1537907857536844,-13,5,32,44,21,5,16,13
1537907857536844,-27,-7,15,78,9,2,-4,-30
1537907857558787,65,22,-50,-77,-16,3,-20,40
1537907857558787,-43,-20,72,-47,0,0,25,-20
1537907857561778,2,28,-49,14,-30,-27,-91,-71
1537907857561778,1,-2,12,2,1,4,-5,-7
1537907857564768,-25,3,46,-28,-18,-12,-25,-10
1537907857564768,59,23,-62,37,28,16,79,69
1537907857572746,-13,-31,22,10,13,-4,-9,60
1537907857572746,-45,6,68,-16,3,-10,-36,-67
1537907857586710,7,37,-30,-10,-34,-17,-7,-62
1537907857586710,13,4,-28,82,10,-12,-69,2
1537907857594687,-2,0,-19,-74,-6,23,67,5
1537907857594687,88,-13,0,70,32,18,72,113
1537907857609646,-84,-36,6,15,39,-17,-73,-24
1537907857609646,-30,-4,8,99,-28,-4,-98,-115
1537907857611641,-18,3,-14,-86,-9,12,38,-5
1537907857611641,12,10,1,-98,-32,-6,-3,-7
1537907857624606,20,6,-6,27,12,7,67,46
1537907857624606,10,8,43,3,22,-1,25,45
1537907857631588,-8,-13,-21,18,-4,-4,-35,-13
1537907857631588,2,10,-2,3,-2,1,9,-2
1537907857647545,13,-8,9,-2,3,8,34,23
1537907857647545,-9,0,-4,-8,11,1,-8,-2
1537907857648543,0,-17,-1,6,-4,4,5,-14
1537907857648543,-16,9,-13,-17,-9,-11,-10,-8
1537907857661508,12,-16,9,27,1,4,-12,3
1537907857661508,-19,-7,-4,-28,-3,4,3,-17
1537907857670484,11,6,-3,3,2,7,10,7
1537907857670484,-1,-3,-13,5,5,1,-8,1
1537907857684447,-8,-7,45,2,1,17,-5,-8
1537907857684447,-10,1,-22,-18,-7,7,21,-2
1537907857691429,16,8,-31,-7,-6,-86,1,15
1537907857691429,-7,1,8,3,-3,20,-21,-5
1537907857707387,-5,-8,30,9,3,12,8,-19
1537907857707387,1,11,-22,-14,-1,0,10,9
1537907857709382,12,1,43,21,8,27,-3,7
1537907857709382,-16,-9,-51,-7,-4,-9,-12,-11
1537907857721350,1,-8,-47,-8,-2,2,20,7
1537907857721350,5,13,23,-2,-1,-1,2,5
1537907857730326,-1,9,38,4,3,6,-9,-7
1537907857730326,-5,1,14,-1,-5,-10,-2,-5
1537907857744288,2,-4,-6,-1,-2,4,8,6
1537907857744288,-2,-4,-2,-3,3,-4,-2,1
1537907857751269,2,-5,-1,-2,0,-1,0,-2
1537907857751269,-5,3,12,1,-1,5,0,-4
1537907857767227,2,1,14,4,-2,-6,-5,1
1537907857767227,-7,2,13,-6,-1,-7,-2,-3
1537907857769222,4,4,-21,5,1,12,2,2
1537907857769222,-1,-9,-41,0,2,-4,-4,1
1537907857781189,-3,-5,-35,-6,-1,-6,-2,-2
1537907857781189,-5,-8,-5,-10,-2,-2,5,0
1537907857790165,6,8,-3,1,3,11,5,3
1537907857790165,-1,9,33,2,-2,-8,-5,-3
1537907857804127,-2,-9,-23,12,2,-3,-2,1
1537907857804127,-4,-8,-6,-11,1,2,4,-1
1537907857811108,0,8,6,4,-3,4,-5,-3
1537907857811108,-3,4,22,-7,-6,-8,-5,-4
1537907857827065,1,-4,-8,4,-1,2,3,3
1537907857827065,5,2,1,4,1,2,2,4
1537907857829061,-9,-15,14,-4,-1,5,-2,-4
1537907857829061,-5,-4,1,0,-4,-10,-5,-5
1537907857841028,1,9,12,-3,3,1,0,2
1537907857841028,3,3,-24,3,6,7,7,4
1537907857850005,-1,-7,-4,-3,-4,-3,-4,-2
1537907857850005,5,6,24,2,-2,3,3,2
1537907857863967,1,-7,-3,-1,-3,-2,1,3
1537907857863967,-1,6,5,-1,1,-5,-4,-1
1537907857870948,-21,-4,7,1,-2,-1,-9,-26
1537907857870948,-4,-3,-24,-1,0,2,0,-2
1537907857887903,6,0,-3,0,3,-1,7,8
1537907857887903,11,6,12,10,6,6,12,20
1537907857893887,10,-7,-19,-15,-5,3,7,12
1537907857893887,1,-4,-10,10,2,-1,-4,-2
1537907857900869,-11,-7,2,16,-1,-3,-1,-19
1537907857900869,-15,-1,-5,-76,-40,-18,-37,-24
1537907857909844,-6,5,33,55,29,14,28,19
1537907857909844,-6,-60,-63,-12,-3,-1,1,6
1537907857924804,14,49,41,-2,-6,-5,-8,-5
1537907857924804,-55,-45,-15,119,31,12,-8,-38
1537907857930788,41,10,-66,-120,-43,-19,-23,-14
1537907857930788,3,3,34,46,3,-4,9,15
1537907857948740,-4,-16,7,70,11,4,27,32
1537907857948740,10,21,-10,-35,17,5,6,9
1537907857950735,-47,-42,-49,-58,-42,-29,-79,-72
1537907857950735,11,-10,41,-31,29,24,47,17
1537907857960708,-3,0,8,22,-7,-25,-78,-29
1537907857960708,-2,36,-22,-43,-4,1,-16,-6
1537907857977663,63,24,83,127,68,21,64,71
1537907857977663,-9,63,31,-128,-69,-9,-9,-26
1537907857984644,16,8,-22,1,28,3,39,16
1537907857984644,-9,-26,-13,21,-3,4,-4,-12
1537907857990628,-42,-31,-35,-8,-6,-2,41,0
1537907857990628,15,-2,-2,55,17,-5,-54,5
1537907858006585,-5,-11,1,-52,-5,3,23,1
1537907858006585,27,22,15,-5,-6,-13,3,33
1537907858013567,1,8,8,-42,-17,15,9,2
1537907858013567,-15,-10,-18,22,12,-10,-22,-19
1537907858021546,-6,-12,-17,-14,-11,2,-3,-6
1537907858021546,9,-6,20,-7,-5,-10,-32,-2
1537907858029524,7,17,4,27,12,3,15,16
1537907858029524,-6,-10,-13,8,2,1,4,-3
1537907858044484,-12,-3,2,-16,-10,1,-31,-25
1537907858044484,12,-1,14,10,-6,-1,21,18
1537907858051466,-1,-3,-2,-1,4,0,-8,3
1537907858051466,-8,6,-12,7,-3,3,2,-8
1537907858066426,1,-9,10,-17,-6,3,14,8
1537907858066426,3,-3,-3,-1,9,31,18,1
1537907858073407,-3,-5,-10,-3,-4,32,-5,-7
1537907858073407,-3,-2,-6,-6,0,-21,-2,-7
1537907858081386,7,13,17,5,-3,-27,-4,8
1537907858081386,1,-7,19,-4,-3,-3,4,-6
1537907858090363,-4,6,-26,-5,0,9,-19,-7
1537907858090363,4,-6,6,9,4,12,15,8
1537907858104326,-3,-11,-42,-5,-2,20,2,9
1537907858104326,-6,-1,2,-1,1,5,8,-33
1537907858111307,3,-1,1,-2,-1,-10,1,23
1537907858111307,1,3,16,3,3,9,10,6
1537907858127266,-5,-3,-10,3,2,-5,-4,-6
1537907858127266,-1,-2,10,-6,-8,-10,1,-5
1537907858133248,5,7,0,5,5,-8,-5,-1
1537907858133248,-3,0,30,3,-4,-10,-7,-2
1537907858150202,-4,-7,-36,-13,-3,4,-6,-8
1537907858150202,1,0,-4,7,0,-4,6,11
1537907858151199,-1,-3,12,2,1,-7,-1,-7
1537907858151199,-2,2,-14,7,0,-1,-2,1
1537907858164165,-2,5,71,-3,-5,1,4,-3
1537907858164165,1,2,-44,0,1,-1,5,6
1537907858171146,-4,-4,-18,-6,-4,-11,-8,-5
1537907858171146,-2,-6,-50,-2,-3,-2,-3,-2
1537907858187104,-1,3,15,4,-1,4,2,1
1537907858187104,0,-2,1,0,0,-12,-1,2
1537907858194085,-2,3,23,3,-3,-3,-7,-7
1537907858194085,-2,-7,-22,-3,-2,-2,-2,0
1537907858210042,0,2,5,0,5,4,4,0
1537907858210042,-3,-3,7,-7,-5,-3,0,0
1537907858211040,2,0,7,4,-2,-2,-3,-1
1537907858211040,3,6,7,0,0,3,1,1
1537907858224005,-5,-4,7,5,-2,-8,-3,-2
1537907858224005,-5,0,1,-2,-2,1,1,-2
1537907858230986,-5,-6,-14,-6,-5,-8,-3,-3
1537907858230986,0,-1,-11,2,-1,-3,-2,1
1537907858254922,2,0,-3,-7,1,-3,-1,0
1537907858254922,-1,-3,24,0,-5,-4,-2,2
1537907858256917,-1,-4,-21,0,-2,-2,-2,-3
1537907858256917,0,3,9,-1,1,1,-1,0
1537907858269885,2,1,-5,-4,-1,2,0,-1
1537907858269885,0,-3,10,-3,1,-1,1,1
1537907858271878,-4,-3,26,2,-2,-2,-1,-3
1537907858271878,-1,-2,-21,0,-1,1,-2,-3
1537907858283845,-1,1,14,-4,-2,1,0,0
1537907858283845,-3,-4,-20,-2,1,-1,-1,3
1537907858290828,0,6,21,2,0,-1,-2,-4
1537907858290828,0,2,2,3,1,0,0,1
1537907858306785,-1,-12,-15,-8,-1,2,0,-3
1537907858306785,-5,-5,-12,3,2,-3,0,0
1537907858313765,0,-3,18,0,-2,-2,-2,-1
1537907858313765,-2,8,-6,-4,-1,1,0,-1
1537907858329723,-1,-1,-10,2,-1,0,-1,0
1537907858329723,1,-1,0,-3,-3,-2,0,1
1537907858331718,2,-2,-12,-3,0,1,2,0
1537907858331718,3,2,22,0,-1,-1,0,1
1537907858344683,1,-2,-9,-1,3,3,2,0
1537907858344683,0,1,7,-1,-4,-4,-1,-2
1537907858351664,-1,-1,-20,-1,-1,0,-1,0
1537907858351664,2,-8,-8,-3,-2,-1,0,3
1537907858366623,-2,3,20,2,2,2,3,4
1537907858366623,3,4,18,-4,-3,-2,0,2
1537907858373605,2,-2,-26,3,0,-2,-2,-1
1537907858373605,-11,-7,-14,-11,-2,-4,-7,-10
1537907858389562,-5,-7,3,2,-2,-1,-3,-4
1537907858389562,25,5,21,20,8,5,17,31
1537907858391557,11,5,-19,-24,-1,-3,-7,4
1537907858391557,-39,-9,29,7,-16,-11,-9,-33
1537907858404522,-17,-19,-23,-21,-4,0,-15,-27
1537907858404522,15,9,-3,37,15,2,37,26
1537907858411503,-67,4,33,-80,-45,-19,-63,-63
1537907858411503,62,-33,-51,59,24,10,46,61
1537907858426463,26,19,68,-31,3,10,-7,24
1537907858426463,-66,-27,-52,37,-15,-10,-64,-99
1537907858433444,45,18,28,85,43,27,123,90
1537907858433444,-23,16,-26,-34,7,0,-81,-63
1537907858457382,37,1,-25,-57,-52,-25,21,53
1537907858457382,-15,-5,-30,79,53,22,-32,-25
1537907858459376,-49,-41,21,-91,-62,-34,-82,-73
1537907858459376,-3,32,28,62,13,-12,-17,4
1537907858471345,23,23,-5,-11,8,27,101,47
1537907858471345,40,17,12,-58,-2,-4,22,61
1537907858480321,11,-18,-18,91,21,31,34,-15
1537907858480321,-18,-12,10,-85,-38,-18,-2,-17
1537907858495279,3,-6,-11,55,19,5,4,16
1537907858495279,-1,-6,11,15,-4,-5,14,-13
1537907858496277,-40,-14,-29,-50,2,-27,-94,-57
1537907858496277,10,-7,12,17,-1,5,-1,-2
1537907858517220,-4,-3,-18,-3,2,6,13,-18
1537907858517220,6,-8,7,-4,-8,0,14,32
1537907858519215,29,12,4,24,16,5,25,45
1537907858519215,-1,10,-1,-4,0,6,13,3
1537907858531183,-30,-18,-13,-5,-6,-21,-48,-33
1537907858531183,10,11,14,-21,-6,-1,15,8
1537907858540159,11,13,-4,12,5,3,2,5
1537907858540159,-8,-8,2,-25,-5,1,18,4
1537907858555120,-1,2,-2,34,11,0,-8,-5
1537907858555120,-6,-3,21,-24,-14,-7,-17,-11
1537907858556118,0,-2,-20,2,5,12,21,9
1537907858556118,4,-4,-3,10,2,-2,5,12
1537907858577062,-7,-4,-2,7,5,20,-20,-13
1537907858577062,-8,2,-6,-20,-16,-30,-14,-11
1537907858579058,4,-1,4,-6,-14,-39,1,10
1537907858579058,8,8,12,10,7,2,8,9
1537907858591025,-12,2,-6,1,1,-2,-18,-18
1537907858591025,-7,-3,21,-23,-2,16,6,-2
1537907858600002,13,8,8,20,7,14,13,18
1537907858600002,3,-7,-64,-8,3,-6,1,4
1537907858614960,-10,-5,-1,5,3,-1,-4,-11
1537907858614960,-1,-3,-5,1,-1,7,-1,1
1537907858615957,7,9,38,5,2,-4,2,9
1537907858615957,-2,5,10,0,-2,5,2,-1
1537907858636901,-7,-8,-30,-3,-5,-8,-9,-8
1537907858636901,4,3,-12,-11,-3,-8,-1,3
1537907858637898,2,1,-17,0,2,4,-1,-1
1537907858637898,-2,-6,0,-3,-1,3,5,4
1537907858658842,-1,6,63,8,1,-7,-1,1
1537907858658842,-3,0,-32,-5,-7,-3,-6,-7
1537907858659839,1,-1,-14,1,6,8,7,3
1537907858659839,2,5,24,-4,-1,3,3,5
1537907858673802,-2,-3,-14,10,1,-7,-5,-2
1537907858673802,-5,-4,20,-6,0,3,-3,-5
1537907858674800,1,-2,-2,5,-3,-1,1,1
1537907858674800,2,-3,-19,-17,-1,-3,2,2
1537907858696742,-1,3,34,0,-3,-4,-5,-7
1537907858696742,-1,-4,-35,-6,-2,0,1,-3
1537907858704722,3,-1,8,3,4,5,2,4
1537907858704722,0,-1,15,9,1,1,-1,0
1537907858719681,-4,-3,-8,-1,-2,-4,-3,-4
1537907858719681,0,-3,-8,-5,0,3,-1,-1
1537907858719681,-1,1,-6,-1,-4,-3,-1,-1
1537907858719681,-1,5,37,7,-1,1,2,0
1537907858734640,-4,-3,-3,-10,-6,-6,-5,-2
1537907858734640,-1,1,11,-2,-1,-2,0,0
1537907858734640,0,-1,-28,0,0,3,1,1
1537907858734640,-3,-4,0,-8,-2,0,-2,0
1537907858756582,-2,0,1,8,-1,-2,-3,-1
1537907858756582,0,8,45,1,-1,-3,0,1
1537907858757581,-1,2,3,6,2,3,2,-2
1537907858757581,2,-5,-29,-4,-2,0,1,2
1537907858779520,-2,-4,7,-9,-1,-1,-3,-4
1537907858779520,-2,-7,-32,-8,-4,-3,-3,-2
1537907858779520,7,3,6,1,4,0,2,5
1537907858779520,6,8,12,9,2,1,3,8
1537907858794481,8,5,-3,1,-1,0,3,9
1537907858794481,-33,-12,17,15,0,-4,-18,-37
1537907858795478,-11,-5,-1,-20,-5,-8,-10,-10
1537907858795478,18,0,-19,34,13,5,8,11
1537907858816422,-15,1,2,-58,-17,-3,-7,-13
1537907858816422,15,9,-14,19,-8,-2,23,32
1537907858817419,3,-21,-18,7,4,1,22,-6
1537907858817419,-38,6,9,-5,6,4,-36,-39
1537907858839360,5,-16,-34,-34,-27,-18,-3,-2
1537907858839360,8,26,12,92,29,13,-12,17
1537907858840357,-18,-29,-14,-102,-28,-14,-34,-38
1537907858840357,46,17,22,23,-17,-3,64,71
1537907858854320,-30,4,8,55,25,18,-12,-37
1537907858854320,-4,-17,4,-28,-15,-15,-49,-60
1537907858855317,30,9,-36,45,43,17,37,57
1537907858855317,-22,-19,51,-33,-32,-19,-54,-38
1537907858877258,3,-23,-44,-14,-17,-14,6,-1
1537907858877258,47,8,14,39,10,-2,44,96
1537907858877258,-44,13,24,19,-1,9,9,-51
1537907858877258,45,7,-26,18,29,5,-3,49
1537907858899199,-27,4,32,-39,-37,-6,-43,-61
1537907858899199,-16,-17,-16,-12,1,-9,-10,-35
1537907858900197,8,1,-5,0,-7,8,10,13
1537907858900197,-23,-4,-3,3,2,1,-2,-13
1537907858914160,33,9,-5,40,20,11,35,43
1537907858914160,-4,3,-7,-35,-5,1,-2,0
1537907858915158,6,6,5,14,3,-5,-4,16
1537907858915158,-9,-10,8,-15,-8,1,6,-10
1537907858937101,2,6,-10,28,19,-1,-11,8
1537907858937101,-4,-4,3,-36,-11,2,8,-10
1537907858937101,1,-2,2,3,-4,-6,-11,6
1537907858937101,-10,-4,-9,1,5,0,-6,-20
1537907858959040,2,-1,-5,7,3,-2,7,7
1537907858959040,-8,-2,-1,-9,-2,2,1,-2
1537907858960037,5,0,3,5,-4,0,-5,-1
1537907858960037,-5,1,3,-6,-2,9,2,-7
1537907858974000,4,1,-32,1,16,36,9,13
1537907858974000,-2,-5,-16,-19,-11,-41,-2,-4
1537907858974997,0,6,43,2,-6,-15,-15,-3
1537907858974997,-2,2,-51,-12,-5,19,10,-7
1537907858997935,-3,0,28,5,1,-51,6,8
1537907858997935,1,-2,-11,4,6,32,1,1
1537907858998933,0,-2,-24,-2,-2,1,-5,-2
1537907858998933,-3,2,31,-2,-3,-9,0,-2
1537907859011898,1,-2,0,3,2,20,3,-13
1537907859011898,-2,5,-31,-8,1,4,3,7
1537907859012895,1,-8,-34,-5,-3,-11,0,5
1537907859012895,-2,-3,8,-2,-1,10,3,-1
1537907859033839,0,5,38,9,3,-4,-4,-3
1537907859033839,-3,-3,2,-17,-10,-11,0,-8
1537907859034837,1,4,-2,2,2,13,1,0
1537907859034837,-1,-1,-6,-5,1,-6,-5,-6
1537907859048799,1,1,0,-2,-2,-7,-2,6
1537907859048799,-2,-2,15,1,0,2,-1,-2
1537907859055781,0,0,4,1,-1,8,-2,2
1537907859055781,-5,-1,-8,1,-1,-11,-2,-3
1537907859071738,0,2,17,2,-2,-5,0,6
1537907859071738,-2,-4,8,-3,-1,15,2,-1
1537907859072736,-3,-1,-47,-2,1,-3,-2,-4
1537907859072736,0,-1,9,-3,-3,-10,0,0
1537907859087696,-1,-3,-29,-1,1,8,-1,5
1537907859087696,-3,-1,17,-3,2,5,-2,-6
1537907859093679,-2,0,22,0,-6,-8,-2,-1
1537907859093679,-1,-3,-11,5,1,-3,-2,-1
1537907859108640,0,-1,-11,-3,2,6,1,4
1537907859108640,1,2,2,-1,0,-4,-1,-1
1537907859115621,-2,3,21,0,-3,-4,-2,-1
1537907859115621,-1,-6,-21,-6,-1,3,2,-2
1537907859131579,-1,-2,-10,1,1,1,-2,-1
1537907859131579,1,1,11,4,-1,-2,-1,-1
1537907859132576,-5,2,43,1,0,2,-3,-4
1537907859132576,-1,-6,-34,-8,-5,-4,-4,-2
1537907859147536,2,3,-1,0,1,-4,0,4
1537907859147536,-5,-4,-6,-6,-1,0,-2,-2
1537907859153520,2,3,26,8,1,4,1,1
1537907859153520,-1,1,7,1,0,-3,-1,1
1537907859168480,0,0,-12,4,-1,-1,-1,-1
1537907859168480,3,-2,-6,0,-2,3,1,-1
1537907859176459,-2,-5,-37,-5,-2,-1,0,0
1537907859176459,0,1,36,-3,-3,-1,0,0
1537907859191420,-6,-7,-58,-8,0,-2,-2,-6
1537907859191420,1,10,27,4,2,1,-1,-1
1537907859192417,2,4,10,1,-1,-1,0,1
1537907859192417,-1,-1,-2,-3,-2,-3,-2,-2
1537907859207377,2,-3,13,1,1,1,-1,4
1537907859207377,-5,-5,-12,-7,-2,-1,1,-3
1537907859213361,0,-1,-5,0,-7,-7,-1,0
1537907859213361,0,2,22,7,1,2,-2,1
1537907859237296,-2,-5,-9,-8,-3,0,0,-4
1537907859237296,-1,0,-5,2,1,-1,0,4
1537907859237296,0,-5,-19,-7,-2,1,0,0
1537907859237296,0,0,0,0,-1,-1,0,-2
1537907859252256,-3,2,18,0,-2,-3,-3,-2
1537907859252256,1,1,-8,-1,1,2,1,1
1537907859252256,1,0,3,2,0,-1,-2,1
1537907859252256,3,-1,-4,1,0,-2,-1,1
1537907859274197,-4,2,19,2,0,3,4,3
1537907859274197,1,0,-8,-1,0,-3,-2,-3
1537907859275195,-8,-5,-11,-2,-2,0,-3,-8
1537907859275195,-3,-2,-8,4,4,1,0,-4
1537907859288160,9,2,-5,-14,-8,-1,-1,3
1537907859288160,7,-2,2,27,16,6,11,18
1537907859296138,8,-3,6,-8,-8,-8,-4,-9
1537907859296138,-15,13,-15,-2,-3,4,21,3
1537907859312096,-4,-5,-11,20,13,1,0,5
1537907859312096,-48,-19,7,-26,-14,-21,-57,-57
1537907859312096,10,13,-14,-24,-6,24,23,0
1537907859312096,27,3,73,65,-1,10,58,57
1537907859327056,19,3,-49,-77,-25,-26,-56,-36
1537907859327056,-21,18,20,-8,-25,-9,19,-2
1537907859334038,-15,-8,-16,-40,7,14,-8,2
1537907859334038,24,5,-23,-10,-6,-26,-83,-29
1537907859348999,29,1,28,43,19,22,60,80
1537907859348999,-31,-27,-22,39,15,7,12,-43
1537907859355981,3,22,9,-14,-5,0,-31,-25
1537907859355981,-2,-10,-12,3,8,24,-21,-31
1537907859371936,-23,0,0,-29,-12,-26,-49,-15
1537907859371936,14,11,-4,2,11,14,94,78
1537907859372934,-8,-19,19,3,-15,-19,-49,-18
1537907859372934,24,12,-21,-25,-6,-7,20,12
1537907859388891,-12,-2,1,47,11,6,-11,-12
1537907859388891,19,-9,-13,-38,-8,9,8,9
1537907859393877,5,5,-3,14,1,-4,23,25
1537907859393877,-23,-10,10,-1,3,-8,0,-4
1537907859408837,-1,-3,9,11,-5,1,3,-13
1537907859408837,13,5,-8,-10,1,1,-7,9
1537907859415819,-1,-8,-1,25,8,-6,-7,2
1537907859415819,-13,-1,-10,-37,-12,-7,-20,-17
1537907859431776,-5,-2,13,23,5,11,32,2
1537907859431776,15,1,9,4,1,-3,-35,-6
1537907859432773,-4,-4,-5,4,-1,-6,3,-5
1537907859432773,-12,-8,-7,13,2,3,15,0
1537907859447733,-1,8,11,-15,-2,5,5,0
1537907859447733,2,-5,-24,1,-2,-5,-19,-10
1537907859453718,4,-1,-11,-2,7,18,4,3
1537907859453718,-3,2,13,5,11,40,22,8
1537907859468677,-7,-7,52,-6,-23,-90,-20,-10
1537907859468677,5,9,-32,-16,-12,28,-16,-6
1537907859475658,-3,-8,-13,27,19,-20,11,-5
1537907859475658,0,-5,5,-5,-1,3,-2,8
1537907859491616,-2,-1,-16,-7,6,45,-5,-6
1537907859491616,0,0,-12,5,0,-15,4,-10
1537907859492613,3,8,23,-1,-6,6,12,5
1537907859492613,-6,-2,15,7,4,3,-3,-4
1537907859506576,-1,-5,-14,-5,3,4,5,0
1537907859506576,2,2,49,3,-3,-2,-1,2
1537907859513557,0,-1,-63,-6,0,12,1,2
1537907859513557,-7,-8,14,-12,-4,-27,-8,-9
1537907859528517,-2,3,6,8,1,11,7,-2
1537907859528517,2,-4,-28,7,3,-4,-11,-2
1537907859536496,0,11,52,4,-4,-10,3,1
1537907859536496,-1,-3,-61,-5,-2,-8,-2,-1
1537907859551456,-1,0,12,-7,2,8,4,-2
1537907859551456,0,-4,-6,-2,2,-3,-5,1
1537907859552454,-3,-6,37,3,-5,-12,-1,4
1537907859552454,-3,5,-1,4,-1,-2,-1,-1
1537907859566418,-2,-2,-19,-1,0,9,-1,-3
1537907859566418,2,-1,28,-3,-3,-9,-3,1
1537907859573398,-3,-3,14,10,1,0,1,0
1537907859573398,-3,-6,-76,-11,0,7,0,-1
1537907859588358,1,-3,-10,0,0,-4,4,0
1537907859588358,-1,5,47,-1,-2,-7,-6,-1
1537907859596336,1,-3,-10,3,1,0,2,4
1537907859596336,-3,1,4,-1,-5,-4,-4,-5
1537907859613292,2,6,23,1,1,8,-1,3
1537907859613292,3,-1,-38,3,1,1,4,3
1537907859614290,-5,-3,-1,-1,-3,2,-2,-5
1537907859614290,-3,-6,54,0,-1,-5,-2,-7
1537907859626257,5,-2,-75,-2,-5,-1,2,2
1537907859626257,-7,-4,12,-4,0,-4,-4,-5
1537907859633239,5,4,13,6,2,-2,1,7
1537907859633239,11,2,-19,-10,-6,-4,3,14
1537907859648198,-8,-3,15,2,1,-1,-4,-7
1537907859648198,5,-4,-4,11,3,-2,-4,-1
1537907859656178,-40,-13,-10,-31,-17,-10,-19,-40
1537907859656178,11,8,17,14,8,-1,0,7
1537907859672135,14,11,-10,10,7,6,34,23
1537907859672135,7,-2,-7,-6,-9,-2,0,32
1537907859672135,9,-12,9,59,18,6,-27,-3
1537907859672135,-22,-3,-5,-60,-22,-12,-22,-55
1537907859686097,-2,-16,-5,-19,4,6,14,5
1537907859686097,-50,1,-11,12,-6,-5,-32,-46
1537907859693078,61,10,-7,-12,-33,-12,40,76
1537907859693078,-16,-1,11,-48,1,24,12,10
1537907859709035,-41,-5,-9,-88,-20,-32,-98,-93
1537907859709035,45,27,24,-7,11,4,85,77
1537907859716016,-53,1,-18,80,17,5,-39,-59
1537907859716016,20,-14,10,-6,5,-8,44,51
1537907859731973,12,-4,-9,38,3,10,-18,8
1537907859731973,-13,-1,3,-36,-13,-21,-51,-60
1537907859731973,-4,-2,-3,3,8,18,57,-2
