timestamp,emg1,emg2,emg3,emg4,emg5,emg6,emg7,emg8
1537905075339681,-2,0,-4,2,5,-1,2,0
1537905075339681,1,-1,-4,12,3,1,0,-1
1537905075339681,-2,-6,-9,0,5,1,1,-1
1537905075339681,0,-4,-43,-24,-14,-7,-4,-2
1537905075346662,2,5,14,-15,-7,1,-1,1
1537905075346662,-1,-1,24,10,2,-1,-1,-2
1537905075348657,-3,-1,12,10,4,2,-1,0
1537905075348657,0,1,4,14,8,0,-2,0
1537905075358631,-2,-2,-3,-24,-13,-5,-3,-3
1537905075358631,0,-2,-22,25,4,0,1,0
1537905075369601,2,3,10,-28,-11,-3,-1,-1
1537905075369601,1,1,8,10,1,-1,-2,-1
1537905075373590,0,-5,-7,12,5,3,0,0
1537905075373590,-2,0,4,5,4,1,0,1
1537905075384561,1,-5,-16,-1,1,-1,-1,-1
1537905075384561,-2,-1,-2,6,3,2,1,-2
1537905075395532,1,1,4,0,0,-3,-2,0
1537905075395532,-3,1,12,-4,-2,-2,-4,-1
1537905075411490,0,9,6,9,-3,-2,-2,-1
1537905075411490,-2,-15,16,-23,7,4,1,0
1537905075412487,-2,9,-40,9,-7,-2,-2,-2
1537905075412487,-4,-13,-6,-60,-23,-7,-4,-2
1537905075434428,-3,3,3,2,0,-1,-1,0
1537905075434428,0,3,18,1,-4,1,2,-1
1537905075472327,3,-3,19,4,1,2,0,1
1537905075472327,1,3,-15,-4,2,2,1,0
1537905075473324,-1,-2,3,12,2,-1,-3,-2
1537905075473324,-1,-2,-4,-17,-1,-1,-1,0
1537905075474322,1,6,-2,-14,-2,0,-1,-1
1537905075474322,-5,-3,1,-9,-9,-5,-2,-3
1537905075474322,1,-2,0,0,2,3,0,-2
1537905075474322,-3,-9,-5,0,-4,-1,-1,-1
1537905075495265,-1,0,0,-1,-3,-1,-1,-1
1537905075495265,-1,-6,-12,-9,0,1,-2,0
1537905075496263,-1,4,-16,7,-4,-4,-1,-2
1537905075496263,1,-4,18,-1,8,2,0,0
1537905075509228,0,0,4,8,-6,-6,-2,-2
1537905075509228,1,5,15,10,-2,-3,-1,-2
1537905075515212,-1,-11,-17,-9,0,0,1,-1
1537905075515212,2,2,0,12,6,2,0,1
1537905075530172,-4,-6,-1,4,3,-2,-1,-1
1537905075530172,-1,-3,-14,-14,15,4,2,0
1537905075538150,-1,7,23,-14,-21,-9,-2,-2
1537905075538150,0,7,12,8,-1,-2,-2,-3
1537905075547127,0,-2,-30,-3,3,1,-1,2
1537905075547127,-4,-7,25,18,3,1,1,-2
1537905075569068,1,-6,-5,2,9,2,0,1
1537905075569068,-3,10,-3,-5,-2,-1,-2,-3
1537905075571063,2,0,16,1,-4,-1,0,-1
1537905075571063,0,1,-14,-16,-6,-3,-2,-2
1537905075584028,-1,-3,6,1,1,2,0,1
1537905075584028,-1,-1,3,8,-3,-3,-1,-1
1537905075586023,0,2,-10,-11,2,1,0,-1
1537905075586023,2,-3,-2,8,3,1,1,1
1537905075597991,-1,5,4,5,0,0,1,-2
1537905075597991,-1,-2,4,-3,0,-4,-1,-1
1537905075606967,-2,-3,-9,7,-5,1,0,-2
1537905075606967,-1,2,16,-14,-7,-4,-1,-1
1537905075620930,1,1,-19,-5,11,4,4,1
1537905075620930,-1,-2,5,-10,-3,-1,-1,-1
1537905075627912,-3,-4,9,25,7,4,2,0
1537905075627912,6,10,-25,1,-17,-4,0,4
1537905075644867,-6,-10,33,106,33,11,4,0
1537905075644867,0,6,-78,-103,-41,-13,-2,-3
1537905075645865,2,-1,16,-4,5,6,5,4
1537905075645865,3,-2,-5,41,43,12,6,6
1537905075657833,-5,0,26,-68,-60,-23,-8,-5
1537905075657833,-4,-12,-9,59,51,7,2,1
1537905075674789,-1,-8,4,-27,0,9,2,1
1537905075674789,-1,3,16,-7,-42,-15,-7,-5
1537905075680771,3,0,11,64,68,26,10,9
1537905075680771,-2,8,38,-102,-52,-19,-11,-5
1537905075687752,-8,0,66,13,-3,-12,-7,-5
1537905075687752,-7,-13,-97,-60,-6,3,1,-5
1537905075704705,5,39,123,-42,-45,-15,-8,-3
1537905075704705,8,2,-89,67,28,19,6,8
1537905075705703,0,-3,-24,12,81,17,-1,-1
1537905075705703,-4,8,61,19,-31,-14,-7,-4
1537905075717671,-5,-4,-22,18,-26,-9,-7,-10
1537905075717671,8,20,17,127,48,14,10,5
1537905075726647,4,8,-110,-84,-82,-38,-10,0
1537905075726647,4,15,50,61,26,14,7,4
1537905075741607,1,0,12,48,0,14,4,2
1537905075741607,-15,-35,16,7,-5,-3,-1,-4
1537905075747591,1,21,15,-38,-25,2,1,-4
1537905075747591,10,-7,76,78,32,-1,4,8
1537905075763548,5,2,-57,-12,-27,-10,-3,2
1537905075763548,-6,-23,-12,20,11,-1,-6,-5
1537905075771527,-9,-9,42,38,13,11,5,-1
1537905075771527,1,3,-116,-11,9,8,-1,0
1537905075786487,2,-8,4,-57,59,20,9,5
1537905075786487,-4,-9,-52,-54,-58,-17,-7,-4
1537905075788482,2,8,21,34,17,8,1,0
1537905075788482,-6,-19,-17,-18,9,-2,-4,-4
1537905075809426,0,9,-8,8,-15,-12,-5,-1
1537905075809426,-1,4,14,1,7,2,-4,-5
1537905075815410,-6,-10,85,27,-34,-14,-9,-8
1537905075815410,-8,-39,-96,-31,-7,-1,-2,-3
1537905075823389,6,8,75,-17,30,10,5,5
1537905075823389,1,10,88,-22,-16,0,1,1
1537905075832365,0,-3,-18,18,-13,-7,-3,-1
1537905075832365,-5,-5,33,-34,-24,-8,-5,-5
1537905075847326,-2,-12,-75,-17,5,-3,1,0
1537905075847326,2,6,23,17,7,2,2,1
1537905075848324,2,-4,-60,-6,12,5,3,-1
1537905075848324,-2,11,2,-2,-20,-7,-2,-3
1537905075861288,-4,-13,-45,-31,-3,1,-3,-4
1537905075861288,3,1,17,13,4,0,0,0
1537905075875251,-1,-6,-23,-3,-1,-3,0,-1
1537905075875251,0,6,13,-22,7,7,-1,0
1537905075884226,-2,-4,8,35,4,-1,-3,-3
1537905075884226,-3,-4,1,-4,-2,-2,-1,-2
1537905075886221,-1,-1,-22,-8,-2,-2,-1,1
1537905075886221,0,6,22,3,7,1,-2,0
1537905075914147,-2,-7,-9,-7,-6,-5,-2,-3
1537905075914147,-1,6,-26,-10,-6,-3,0,-1
1537905075916142,1,-5,-13,-9,5,3,-1,1
1537905075916142,-1,0,28,8,-1,-2,0,-1
1537905075920130,-2,-9,-21,-11,-16,-8,-2,-2
1537905075920130,0,-7,-5,-12,6,4,1,1
1537905075929106,0,-1,10,10,8,1,-1,-2
1537905075929106,-2,2,13,0,0,0,-1,-2
1537905075945064,-2,2,-17,-9,-7,-6,-4,-3
1537905075945064,1,7,1,-2,-1,0,0,1
1537905075950050,0,4,-1,0,0,0,-1,1
1537905075950050,0,2,-2,-3,5,-3,-1,-1
1537905075967005,-4,-2,-16,-20,-24,-9,-4,-3
1537905075967005,-1,-1,7,6,3,1,0,-2
1537905075968003,-1,-4,-2,-2,26,8,2,-1
1537905075968003,-2,-2,13,2,-42,-11,-5,-3
1537905075980968,-2,-8,-29,-11,-2,-4,-2,-4
1537905075980968,1,2,4,-10,-4,-1,-2,0
1537905075989944,-1,-2,-7,5,0,-1,-2,-1
1537905075989944,0,1,6,1,12,4,3,1
1537905076004904,-2,-6,4,2,5,2,-1,1
1537905076004904,0,-3,3,-8,-13,-5,-1,-1
1537905076005903,2,4,-8,4,1,-1,-1,0
1537905076005903,-2,5,6,2,5,2,-1,0
1537905076026846,0,6,-1,0,-6,-2,-2,-2
1537905076026846,-1,2,-6,-4,10,3,0,-3
1537905076028842,1,7,5,-3,-11,-5,-2,1
1537905076028842,0,6,1,-2,4,1,2,-2
1537905076040809,-1,2,-2,3,3,1,-1,-1
1537905076040809,0,5,-7,-2,-3,-2,-2,0
1537905076056765,-2,0,-1,1,-2,-1,-1,-2
1537905076056765,-1,0,-5,-3,-1,-1,-1,-1
1537905076071728,0,4,-1,-1,4,2,0,0
1537905076071728,-1,0,3,4,-2,0,-2,0
1537905076073722,-3,-3,1,-4,-6,-3,0,0
1537905076073722,1,-1,-3,0,5,1,-1,-1
1537905076086686,-1,-3,2,2,2,-1,-2,0
1537905076086686,0,-5,0,0,-4,-2,-1,2
1537905076088681,-1,-7,-2,-1,3,-1,-1,1
1537905076088681,1,-7,-12,-7,-6,-3,-3,0
1537905076100647,-1,-6,11,-1,-4,-1,0,-2
1537905076100647,0,-7,-5,0,-3,-3,-1,-1
1537905076109624,0,-3,3,3,2,0,1,-1
1537905076109624,1,-3,-2,0,2,0,0,0
1537905076124584,0,-3,-2,1,1,-1,-1,0
1537905076124584,-1,-3,-1,0,4,2,0,-3
1537905076125581,-1,1,9,-1,-6,-1,-1,-3
1537905076125581,-1,2,-21,-2,2,0,-1,-3
1537905076154503,-2,1,27,0,-1,0,-2,-2
1537905076154503,2,5,-23,6,0,1,1,1
1537905076155501,1,-1,9,0,-3,-3,-1,-1
1537905076155501,2,0,14,1,-2,-2,-2,-1
1537905076169463,-1,1,-8,2,6,1,1,-1
1537905076169463,0,1,3,-1,9,1,3,-1
1537905076170461,-1,-1,0,-33,-2,0,-1,2
1537905076170461,-4,-3,-4,2,-32,-12,-6,-5
1537905076184423,-3,-5,-29,3,4,2,1,-1
1537905076184423,-1,0,13,8,-1,0,1,1
1537905076185421,-1,5,36,14,40,11,3,1
1537905076185421,-1,1,35,-50,-22,-5,-3,-1
1537905076207362,-10,-20,-64,-22,-44,-20,-13,-9
1537905076207362,8,16,-26,-93,10,9,8,7
1537905076208362,0,-8,-46,69,-25,-16,-2,-1
1537905076208362,-5,-5,106,88,50,21,3,-1
1537905076220328,7,5,-50,-7,25,12,11,7
1537905076220328,4,18,23,99,-17,-12,-13,-5
1537905076237282,3,-9,62,12,31,16,9,5
1537905076237282,-3,1,-95,-50,10,-4,-4,-4
1537905076244263,-8,-10,-52,-28,-55,-17,-11,-7
1537905076244263,4,1,59,79,61,19,7,5
1537905076246258,-1,9,-19,-69,-54,-22,-9,-5
1537905076246258,-6,-12,-21,61,37,20,1,-1
1537905076267202,-5,-7,52,-40,12,12,6,-2
1537905076267202,5,39,74,41,-27,-18,-9,-4
1537905076268199,-6,4,-117,14,-42,-17,-10,-7
1537905076268199,2,12,-1,-45,13,-2,3,4
1537905076280167,-5,-11,1,-59,-57,-23,-2,-1
1537905076280167,11,52,41,42,35,17,12,9
1537905076289143,3,10,-17,73,-10,-4,-2,-1
1537905076289143,5,5,16,23,2,2,17,11
1537905076304104,-1,-7,20,-26,8,-2,-2,0
1537905076304104,-11,-37,-54,-24,-30,-6,-6,-5
1537905076306098,1,-20,53,36,80,22,5,4
1537905076306098,3,-12,-57,-55,-42,-10,-4,-2
1537905076327042,4,-3,26,54,29,7,0,1
1537905076327042,-9,-18,62,-15,-28,-8,-5,-9
1537905076328039,1,16,-64,-48,-15,2,0,-1
1537905076328039,0,-5,13,-38,36,15,1,3
1537905076341005,1,19,94,70,-4,-7,-5,-1
1537905076341005,-7,-15,-62,-48,0,-3,-6,-6
1537905076348983,-4,0,98,5,-8,-7,-4,-4
1537905076348983,-5,-26,-8,-23,-36,-17,-5,-3
1537905076363943,4,14,-67,-33,-4,-1,0,1
1537905076363943,-5,-27,-39,-5,11,4,0,1
1537905076365938,-2,-12,33,6,3,0,-1,-1
1537905076365938,1,0,37,10,-6,-5,-3,-4
1537905076386883,-3,-7,-28,7,6,3,0,-2
1537905076386883,0,-6,-12,8,-7,-5,0,-1
1537905076388877,-1,-1,-9,-32,6,2,2,-1
1537905076388877,-1,8,-21,10,-17,-7,-2,-2
1537905076409822,2,7,-13,28,30,12,3,2
1537905076409822,0,-3,-24,-25,-2,-5,-2,-2
1537905076410818,0,1,-12,-20,-13,-4,-2,-1
1537905076410818,-2,1,-30,14,6,0,-3,-2
1537905076423784,1,0,27,27,14,4,-1,1
1537905076423784,-4,-21,-3,-23,-7,-4,-2,1
1537905076430765,0,-14,-27,-11,-7,-2,-1,-1
1537905076430765,1,1,7,18,-1,-3,0,-2
1537905076445725,-1,-1,10,-2,9,1,2,1
1537905076445725,-2,-3,-21,-18,-13,-3,-1,-3
1537905076454701,0,4,-16,0,4,4,0,-1
1537905076454701,1,12,3,8,2,1,-1,-1
1537905076469661,1,12,5,1,1,-2,-1,-1
1537905076469661,-2,1,-24,-10,-1,-1,0,-1
1537905076470658,-2,6,3,4,0,-1,-2,-3
1537905076470658,-1,5,9,5,0,-1,-1,-1
1537905076491602,-2,2,-3,2,0,0,-2,-1
1537905076491602,1,-1,-3,-5,0,0,1,1
1537905076493597,-3,-2,-5,-6,3,2,0,-1
1537905076493597,-2,-1,-6,2,-6,-4,-2,0
1537905076514541,1,-3,-4,5,5,0,0,-2
1537905076514541,-2,-5,-3,-5,1,0,-2,-2
1537905076515539,0,-1,0,-1,-2,-1,0,0
1537905076515539,0,-4,-9,-7,-2,-1,0,-2
1537905076529501,2,-3,4,5,-1,0,-1,2
1537905076529501,-3,-5,-1,-1,0,-1,-1,-1
1537905076530498,0,-1,-6,-5,0,1,1,-1
1537905076530498,3,0,-13,3,11,1,-1,2
1537905076550445,-4,-4,11,8,-10,-9,-4,-5
1537905076550445,2,1,-3,-5,-6,-2,-2,-2
1537905076559421,-2,1,0,4,0,-1,-1,0
1537905076559421,0,3,3,5,6,3,0,0
1537905076565405,2,1,-1,-7,4,1,2,1
1537905076565405,-1,-1,-7,-1,-2,-2,0,-2
1537905076574381,-1,1,-2,-4,0,-1,0,1
1537905076574381,-1,0,6,2,-3,-2,0,-2
1537905076589341,1,2,-5,-4,-1,0,1,-1
1537905076589341,-1,0,0,1,-2,-1,0,-1
1537905076590338,0,-2,-10,-5,-1,3,-1,-2
1537905076590338,-2,1,14,0,-12,-5,-3,-2
1537905076612280,-3,1,-27,-1,6,3,2,-2
1537905076612280,-1,1,10,-4,-4,-1,-2,-1
1537905076613277,0,2,42,-23,2,0,-1,0
1537905076613277,-2,-10,-82,50,10,4,0,-1
1537905076627240,8,19,61,51,20,4,3,4
1537905076627240,-8,-35,83,-45,-6,0,-2,-4
1537905076634222,-11,14,-119,-74,-21,-16,-11,-13
1537905076634222,12,47,127,91,57,15,7,10
1537905076649182,-5,-37,-60,16,-57,-13,-3,-1
1537905076649182,-4,-14,-46,20,-36,-16,-8,-3
1537905076651178,15,31,15,82,93,33,16,14
1537905076651178,-23,-38,-95,-128,-110,-52,-27,-19
1537905076672121,9,32,47,99,100,31,12,8
1537905076672121,-5,-24,-54,-77,-17,-8,-3,-4
1537905076673119,-4,-10,30,-11,-44,-17,-6,-5
1537905076673119,8,-13,-106,22,63,30,17,13
1537905076694061,-9,-1,121,-35,-15,-8,-9,-10
1537905076694061,-1,21,-11,-10,12,-1,-1,-6
1537905076696056,13,1,-77,-9,18,11,14,13
1537905076696056,1,-2,79,24,-14,2,3,2
1537905076709021,-2,-17,-55,-128,-17,-5,-3,-1
1537905076709021,2,42,127,102,-50,-15,-3,-1
1537905076711016,-7,-17,-45,116,40,11,1,-1
1537905076711016,-1,-2,-35,-15,-35,-7,-1,-1
1537905076731959,-3,-8,13,-46,-6,-7,-3,-1
1537905076731959,1,5,1,-17,43,14,3,2
1537905076732957,3,-2,-10,-58,-38,-14,-3,0
1537905076732957,-3,-16,-9,11,6,0,-3,-2
1537905076745922,-2,-4,2,109,16,0,0,-2
1537905076745922,4,-3,13,-27,-28,-8,-2,1
1537905076754898,-4,-23,-13,-9,-3,1,-3,-5
1537905076754898,-6,2,-37,68,27,4,-3,-10
1537905076769858,7,2,-128,-96,-36,-2,3,8
1537905076769858,1,-17,59,68,34,9,5,3
1537905076770855,2,25,-11,-38,-18,-3,-2,0
1537905076770855,1,17,61,-16,-2,-2,-2,-2
1537905076791800,-4,5,27,19,-2,-3,-3,-5
1537905076791800,0,-2,-72,-11,24,10,4,2
1537905076793794,-6,-7,40,13,-17,-6,-4,-2
1537905076793794,0,-1,40,-43,-3,0,0,0
1537905076814738,-1,-5,-64,7,-1,-3,-3,-1
1537905076814738,-1,2,-57,-58,-8,-2,-2,0
1537905076815736,-6,-11,42,-5,-5,-5,-5,-6
1537905076815736,3,6,-14,30,28,9,5,4
1537905076828702,-3,-4,16,3,-9,-4,-5,-3
1537905076828702,-1,4,-43,19,9,3,0,-1
1537905076835683,-1,-4,13,7,-5,-4,-1,-1
1537905076835683,-1,1,21,-22,-2,-2,-2,0
1537905076859618,-1,2,11,5,2,-1,1,0
1537905076859618,-1,-3,-25,11,2,-3,-2,-2
1537905076860616,-2,-4,19,4,4,2,0,0
1537905076860616,-2,-4,6,-14,-8,-3,-2,-3
1537905076865602,-2,-4,3,5,-8,-5,-1,-3
1537905076865602,0,-4,-21,2,1,0,-1,0
1537905076889538,1,4,16,-13,-4,-1,0,-1
1537905076889538,2,0,-6,-4,-7,-3,-3,-1
1537905076890536,1,0,2,7,-3,-1,0,0
1537905076890536,-5,-2,-1,1,6,1,-1,0
1537905076892531,-6,-4,6,1,-1,0,0,-3
1537905076892531,1,3,2,-7,-9,-4,-1,0
1537905076919459,4,4,8,8,7,2,0,-2
1537905076919459,-2,2,-7,0,0,0,-1,0
1537905076920457,4,-5,3,0,-5,-4,-1,-2
1537905076920457,-3,-2,-2,-2,-2,0,0,-1
1537905076925444,-3,1,4,9,13,2,0,0
1537905076925444,5,2,-9,7,-6,-2,1,-1
1537905076934419,-5,-3,5,4,-1,-2,-3,-1
1537905076934419,-2,-3,-3,-12,5,3,2,-2
1537905076957357,0,0,6,-12,-21,-6,-2,0
1537905076957357,-1,-5,-5,8,6,2,0,-1
1537905076959353,1,-2,-1,-5,-3,-2,1,1
1537905076959353,-1,-5,2,0,-2,-3,-3,0
1537905076972317,-5,-7,0,-2,4,0,-1,-2
1537905076972317,3,7,1,-3,3,1,-1,1
1537905076973315,-4,-11,-1,4,-6,-4,-3,-2
1537905076973315,7,4,-3,-9,-5,-1,2,2
1537905076985283,-4,-1,-4,2,0,-1,-2,-1
1537905076985283,-3,0,-5,-4,-4,-2,-2,-8
1537905077002238,7,3,1,7,7,2,1,1
1537905077002238,0,5,3,0,-5,-4,-2,-1
1537905077009220,-3,-2,0,0,0,0,1,-2
1537905077009220,0,0,-2,2,2,1,-1,1
1537905077023182,6,10,0,-4,-4,-3,0,0
1537905077023182,-11,-4,1,1,-3,-1,-2,-5
1537905077032159,-11,-1,1,-4,-1,0,0,-3
1537905077032159,2,4,0,1,3,1,-2,0
1537905077033157,2,3,-2,-13,-8,-3,0,1
1537905077033157,1,-2,-3,1,0,-1,-1,1
1537905077045125,-1,1,-1,-10,-1,-1,0,0
1537905077045125,-2,0,3,17,2,0,0,3
1537905077069060,-3,-5,0,-23,-5,1,-1,-1
1537905077069060,-1,-5,0,1,-1,-1,0,-1
1537905077070058,0,-2,-3,0,-2,-1,-1,-1
1537905077070058,4,0,-2,-5,2,1,2,1
1537905077076041,-5,-2,0,7,1,0,-2,-3
1537905077076041,-3,-4,-1,-1,0,-1,-1,-3
1537905077091998,4,-2,-1,-1,0,0,-1,1
1537905077091998,1,-4,-2,-5,-5,-3,-1,0
1537905077092995,-5,-3,0,7,0,1,0,-2
1537905077092995,3,-1,-2,-5,-5,-3,-1,0
1537905077105960,3,5,1,7,3,1,1,2
1537905077105960,-12,-2,-2,-3,-3,-2,-2,-3
1537905077113939,15,1,0,2,-1,-2,-3,-3
1537905077113939,-4,2,0,-1,-2,1,-1,-1
1537905077128898,-1,-1,-1,2,-2,-3,-3,1
1537905077128898,5,-1,-3,-6,-1,-2,1,3
1537905077135880,-8,3,0,1,-1,-1,-2,-2
1537905077135880,-13,-9,0,-5,-4,-1,0,-4
1537905077151837,2,-2,-1,4,1,-2,-1,-1
1537905077151837,2,-5,-2,-3,-1,-1,-2,-2
1537905077157822,11,2,-3,3,-1,1,1,6
1537905077157822,-8,6,5,2,0,-3,2,-3
1537905077165800,16,-5,-10,-7,-3,1,1,3
1537905077165800,-60,-8,4,2,1,-8,-3,-13
1537905077180760,29,17,11,10,3,2,6,10
1537905077180760,-20,-38,-9,3,0,0,-5,-3
1537905077196717,1,11,1,-9,-15,-16,-20,-25
1537905077196717,14,6,-2,-2,-4,-3,20,21
1537905077198712,-37,-23,-13,-9,-2,-2,-23,-23
1537905077198712,17,27,11,5,3,2,10,-33
1537905077211677,-45,-30,-4,8,15,58,20,-2
1537905077211677,44,19,0,-4,-8,-56,14,22
1537905077213672,-12,1,6,4,-8,-23,-41,-13
1537905077213672,-20,-13,-12,-4,-1,-5,-5,-11
1537905077234616,31,33,-3,-5,-8,-2,-1,10
1537905077234616,26,42,28,14,10,34,25,33
1537905077235613,7,-40,-13,-4,-2,10,32,53
1537905077235613,-12,46,20,8,-2,-24,-49,-82
1537905077247581,-19,-14,4,3,2,-1,-1,-24
1537905077247581,-16,-16,-5,-2,5,8,-14,-14
1537905077264536,30,12,8,1,0,-5,14,19
1537905077264536,-11,-2,-12,-10,0,31,20,33
1537905077271517,9,-1,-13,-6,3,45,35,24
1537905077271517,5,-10,5,-2,-23,-94,-15,-26
1537905077273512,-49,-39,-6,-4,-4,-9,-47,-47
1537905077273512,37,16,-11,-5,-9,4,-7,25
1537905077301437,14,-10,8,4,3,-2,19,61
1537905077301437,-41,-26,-16,-10,1,14,-23,-31
1537905077303432,14,6,1,3,2,8,10,7
1537905077303432,13,-14,-5,-3,0,0,20,45
1537905077308419,-19,-9,9,7,5,-15,-35,-68
1537905077308419,-10,-15,-14,-6,1,26,1,-18
1537905077315400,22,33,13,8,2,-8,0,4
1537905077315400,8,-11,5,3,0,1,-5,10
1537905077331357,11,11,6,4,1,-13,-1,-10
1537905077331357,0,-13,-8,-5,1,16,2,20
1537905077339336,1,3,-5,-2,-3,-8,-23,-10
1537905077339336,10,1,3,2,9,46,36,16
1537905077354296,15,8,-2,2,-7,-56,-1,48
1537905077354296,27,4,-4,-5,-10,-11,-30,22
1537905077356290,-13,-14,-9,-7,2,20,25,-31
1537905077356290,10,10,-3,-1,-2,-6,6,-2
1537905077368258,13,6,3,1,1,-2,-24,7
1537905077368258,10,-2,-1,2,7,28,43,19
1537905077377234,-21,-2,-4,-3,-2,6,13,-4
1537905077377234,-11,-22,-7,-8,-4,-8,-13,12
1537905077392195,-19,-1,-1,-4,-4,2,7,-11
1537905077392195,13,15,1,2,5,18,-5,24
1537905077393192,1,-3,-1,1,0,-14,9,5
1537905077393192,-3,-3,2,0,1,-17,-5,-28
1537905077414136,-10,-2,-5,-3,-5,-2,0,10
1537905077414136,-2,-3,-2,0,1,0,-8,-17
1537905077416131,-3,12,2,2,3,13,4,0
1537905077416131,-2,1,0,-1,-4,-9,-11,-7
1537905077437075,0,-7,0,0,-1,-9,-4,-4
1537905077437075,-11,-3,-1,-2,0,11,-4,-15
1537905077438072,-2,5,0,1,-1,1,10,3
1537905077438072,1,-6,2,1,0,-9,-1,16
1537905077452034,-2,-6,-5,-5,-2,0,-7,-11
1537905077452034,-5,2,0,-3,-2,1,-3,-17
1537905077453032,-2,-2,0,-1,1,-2,-1,6
1537905077453032,1,-2,1,-1,-1,-7,-2,-1
1537905077473976,-3,1,0,-3,-2,2,-2,-9
1537905077473976,-2,2,-3,-6,-7,-3,-5,-10
1537905077475971,2,-2,0,0,-3,-6,-1,5
1537905077475971,-3,-2,0,0,0,1,-1,2
1537905077487939,-3,0,0,2,4,5,4,-5
1537905077487939,-1,-3,1,1,5,-1,-2,0
1537905077496915,0,1,-1,2,1,-2,-4,-3
1537905077496915,1,1,-4,5,0,-6,-2,-1
1537905077511875,-8,-3,-4,-8,-12,-4,-4,-5
1537905077511875,-1,0,-1,-12,-8,-2,-3,-5
1537905077512872,-3,1,0,-3,2,4,2,0
1537905077512872,3,-1,1,3,2,-1,-3,-1
1537905077541795,-2,1,2,7,7,-1,-1,-5
1537905077541795,-3,-3,-3,2,2,6,2,-3
1537905077543789,1,2,2,9,1,1,1,1
1537905077543789,-3,-2,0,10,2,-1,-1,2
1537905077547779,2,-3,-8,-21,-8,-1,-1,-2
1537905077547779,-3,-2,-2,0,-2,-2,-3,-6
1537905077556755,2,0,-3,-6,-5,-3,-1,0
1537905077556755,-1,-3,0,2,-3,-1,-1,0
1537905077579693,-3,-1,1,7,2,2,-2,-3
1537905077579693,0,-2,0,0,1,-1,-1,-4
1537905077580691,-1,-1,-2,-1,-1,-1,-1,1
1537905077580691,-4,-3,-1,-4,-2,-1,-1,-2
1537905077594653,4,0,-1,2,1,-1,0,1
1537905077594653,1,-2,-1,-1,1,1,-2,2
1537905077595651,-3,-2,-1,1,-3,-3,0,-1
1537905077595651,-2,-1,-1,-7,-2,-1,-1,-1
1537905077607619,1,-2,-1,1,1,-1,-3,-1
1537905077607619,-2,-2,0,4,2,-1,0,-1
1537905077616596,1,1,-1,-3,-1,0,-1,-1
1537905077616596,-1,1,-1,-5,-2,-3,-3,-3
1537905077631556,2,0,0,1,-2,-1,1,2
1537905077631556,0,1,1,1,2,3,0,-1
1537905077633552,-1,-2,-3,1,1,0,0,-1
1537905077633552,-4,-1,-3,-10,-6,-3,-2,0
1537905077654495,-1,0,0,3,1,1,0,-2
1537905077654495,0,1,-5,-1,0,-2,-1,-1
1537905077655493,-1,-1,0,-2,-1,0,-1,0
1537905077655493,-2,-2,0,1,-1,-1,-1,-1
1537905077668457,0,2,0,-2,-1,-2,-2,1
1537905077668457,-1,1,1,0,3,2,-1,-2
1537905077684417,0,-2,-1,-5,-6,-4,-3,-1
1537905077684417,-2,1,-1,-2,-1,1,-1,-2
1537905077692395,2,1,0,0,1,0,1,1
1537905077692395,-3,-1,1,1,3,4,3,-1
1537905077693391,2,-1,-3,-1,0,20,13,9
1537905077693391,-3,-1,-2,-5,-2,2,9,-4
1537905077722314,-2,-1,-2,0,3,32,-1,4
1537905077722314,3,-1,-3,-4,-13,-46,12,-5
1537905077723312,-9,-3,-2,-3,-11,-67,-32,-10
1537905077723312,13,3,4,7,23,69,8,-1
1537905077728297,-19,-5,0,-2,-27,-52,-24,13
1537905077728297,-20,-11,-12,-16,-21,5,-9,-62
1537905077737275,-14,2,-2,-2,12,96,32,19
1537905077737275,14,3,1,2,20,84,14,-12
1537905077752233,4,-4,-2,-11,-30,-65,-32,6
1537905077752233,5,-1,1,6,16,65,-39,63
1537905077753232,-2,0,3,6,-15,-66,26,-44
1537905077753232,-9,2,-3,-3,9,109,-33,17
1537905077774174,20,7,3,11,45,106,93,-23
1537905077774174,-10,-3,2,-6,-41,-128,-85,-42
1537905077776169,15,-5,-5,-6,6,81,-35,-46
1537905077776169,-18,-3,-3,-2,-13,-48,18,20
1537905077788136,20,11,4,8,12,-28,-43,-19
1537905077788136,3,-2,-4,-3,20,127,111,35
1537905077797113,-10,-6,4,7,-10,-110,-55,23
1537905077797113,18,4,2,-2,-8,46,-6,-63
1537905077811075,-20,-14,-1,3,1,-6,30,-30
1537905077811075,-11,0,-6,-8,-10,-84,-51,-64
1537905077818056,22,11,1,-7,-6,-14,-1,29
1537905077818056,20,1,-3,-5,-10,-45,-8,4
1537905077834014,0,2,0,4,27,123,13,62
1537905077834014,2,2,4,9,10,-42,39,-46
1537905077836009,-31,-1,1,-3,-12,-2,-57,-56
1537905077836009,0,-6,-7,-6,-13,-75,-33,29
1537905077847977,-8,-1,-3,-4,-1,76,1,-13
1537905077847977,15,4,2,4,11,27,12,48
1537905077856953,8,-4,-3,-2,12,21,18,27
1537905077856953,-18,-1,4,4,-3,-44,16,-7
1537905077870915,8,-3,-2,-4,-6,-34,-22,3
1537905077870915,-1,-1,-1,-1,-2,16,-12,20
1537905077878894,2,1,1,4,5,4,24,2
1537905077878894,-5,-5,0,1,0,-7,5,12
1537905077901832,-4,-1,-3,-9,-17,-51,-9,-5
1537905077901832,-1,-2,1,3,7,58,-5,10
1537905077902830,4,0,-1,-1,-1,-4,28,-8
1537905077902830,-12,-6,-2,-1,-4,-32,-6,-4
1537905077915795,0,-2,-1,-2,-3,-2,-3,4
1537905077915795,4,3,2,4,2,-3,-2,5
1537905077923773,-2,-1,-4,-1,2,19,6,17
1537905077923773,-7,1,-3,-6,-8,-14,-6,3
1537905077930755,-2,0,0,0,-5,-28,-3,-8
1537905077930755,0,0,2,0,4,10,5,12
1537905077938733,2,-1,0,7,3,4,5,8
1537905077938733,0,-1,3,25,10,0,5,-5
1537905077961672,-1,0,-4,-47,-13,-12,-10,-6
1537905077961672,-3,-4,-3,5,-1,-3,-1,3
1537905077962670,-1,-3,-2,-38,-23,12,2,5
1537905077962670,0,-4,2,68,18,-4,0,-1
1537905077975636,-1,-2,-6,-28,9,-1,0,3
1537905077975636,-1,5,4,3,-11,-10,-9,0
1537905077991593,-1,-4,-4,0,-6,-3,0,-1
1537905077991593,0,0,0,-18,-18,-1,1,5
1537905077993587,-4,-2,-7,20,1,-10,-2,-2
1537905077993587,0,-4,3,31,17,10,4,4
1537905077998574,2,1,-3,54,26,12,1,2
1537905077998574,-4,-1,5,-75,-26,-12,-4,-3
1537905078013534,1,2,-1,-28,-9,-5,-1,1
1537905078013534,-1,0,-1,-12,-10,-5,-4,-2
1537905078014531,-2,-1,-5,-13,-3,5,1,3
1537905078014531,1,-2,2,37,14,-1,0,0
1537905078036472,-4,-2,-4,25,6,-6,1,-2
1537905078036472,1,-2,-2,2,3,4,3,4
1537905078036472,-2,-3,5,63,16,2,2,1
1537905078036472,-4,-3,-20,-109,-40,-11,-6,-5
1537905078052430,-1,-2,3,-1,-10,-4,-5,-1
1537905078052430,1,2,-5,-34,-10,-5,-2,2
1537905078053427,-2,-2,2,16,1,3,0,-1
1537905078053427,-1,1,2,6,3,-1,0,1
1537905078075369,-2,-2,1,31,6,-2,-4,-2
1537905078075369,-1,-4,-4,4,4,2,2,1
1537905078076366,2,0,1,-28,-3,0,0,2
1537905078076366,-2,-1,-1,24,16,3,2,-1
1537905078096313,0,0,-2,-43,-22,-8,-3,-2
1537905078096313,-1,1,1,6,4,3,-1,0
1537905078097311,0,1,0,-22,-8,-1,-2,1
1537905078097311,0,-1,-1,20,11,-1,0,0
1537905078110276,1,0,1,20,5,1,0,-1
1537905078110276,-1,-1,0,-18,-8,-3,0,-1
1537905078118256,-2,-1,-1,-4,-1,-1,-1,0
1537905078118256,-1,-4,-2,8,1,-2,-1,0
1537905078133215,-2,-3,3,3,1,0,-1,0
1537905078133215,-3,1,0,-4,-4,-1,-1,-2
1537905078134213,0,-2,-4,-7,2,-1,2,0
1537905078134213,-1,0,-1,5,2,1,0,-2
1537905078156153,-1,2,0,1,-3,-4,0,-2
1537905078156153,-2,-1,-3,12,5,0,1,-1
1537905078164132,3,1,-3,-12,-5,-1,-1,2
1537905078164132,5,0,0,-5,-5,-1,-1,1
1537905078171113,-2,1,-1,12,1,-1,0,1
1537905078171113,-9,-3,-2,2,1,3,1,-5
1537905078172110,-4,-1,2,-4,20,100,25,-8
1537905078172110,10,0,2,2,-12,-38,-44,15
1537905078194051,-50,-11,-4,3,-5,55,20,-44
1537905078194051,18,15,15,21,34,81,-4,26
1537905078201032,-19,-7,-10,-27,-51,-128,-81,-88
1537905078201032,-8,-5,3,16,86,127,57,29
1537905078215992,9,8,6,-1,-85,-128,17,-61
1537905078215992,-6,3,-19,-28,-23,77,-64,106
1537905078216990,15,-3,-7,-10,-31,-90,-39,-18
1537905078216990,-36,-2,-14,-17,-19,9,-51,-103
1537905078230953,-4,4,8,12,63,120,92,12
1537905078230953,38,5,7,12,13,-23,69,17
1537905078231950,-51,6,6,11,28,57,10,96
1537905078231950,107,16,-2,3,-15,-85,11,16
1537905078253891,-2,8,-2,-8,-7,-17,-63,59
1537905078253891,-13,-18,-3,-3,-11,19,-64,-103
1537905078254888,13,-5,1,2,13,55,21,7
1537905078254888,-33,-13,4,9,-9,-42,-54,-1
1537905078275832,8,-8,-2,9,13,26,-12,27
1537905078275832,11,-4,-4,-6,-16,-104,19,-7
1537905078276830,6,-2,1,-2,4,13,13,-6
1537905078276830,-20,-5,1,-4,-10,19,4,20
1537905078290793,25,3,-3,1,5,9,-10,7
1537905078290793,-16,-2,-4,-5,-7,-35,3,-16
1537905078291790,-6,-3,0,-1,1,-13,0,-6
1537905078291790,-7,4,1,0,-9,1,22,2
1537905078313732,1,-3,-2,-1,3,-44,-20,-6
1537905078313732,-10,-2,1,4,2,-7,2,-12
1537905078314730,7,5,1,1,5,18,18,8
1537905078314730,4,3,-1,-4,-5,-10,10,8
1537905078335674,3,-3,-4,-2,0,-9,-12,-2
1537905078335674,-9,-4,-1,10,-2,6,-1,0
1537905078343653,15,2,-2,-3,4,12,8,4
1537905078343653,-9,-4,-3,-10,-11,-15,4,-2
1537905078351631,-7,-8,1,76,18,-2,-10,-1
1537905078351631,-1,0,-7,-95,-14,0,13,-2
1537905078351631,0,-2,0,-11,-19,-24,-7,-7
1537905078351631,-6,-2,7,27,-8,1,2,-2
1537905078373573,1,0,-3,15,10,10,2,7
1537905078373573,1,1,10,68,24,-1,7,-1
1537905078374572,-2,-3,-8,8,8,6,2,-1
1537905078374572,1,2,2,-72,-14,1,2,4
1537905078396510,6,1,6,24,-2,0,-6,1
1537905078396510,-5,-4,-7,107,37,4,8,-1
1537905078396510,-3,1,0,-113,-41,-9,-5,-2
1537905078396510,-4,0,3,60,5,-1,2,-3
1537905078411470,1,0,-11,-46,-5,-8,-2,1
1537905078411470,-1,-9,-5,13,-3,-1,-1,-4
1537905078411470,1,18,19,88,14,6,7,4
1537905078411470,-1,-2,-8,-17,11,1,5,2
1537905078433411,2,-3,-7,-25,8,1,-2,-1
1537905078433411,-5,9,16,-74,-45,-12,-9,-5
1537905078434409,3,-13,-1,46,21,6,0,1
1537905078434409,-1,14,5,-16,-15,-7,0,-3
1537905078457347,-2,-13,-4,15,9,0,-2,-1
1537905078457347,-1,-1,-16,-15,15,8,6,2
1537905078458345,1,-10,-2,9,-8,-8,-1,-2
1537905078458345,-7,-13,-17,49,-1,-5,-3,-3
1537905078479288,5,2,10,-15,-1,4,1,1
1537905078479288,4,16,16,-9,-9,-4,-1,0
1537905078480286,3,-6,-7,-8,8,2,-1,1
1537905078480286,-7,-30,-18,29,22,4,1,2
1537905078493251,-4,22,18,-45,-38,-9,-6,-4
1537905078493251,-1,-6,-17,-23,-10,-5,-2,-1
1537905078494249,1,6,-1,-1,2,0,-1,-2
1537905078494249,-1,-10,4,-14,1,4,3,-1
1537905078516190,-3,-2,-6,15,4,-2,-2,-1
1537905078516190,-4,-1,5,6,1,0,1,0
1537905078524170,-1,1,2,-11,-3,1,2,-1
1537905078524170,0,5,-3,1,3,0,0,1
1537905078531151,-1,-3,4,-4,0,1,-1,-1
1537905078531151,-1,2,-5,-2,-3,-1,-1,1
1537905078532149,2,-9,-8,-8,-1,-2,0,-1
1537905078532149,0,7,8,-15,-4,-2,-1,0
1537905078554090,-1,2,-6,-1,2,0,0,-2
1537905078554090,0,-10,-3,-5,-3,-2,0,-3
1537905078555088,1,4,1,3,4,3,0,-1
1537905078555088,9,9,7,-2,9,79,0,29
1537905078576032,3,-6,-4,0,-3,-21,44,-5
1537905078576032,-19,-7,-5,4,-1,4,-53,-13
1537905078584011,3,-4,-4,-11,-29,-108,-4,-59
1537905078584011,-25,-11,-7,-12,15,96,-31,-71
1537905078591990,-9,-13,-10,-8,-17,-30,-31,24
1537905078591990,-9,13,8,0,-20,-79,-30,-57
1537905078605950,30,9,1,4,26,110,88,32
1537905078605950,-60,-1,-9,-23,-38,-128,-72,-87
1537905078613929,17,-8,-12,-13,-7,-4,-5,8
1537905078613929,-6,2,-1,-3,11,79,45,-25
1537905078613929,-37,-12,-3,-5,-5,-31,-17,31
1537905078613929,13,20,10,17,24,107,31,77
1537905078635871,43,14,9,10,9,-9,40,29
1537905078635871,-4,-8,-4,-1,-2,-18,10,23
1537905078636868,-6,-5,-1,-1,5,12,-3,-21
1537905078636868,0,-4,1,-3,-3,-9,19,17
1537905078650830,-16,-6,-3,7,-3,-18,-30,-21
1537905078650830,12,-8,-1,-6,-4,2,-1,18
1537905078651828,-17,2,-1,-1,-12,6,-30,-2
1537905078651828,16,2,2,4,-1,-44,7,6
1537905078673769,7,4,-1,-4,4,24,-13,-5
1537905078673769,10,0,2,5,6,1,12,5
1537905078674767,-21,-2,-1,1,7,5,0,8
1537905078674767,17,3,4,-31,-14,-26,9,7
1537905078695711,-10,-3,3,46,16,19,9,-16
1537905078695711,1,2,4,10,4,13,7,17
1537905078696708,12,3,-9,-92,-27,-17,-18,1
1537905078696708,10,0,2,2,-10,-6,10,7
1537905078710670,-12,-5,-1,6,4,14,-9,-7
1537905078710670,4,-3,-8,20,24,-2,3,8
1537905078711668,6,1,8,110,30,16,-4,5
1537905078711668,5,2,-2,-92,-42,-16,10,-1
1537905078733609,-13,-2,-3,-36,-25,-4,-7,-2
1537905078733609,3,-2,-9,-7,-5,-1,1,7
1537905078734606,6,-3,1,77,29,10,1,-2
1537905078734606,0,-3,0,33,28,7,11,6
1537905078756547,-4,-11,-3,21,-2,-3,-5,-5
1537905078756547,-1,16,-3,-97,-49,-8,-5,2
1537905078757545,5,-5,6,22,-10,1,-6,0
1537905078757545,2,-7,-3,50,27,-3,5,3
1537905078770510,-2,3,10,22,0,9,-1,-1
1537905078770510,-2,-12,-1,21,17,4,3,-1
1537905078778489,0,1,-1,-1,1,0,0,5
1537905078778489,0,8,13,30,-2,-8,0,0
1537905078793449,-5,-4,-7,10,21,12,4,-4
1537905078793449,-3,-4,-10,-2,1,4,2,4
1537905078794446,2,2,-9,-128,-49,-14,-8,-4
1537905078794446,4,10,4,23,-12,-6,-1,-2
1537905078816387,-5,-9,0,13,0,3,-2,-3
1537905078816387,2,3,8,23,5,-3,-2,1
1537905078817385,-1,-6,-4,18,14,6,0,2
1537905078817385,0,-4,-10,-3,2,-1,3,1
1537905078830350,-2,-2,6,-54,-2,1,0,-1
1537905078830350,0,-2,1,39,-1,-4,-2,-1
1537905078838329,0,2,-2,-9,3,2,0,-1
1537905078838329,-3,-5,2,-12,-7,-5,-1,-2
1537905078862264,0,6,-3,22,6,0,-1,-1
1537905078862264,1,-5,-5,-61,-24,-3,0,0
1537905078862264,1,4,0,-1,1,-2,-2,0
1537905078862264,0,-2,-1,10,5,0,3,2
1537905078876227,0,2,1,40,15,5,2,0
1537905078876227,-1,-2,-8,-50,-8,-3,0,-1
1537905078883208,-1,1,8,16,-10,-6,-4,-1
1537905078883208,1,-3,-3,-7,2,1,0,0
1537905078899166,0,4,-4,-7,-2,0,-1,0
1537905078899166,-1,-1,4,53,12,6,2,0
1537905078900163,-2,-2,-3,-11,-2,-3,-2,-1
1537905078900163,0,-6,-9,8,0,-1,0,-1
1537905078913129,0,2,3,-19,-4,-2,-1,0
1537905078913129,-1,0,-6,-10,-2,-1,0,1
1537905078914126,1,3,6,13,5,3,1,0
1537905078914126,0,-1,-3,30,1,-1,-2,0
1537905078937065,-1,-1,-3,-17,-11,-3,-3,-2
1537905078937065,0,-17,1,13,5,2,0,1
1537905078937065,0,20,-1,12,5,1,0,-1
1537905078937065,-1,-5,-3,-20,-5,-1,-2,0
1537905078950030,-1,2,-2,-15,-4,-2,-1,-1
1537905078950030,1,-2,10,36,7,1,1,1
1537905078965987,-1,-6,-5,13,3,0,0,0
1537905078965987,1,5,-4,-29,-14,-6,-4,-2
1537905078973966,-1,-5,0,-2,0,1,-1,0
1537905078973966,-2,-7,4,6,4,0,0,0
1537905078973966,0,-6,-4,6,0,-1,0,-2
1537905078973966,0,-2,-6,-29,-4,0,-1,-2
1537905078996905,1,0,1,15,-1,0,1,0
1537905078996905,-1,5,0,-9,-4,-1,-1,-2
1537905078997902,1,-2,0,21,4,1,1,0
1537905078997902,-4,-8,-2,5,1,0,0,-2
1537905079010867,-1,5,-4,-14,-1,-1,-2,-1
1537905079010867,1,0,3,14,3,0,-1,0
1537905079018846,0,-2,0,10,3,0,-1,-2
1537905079018846,0,1,0,-9,-1,-1,0,1
1537905079033806,-2,-2,-2,-12,-4,1,2,-1
1537905079033806,-2,3,-1,7,-2,-2,-1,-1
1537905079034803,-1,-5,-1,-15,-4,0,-1,-1
1537905079034803,-3,1,0,10,10,5,3,-1
1537905079056745,3,4,0,0,-5,-3,-3,-1
1537905079056745,-2,-2,-3,1,-5,-4,-2,-3
1537905079057742,1,3,-1,-13,0,0,1,-1
1537905079057742,3,-1,2,6,1,1,-1,1
1537905079079683,1,2,-4,-5,-4,-2,0,1
1537905079079683,-1,0,-1,-3,0,-1,-1,-2
1537905079079683,-8,-3,-3,-4,-4,-1,-1,-2
1537905079079683,4,-4,0,6,10,62,-4,13
1537905079109604,-6,4,7,6,0,-54,10,-20
1537905079109604,-8,-7,-2,1,7,83,-45,-14
1537905079109604,32,5,3,0,1,-5,-5,41
1537905079109604,-46,-15,-12,-15,-24,-38,-51,-83
1537905079116585,-2,-6,6,9,27,66,92,25
1537905079116585,43,-4,-9,-14,-51,-113,-91,-86
1537905079117582,-52,-7,-6,-5,11,119,-60,-2
1537905079117582,6,-6,8,9,-1,-78,51,69
1537905079139523,25,26,-1,-26,-29,-71,-78,-97
1537905079139523,-14,-29,-14,-7,19,60,127,38
1537905079139523,-29,9,-7,-21,-27,-1,-4,-42
1537905079139523,96,63,3,5,23,88,31,9
1537905079153486,-91,1,-3,-6,-3,0,-55,-8
1537905079153486,17,-23,4,7,16,1,-17,16
1537905079154484,33,-14,-1,4,-1,-31,-42,-6
1537905079154484,-23,-22,-1,-1,5,11,13,-6
1537905079176425,18,-6,-3,23,2,26,33,29
1537905079176425,-43,10,3,-12,-6,-16,-38,8
1537905079177422,11,-5,7,15,-6,-14,29,3
1537905079177422,-10,-7,-16,-44,7,-29,-15,-18
1537905079206345,3,2,20,-36,-42,-16,-23,12
1537905079206345,-10,2,-3,13,-7,-1,9,15
1537905079207342,4,2,0,45,28,-23,30,-7
1537905079207342,-4,3,9,-16,-4,3,11,6
1537905079213327,3,-9,-26,-7,-3,10,-12,18
1537905079213327,7,34,-1,-46,2,0,17,2
1537905079214324,1,-2,18,-15,-38,-16,22,-1
1537905079214324,-17,11,7,46,-4,-6,-26,-2
1537905079237262,13,-20,-20,-81,9,17,14,11
1537905079237262,0,26,9,73,23,-3,5,-1
1537905079237262,-5,8,-14,37,18,-1,5,3
1537905079237262,-11,-10,2,40,8,0,-5,3
1537905079259203,5,-7,1,16,7,-1,7,1
1537905079259203,3,2,7,59,21,4,12,7
1537905079260201,-7,-8,-9,-56,5,-4,-2,1
1537905079260201,-1,-5,1,-12,-19,-9,-1,-3
1537905079273166,12,3,3,25,1,6,9,6
1537905079273166,-12,-9,-2,-37,-8,-4,-9,-1
1537905079274164,0,-3,-1,21,6,0,8,2
1537905079274164,5,-8,-3,-15,-6,-5,-1,-2
1537905079297102,-9,-7,-1,7,0,0,-3,3
1537905079297102,-2,-4,2,-6,-2,1,3,6
1537905079297102,1,-6,-2,-30,-9,-9,6,-3
1537905079297102,-7,0,-1,15,-1,0,-2,-3
1537905079319044,3,-1,0,-3,3,4,-1,5
1537905079319044,2,1,2,-5,-2,2,5,1
1537905079320041,-11,1,1,-7,0,0,7,0
1537905079320041,-4,-3,-3,-9,-1,-1,-4,2
1537905079334004,6,4,1,26,6,6,2,3
1537905079334004,0,-1,-2,-19,-9,-4,-1,-2
1537905079334004,-2,-1,-1,1,1,-1,-3,-1
1537905079334004,-4,-3,-2,3,2,2,0,0
1537905079356942,2,1,2,2,2,-1,2,-2
1537905079356942,-8,1,-2,-7,-5,-4,2,2
1537905079357940,3,1,-1,-10,0,-2,-2,-1
1537905079357940,-2,-2,-1,5,2,1,-1,-1
1537905079378884,-2,0,4,43,16,4,2,1
1537905079378884,3,0,-10,-69,-29,-8,-5,-2
1537905079380878,-1,3,4,16,3,0,1,0
1537905079380878,-1,2,-1,-3,-2,-1,-1,1
1537905079392847,-4,-4,-5,28,11,3,-2,0
1537905079392847,-2,-3,1,-24,-14,-5,-3,-2
1537905079401823,3,-1,-3,-4,-1,-3,0,0
1537905079401823,1,1,-1,-17,-10,-2,0,0
1537905079416782,-5,-1,1,-6,0,1,-2,-1
1537905079416782,5,-1,0,21,12,5,1,1
1537905079417780,2,-3,-3,-9,-5,-3,-1,2
1537905079417780,-3,4,0,5,3,-1,-2,-3
1537905079439721,-1,-3,-1,-9,-5,-2,-1,-2
1537905079439721,0,1,-2,4,-1,-1,-1,-1
1537905079440719,-1,2,1,4,1,-2,0,-2
1537905079440719,0,-6,-2,11,7,1,1,3
1537905079452687,0,0,-1,-34,-17,-6,-1,0
1537905079452687,-1,0,4,15,2,0,0,-2
1537905079461663,1,-1,0,20,6,1,1,1
1537905079461663,0,-2,1,-11,4,0,1,0
1537905079476622,-2,-2,-7,-52,-21,-7,-6,-4
1537905079476622,-2,-2,1,8,0,0,-1,0
1537905079482607,-3,4,1,11,4,1,-1,0
1537905079482607,-3,-15,-10,-43,-11,-3,-3,1
1537905079499561,3,2,9,32,6,1,0,0
1537905079499561,-6,1,-1,4,3,1,1,-2
1537905079500558,1,0,-2,-14,-2,-1,0,-3
1537905079500558,-1,-2,2,25,2,-2,0,0
1537905079512526,2,0,-1,-10,0,1,2,0
1537905079512526,2,2,-3,9,3,-3,-1,2
1537905079521502,-2,-1,2,-2,-1,0,1,-1
1537905079521502,1,-2,-3,-2,2,-3,-2,-3
1537905079536463,-6,-1,0,3,-5,-2,-3,-3
1537905079536463,4,-1,2,10,6,0,1,0
1537905079538457,4,-2,-4,-10,-1,0,0,1
1537905079538457,-3,3,0,12,0,-1,-1,-3
1537905079559401,-12,-7,-3,-21,-5,0,-1,-5
1537905079559401,0,5,1,8,3,1,-1,2
1537905079560399,-6,-5,-3,-11,-4,-2,0,0
1537905079560399,7,1,0,5,-3,-3,0,5
1537905079573364,6,6,0,16,6,-1,5,-14
1537905079573364,-25,-14,-3,-4,1,14,-7,29
1537905079582340,29,8,5,1,8,51,37,-39
1537905079582340,-20,5,0,-1,-12,-50,-49,18
1537905079596302,21,-8,0,10,25,110,77,57
1537905079596302,26,-14,0,0,-21,-124,-44,7
1537905079598297,-104,-24,-6,-10,-11,47,-53,-39
1537905079598297,84,14,-4,2,43,107,115,71
1537905079619241,-26,16,12,12,-27,-124,-58,-94
1537905079619241,-5,-9,-16,-20,-6,127,-15,13
1537905079625225,-12,-1,0,-6,-8,-24,39,24
1537905079625225,-5,3,-4,-12,-11,54,-13,-2
1537905079633204,13,-8,7,11,32,55,82,115
1537905079633204,-53,-21,0,6,16,44,41,-128
1537905079642180,-19,20,-6,-10,-33,-108,-111,25
1537905079642180,34,11,6,5,7,65,-8,-27
1537905079656142,24,-3,-6,-1,3,58,13,25
1537905079656142,15,10,9,11,10,-8,24,42
1537905079663124,24,-13,-4,1,11,33,4,-19
1537905079663124,-19,-10,0,33,3,-61,-6,-12
1537905079679081,-18,-2,2,-41,-21,-15,-27,-25
1537905079679081,7,-1,-10,12,1,-27,-20,-12
1537905079681076,14,2,8,-2,-10,-13,12,4
1537905079681076,-19,-6,-11,43,18,-34,-10,-18
1537905079693044,-4,-2,-6,-98,-55,-33,-32,-22
1537905079693044,2,1,0,117,46,10,5,9
1537905079702020,24,-1,-4,-107,-9,-10,25,19
1537905079702020,-18,5,3,26,-13,-7,-6,-8
1537905079717977,-6,-9,-13,92,41,10,-23,-24
1537905079717977,12,6,5,-128,-52,-22,7,13
1537905079724959,1,-19,-1,127,14,16,8,-1
1537905079724959,-14,8,7,29,-8,-8,-17,-20
1537905079732937,1,1,-9,26,5,-5,-9,-4
1537905079732937,13,11,-2,12,17,-2,3,9
1537905079733935,7,4,-6,4,11,13,8,5
1537905079733935,-11,-9,9,-40,-6,1,-2,-7
1537905079745902,1,0,2,43,7,-9,-3,0
1537905079745902,3,1,-1,12,8,3,3,5
1537905079752884,8,4,0,-46,-18,9,1,-2
1537905079752884,-13,-4,17,-33,-28,-19,-7,-10
1537905079767844,-4,3,5,-5,-7,0,-6,-5
1537905079767844,-2,0,-4,17,-7,-2,-3,-4
1537905079775823,11,2,2,-20,3,9,5,3
1537905079775823,-4,-4,-3,17,12,-1,0,-2
1537905079790783,3,0,2,-16,-4,-2,-5,-2
1537905079790783,-1,6,0,-20,-7,-2,0,1
1537905079791780,0,0,3,35,12,1,7,2
1537905079791780,0,2,-4,-27,-7,1,-2,-3
1537905079805743,-3,1,-4,-6,-5,-2,-10,-10
1537905079805743,4,2,-1,2,-3,-7,-2,3
1537905079812724,1,1,0,-8,3,6,1,1
1537905079812724,-7,-8,-7,-18,-14,-6,-6,-5
1537905079827684,-5,-5,-3,-1,3,2,-3,-3
1537905079827684,-4,0,3,3,-6,-2,-2,-1
1537905079835663,2,0,-1,-9,2,3,1,0
1537905079835663,-4,-4,-8,-19,-4,-2,-2,-1
1537905079850623,0,2,1,13,1,-2,-3,-1
1537905079850623,-4,1,1,-13,-7,-1,-2,0
1537905079851620,3,1,-2,8,-1,0,0,-2
1537905079851620,-5,-1,-3,9,6,-1,0,-1
1537905079865583,-3,-1,-3,-14,-5,-3,-2,-3
1537905079865583,10,-2,3,0,-2,-1,-2,-2
1537905079872564,-15,-5,-9,-1,7,2,1,1
1537905079872564,10,2,7,1,-12,-4,-2,1
1537905079887524,-9,-5,0,6,-2,-2,-3,-1
1537905079887524,-1,0,-2,-2,4,1,-1,-2
1537905079895503,-1,-2,-1,1,-6,-3,0,-1
1537905079895503,2,0,-2,1,7,4,0,0
1537905079911460,-3,1,-3,-10,-6,-2,-1,-2
1537905079911460,1,4,3,10,2,-1,-1,-1
1537905079911460,3,-1,1,5,6,3,1,0
1537905079911460,-6,-7,-3,-1,0,0,-1,-2
1537905079925423,-1,-5,-2,15,-1,-1,0,0
1537905079925423,-3,-3,-3,-24,-3,-1,0,-2
1537905079941380,2,3,-1,-12,-6,-2,1,0
1537905079941380,2,-3,0,-4,-1,-2,1,0
1537905079948361,1,4,3,3,4,0,-1,-1
1537905079948361,-4,-6,-5,3,-1,-1,-2,-1
1537905079956340,2,-10,4,11,-1,-3,-2,1
1537905079956340,-1,15,-3,-15,-5,-2,0,-2
1537905079971300,-1,-5,0,-10,-11,-6,-5,-4
1537905079971300,-4,-6,-6,-11,-4,0,-1,-2
1537905079972298,12,10,5,11,4,1,-1,1
1537905079972298,-11,-9,-5,-4,1,2,0,-2
1537905079985263,2,5,-1,-5,2,2,0,3
1537905079985263,-1,-3,1,-2,-4,-2,0,0
1537905079993242,-2,-3,-3,-1,-4,-1,-1,-1
1537905079993242,1,-4,-1,2,1,1,-1,0
1537905080008202,-4,-6,-1,-6,0,1,-2,0
1537905080008202,9,2,1,1,-2,-1,-3,-4
1537905080016180,-30,-4,-1,-1,2,0,3,3
1537905080016180,6,2,1,2,9,47,-6,17
1537905080030143,5,-1,2,6,7,-2,44,-11
1537905080030143,-27,1,0,7,0,1,-25,10
1537905080038121,71,17,12,9,12,18,35,10
1537905080038121,-30,-20,-10,-15,-24,39,58,-65
1537905080045103,7,-5,-1,-2,17,125,2,44
1537905080045103,-7,20,12,10,-15,-101,32,-10
1537905080053081,27,2,-6,-9,10,126,37,-12
1537905080053081,31,14,11,8,1,-40,28,49
1537905080068041,-24,-6,-9,-20,-33,-93,-58,-63
1537905080068041,52,8,-7,-8,17,127,21,32
1537905080076020,-63,-12,-9,-14,-25,-128,-61,-78
1537905080076020,-24,-14,-2,2,10,52,-34,-64
1537905080089983,31,7,3,7,9,11,33,101
1537905080089983,-12,-6,1,-2,4,19,-1,23
1537905080098959,5,0,0,3,5,38,7,26
1537905080098959,-6,-5,-2,3,5,-15,-13,-1
1537905080114916,-12,-5,-1,0,-2,-36,-16,-29
1537905080114916,0,-2,-2,-1,-6,-10,-21,0
1537905080115914,3,-1,-1,1,-1,-12,-4,2
1537905080115914,-14,-4,-2,24,7,-35,-14,-1
1537905080127881,3,3,-4,-41,-7,-6,-14,-6
1537905080127881,8,4,0,-3,-14,-10,10,-10
1537905080135860,-14,-5,-6,14,3,-4,-5,9
1537905080135860,2,7,15,0,-19,-23,-23,15
1537905080150820,9,4,-6,31,35,25,4,-2
1537905080150820,-10,-9,0,6,0,-4,-9,-19
1537905080158799,-16,-6,-1,-8,-13,-18,-14,-1
1537905080158799,19,7,-2,-37,-19,2,-7,22
1537905080165780,-5,-1,-2,8,17,10,6,-10
1537905080165780,-13,-5,2,12,-8,-11,-4,-14
1537905080172761,4,0,-3,31,13,9,-5,13
1537905080172761,10,0,1,63,29,4,10,12
1537905080187721,-3,-2,-12,-56,-32,-9,-4,-8
1537905080187721,-5,-5,-4,-106,-27,-10,-9,-1
1537905080195700,2,6,8,-8,-19,0,-6,4
1537905080195700,2,2,2,22,4,1,-4,2
1537905080210660,-10,-4,5,77,16,3,-1,-7
1537905080210660,1,0,-9,-33,8,4,-2,1
1537905080218639,-1,-6,2,21,10,0,0,-1
1537905080218639,-4,3,-9,-9,2,-1,1,3
1537905080225621,5,6,12,-54,-38,-9,-7,-4
1537905080225621,-3,-5,-2,71,12,-1,1,-5
1537905080232602,5,1,-2,-10,-3,1,0,3
1537905080232602,-3,-2,-3,10,13,1,-4,5
1537905080247562,5,5,1,-3,0,4,1,3
1537905080247562,-2,-2,0,12,-1,0,-2,-5
1537905080256537,-6,-3,-6,-15,5,0,-2,-1
1537905080256537,-1,2,-3,-52,-24,-3,-4,2
1537905080270500,0,-1,1,2,0,-2,-1,-3
1537905080270500,-5,-3,2,3,5,-1,-1,-4
1537905080286458,1,1,-3,5,-1,1,-1,2
1537905080286458,3,-1,-3,-13,-1,1,1,0
1537905080293439,-4,-2,1,16,3,0,-1,-3
1537905080293439,2,0,2,19,7,0,0,0
1537905080294436,-4,-1,-1,-15,-3,3,1,2
1537905080294436,-2,-3,-2,5,-3,-4,-4,-2
1537905080308401,0,0,-3,-20,1,-3,-3,0
1537905080308401,-1,-2,1,3,1,4,0,-1
1537905080316378,2,1,-1,-11,-6,-3,-1,2
1537905080316378,2,0,4,9,4,-1,1,0
1537905080330340,-1,-1,2,28,-2,-1,-1,-3
1537905080330340,0,2,-9,-43,-6,-1,0,-2
1537905080339316,-3,-4,2,5,6,1,-1,-1
1537905080339316,-3,-1,-4,-18,-3,-2,-1,-1
1537905080353279,1,0,-5,-17,-11,-4,-2,-3
1537905080353279,1,-1,2,14,2,0,-1,1
1537905080362255,-2,-1,0,-7,-5,0,-1,0
1537905080362255,0,-1,-1,-1,3,0,-1,0
1537905080368239,1,0,2,11,7,3,2,0
1537905080368239,-2,-1,-1,3,-7,-2,-3,-2
1537905080377215,-3,-1,-3,-12,1,2,-1,0
1537905080377215,1,0,0,2,-6,-3,-1,0
1537905080390180,0,-1,-1,-9,-1,-1,0,-1
1537905080390180,-1,0,2,11,2,-3,-2,0
1537905080399157,1,-1,-1,3,4,0,-1,-2
1537905080399157,1,0,-1,4,-1,-1,0,1
1537905080413120,-1,-1,1,1,-1,-1,0,-2
1537905080413120,-5,-1,-2,2,1,0,-2,-1
1537905080422095,0,-2,-4,1,-6,-3,0,-1
1537905080422095,-1,-2,3,-8,-2,-3,-2,0
1537905080428079,0,0,1,12,7,1,1,1
1537905080428079,1,-2,-4,6,3,1,1,-2
1537905080437055,0,2,3,-7,-9,-3,0,0
1537905080437055,-2,0,1,17,1,-1,-3,-2
1537905080450020,0,-1,2,-5,4,0,-1,0
1537905080450020,1,-2,0,2,3,0,0,2
1537905080458996,-3,-1,-3,2,0,-2,-3,-2
1537905080458996,-1,-1,-3,-1,-1,-1,-2,-1
1537905080472959,0,-1,-2,-5,2,-1,0,-2
1537905080472959,-4,-4,0,6,1,1,1,-1
1537905080481935,0,1,0,5,0,0,-2,-2
1537905080481935,-4,-1,-3,-2,1,0,1,1
1537905080487919,-1,0,0,5,1,0,0,-1
1537905080487919,1,-1,-3,1,0,-1,0,-1
1537905080496895,-2,-1,1,-5,-5,-2,0,-1
1537905080496895,-2,-1,-2,-5,-1,0,-1,-2
1537905080510858,-1,-1,-3,8,-1,2,-1,0
1537905080510858,0,1,1,-9,-2,-3,-1,1
1537905080518837,1,-1,0,6,2,0,-1,1
1537905080518837,-1,-1,-4,-19,-3,-4,-2,-1
1537905080533796,-2,-2,-1,7,-4,-1,0,-2
1537905080533796,1,1,2,-5,-1,0,-2,-1
1537905080535791,-4,-1,-2,-3,-3,-2,-2,-2
1537905080535791,3,-1,2,2,3,0,0,-2
1537905080547759,1,-2,-3,2,-3,0,1,0
1537905080547759,-1,-1,-1,4,-1,0,-1,0
1537905080556735,2,-1,1,6,7,-1,-1,1
1537905080556735,-4,0,0,1,-4,-3,-1,-2
1537905080570698,-1,0,0,-2,1,0,-2,1
1537905080570698,-2,-1,0,3,-2,0,0,-4
1537905080579674,0,-1,-2,-5,-1,1,0,2
1537905080579674,1,-3,-1,1,0,0,-1,0
1537905080594634,-1,0,-2,-2,-1,-1,-3,0
1537905080594634,-2,1,-2,-3,-2,-1,-2,-1
1537905080595631,8,2,0,20,10,2,0,0
1537905080595631,-4,-1,-3,-17,-16,-3,-1,-1
1537905080615580,-6,-2,-3,-14,-2,-3,-2,-6
1537905080615580,-3,-1,-1,0,0,-1,-1,0
1537905080630539,-1,-1,-1,-6,-2,-1,-1,-2
1537905080630539,2,0,-1,7,4,2,0,2
1537905080639514,1,-1,1,-2,-2,-1,0,1
1537905080639514,0,-1,0,2,1,0,-1,-2
1537905080640512,-3,0,-1,-5,-3,-1,-2,0
1537905080640512,2,-1,-3,-3,-1,-1,0,-1
1537905080661456,0,-1,1,19,3,0,0,-2
1537905080661456,-3,-1,-3,-33,-8,-3,-1,-2
1537905080663450,10,1,0,-8,-8,-3,0,3
1537905080663450,-3,-1,-2,-2,4,-1,-1,-1
1537905080675419,-2,0,0,1,-3,-2,-2,-1
1537905080675419,0,-2,1,11,4,-1,0,-1
1537905080684394,-2,-2,-2,-6,0,-1,-1,-1
1537905080684394,1,-2,-3,-4,-6,-2,-2,0
1537905080699354,0,-3,-2,2,1,2,-3,0
1537905080699354,2,1,1,11,3,1,0,0
1537905080700351,-1,-2,-5,-21,-6,-2,-1,0
1537905080700351,-7,-2,3,18,4,0,-2,-4
1537905080721295,-3,0,-3,-21,-5,-3,-1,-1
1537905080721295,0,1,-1,-5,-3,-1,0,-1
1537905080723290,-1,-3,-2,-2,-2,-1,-1,-2
1537905080723290,3,0,-2,11,6,0,0,1
1537905080735258,-1,0,0,-10,-5,-2,-1,-1
1537905080735258,2,-2,-3,0,0,-1,-1,-1
1537905080744234,-2,-3,3,13,2,0,1,-2
1537905080744234,-1,-3,-2,-12,-2,1,-1,-1
1537905080758197,-1,0,1,7,3,-2,0,0
1537905080758197,2,0,-1,-1,-6,-4,-3,0
1537905080767173,-7,-2,-2,6,1,-1,-2,-3
1537905080767173,2,1,2,4,3,1,-1,0
1537905080782132,1,-1,-1,-7,-5,-2,-1,0
1537905080782132,-1,-2,-1,13,4,1,0,-3
1537905080783130,-2,0,-1,-12,-7,-3,-1,-1
1537905080783130,-1,-2,-3,-4,-3,-2,-1,-1
1537905080795098,5,1,0,16,3,-1,2,0
1537905080795098,-3,-3,0,0,1,-1,-2,0
1537905080804074,-3,-1,1,2,2,2,-1,-1
1537905080804074,2,1,-3,-10,-1,0,0,-2
1537905080818037,-2,0,0,1,2,-1,-1,0
1537905080818037,-2,0,-2,-4,-3,0,0,-2
1537905080827013,0,0,1,3,1,0,1,0
1537905080827013,0,-1,-2,2,3,-3,-1,0
1537905080841973,0,-3,-4,-19,-11,-3,-1,-2
1537905080841973,-3,-1,1,3,-2,-2,0,0
1537905080842970,-1,0,-5,-18,-1,0,-2,-1
1537905080842970,2,4,1,8,-3,0,1,-1
1537905080854938,0,0,-2,1,4,0,0,0
1537905080854938,2,-1,0,1,1,-1,0,0
1537905080863914,-3,-1,0,5,1,1,0,0
1537905080863914,-2,-1,-2,-8,-2,-3,-2,0
1537905080878874,0,0,0,6,2,1,-1,-1
1537905080878874,1,-1,0,-6,-5,-1,-2,1
1537905080880869,-1,-1,-3,-8,-2,-3,0,0
1537905080880869,0,-3,0,-4,0,1,-1,-1
1537905080901812,-1,0,1,3,-1,-3,-1,2
1537905080901812,-2,0,-3,1,1,2,0,-2
1537905080902810,3,1,5,10,1,-1,-1,0
1537905080902810,-5,-2,-1,3,-1,-1,1,-1
1537905080915775,-3,-1,-2,-5,0,-1,0,-1
1537905080915775,-1,0,1,11,1,0,0,-1
1537905080924752,0,-1,-3,-15,1,0,0,-1
1537905080924752,1,-2,-1,2,-2,-3,-3,-2
1537905080938714,-1,-2,-1,-2,-3,0,-1,-1
1537905080938714,-3,-3,-1,-6,-5,-3,0,-2
1537905080945695,-2,-1,1,10,0,1,1,-1
1537905080945695,-1,-1,0,-2,1,1,0,-2
1537905080961653,2,-2,-3,-2,-1,-1,-1,0
1537905080961653,2,-2,-1,-2,0,-2,1,1
1537905080963647,-2,-1,-1,1,-3,-1,-2,-2
1537905080963647,0,1,0,-2,1,0,-1,-1
1537905080984591,0,1,1,-2,0,0,0,-1
1537905080984591,-2,-1,-1,-2,-2,-1,-1,-1
1537905080985589,-4,-2,0,7,2,-1,0,-3
1537905080985589,-3,1,-4,-23,-7,-1,-2,-1
1537905080999551,-2,-3,-3,4,-4,-3,-3,-2
1537905080999551,0,-2,-1,-2,0,0,-1,-1
1537905081000549,2,0,-3,-4,0,0,-1,-2
1537905081000549,-1,-2,3,13,4,-1,-1,-1
1537905081021493,-1,0,0,-2,0,3,0,2
1537905081021493,-4,1,0,0,-1,-2,-1,0
1537905081023488,0,-4,-3,3,-1,-3,-1,-1
1537905081023488,0,-2,-2,3,-4,-1,0,0
1537905081044431,0,0,-2,-9,-3,-1,-1,-2
1537905081044431,3,-2,-2,-1,2,-1,0,0
1537905081045429,0,0,0,1,-2,0,-1,0
1537905081045429,-2,-2,-1,-5,-4,-4,-1,-1
1537905081059391,-1,1,-1,5,1,3,0,0
1537905081059391,0,2,0,-1,-1,-1,-2,0
1537905081060389,-3,1,-1,0,2,-2,0,0
1537905081060389,-2,-1,-2,5,-2,1,1,-1
1537905081081333,-1,-1,-2,-17,-4,-3,-2,-2
1537905081081333,1,-1,-1,-2,0,0,1,0
1537905081083327,-1,0,-3,0,-5,-3,-1,-1
1537905081083327,1,1,0,9,5,0,-1,-1
1537905081104271,-2,-3,0,3,0,-1,1,-1
1537905081104271,2,-1,0,-3,-2,-1,-1,1
1537905081106266,0,-3,0,-1,-3,-1,0,-1
1537905081106266,-1,-2,-2,-6,-3,-1,0,0
1537905081118234,4,2,-1,0,-2,-3,-2,0
1537905081118234,-5,0,-1,11,9,1,-1,-1
1537905081125216,-2,-1,-1,-24,-15,-2,-3,-1
1537905081125216,-3,0,1,-2,1,-2,-2,-2
1537905081142171,0,-1,0,4,1,-2,0,-3
1537905081142171,2,-2,-2,7,-1,0,-2,-1
1537905081143168,-1,-1,-2,-11,0,-1,0,-1
1537905081143168,1,0,-1,-3,-2,0,-1,1
1537905081164111,-2,0,1,1,0,0,0,1
1537905081164111,-2,-3,-1,-5,-2,-1,-1,-3
1537905081166106,-3,-1,0,7,4,3,1,-1
1537905081166106,1,0,0,-4,-5,-3,-1,1
1537905081179072,-2,-4,0,26,6,3,0,-2
1537905081179072,-3,0,-6,-35,-2,-1,-2,-2
1537905081185055,-2,-1,1,1,-4,-1,-1,-1
1537905081185055,-1,-1,-1,-4,0,-1,-1,0
1537905081202010,-2,-1,2,5,1,-1,-2,-1
1537905081202010,-2,-1,1,7,0,-1,0,-1
1537905081203008,4,-1,0,1,1,-1,-1,0
1537905081203008,-2,-1,-3,0,2,0,-1,0
1537905081223952,-1,-2,-3,-10,-6,-1,0,0
1537905081223952,3,2,0,6,1,0,-3,1
1537905081225947,2,-2,-1,-6,-1,-1,-2,0
1537905081225947,-2,0,1,11,6,1,0,-1
1537905081238911,-3,-3,-3,-14,-3,-1,0,-1
1537905081238911,0,-1,-2,-5,-6,-4,-1,0
1537905081245893,1,2,1,13,2,0,-1,1
1537905081245893,-3,1,0,-5,0,-1,-2,1
1537905081261850,-3,1,0,-1,0,0,-1,-1
1537905081261850,-3,0,2,2,-1,0,-1,-2
1537905081262847,1,-1,-2,3,1,-1,-1,-1
1537905081262847,1,0,-1,-4,-3,-1,0,-1
1537905081283791,-3,1,0,-4,-1,0,-2,-2
1537905081283791,-1,-1,0,8,1,-1,-1,-1
1537905081285787,-1,-2,-3,-8,-2,-1,-1,-1
1537905081285787,0,-2,-3,-6,-3,-2,-2,-2
1537905081298751,-3,-1,0,2,-3,-2,-1,-1
1537905081298751,1,0,1,1,-1,0,1,-1
1537905081305733,-3,-2,-3,9,3,0,0,0
1537905081305733,1,-3,0,-10,-6,-2,-1,-1
1537905081321690,1,0,-1,1,4,-1,0,-2
1537905081321690,-1,-1,-1,-8,-5,-1,-1,0
1537905081323685,-1,0,1,1,-2,-3,-1,-1
1537905081323685,-2,0,0,4,0,0,1,0
