timestamp,emg1,emg2,emg3,emg4,emg5,emg6,emg7,emg8
1537920233123379,0,0,-1,3,9,17,4,-4
1537920233123379,-1,-2,-2,-5,-18,-15,0,1
1537920233124376,-1,-2,-1,0,0,1,0,-1
1537920233124376,-1,-2,-1,3,7,7,-1,2
1537920233128366,0,-1,-1,2,-2,-27,-4,1
1537920233128366,-3,-2,-2,-4,-11,13,-30,-5
1537920233129363,1,0,-2,-3,-2,4,3,1
1537920233129363,-3,-1,1,-1,0,-22,6,-1
1537920233134350,0,-1,0,0,3,34,2,2
1537920233134350,-1,0,-1,3,11,-2,-3,-3
1537920233146318,-2,-2,-2,-7,-16,-23,-14,-2
1537920233146318,-2,-1,0,0,12,7,-23,-7
1537920233150307,0,0,0,-2,-8,-3,45,5
1537920233150307,0,-1,-1,-5,-12,-8,-4,-2
1537920233166264,-1,1,0,5,15,-2,-1,0
1537920233166264,-2,-2,-1,-1,-5,-15,-1,-4
1537920233174243,-2,0,2,0,6,20,7,-1
1537920233174243,1,0,-2,-1,6,16,41,4
1537920233195187,0,1,1,0,1,-2,3,-2
1537920233195187,-1,-1,-2,-2,-1,2,-1,-1
1537920233196184,-1,-1,-1,-1,6,-16,-29,-2
1537920233196184,1,-1,0,-1,2,21,6,0
1537920233210147,0,-1,0,0,1,-6,2,-1
1537920233210147,-2,-1,-1,-2,-5,-10,-5,1
1537920233250040,-1,-2,-1,1,7,-3,2,-2
1537920233250040,-1,0,-1,1,-5,20,1,0
1537920233256024,0,-1,-3,-2,-2,-3,-1,-1
1537920233256024,-1,0,0,-2,0,-3,0,-3
1537920233257022,-1,1,-1,-1,0,4,2,0
1537920233257022,0,-3,1,0,0,-13,-5,-1
1537920233257022,-1,-3,-1,0,1,-9,-8,-4
1537920233257022,-1,-3,-1,1,3,13,-13,-3
1537920233264003,-2,-1,0,1,-9,-10,-13,-1
1537920233264003,0,1,-2,-1,-2,-2,24,5
1537920233269987,0,2,0,1,-6,15,-3,0
1537920233269987,-2,0,-2,-2,2,-3,1,0
1537920233285945,0,-1,0,0,-4,-19,-25,-2
1537920233285945,-3,-4,0,-2,0,-13,-6,-2
1537920233291928,-1,1,3,0,3,7,7,2
1537920233291928,0,1,-2,-2,-2,0,-9,0
1537920233300905,-1,-1,-1,2,13,-5,10,0
1537920233300905,0,-1,-1,1,2,33,2,-1
1537920233322846,0,-2,-1,-2,-12,-17,4,0
1537920233322846,-1,-2,0,-1,-3,9,-2,-2
1537920233330825,0,-2,-3,-4,4,8,6,-1
1537920233330825,1,0,-1,1,-2,-15,-3,-1
1537920233336808,-1,0,-1,-2,2,-16,-11,-1
1537920233336808,1,-2,0,-2,0,15,9,1
1537920233345784,-2,1,-1,-2,-9,6,7,1
1537920233345784,-2,0,-1,-2,3,1,-18,-2
1537920233360745,-1,-2,2,-2,-4,-15,-22,-3
1537920233360745,1,0,0,0,3,-8,31,0
1537920233366728,-1,0,-1,2,23,29,1,-2
1537920233366728,-2,0,1,1,-19,-4,-4,1
1537920233383683,-2,-1,-4,-4,-12,-19,-9,-1
1537920233383683,-1,-1,-2,0,5,5,-8,1
1537920233384681,-1,-2,-1,-2,-2,-22,-4,-2
1537920233384681,-3,-1,-2,3,15,30,2,-4
1537920233397646,-2,-2,-1,-4,9,-40,-47,-5
1537920233397646,0,-2,0,-2,-31,38,48,4
1537920233413603,-2,-1,-3,-10,-21,-9,2,0
1537920233413603,1,-1,0,-2,8,-13,-2,-1
1537920233420584,0,-1,2,1,0,4,9,-1
1537920233420584,-1,-2,0,3,19,14,-14,-3
1537920233427566,-1,-1,-1,1,-11,-10,4,0
1537920233427566,-4,-2,-3,-5,-3,14,3,-2
1537920233451502,3,-1,0,1,6,11,9,-2
1537920233451502,5,0,0,-1,2,-26,-10,3
1537920233452499,0,-2,0,3,-3,-1,1,1
1537920233452499,-4,-2,0,-2,-1,0,-7,2
1537920233457486,-5,-2,-1,2,4,9,2,-2
1537920233457486,-3,-2,-2,0,-4,-20,-2,-3
1537920233466462,0,-1,-1,-3,-3,9,-3,-2
1537920233466462,0,-1,0,1,5,-13,1,0
1537920233480425,-1,0,1,-2,1,28,15,-1
1537920233480425,-2,-2,-4,-1,-6,-18,-17,-2
1537920233487406,-1,1,-2,1,4,11,-9,-2
1537920233487406,0,0,0,-1,2,-41,-25,-2
1537920233503363,1,-1,-1,0,-8,59,65,3
1537920233503363,-1,3,0,-5,-4,-18,-20,0
1537920233505358,0,0,-1,-2,1,1,4,-3
1537920233505358,-1,0,0,-2,0,-6,-14,-3
1537920233526302,-2,-1,-3,1,-7,-16,-15,0
1537920233526302,-2,-2,0,0,3,-5,9,0
1537920233527299,-2,1,-1,-2,-3,3,-1,-5
1537920233527299,18,3,0,1,2,-3,4,8
1537920233541262,0,0,-2,-2,3,-9,-34,-2
1537920233541262,-2,-2,0,3,2,12,63,9
1537920233542260,-2,-4,0,0,0,-7,-14,-1
1537920233542260,-4,-1,-2,0,-1,7,9,-4
1537920233563203,-1,1,-2,0,-2,2,0,-1
1537920233563203,0,-2,-2,-1,-3,-16,-60,-10
1537920233565198,3,0,-1,0,3,19,52,4
1537920233565198,-10,0,-2,-1,-6,-2,28,0
1537920233586142,-1,-1,0,0,3,-15,-15,1
1537920233586142,-2,-2,1,-3,-1,9,-9,-7
1537920233587140,0,1,0,-2,-2,-7,-11,-1
1537920233587140,-15,-4,-3,-6,-8,2,-39,-1
1537920233608084,11,-12,-11,-8,4,41,13,-9
1537920233608084,-33,-7,1,8,21,23,59,12
1537920233610078,57,-1,-3,8,-2,-47,-107,14
1537920233610078,16,7,5,20,64,40,67,0
1537920233625039,30,-11,-2,4,9,12,-106,-7
1537920233625039,24,-52,-48,3,89,-100,-86,14
1537920233626038,-106,37,53,15,-15,115,99,39
1537920233626038,46,94,41,22,89,-54,-69,-111
1537920233645984,-71,-49,-35,-65,-90,-121,68,44
1537920233645984,13,-4,-41,-116,-118,73,25,52
1537920233647978,-51,-124,-71,-12,46,-96,-63,-28
1537920233647978,-85,0,23,-72,-126,11,-14,-34
1537920233659947,56,104,64,60,127,114,-33,-52
1537920233659947,-21,-66,-24,65,12,5,25,-54
1537920233668923,-7,-58,57,-14,-81,-128,-11,17
1537920233668923,26,54,7,61,101,76,-18,-9
1537920233683883,-37,-59,-53,18,-66,-72,57,1
1537920233683883,12,34,16,-20,-27,27,12,25
1537920233684881,27,-42,-31,27,127,34,-40,-42
1537920233684881,-67,-33,-25,-62,-128,-112,-10,91
1537920233705824,6,-14,13,20,127,127,0,40
1537920233705824,44,-6,-32,0,-52,-105,14,-69
1537920233707819,77,127,66,-9,-54,54,-6,35
1537920233707819,-13,-60,-6,28,71,-78,-36,5
1537920233719786,6,15,-16,-26,-67,98,52,18
1537920233719786,-18,-13,-6,0,-50,-92,-12,-49
1537920233728762,-39,-63,-57,-20,-6,-2,31,-17
1537920233728762,66,-30,-5,-1,-4,32,25,29
1537920233743722,-15,42,60,15,-18,-47,-32,-20
1537920233743722,-2,14,43,19,56,58,5,17
1537920233744719,-17,41,-3,-10,-29,10,19,3
1537920233744719,18,-20,-14,10,2,-1,2,13
1537920233765663,-34,-44,-30,-9,-1,-48,-5,-25
1537920233765663,-38,41,33,7,14,44,-22,4
1537920233767658,34,20,-6,6,16,-6,11,1
1537920233767658,3,-25,-24,-12,-18,20,13,-12
1537920233779625,9,3,2,-9,-8,-1,5,-9
1537920233779625,-1,24,18,13,19,3,-22,12
1537920233788601,20,5,-7,7,0,12,2,1
1537920233788601,-7,-10,-6,-1,7,49,39,24
1537920233803561,-10,12,4,-4,-23,-26,-12,3
1537920233803561,3,5,6,4,11,-3,-21,8
1537920233804559,-21,-7,-11,-3,5,5,4,-8
1537920233804559,-16,10,5,-2,-5,14,-5,-7
1537920233826500,11,-1,0,1,1,-22,21,5
1537920233826500,-1,-5,1,1,9,10,-6,-13
1537920233827498,7,9,1,1,9,22,-7,-11
1537920233827498,2,2,-3,2,-2,-1,15,-16
1537920233840463,14,-4,0,4,-1,-13,-13,23
1537920233840463,-6,-2,1,-3,9,9,-13,-5
1537920233848443,-8,11,2,-1,-4,-5,-1,-16
1537920233848443,3,-2,2,4,-2,-5,-8,1
1537920233863402,-7,-8,-7,-6,-1,-13,5,7
1537920233863402,-5,8,7,1,5,14,12,22
1537920233865398,1,4,0,1,4,-1,-3,1
1537920233865398,-2,-8,-7,-5,-11,-1,-1,-1
1537920233886340,-1,-1,0,-2,-1,-2,-7,-14
1537920233886340,-1,3,2,2,11,13,-12,8
1537920233887338,1,-2,-2,-1,-12,2,25,1
1537920233887338,-2,-10,-4,-2,-1,-6,-5,0
1537920233899305,-3,6,0,-3,-4,-19,-15,-10
1537920233899305,-2,4,5,5,7,1,-3,-5
1537920233908281,-2,-2,-3,1,6,15,3,2
1537920233908281,-7,4,-1,-2,-3,-4,-6,1
1537920233923241,2,-3,0,-1,-5,-17,8,-2
1537920233923241,-3,-4,-3,2,8,36,-2,1
1537920233925236,-12,-1,0,-3,1,-1,-3,-9
1537920233925236,29,5,1,-1,-2,-15,-2,14
1537920233946180,3,-3,-2,1,1,-11,-22,-9
1537920233946180,-1,-1,0,-1,-4,5,39,-1
1537920233947178,-6,2,-1,-3,-6,-5,33,-4
1537920233947178,0,-1,-1,0,2,4,-6,3
1537920233960143,-3,-3,-2,-2,2,-4,-8,11
1537920233960143,-1,0,-1,-1,-7,0,-9,5
1537920233969118,-2,2,0,0,0,-2,-22,-3
1537920233969118,-7,-5,-2,-1,-2,5,22,5
1537920233983081,2,1,0,0,4,-4,-7,-17
1537920233983081,-3,-2,-3,-3,-3,-11,-1,0
1537920233985076,5,-1,-1,0,2,-2,0,4
1537920233985076,-7,-2,0,0,1,4,-2,-6
1537920234006019,-1,-1,-1,-1,-2,12,2,-2
1537920234006019,-2,1,0,-1,0,-15,-10,-4
1537920234008014,0,-1,-3,-2,-2,-6,-34,-4
1537920234008014,-4,-1,0,2,2,18,40,-2
1537920234019982,-2,-1,-1,-2,-3,-5,2,0
1537920234019982,1,0,0,-1,-1,-13,-19,-3
1537920234028958,1,1,-1,1,1,4,0,1
1537920234028958,-6,-2,-1,0,-1,3,-19,-4
1537920234043918,-1,0,-1,0,0,-5,-6,-4
1537920234043918,-1,0,1,1,2,0,2,0
1537920234044916,1,-1,1,-1,0,2,-3,0
1537920234044916,-3,-1,0,-1,-1,-4,-3,-3
1537920234065860,-2,-1,-3,1,-1,4,4,-2
1537920234065860,0,-1,-1,-2,0,-7,-9,-3
1537920234067855,-1,1,0,0,-1,1,-2,2
1537920234067855,-2,-1,-1,-2,-4,-2,5,-1
1537920234079823,-2,-1,-3,-2,-1,4,0,-1
1537920234079823,-1,-1,2,2,0,0,-4,-2
1537920234088801,-2,0,-1,-1,-1,-3,4,1
1537920234088801,0,0,0,-1,-3,-5,-17,-3
1537920234103763,2,-1,-2,0,-1,1,-5,0
1537920234103763,-1,-2,-1,0,0,-5,-4,-1
1537920234104758,-1,0,0,-1,-1,3,13,0
1537920234104758,-1,1,-1,1,1,-1,-7,-3
1537920234125701,-3,-1,-1,0,-1,3,0,-1
1537920234125701,-1,-2,-1,-2,4,-8,-7,-1
1537920234127697,2,0,-1,2,-4,-1,-3,0
1537920234127697,-3,-5,-2,-8,-7,-2,-10,-3
1537920234139664,4,0,-1,-4,-4,14,35,-2
1537920234139664,-5,0,-1,1,2,7,27,3
1537920234148639,3,2,0,5,7,-17,-20,-1
1537920234148639,0,1,0,0,1,-8,-7,-1
1537920234162601,-1,-2,-1,-1,-4,-8,-12,-3
1537920234162601,0,0,-1,-1,0,6,-6,-3
1537920234169582,-3,-2,-2,-2,-1,5,9,-2
1537920234169582,-2,-1,0,-1,2,6,0,1
1537920234185540,-2,-1,-1,0,-2,-13,-16,0
1537920234185540,-2,-2,-1,0,-4,4,13,-1
1537920234187535,0,-2,-1,-1,-2,-2,-2,-2
1537920234187535,0,-2,0,-2,-2,-2,-4,-1
1537920234199502,-2,-2,0,1,2,6,8,-1
1537920234199502,1,-1,-1,0,1,-7,-8,-2
1537920234208479,0,-1,-1,-3,1,3,0,0
1537920234208479,-2,0,-2,0,10,15,6,-2
1537920234231417,-1,0,-2,-2,-22,-12,3,2
1537920234231417,1,-1,-3,-4,2,5,-8,-1
1537920234232415,0,0,-2,-4,-16,-13,-1,1
1537920234232415,-2,-1,-1,-1,-2,-17,-1,1
1537920234245380,-1,-1,1,3,11,17,0,-2
1537920234245380,1,-1,-1,-5,-17,-9,-8,-3
1537920234252361,0,0,-1,0,2,13,6,-1
1537920234252361,-2,-1,-1,2,0,8,7,0
1537920234268320,-2,0,-2,-2,4,-10,-6,-2
1537920234268320,1,1,2,3,4,-7,-20,-3
1537920234270315,0,0,0,1,7,8,1,2
1537920234270315,0,-1,-1,0,-8,-36,-19,-2
1537920234291258,0,-1,-1,-2,4,23,27,0
1537920234291258,1,0,-2,-1,0,-1,-6,-1
1537920234292256,-2,-1,-1,-2,4,1,0,0
1537920234292256,-3,-1,-2,3,-12,-5,0,-2
1537920234305221,-1,-3,-2,-5,1,-2,-8,-1
1537920234305221,-1,-1,0,-2,-7,-6,4,0
1537920234312202,2,0,0,0,8,-2,-1,-1
1537920234312202,-1,-1,-1,-2,-4,15,8,2
1537920234328159,-5,-2,0,-1,-4,-16,-7,-2
1537920234328159,0,0,0,-1,1,8,6,-2
1537920234330154,0,-1,-2,1,-7,-12,-2,-2
1537920234330154,0,0,-1,1,0,-16,-7,-1
1537920234351098,0,-1,2,0,1,25,-5,2
1537920234351098,0,-1,-1,-1,0,-5,-1,-2
1537920234352097,-3,-1,0,3,11,13,0,-1
1537920234352097,2,-1,-1,-3,5,6,6,-3
1537920234365062,-2,-1,-3,-1,-5,-19,-5,1
1537920234365062,1,0,0,0,0,-4,-6,-1
1537920234372042,0,-3,-2,-3,-13,-2,-4,0
1537920234372042,0,0,0,0,3,10,2,0
1537920234388996,0,-1,-1,0,4,6,21,0
1537920234388996,-3,-2,-1,-2,2,2,7,0
1537920234389994,-1,1,-1,-5,-2,-18,-18,-2
1537920234389994,-2,1,0,-1,-1,0,-4,-1
1537920234410938,1,-1,-2,1,4,2,-7,0
1537920234410938,2,0,0,0,-2,-10,6,2
1537920234412932,-1,-1,-2,-1,-7,2,8,-1
1537920234412932,-2,-2,-2,1,1,6,0,-1
1537920234424900,3,0,-3,1,-3,-9,-2,-1
1537920234424900,1,1,-3,-3,1,7,-2,0
1537920234439860,-6,-4,-1,-1,1,2,1,0
1537920234439860,-2,-1,0,0,1,-1,-10,-1
1537920234448836,-3,-2,0,2,4,2,21,-2
1537920234448836,-1,-1,0,0,-4,1,-3,2
1537920234449833,2,1,2,1,11,14,2,-1
1537920234449833,-1,-1,0,1,-3,-17,3,-3
1537920234470777,-2,-1,-1,-6,-9,-7,-11,-1
1537920234470777,-2,-3,-4,-3,4,2,-2,-2
1537920234472772,-1,-2,-1,-2,-11,-5,3,1
1537920234472772,1,0,-2,-2,0,10,14,0
1537920234484740,2,1,1,1,4,-5,-11,-2
1537920234484740,-2,0,-1,0,-12,-12,-1,0
1537920234493716,-4,-1,-1,1,6,12,-1,-3
1537920234493716,-3,-2,-4,-3,1,3,0,-2
1537920234508676,14,2,0,-2,-10,-17,-14,3
1537920234508676,-2,-2,-1,-1,3,15,12,-2
1537920234509673,-2,-1,-1,-1,-4,-8,-6,-2
1537920234509673,-2,-2,-1,0,-4,4,9,1
1537920234530617,-3,0,0,1,3,0,0,-1
1537920234530617,-1,-3,1,1,4,-9,-14,-2
1537920234532612,6,0,-1,-2,-4,2,-4,0
1537920234532612,1,-2,-1,-4,0,-2,-2,-2
1537920234544580,-6,-3,-2,0,3,1,-12,-4
1537920234544580,-3,-1,1,2,7,7,7,1
1537920234553556,-3,-2,-3,-4,-8,-12,7,0
1537920234553556,-1,0,-3,-3,-6,-3,-8,-1
1537920234568516,0,0,-1,-1,-6,-7,1,-1
1537920234568516,-1,-2,0,-2,-6,-3,0,-2
1537920234569513,0,-1,-1,-1,5,1,-1,0
1537920234569513,0,-2,0,2,11,6,0,0
1537920234591455,0,-1,-1,1,3,-15,-3,-1
1537920234591455,-2,1,-4,-3,4,20,-2,-2
1537920234592452,-2,0,0,-2,-8,-3,-2,-1
1537920234592452,1,-1,0,0,-6,8,-4,2
1537920234604420,-2,1,-2,-3,2,-1,-7,-1
1537920234604420,-2,-1,0,1,3,-9,11,2
1537920234613396,1,-2,-1,0,-2,6,9,0
1537920234613396,-1,-1,0,-3,-1,-5,-4,0
1537920234628356,-2,-1,-1,-1,1,5,-1,-2
1537920234628356,-1,0,-2,0,-5,-6,-7,-2
1537920234630351,0,0,-2,-1,-1,-5,-5,-3
1537920234630351,-1,1,0,2,-1,-5,-5,-2
1537920234651295,-1,1,0,-2,-2,11,21,0
1537920234651295,-1,-1,-2,-2,-6,-6,-2,-1
1537920234652292,-2,-2,-2,0,4,-1,2,1
1537920234652292,3,1,0,0,-4,-11,-10,-1
1537920234664260,0,-1,-2,-2,1,5,-2,2
1537920234664260,2,-1,0,2,0,-2,-3,-1
1537920234673236,-3,-2,-2,-1,2,2,-1,-1
1537920234673236,-3,-2,-1,0,6,-10,-19,-2
1537920234688196,-6,-2,-1,-2,-15,11,12,2
1537920234688196,5,1,2,-1,0,0,4,3
1537920234690191,-1,-1,-2,1,3,11,41,1
1537920234690191,3,0,-1,0,0,2,2,3
1537920234710137,-3,0,-1,-1,1,-9,-15,-4
1537920234710137,-3,-1,-3,-3,-5,-3,-14,-5
1537920234719113,-2,-1,0,-1,-2,-4,-9,-2
1537920234719113,-1,-1,0,-1,1,3,7,-1
1537920234725097,0,-2,0,-1,2,-1,-1,1
1537920234725097,-1,0,-1,-2,-8,-3,1,-1
1537920234734073,0,1,-1,-2,2,-3,-9,-4
1537920234734073,-4,-3,-3,-3,-3,3,1,-1
1537920234748036,2,-2,-2,1,1,-4,-1,1
1537920234748036,0,-1,0,-1,-1,-2,1,1
1537920234750031,-1,-1,0,0,0,-1,3,1
1537920234750031,0,-1,-1,-1,-2,7,-1,0
1537920234770975,-1,0,0,0,1,-8,-4,-2
1537920234770975,-3,-3,-1,-1,-8,-17,6,-1
1537920234771972,1,0,-1,-1,-3,-4,-17,-1
1537920234771972,-1,0,-1,0,5,30,27,1
1537920234784937,1,-1,-2,0,3,3,-9,0
1537920234784937,-3,-3,-1,-1,6,-1,11,0
1537920234793913,-3,-3,-1,-1,-8,-4,-9,-2
1537920234793913,-1,0,0,-1,-1,-9,-6,-4
1537920234808873,-1,-1,0,2,-1,0,-4,-3
1537920234808873,-1,-3,0,0,1,-7,-4,-1
1537920234809871,2,-1,0,-2,-1,2,-4,0
1537920234809871,-1,-3,-2,0,-1,-1,2,-1
1537920234830816,0,-2,-2,0,-3,3,5,-1
1537920234830816,-3,0,0,-1,3,4,-8,-3
1537920234832810,0,1,-1,1,-2,-5,0,1
1537920234832810,-2,-1,-2,-4,-8,-14,-3,-2
1537920234844777,-3,-1,0,1,1,-1,-1,-2
1537920234844777,0,-1,1,1,-3,0,-6,-1
1537920234853753,1,-1,-2,-3,1,-13,-1,0
1537920234853753,0,-1,0,0,-2,19,-1,0
1537920234868713,-1,0,-2,-4,-6,-9,-15,-1
1537920234868713,2,-1,-1,0,0,15,15,1
1537920234869711,1,0,0,1,-1,-2,8,0
1537920234869711,-1,-1,0,0,-3,-12,-5,1
1537920234890655,-2,0,-1,0,3,4,1,-1
1537920234890655,-1,1,-1,-1,-1,-2,-15,-3
1537920234892649,-2,-3,-2,-3,-5,-5,-4,-3
1537920234892649,-11,-1,1,2,5,-3,5,-1
1537920234904617,-1,0,-1,-2,-2,-5,-29,-4
1537920234904617,-5,-3,-1,1,-3,-4,-13,-3
1537920234913594,2,0,0,-1,2,13,37,6
1537920234913594,0,-1,-1,-2,-1,0,9,-3
1537920234928553,0,-2,-2,-1,-2,6,10,0
1537920234928553,0,-1,-2,-2,3,-19,-110,-8
1537920234929551,4,3,2,3,7,33,87,13
1537920234929551,-22,2,0,4,22,-28,-62,-10
1537920234950495,29,4,2,10,36,-21,-36,-9
1537920234950495,-19,1,-8,-8,-38,21,-25,-5
1537920234957476,32,8,-11,-10,17,-21,-77,2
1537920234957476,8,-24,-21,-16,-63,-66,-33,-13
1537920234973433,-25,-28,8,-5,34,8,-42,31
1537920234973433,97,-32,-35,35,120,36,90,-8
1537920234975428,-90,76,81,2,-104,34,-46,-17
1537920234975428,52,-81,-76,-93,-52,-73,-36,-15
1537920234987396,-17,27,-9,14,73,-78,-121,21
1537920234987396,-74,-33,17,-81,-118,74,94,48
1537920234996372,30,10,-79,35,127,-76,-28,8
1537920234996372,-77,-12,110,76,68,73,121,31
1537920235011333,85,-122,3,0,-51,14,-36,-41
1537920235011333,22,96,44,68,82,-119,-54,-39
1537920235012330,19,13,-22,-14,-5,27,-34,44
1537920235012330,-33,-50,-20,-23,-70,-113,26,-6
1537920235033273,39,127,-7,-26,-103,-67,71,39
1537920235033273,-80,-59,21,36,102,116,9,-41
1537920235035268,36,-38,-29,-47,-126,-128,-67,-50
1537920235035268,80,43,-18,5,47,83,22,32
1537920235048233,-62,-93,8,5,37,65,42,-38
1537920235048233,5,68,-35,-18,-18,-38,-1,11
1537920235054217,-12,-9,24,21,71,51,51,9
1537920235054217,-28,-8,7,6,1,36,-40,-20
1537920235078154,0,13,-3,-4,-43,-13,37,15
1537920235078154,-11,-4,-4,-6,-14,-29,-16,4
1537920235080149,-12,-34,4,3,-7,34,11,0
1537920235080149,23,46,18,11,-5,3,-11,-11
1537920235093114,-14,13,-9,0,12,10,10,-11
1537920235093114,12,-10,-1,-5,-19,-12,7,15
1537920235095109,-18,-10,22,-4,-15,6,4,-5
1537920235095109,10,19,-8,1,4,0,-13,5
1537920235107076,-4,18,-9,4,23,18,17,1
1537920235107076,-13,-25,-3,-11,-30,-5,10,7
1537920235116053,4,-4,0,-2,-13,3,32,-13
1537920235116053,-20,11,-5,9,27,8,-22,0
1537920235131015,-4,12,-3,2,1,5,9,1
1537920235131015,21,-22,-21,-13,-25,-6,-36,-2
1537920235133009,-9,25,29,12,26,34,39,1
1537920235133009,-19,8,2,-3,-17,-7,1,-2
1537920235153953,12,-6,11,3,-5,-1,9,-5
1537920235153953,2,-6,-7,-5,-15,-16,-13,0
1537920235154952,5,-12,-15,1,1,24,-4,1
1537920235154952,-15,-1,-7,-4,8,-1,-7,-1
1537920235166918,-13,11,1,-3,-10,9,8,-8
1537920235166918,-4,3,3,-1,0,19,7,3
1537920235175895,-13,-17,-10,-1,-4,-24,-12,-3
1537920235175895,11,16,8,8,8,12,5,-1
1537920235190854,-9,-8,-6,-3,1,3,-4,-3
1537920235190854,7,4,4,2,5,-13,-17,2
1537920235192850,-6,-7,4,0,0,6,28,-2
1537920235192850,5,4,-2,0,3,4,6,0
1537920235212796,-12,0,-1,-2,4,2,7,-3
1537920235212796,3,-7,2,-3,-8,-2,1,3
1537920235213794,-5,-3,-3,-4,-6,-12,-19,-4
1537920235213794,14,2,-4,1,2,4,-8,-1
1537920235235733,-11,0,-3,2,8,16,6,5
1537920235235733,2,5,6,-1,-9,-14,5,-2
1537920235235733,-4,-8,-5,-4,-2,-9,-10,0
1537920235235733,-12,1,0,3,15,4,-4,-8
1537920235251690,-2,3,2,0,-1,7,5,0
1537920235251690,6,1,1,2,8,9,3,3
1537920235252687,3,-3,-3,2,-6,-18,-6,0
1537920235252687,-8,-2,-3,-2,-2,15,-13,1
1537920235272634,-6,-2,-1,-1,-6,-8,12,-3
1537920235272634,3,8,1,1,0,-5,0,0
1537920235273631,2,-3,-2,0,17,8,-2,0
1537920235273631,4,3,2,0,1,4,-3,0
1537920235295573,-2,-1,-2,-2,-2,-6,-6,-1
1537920235295573,5,-3,-2,-1,2,-3,9,0
1537920235296570,-4,-1,0,-2,-4,2,-10,-2
1537920235296570,-1,-1,-2,0,2,-10,2,2
1537920235310532,3,0,-3,-2,-8,3,0,-2
1537920235310532,-14,-3,-1,-1,-3,-3,3,-3
1537920235310532,-3,-1,-1,-1,-1,2,-5,-1
1537920235310532,11,-2,0,-1,4,0,4,1
1537920235332475,2,2,0,-2,2,-5,0,0
1537920235332475,-5,-4,-1,2,0,-11,-3,-3
1537920235333473,-7,-4,-2,-3,1,16,-2,-1
1537920235333473,1,1,0,-1,-7,-2,-4,0
1537920235356411,-8,2,-1,-1,-5,1,15,0
1537920235356411,3,-1,-1,-1,-1,9,1,0
1537920235356411,-2,-1,0,2,7,-16,-3,-1
1537920235356411,-5,-2,-2,1,10,-10,0,-3
1537920235370374,9,1,1,-7,-23,0,-4,0
1537920235370374,-6,-5,-1,-2,-4,-14,-2,-1
1537920235371373,4,-2,-2,1,2,7,1,-1
1537920235371373,1,2,-1,1,3,7,0,1
1537920235393312,-2,0,-1,-1,7,-2,-4,-1
1537920235393312,-5,0,-3,-2,3,4,3,2
1537920235393312,0,-1,-2,-4,-3,5,-6,-1
1537920235393312,-1,0,-1,1,-6,-5,3,-1
1537920235407277,-5,-3,-2,-2,5,0,-3,-2
1537920235407277,4,-1,0,-1,-6,-2,0,0
1537920235415254,1,-2,-1,-1,-3,0,-3,-2
1537920235415254,2,0,0,-2,-5,-4,2,0
1537920235430213,-4,-1,0,-1,1,3,0,-1
1537920235430213,3,1,0,-2,-5,-2,-4,-1
1537920235431210,1,-7,-2,-1,-3,-4,-1,1
1537920235431210,-1,7,0,1,4,-8,0,-2
1537920235453151,1,5,2,4,15,25,-3,1
1537920235453151,-1,0,-2,-6,-11,1,1,-2
1537920235453151,3,-1,-2,-4,-8,-19,-2,1
1537920235453151,-1,-3,-2,-3,-14,-7,0,0
1537920235467114,-2,-2,0,0,3,-9,-3,-2
1537920235467114,-1,0,-1,1,4,4,1,-2
1537920235475092,3,1,1,1,2,2,-1,-2
1537920235475092,8,-1,1,1,2,6,-1,2
1537920235490052,-16,1,-1,-2,-2,-1,-2,-3
1537920235490052,13,-4,1,0,-2,-3,0,0
1537920235491050,1,0,-1,1,7,7,-2,-2
1537920235491050,-1,0,-1,2,4,11,0,1
1537920235512991,-3,-2,-2,-8,-20,-5,1,-1
1537920235512991,-2,-1,-1,-2,3,3,0,0
1537920235513989,-3,0,0,-1,-6,-11,-2,-2
1537920235513989,0,-2,-1,0,9,15,0,-3
1537920235527951,1,-1,2,4,7,-5,-1,4
1537920235527951,-3,-2,-2,-2,-8,-2,-2,-1
1537920235528949,0,-1,-1,1,5,4,0,-1
1537920235528949,-2,-1,-2,-1,2,3,0,-3
1537920235549892,4,0,-2,-2,-8,-16,-3,0
1537920235549892,-2,1,1,1,1,-5,0,-1
1537920235550890,1,-3,0,-1,0,3,-1,-1
1537920235550890,-1,-1,-2,-5,-3,1,0,1
1537920235572831,-2,-2,-2,0,1,3,-2,-1
1537920235572831,-3,-2,0,2,3,3,0,0
1537920235573829,0,0,-1,-1,-3,0,0,0
1537920235573829,-2,-1,0,-2,-9,-7,-1,-2
1537920235586794,-1,-2,0,-1,5,6,-1,-4
1537920235586794,-2,-1,0,0,1,2,0,0
1537920235595770,-5,0,-2,-3,-8,-4,-2,-2
1537920235595770,0,-1,-1,-1,4,-3,-1,0
1537920235610730,-6,0,0,0,-2,2,0,-3
1537920235610730,-6,-1,-4,-1,4,2,1,3
1537920235610730,8,0,1,2,8,4,-2,2
1537920235610730,0,0,1,-1,-9,-4,1,0
1537920235632673,2,0,-2,-4,-17,-16,-2,-4
1537920235632673,-11,-3,1,-1,8,-11,-4,-5
1537920235633670,8,1,0,-1,-8,8,0,2
1537920235633670,0,0,-1,2,5,-7,-2,-1
1537920235647632,2,0,-1,2,9,6,0,1
1537920235647632,-2,1,-1,-1,-10,-12,-3,-4
1537920235655610,-4,-1,-2,-2,5,5,-1,-2
1537920235655610,1,-2,-1,1,9,0,0,-1
1537920235670570,2,0,0,-3,-11,-3,2,3
1537920235670570,5,1,0,-3,-2,7,-1,-1
1537920235670570,-3,-2,1,0,1,-4,0,-1
1537920235670570,-2,-1,-2,-2,-7,1,-1,-1
1537920235692511,-1,0,0,-1,7,-4,-1,-2
1537920235692511,6,1,1,1,1,0,0,0
1537920235693509,-8,-3,-1,-1,-1,5,0,-3
1537920235693509,-2,-1,1,-1,-8,-22,0,2
1537920235707471,0,-2,-2,1,10,20,-1,0
1537920235707471,2,-1,-4,-3,-9,-5,-1,-2
1537920235715451,13,2,-1,-2,-5,-8,0,2
1537920235715451,-3,-3,-1,1,5,9,-2,-2
1537920235730411,0,0,-1,2,5,0,-1,-1
1537920235730411,0,-2,-1,1,6,15,-2,0
1537920235731409,-6,-1,-1,-1,-11,-26,-1,-1
1537920235731409,-3,-2,-1,-2,-15,-7,0,-1
1537920235752354,2,0,0,-2,0,2,-2,-3
1537920235752354,-1,-1,-3,-3,-2,-1,-2,-2
1537920235753351,-5,-2,-1,1,7,12,-2,-1
1537920235753351,-3,0,-1,1,6,8,0,-2
1537920235776289,-2,-1,2,-1,-5,-11,-1,-1
1537920235776289,0,-1,0,1,0,2,0,2
1537920235776289,-1,1,0,1,6,11,0,-1
1537920235776289,-1,-1,-2,-4,-11,-11,-3,-3
1537920235790252,-3,-5,-2,-1,3,1,0,1
1537920235790252,5,-1,-2,1,0,-6,0,-1
1537920235791250,-5,0,-2,-1,-2,-1,1,0
1537920235791250,1,0,0,-1,-1,6,1,-2
1537920235813190,0,1,-2,-1,3,3,0,0
1537920235813190,2,-2,0,-2,-3,-4,0,0
1537920235813190,-7,-2,0,2,5,-7,-2,-3
1537920235813190,0,-1,1,1,18,11,0,0
1537920235828149,2,-1,-1,-4,-23,-10,0,0
1537920235828149,-8,-1,-1,-2,-6,-7,-1,0
1537920235835130,0,-1,-1,-5,-4,-2,-3,-2
1537920235835130,-1,1,0,0,5,4,-1,-2
1537920235850090,0,0,0,3,12,4,-2,0
1537920235850090,-1,1,1,1,1,-4,-2,-2
1537920235851088,1,0,0,-2,-1,1,0,-1
1537920235851088,-2,-1,-3,-1,1,3,0,1
1537920235873028,-5,-1,-2,-3,-3,-7,-2,-2
1537920235873028,-3,-1,1,2,1,3,-1,-2
1537920235873028,4,-1,0,-1,-1,-4,-2,-2
1537920235873028,2,0,-3,-5,-17,-4,1,6
1537920235895967,-1,0,-2,-2,-4,0,-2,-1
1537920235895967,-1,-1,0,0,3,-1,-2,-2
1537920235896965,0,0,0,0,-1,7,-1,-2
1537920235896965,-2,-3,0,0,3,0,-1,-1
1537920235909930,1,0,-1,1,3,-3,-1,2
1537920235909930,4,-2,-2,-4,-5,-2,0,0
1537920235910927,-4,-1,-2,-1,-2,-1,0,-1
1537920235910927,-2,-2,0,-1,-3,-1,-1,-5
1537920235932869,-1,1,0,-1,4,2,-1,-3
1537920235932869,0,-1,0,3,11,-2,-2,0
1537920235933866,-3,-2,-3,-2,-17,5,0,0
1537920235933866,-1,-3,-2,-1,2,-7,-3,-2
1537920235955807,-27,-5,0,1,-3,-16,-3,-7
1537920235955807,11,0,-2,-7,-22,-1,3,3
1537920235956805,-5,-3,-2,-1,7,8,-3,-1
1537920235956805,1,1,0,-1,1,6,-2,1
1537920235969770,1,-1,0,0,7,2,-2,-3
1537920235969770,-5,1,0,3,6,-1,-2,-2
1537920235970768,-1,0,0,0,-1,-8,0,0
1537920235970768,2,0,1,0,1,1,-1,-1
1537920235992709,4,1,1,-1,1,0,0,2
1537920235992709,-3,-1,0,0,-2,1,0,-2
1537920235993706,4,-2,-2,-2,-1,-1,-1,0
1537920235993706,-4,0,-3,1,-2,-2,-3,-3
1537920236015647,5,0,-1,-1,-2,2,-1,-1
1537920236015647,0,-1,0,-1,-3,1,0,0
1537920236016645,-4,-1,0,0,0,-4,1,0
1537920236016645,1,0,0,1,4,-1,-1,0
1537920236030608,1,0,-1,0,1,9,0,0
1537920236030608,0,-2,-2,-3,-16,-20,-1,0
1537920236030608,-7,-2,0,0,-1,-2,-1,-2
1537920236030608,1,1,-1,-1,-3,2,1,0
1537920236052549,0,1,0,0,12,15,-2,-2
1537920236052549,0,0,1,-1,1,-13,0,1
1537920236053546,-4,-1,-2,-2,-7,-1,-1,-1
1537920236053546,2,-1,-3,-2,-3,-5,-2,-1
1537920236075487,-3,-1,1,1,0,0,0,2
1537920236075487,-6,-1,-1,-2,5,7,-1,-3
1537920236076485,5,0,0,-1,2,-3,-2,-1
1537920236076485,-2,-2,1,-1,3,4,0,-1
1537920236090447,5,-3,0,2,3,-2,-1,0
1537920236090447,-6,0,-3,0,4,7,0,-1
1537920236091445,11,0,1,1,-8,-12,3,3
1537920236091445,1,-2,-1,-3,-2,1,-1,-1
1537920236112389,1,-1,-1,-3,-8,-6,0,-1
1537920236112389,-2,-2,0,-1,4,10,0,1
1537920236113386,-3,0,-1,0,4,0,-1,-3
1537920236113386,-3,1,-2,1,-5,-4,-1,0
1537920236136325,3,-1,-1,0,-2,-3,0,0
1537920236136325,1,-2,-2,-1,-1,3,-2,0
1537920236136325,2,-1,1,3,10,-11,-3,-3
1537920236136325,-9,2,-1,-2,-9,17,2,-2
1537920236150287,-1,-2,-5,-5,-4,-5,-2,-1
1537920236150287,-3,-3,-2,-5,-16,-5,-4,-1
1537920236151285,-2,-2,-1,-3,-17,-20,-1,-2
1537920236151285,-14,-4,0,0,11,-17,-3,-3
1537920236172229,11,2,-2,-2,3,19,1,1
1537920236172229,-1,-1,1,3,7,6,1,-3
1537920236173226,-4,-1,-2,1,3,6,-2,1
1537920236173226,1,-1,0,0,1,0,-1,-2
1537920236196165,-2,-2,2,-2,-5,-6,-1,1
1537920236196165,2,2,-1,0,2,-4,-1,-2
1537920236196165,0,-1,-2,-4,0,7,0,0
1537920236196165,5,-1,0,1,3,5,2,0
1537920236210128,-1,-1,-2,-2,-11,-19,-2,0
1537920236210128,-4,-1,0,0,0,8,3,0
1537920236211125,-7,0,0,0,1,4,-1,-2
1537920236211125,8,0,-1,-1,-3,-1,-1,4
1537920236233066,-1,-2,1,2,0,-2,0,-1
1537920236233066,1,0,-1,1,4,-4,-1,-2
1537920236233066,0,0,0,-1,-8,0,2,0
1537920236233066,0,-1,0,-1,2,-1,-2,-1
1537920236256005,2,0,0,-2,-12,5,1,1
1537920236256005,2,-3,-3,-5,1,-4,-3,1
1537920236257002,1,0,-1,-1,-4,-6,1,0
1537920236257002,0,0,0,0,-6,-5,-1,0
1537920236269967,-3,-3,-2,-3,3,1,-1,-2
1537920236269967,-2,0,0,0,1,1,-1,-3
1537920236270965,-1,-1,0,0,2,6,1,-1
1537920236270965,12,2,-2,-2,-1,-1,-2,1
1537920236292906,-4,0,-2,0,3,0,1,-1
1537920236292906,-1,-1,-1,-1,1,3,0,-1
1537920236293904,-1,-1,-1,-1,-8,-9,-3,-4
1537920236293904,-6,-2,0,-1,-3,-1,-2,0
1537920236315845,1,-1,1,1,6,-2,-1,-1
1537920236315845,-1,-1,0,-2,-6,0,0,-3
1537920236316843,-2,0,-1,0,6,5,0,0
1537920236316843,-2,-1,-1,0,3,3,0,-1
1537920236329808,-3,-1,-3,-5,-11,-2,-1,0
1537920236329808,0,0,-1,-1,-3,-19,-1,1
1537920236330805,-2,-2,-2,-5,-7,8,-1,-1
1537920236330805,-2,-2,1,1,0,-1,-1,-3
1537920236353744,0,-2,-1,-1,-1,-4,-2,-1
1537920236353744,0,1,-1,1,-2,3,0,-1
1537920236353744,1,-2,-2,1,6,0,-1,2
1537920236353744,0,-3,-2,-1,-1,1,-1,-1
1537920236375686,-2,-1,-2,-1,-15,-13,-2,-2
1537920236375686,0,-2,-1,0,-3,-4,1,0
1537920236376684,-2,-1,0,-1,3,-1,-1,-1
1537920236376684,1,-1,-2,0,3,7,-1,-2
1537920236390646,-7,-1,1,1,7,1,-1,-2
1537920236390646,1,0,-2,-2,-7,2,-1,0
1537920236390646,-4,-2,0,3,5,4,-2,2
1537920236390646,1,0,-1,1,2,2,1,0
1537920236413585,0,2,0,-1,0,-5,-1,-4
1537920236413585,5,-1,-1,-3,-2,5,-3,1
1537920236414584,-3,-1,0,1,6,-10,1,0
1537920236414584,-5,-2,-3,-6,-19,-2,0,-3
1537920236436523,1,-1,1,0,8,-5,-2,1
1537920236436523,-5,0,2,1,-1,7,-1,-1
1537920236436523,5,0,-2,-3,-2,2,-1,1
1537920236436523,-1,-2,0,-1,2,-3,0,1
1537920236450486,0,-2,-2,0,2,2,-1,-1
1537920236450486,-1,-2,-1,1,2,-1,-1,-3
1537920236450486,1,-1,-2,-1,1,2,0,-2
1537920236450486,-2,0,-1,-1,-3,-1,-2,-1
1537920236473424,1,-1,-1,1,-4,0,1,0
1537920236473424,-2,-3,-2,-3,0,-5,0,-1
1537920236474422,1,1,-2,-2,-2,-4,-1,-2
1537920236474422,-1,2,-1,-2,3,-3,0,-1
1537920236496362,1,0,-1,-2,-4,1,-2,-1
1537920236496362,-5,-2,0,1,10,11,-1,-1
1537920236497360,1,1,0,-3,-10,-8,0,0
1537920236497360,0,-1,0,1,4,1,-1,-1
1537920236509328,-11,-4,0,-1,-1,-4,-1,-4
1537920236509328,10,0,-1,-3,-10,-10,-1,3
1537920236517308,-2,-2,0,-1,1,5,0,-2
1537920236517308,2,0,0,-2,0,-2,-2,-1
1537920236533264,-8,-1,-2,2,1,-6,-1,-3
1537920236533264,2,-2,-3,1,5,13,1,1
1537920236534261,-3,-2,-3,-4,-7,-6,-1,-3
1537920236534261,1,-1,-1,0,0,-3,-2,0
1537920236556202,3,0,0,-1,3,2,-2,0
1537920236556202,-3,0,1,-1,1,-6,-2,-1
1537920236556202,3,0,-1,0,-5,2,-2,1
1537920236556202,0,-1,-1,-2,-2,-6,-1,0
1537920236569168,1,0,0,1,-2,8,0,1
1537920236569168,-1,-1,-3,-1,10,8,-1,-3
1537920236585126,2,1,1,-2,-13,-8,0,2
1537920236585126,-14,-1,-2,-1,-1,-5,0,-1
1537920236593104,2,-2,-3,-3,-10,-7,0,-2
1537920236593104,-9,-3,-2,-1,-3,-7,-43,-10
1537920236594102,3,-1,0,2,14,11,5,5
1537920236594102,7,3,-2,-2,-9,2,38,6
1537920236616044,2,-1,-3,-3,1,0,-3,-1
1537920236616044,-4,1,0,1,0,0,0,-1
1537920236617042,-9,-3,-2,-2,0,-20,-62,-13
1537920236617042,-2,-1,0,1,8,31,42,4
1537920236630007,15,-3,0,0,2,-8,19,7
1537920236630007,-14,6,2,-2,-18,1,0,-2
1537920236637987,1,-2,0,2,11,-6,-3,6
1537920236637987,-1,-1,-1,-7,-21,-22,-11,-5
1537920236653943,4,-1,-2,0,6,21,1,3
1537920236653943,0,-5,-1,-1,6,-4,5,-2
1537920236653943,1,-1,-2,1,-2,2,8,-2
1537920236653943,4,-3,-2,1,11,0,-27,-2
1537920236675884,-6,-2,-1,-2,-13,-6,17,-1
1537920236675884,4,4,0,0,-5,-14,2,1
1537920236676881,-1,0,-1,0,4,24,22,0
1537920236676881,-2,-2,-1,-1,0,-10,-17,-1
1537920236689845,-5,-1,-2,-1,6,3,-10,-4
1537920236689845,3,-1,-1,-2,-5,-9,4,2
1537920236697824,3,1,-1,-3,-3,4,9,-3
1537920236697824,-19,-6,0,2,4,-4,-13,-5
1537920236713782,2,1,0,-2,-5,-2,-23,0
1537920236713782,0,-1,-1,0,-2,-1,32,1
1537920236713782,1,0,-1,-1,0,-1,-3,-1
1537920236713782,-5,-2,-2,-1,-2,3,2,-3
1537920236735723,-3,0,1,1,-1,-4,-2,-1
1537920236735723,6,-2,-1,0,3,0,-8,0
1537920236736720,-15,-4,0,1,-1,-5,-2,-4
1537920236736720,5,3,0,-2,-4,-2,-12,0
1537920236749685,-4,0,0,0,5,10,25,-2
1537920236749685,1,-2,-2,-1,-7,-4,-3,0
1537920236757664,5,2,-2,-1,4,-1,4,-1
1537920236757664,3,1,0,-4,-3,1,-12,-1
1537920236773623,-2,-1,0,-1,3,-4,-13,-1
1537920236773623,0,-1,-2,-1,1,0,0,1
1537920236773623,2,0,-1,-2,-3,-2,4,3
1537920236773623,-2,0,0,0,-1,0,-3,-2
1537920236795565,-9,0,-1,0,-1,-1,-8,-5
1537920236795565,16,2,0,1,5,5,18,5
1537920236797559,-2,-4,-1,1,-8,-8,-4,4
1537920236797559,-2,-2,-2,-2,0,8,3,-2
1537920236809527,-2,-1,-2,1,2,5,-2,-3
1537920236809527,-3,-1,-1,0,-4,-9,-8,-2
1537920236818504,-1,-1,-2,-1,1,1,-2,-2
1537920236818504,8,-1,-1,0,-3,-10,-2,1
1537920236832467,-1,-3,-2,0,-1,-1,-7,-1
1537920236832467,-4,-1,1,3,10,8,4,-1
1537920236839447,2,0,-1,-5,-11,-2,6,0
1537920236839447,-2,-2,-2,-2,-3,2,0,1
1537920236856401,1,0,-1,-2,-6,-4,-5,0
1537920236856401,-4,-3,-1,-2,0,-4,-5,-3
1537920236857400,-4,-2,0,1,1,-1,2,-2
1537920236857400,4,0,0,-1,5,2,0,-3
1537920236878342,2,0,-1,1,4,10,-4,4
1537920236878342,-3,-1,-1,-2,-3,-13,-3,1
1537920236880337,2,0,-1,-3,-14,-9,2,-2
1537920236880337,6,1,-2,-2,0,-3,-4,1
1537920236892304,2,0,0,-2,-2,-6,1,0
1537920236892304,-7,-2,-2,0,7,16,-1,-4
1537920236899285,1,-2,-1,1,-2,-4,1,1
1537920236899285,1,-2,0,1,0,-9,-1,1
1537920236916240,-4,-2,-2,-3,-4,-1,1,-2
1537920236916240,-1,1,-1,-2,1,3,-2,0
1537920236917237,-4,-1,-2,0,7,14,-2,-4
1537920236917237,-2,1,0,0,-6,-13,0,0
1537920236938181,1,-1,0,0,-2,-1,0,-1
1537920236938181,-3,-2,0,-2,-10,-3,-3,-1
1537920236940176,4,-1,-1,0,4,5,0,-1
1537920236940176,-6,-2,-2,-1,1,2,1,-1
1537920236953141,0,-2,1,0,2,-3,-1,-2
1537920236953141,-3,-1,0,-3,-9,-15,-1,-1
1537920236955136,-3,-2,0,0,-2,-5,-9,0
1537920236955136,0,-3,-1,1,6,14,6,-3
1537920236976080,5,2,-1,0,-1,-3,-1,2
1537920236976080,-2,-1,0,1,-4,-5,-1,-2
1537920236977078,-8,-2,-4,-4,0,-1,4,-3
1537920236977078,0,-1,-2,-3,0,-3,-16,-3
1537920236998021,-4,-2,1,2,1,2,-4,-2
1537920236998021,1,-2,-3,1,7,14,4,2
1537920237000016,-4,0,-1,-5,-15,-10,-5,-2
1537920237000016,-4,-1,-3,-4,-4,2,3,-1
1537920237020960,-4,0,-1,-2,2,-20,-47,-7
1537920237020960,-2,1,-1,0,2,22,69,1
1537920237021958,0,2,0,0,-2,3,-5,2
1537920237021958,-1,-1,-1,-1,-4,-10,2,-1
1537920237035920,1,1,0,0,4,13,30,0
1537920237035920,-3,-4,-1,1,15,8,-39,-2
1537920237036918,0,1,1,0,-11,-25,-4,0
1537920237036918,7,-1,0,-4,-9,14,-29,-2
1537920237058860,-10,-4,-2,2,7,1,-21,2
1537920237058860,-3,1,1,2,-11,-2,15,6
1537920237059859,20,2,-3,1,8,-2,13,-2
1537920237059859,14,4,0,2,2,-18,-43,0
1537920237072824,-11,-4,-1,-4,-10,-4,22,-1
1537920237072824,12,2,1,1,8,17,-6,5
1537920237079804,-8,-5,2,3,6,-4,-2,-1
1537920237079804,-6,0,-1,-1,-4,-2,10,-3
1537920237095761,1,-2,-2,0,3,2,2,-3
1537920237095761,1,0,-2,-4,-6,-18,-1,-2
1537920237097756,-1,1,0,-2,2,8,5,2
1537920237097756,-4,-2,-1,0,-1,-4,1,0
1537920237118699,3,-1,0,3,0,5,9,1
1537920237118699,-4,-2,-1,0,-3,-15,-21,-4
1537920237119697,-2,0,-4,-5,-4,6,3,-1
1537920237119697,-5,-2,1,1,7,14,13,1
1537920237132662,4,1,-1,-2,-2,-14,15,1
1537920237132662,-3,-1,-1,-3,-12,-11,-20,-3
1537920237139643,1,-1,0,4,10,15,1,-1
1537920237139643,2,1,-2,-2,-8,-12,13,4
1537920237155600,5,2,0,0,-3,1,-2,-1
1537920237155600,-6,-3,-1,-2,0,-3,-8,-5
1537920237157595,3,0,0,-1,3,5,1,2
1537920237157595,-10,-3,-2,-2,-3,-6,-2,-3
1537920237178539,2,0,-1,-1,-4,1,24,3
1537920237178539,0,0,-4,-3,-3,1,-9,-2
1537920237179537,-2,-1,0,0,-3,-8,-2,-1
1537920237179537,-15,-2,0,0,1,10,25,-3
1537920237192502,-1,0,1,-2,-3,2,2,-2
1537920237192502,2,-1,-1,0,2,-4,1,2
1537920237200480,1,1,-1,1,0,-2,37,3
1537920237200480,-2,-2,-1,1,1,-7,-16,-3
1537920237215441,-3,-2,-1,-4,-5,-9,-46,-7
1537920237215441,-2,-1,-1,-3,-3,12,28,0
1537920237217436,-7,-3,-1,-2,-3,2,-41,-1
1537920237217436,9,1,2,2,4,14,83,9
1537920237238379,1,1,0,-1,-2,-19,-62,-9
1537920237238379,-5,3,0,3,28,20,29,-8
1537920237240374,-49,15,-12,-8,14,-3,45,-5
1537920237240374,46,-21,1,19,63,-6,-59,3
1537920237252342,-10,-9,-3,-25,-85,24,-6,10
1537920237252342,-1,-7,-9,32,83,19,-128,-13
1537920237261319,-17,-53,-5,16,-33,49,113,14
1537920237261319,56,68,17,-63,-103,25,0,28
1537920237276280,-5,49,-15,24,125,-90,-74,-61
1537920237276280,-103,-102,-42,-70,-128,119,30,11
1537920237277276,118,89,57,-33,-75,-128,-14,96
1537920237277276,-80,-13,-21,45,109,-8,4,-29
1537920237299216,-56,-97,-43,-6,3,71,-1,-54
1537920237299216,127,127,66,58,122,-83,-41,-37
1537920237300214,-82,-49,-23,-8,-23,-28,19,-74
1537920237300214,25,-63,-32,-8,-23,-111,26,92
1537920237312182,28,116,22,-27,-106,-123,-15,-20
1537920237312182,-28,-128,-62,-9,76,48,31,8
1537920237321158,50,110,36,3,38,78,-60,-49
1537920237321158,-36,5,-4,4,36,44,-21,-32
1537920237336117,-78,-60,-24,15,50,29,21,-6
1537920237336117,53,-15,-7,-14,-71,-47,16,29
1537920237338112,-23,-37,-7,4,11,-9,-35,0
1537920237338112,-25,-24,-5,2,-13,7,8,-24
1537920237358059,25,-7,13,9,3,17,23,42
1537920237358059,-15,51,29,-13,-57,-31,18,-3
1537920237360053,-7,-34,-23,4,28,4,-44,5
1537920237360053,4,10,5,5,5,9,-1,-14
1537920237372022,38,5,21,-11,-28,24,33,30
1537920237372022,-12,15,-3,-5,-5,-29,-9,-3
1537920237380998,-10,-18,-12,9,27,10,-18,-12
1537920237380998,13,-2,10,-6,-32,1,-12,-7
1537920237395958,16,8,14,1,9,-2,-3,11
1537920237395958,-16,4,0,7,3,-6,9,-1
1537920237396955,-4,-11,-8,3,8,5,-50,3
1537920237396955,-3,19,15,-3,-19,7,-26,-8
1537920237418896,7,-11,-6,0,18,24,62,18
1537920237418896,-2,11,-1,3,2,-18,-20,2
1537920237419894,8,-7,1,-4,-10,7,-13,0
1537920237419894,-2,-1,-1,-2,1,-2,-8,-7
1537920237431861,-12,-6,-1,2,12,6,-9,3
1537920237431861,8,3,4,-2,-11,-8,4,-2
1537920237440838,-8,-4,0,6,11,4,10,-6
1537920237440838,0,-2,-2,0,0,3,2,1
1537920237455797,-1,-1,1,3,1,13,8,8
1537920237455797,-2,11,6,-3,-17,-20,10,-1
1537920237457792,-5,-9,-9,-3,5,5,5,4
1537920237457792,-1,3,1,1,9,4,0,-6
1537920237478736,16,3,5,1,-4,0,0,6
1537920237478736,-9,-2,-1,-1,-2,0,0,-4
1537920237479734,0,-7,-3,2,9,6,-1,-5
1537920237479734,-1,0,0,-1,-12,-9,-16,-1
1537920237491702,6,2,1,1,4,6,7,5
1537920237491702,-5,0,0,1,3,3,-3,-4
1537920237500678,3,-3,-3,0,4,-1,22,1
1537920237500678,0,2,3,-1,-3,0,0,-4
1537920237515638,1,-4,-1,-1,-1,2,-39,1
1537920237515638,3,5,0,-1,3,-4,40,6
1537920237517632,3,-3,-2,-3,-6,-2,-26,-4
1537920237517632,-5,-3,-1,-3,-6,-9,-14,-7
1537920237538576,-2,-3,-4,-1,0,-1,-41,-3
1537920237538576,4,4,-1,1,-1,2,6,1
1537920237539574,7,6,-1,0,2,9,49,7
1537920237539574,0,-5,-1,0,1,-20,-41,-8
1537920237552539,-21,6,-8,4,42,48,47,-4
1537920237552539,50,-27,-20,-9,-9,-28,-34,0
1537920237560518,-10,-54,1,16,37,50,42,-8
1537920237560518,2,50,-10,-6,-9,-82,-42,-9
1537920237575478,46,-82,30,9,-69,84,49,33
1537920237575478,-8,118,73,-8,-67,-78,30,-10
1537920237582459,-31,-109,-86,16,111,62,-40,-12
1537920237582459,116,33,50,-54,-128,23,89,105
1537920237598416,-60,-100,-91,-32,66,39,-48,-75
1537920237598416,16,85,96,44,124,-91,-30,-32
1537920237599414,-19,-78,-40,-35,-128,81,5,-15
1537920237599414,4,-19,56,54,78,-98,-1,69
1537920237612379,-82,57,2,28,90,51,27,-59
1537920237612379,97,-57,-10,7,-61,-21,-46,-26
1537920237621355,-12,29,-20,-11,60,-100,-16,-8
1537920237621355,-80,-2,-24,26,106,53,6,-26
1537920237635318,-3,-26,1,-57,-128,-42,20,-14
1537920237635318,-95,95,-14,-6,37,32,19,20
1537920237642299,62,17,31,6,-29,-39,-29,10
1537920237642299,-75,-64,-53,-14,4,43,15,-50
1537920237658256,16,8,24,24,44,-38,-8,33
1537920237658256,-44,-59,-23,-1,-10,32,-1,4
1537920237660251,9,33,26,-6,-31,-13,16,9
1537920237660251,6,-7,-20,-7,-5,8,-10,-25
1537920237672219,18,38,21,16,4,-39,-8,13
1537920237672219,-9,-64,-30,-13,-36,34,5,3
1537920237681195,16,34,11,-5,-10,-35,-14,2
1537920237681195,5,-2,8,3,-3,17,6,-23
1537920237695158,8,1,2,0,-22,-47,-5,15
1537920237695158,13,-29,-18,-6,2,28,11,9
1537920237702139,2,34,19,4,14,-4,0,5
1537920237702139,-11,-5,-2,2,-15,-13,-4,-13
1537920237718096,21,12,-1,1,10,-2,2,17
1537920237718096,-3,-26,-18,-1,54,25,-5,-1
1537920237720091,-19,14,10,-4,-63,-25,-4,-5
1537920237720091,13,-9,-14,-11,-31,-13,1,-6
1537920237741035,38,11,14,5,13,-34,-10,10
1537920237741035,-1,-4,1,13,46,7,6,0
1537920237742033,-8,8,8,-4,-22,3,-2,0
1537920237742033,4,-4,-5,-4,-4,17,3,-8
1537920237754998,11,14,0,1,-16,-25,0,11
1537920237754998,-17,-22,-14,-7,-10,6,0,-2
1537920237761979,-19,6,6,4,25,5,2,6
1537920237761979,1,3,-3,-4,0,2,1,-7
1537920237777936,1,7,2,3,11,4,-1,0
1537920237777936,-4,-17,-8,-6,-21,9,0,1
1537920237779931,-4,1,1,2,7,-6,-7,-2
1537920237779931,1,4,6,5,3,19,-2,-4
1537920237800875,-10,-18,-12,-4,12,-19,-5,-4
1537920237800875,9,8,2,-6,-26,-44,-2,7
1537920237801873,16,9,6,-3,-7,-28,-2,-1
1537920237801873,10,0,2,0,-2,16,-5,-8
1537920237814838,-2,7,2,-2,-10,-10,0,6
1537920237814838,-6,-15,-11,1,21,-13,-3,-2
1537920237821819,-17,-20,-5,-2,9,1,2,-3
1537920237821819,0,10,3,-3,-1,29,-2,-7
1537920237838775,4,-3,-4,-4,-11,-19,5,4
1537920237838775,-33,-5,-9,4,29,3,-5,-9
1537920237839772,31,6,14,-7,-35,14,0,7
1537920237839772,-10,-9,-2,1,6,-14,-4,-9
1537920237860717,3,10,2,2,10,21,5,4
1537920237860717,-33,-10,-6,-6,-38,-4,0,-3
1537920237862712,-4,7,-1,5,27,7,1,-2
1537920237862712,3,-3,-1,-1,-7,-23,2,4
1537920237875676,6,5,2,2,16,27,-5,-1
1537920237875676,13,-4,-3,-2,-9,12,2,0
1537920237881662,-10,5,-1,3,0,-1,-2,-2
1537920237881662,2,-26,-6,-12,-18,-4,-3,-2
1537920237898615,-7,13,-2,2,5,-6,-2,-2
1537920237898615,15,15,11,2,1,-7,0,2
1537920237899613,-4,4,3,2,14,0,1,1
1537920237899613,-5,1,-6,-1,-2,9,2,1
1537920237920556,6,-17,1,0,-3,-3,1,-2
1537920237920556,13,3,-4,-5,-11,-13,0,1
1537920237922551,2,7,0,4,32,9,-3,-1
1537920237922551,-4,1,0,-2,-18,-20,0,0
1537920237934518,0,-3,-5,-7,-18,-33,-5,-1
1537920237934518,-10,-6,1,0,-1,36,0,-6
1537920237943495,46,2,1,5,11,-62,0,6
1537920237943495,-2,-1,-2,2,11,28,3,1
1537920237958454,0,4,3,1,-5,0,1,-1
1537920237958454,-3,-8,-3,-3,1,10,-3,-4
1537920237959452,-15,-4,-2,3,11,18,-1,-3
1537920237959452,6,4,1,-4,-13,-28,-3,1
1537920237981393,3,3,1,-1,0,-26,-2,0
1537920237981393,0,-6,-3,-4,-10,19,2,1
1537920237982391,-12,-7,-4,-2,-7,17,0,-6
1537920237982391,-18,12,3,2,-4,-10,1,1
1537920237994358,-7,-2,-1,-3,-1,5,-2,-3
1537920237994358,2,-2,-3,-2,-4,-17,1,1
1537920238003335,-2,5,-4,-2,1,11,1,0
1537920238003335,-2,-19,-1,1,-3,14,1,0
1537920238018294,0,4,1,3,-1,2,0,-2
1537920238018294,2,-3,0,0,-6,-14,1,3
1537920238020289,-15,-1,0,-2,-11,15,-1,-4
1537920238020289,12,4,0,6,34,26,0,-1
1537920238048215,0,-1,-3,-5,-20,-28,-3,3
1537920238048215,5,-2,-4,-2,0,11,3,2
1537920238050211,-8,0,0,-1,-4,-12,0,-2
1537920238050211,-1,0,-1,-2,5,10,-1,-2
1537920238055197,1,-2,2,6,18,10,-1,-2
1537920238055197,0,-2,-2,-2,-22,-24,0,3
1537920238062177,-1,-10,-4,-3,7,34,-3,-2
1537920238062177,-14,1,-2,-6,-30,-17,0,-3
1537920238078135,31,5,-1,-1,2,6,-2,11
1537920238078135,3,-1,5,6,9,20,3,-4
1537920238080130,-7,0,0,-5,-8,-28,-1,3
1537920238080130,1,-2,-1,4,17,15,-2,-4
1537920238101074,5,-4,-4,0,-6,-3,-1,-2
1537920238101074,-1,-4,-5,-1,7,7,-2,-2
1537920238102072,2,-3,-2,-2,-11,-11,-1,-2
1537920238102072,-3,-4,-1,0,5,-21,-1,0
1537920238115035,-7,4,3,-4,-5,21,0,-2
1537920238115035,-1,-3,-2,-1,2,-1,-1,0
1537920238123014,-1,1,0,2,1,3,0,-2
1537920238123014,2,-1,-2,-3,-4,-24,1,1
1537920238137974,-12,0,-1,0,-4,-33,-2,-3
1537920238137974,7,-2,-3,-8,-4,23,-3,-1
1537920238139969,-9,-9,-3,3,15,21,1,2
1537920238139969,5,14,4,-1,-10,-28,-3,2
1537920238159916,-7,-4,0,-3,-17,14,2,-3
1537920238159916,-3,-2,-4,-5,-18,-23,-1,0
1537920238168892,-8,0,-1,1,19,-3,-3,-2
1537920238168892,27,-1,-1,-3,-16,-2,2,4
1537920238174876,-16,-3,0,0,0,3,-2,-2
1537920238174876,34,4,2,-2,0,-2,-2,3
1537920238183852,0,2,0,-3,-8,-23,-3,1
1537920238183852,-6,-3,0,3,14,52,1,2
1537920238198813,-7,0,-1,-1,6,4,-1,-2
1537920238198813,8,-1,-2,-2,-7,-5,0,4
1537920238199811,-1,-1,0,2,-3,-13,-2,-5
1537920238199811,-3,6,1,1,3,-1,-1,-2
1537920238220754,-2,-4,-2,-4,5,1,-3,-2
1537920238220754,-14,-1,-2,1,1,1,0,-4
1537920238222751,6,0,0,0,2,-11,-1,0
1537920238222751,-4,-4,-2,2,7,24,0,-2
1537920238234717,1,-2,0,0,-6,-4,2,0
1537920238234717,-9,-1,-1,-1,4,-1,-2,-3
1537920238243694,1,0,0,-3,-9,-19,-3,-1
1537920238243694,-3,-6,-1,0,-4,18,0,0
1537920238258653,2,-10,-1,1,6,-19,-2,2
1537920238258653,-9,16,4,0,0,4,0,0
1537920238259651,0,-2,-1,1,-7,5,1,1
1537920238259651,-13,-3,-1,-1,4,-7,-1,-8
1537920238280596,19,-1,-1,-1,5,5,-2,4
1537920238280596,-18,-8,-3,0,1,-1,-2,-5
1537920238282590,42,5,0,-1,-6,4,1,4
1537920238282590,-6,-1,-2,-2,3,-16,-2,-1
1537920238294558,-2,-1,-3,-1,-2,1,0,0
1537920238294558,-2,-3,-2,0,-1,-1,1,-1
1537920238303534,-8,-1,-2,-1,4,2,-2,1
1537920238303534,-3,-3,-3,-1,-5,-9,-3,-1
1537920238325474,-2,2,-1,-3,-1,7,-1,-3
1537920238325474,-7,-4,0,3,17,27,-1,0
1537920238327468,-4,-1,-1,0,-15,-89,-5,-1
1537920238327468,-1,-2,-2,-3,-5,30,4,-1
1537920238340433,-9,0,-2,-5,-10,8,-2,-1
1537920238340433,15,0,-1,-1,9,5,0,5
1537920238342427,-5,-2,-2,0,-1,7,0,0
1537920238342427,8,1,-1,3,15,-15,-2,0
1537920238354395,-3,-5,-2,0,-4,6,1,-2
1537920238354395,-5,0,-1,-3,-7,-15,-1,-4
1537920238363371,-3,1,0,-3,0,14,0,-3
1537920238363371,-13,-10,-2,1,8,0,-2,0
1537920238378332,11,16,-1,-2,-7,17,0,-2
1537920238378332,-3,-6,-1,0,3,-4,-4,0
1537920238380326,-8,0,0,-3,-17,-1,2,0
1537920238380326,-14,-1,0,-1,-5,-2,-2,-3
1537920238401270,30,-2,-2,-1,0,-7,0,4
1537920238401270,-4,-4,-4,-2,-8,-8,-2,-3
1537920238402268,2,1,1,4,20,-10,-2,0
1537920238402268,4,-3,-2,-3,-11,17,1,2
1537920238414236,-20,-1,0,-5,-15,-10,-1,-5
1537920238414236,21,3,1,0,-2,0,2,1
1537920238423212,-3,-5,-2,-4,-3,10,-1,-3
1537920238423212,6,2,1,0,8,-12,-4,1
1537920238438172,-9,-2,0,1,9,2,-3,-2
1537920238438172,-11,-3,-1,-1,-7,1,0,-3
1537920238440167,-9,-1,-1,2,1,1,2,-2
1537920238440167,9,2,-1,-3,0,2,1,0
1537920238461111,-3,0,-1,0,5,-12,-1,0
1537920238461111,-6,-5,0,2,-5,-14,-1,0
1537920238462109,14,-4,-2,-3,-5,7,-3,1
1537920238462109,-1,12,2,2,1,-10,0,-2
1537920238474076,-5,-4,-1,-1,-16,-14,-2,-1
1537920238474076,-7,0,-2,-1,-7,22,0,-3
1537920238483053,-20,-5,0,1,15,17,0,-3
1537920238483053,12,-1,-1,0,2,-5,-2,-3
1537920238498014,-5,-3,0,1,5,-27,-2,-3
1537920238498014,-3,0,-2,-2,-6,14,2,-2
1537920238500008,-7,0,-1,-1,-3,12,-1,-3
1537920238500008,-10,-1,0,0,5,4,-1,0
1537920238520950,-2,-4,-1,4,12,-5,0,-1
1537920238520950,-3,4,-1,1,9,4,0,-1
1537920238521948,4,3,0,-4,-12,-3,0,2
1537920238521948,-3,-1,0,-1,-6,-24,0,0
1537920238534913,-2,-3,-1,-2,9,4,-2,-2
1537920238534913,-9,-6,-2,-2,-6,14,2,0
1537920238543889,-7,-1,-1,1,1,17,-1,-1
1537920238543889,0,-4,-3,0,-4,-6,-1,-2
1537920238557852,-2,-6,0,1,3,37,1,1
1537920238557852,-3,9,3,0,7,-39,-3,-3
1537920238565830,4,3,0,-3,1,38,4,2
1537920238565830,-2,-4,-1,-4,-25,-13,-2,1
1537920238580791,-10,-3,-1,4,17,8,-1,-2
1537920238580791,4,-5,-1,-2,-11,-14,-4,-1
1537920238582785,-15,-2,-2,-5,-6,2,-1,-4
1537920238582785,7,-1,0,-2,9,-6,-1,0
1537920238603729,-2,0,1,0,0,-4,1,0
1537920238603729,1,-2,-3,-1,-2,-1,0,-1
1537920238604727,-23,-2,0,3,16,17,0,-2
1537920238604727,17,-1,1,-1,-3,-3,0,0
1537920238618689,1,3,-4,-8,-28,9,-1,2
1537920238618689,0,-3,-1,-2,5,7,-1,2
1537920238619687,5,-8,0,2,2,-21,-1,0
1537920238619687,-4,7,0,-2,-4,6,0,0
1537920238640631,1,1,0,-2,1,-5,0,-2
1537920238640631,2,-3,0,3,8,-9,-3,-3
1537920238642627,3,-9,-3,-2,-4,11,2,2
1537920238642627,-8,7,-1,-4,-8,-9,-2,-3
1537920238654594,-2,-1,0,-3,-6,-1,0,-1
1537920238654594,16,-1,0,0,7,7,0,-1
1537920238663571,6,2,-1,-2,-4,-26,-4,-1
1537920238663571,-5,-5,-3,1,-1,-13,-2,1
1537920238678531,-12,-1,-4,-3,2,19,-1,-2
1537920238678531,9,-1,-1,-1,0,-48,0,3
1537920238680525,8,0,-1,-3,-6,35,2,0
1537920238680525,0,-1,0,2,3,-3,-3,1
1537920238701470,0,-3,-1,-1,-4,0,-1,0
1537920238701470,-17,0,-1,2,11,-1,-2,-1
1537920238702467,7,3,-1,-4,-19,-21,-1,-1
1537920238702467,-4,-11,-2,1,6,11,1,0
1537920238723410,9,12,1,2,7,-11,0,3
1537920238723410,-11,-4,-2,-3,-7,11,-1,-1
1537920238724407,-2,3,1,1,4,-8,-1,-3
1537920238724407,11,-4,-1,0,4,13,0,0
1537920238738369,3,-9,-2,3,3,-2,-2,-5
1537920238738369,7,2,-2,-3,-9,-6,-1,3
1537920238739367,-1,2,-3,-5,-15,-15,-4,-2
1537920238739367,-9,-3,0,1,-1,10,-1,-1
1537920238761308,6,1,0,1,7,-23,-1,0
1537920238761308,-7,-6,0,-4,-12,37,3,-4
1537920238762305,0,-1,-1,3,13,21,0,-1
1537920238762305,-2,3,0,1,-10,-48,-2,0
1537920238783249,-7,-3,-1,-1,31,51,2,-1
1537920238783249,0,-5,-3,-5,-44,-36,-2,-1
1537920238785244,-5,7,1,-5,-26,-53,-4,-2
1537920238785244,0,1,0,1,13,49,4,1
1537920238798209,-1,1,1,-3,-8,10,-1,0
1537920238798209,0,-1,-2,2,13,-6,-1,-2
1537920238800204,2,-2,-1,4,9,3,0,0
1537920238800204,1,-1,0,1,10,-30,-2,-3
1537920238821148,-3,-2,-1,1,-7,16,2,0
1537920238821148,-8,-1,-1,-3,6,10,-3,-4
1537920238822145,-14,-13,-4,-2,-4,-5,2,1
1537920238822145,8,18,0,0,0,-2,-2,3
1537920238843089,-5,-2,0,0,-8,-14,-3,-1
1537920238843089,3,1,1,1,4,-4,0,2
1537920238845084,-4,-2,0,0,15,23,-1,-3
1537920238845084,-4,-8,-1,0,3,12,-1,-2
1537920238858049,5,2,0,4,19,-16,-1,1
1537920238858049,-4,0,-4,-10,-44,-23,-3,-1
1537920238864034,6,0,2,2,7,-21,-3,-2
1537920238864034,-3,-2,-2,-2,2,26,3,-1
1537920238880988,-1,1,0,-2,-10,-40,-5,-3
1537920238880988,4,-3,-1,5,22,25,2,0
1537920238881985,4,0,-1,-2,-18,-17,-1,2
1537920238881985,0,0,-1,-5,-4,-2,-2,0
1537920238902929,-7,-1,-1,2,5,-12,1,-2
1537920238902929,1,3,0,3,8,15,2,2
1537920238904924,4,-2,-3,-4,-6,17,-1,-3
1537920238904924,-16,-6,-2,-1,-1,-8,-4,-2
1537920238917889,-2,-3,0,0,-6,-15,1,0
1537920238917889,3,-1,-1,0,9,42,1,-1
1537920238924871,0,5,1,4,12,9,0,0
1537920238924871,-7,-5,-3,-5,-17,-13,-2,-5
1537920238940828,1,-4,-3,-2,-9,-2,-1,-2
1537920238940828,-1,-2,0,-2,4,-13,-2,2
1537920238941825,-9,0,-1,0,8,17,1,0
1537920238941825,7,-3,1,0,2,-3,1,1
1537920238963767,2,1,-2,-4,-15,-7,0,-1
1537920238963767,-2,-1,0,1,7,-6,-2,-1
1537920238964764,4,-2,0,1,4,-5,-1,-1
1537920238964764,0,-1,-2,-1,-17,-16,1,0
1537920238977729,16,-3,-3,-7,-21,5,0,2
1537920238977729,-5,7,0,-1,-8,-19,-3,-1
1537920238984711,-4,-3,-2,-2,-8,25,3,1
1537920238984711,-1,-1,0,-2,6,9,-2,-3
1537920239000668,-8,-8,-1,2,-1,-7,0,-1
1537920239000668,-5,5,-2,0,5,-7,-1,-2
1537920239002663,8,2,-1,2,4,3,-1,1
1537920239002663,-2,0,0,3,11,-4,0,0
1537920239023607,0,1,-1,-2,-2,10,0,-2
1537920239023607,-2,-6,-2,-1,9,-8,-2,-3
1537920239024604,-2,-1,-2,-1,-10,-24,-3,-2
1537920239024604,0,0,0,-1,2,11,0,-2
1537920239037569,-9,-1,-1,-2,1,2,-4,-4
1537920239037569,13,0,0,2,2,4,2,3
1537920239044551,-2,0,1,0,13,-12,-2,-1
1537920239044551,1,-3,-2,-2,5,23,3,1
1537920239060508,-3,1,0,-4,-15,-5,-2,1
1537920239060508,1,-2,1,1,0,6,-2,-4
1537920239062503,-6,-4,-2,-9,-31,-28,-3,-1
1537920239062503,2,-1,-1,2,13,-14,-2,-1
1537920239083446,-2,3,0,4,14,4,1,0
1537920239083446,-8,-4,-2,-2,13,38,1,-3
1537920239084444,3,2,-1,-1,-11,-49,0,0
1537920239084444,-1,-2,-2,-3,-11,0,-2,-1
1537920239097409,1,-2,-1,2,4,-5,-2,1
1537920239097409,-4,-3,0,-4,-2,-15,-2,1
1537920239104390,2,-2,-2,2,21,36,0,-1
1537920239104390,-27,-6,-1,-2,-5,-13,-1,-3
1537920239121345,7,14,2,4,22,-5,0,1
1537920239121345,1,-2,-1,-3,-20,-43,-3,0
1537920239122343,0,0,-1,-2,1,40,0,-3
1537920239122343,-4,-3,-2,1,3,3,-1,-7
1537920239143287,-2,-3,-2,0,4,-22,1,2
1537920239143287,0,-1,-2,0,-1,24,3,1
1537920239145281,2,-1,-1,-2,-7,-10,0,0
1537920239145281,2,3,4,8,29,3,-2,1
1537920239157250,0,-4,-4,-11,-35,-11,-2,-3
1537920239157250,-3,1,1,6,36,6,-1,-4
1537920239166225,1,-1,-3,-11,-54,-16,-2,0
1537920239166225,11,0,-1,1,19,-2,-1,1
1537920239181185,-14,-3,0,0,-1,29,1,-3
1537920239181185,10,0,1,2,1,-14,0,6
1537920239182183,-2,-1,-3,-1,-19,-6,0,0
1537920239182183,4,3,1,4,-1,-4,-1,2
1537920239203127,-7,-3,-5,-9,-11,-2,-3,-3
1537920239203127,-22,-4,-1,-1,-3,1,-2,-8
1537920239205122,-3,-3,2,6,43,28,2,1
1537920239205122,24,3,0,-4,-30,-28,0,2
1537920239217089,6,1,1,0,1,16,1,2
1537920239217089,-3,-2,0,0,0,16,1,-3
1537920239226066,-5,-1,1,2,19,-13,-3,0
1537920239226066,-10,-6,-3,-7,-27,20,2,-6
1537920239241026,3,-1,-1,1,10,17,-2,3
1537920239241026,-1,-2,-1,0,-2,-18,0,-1
1537920239242024,11,0,0,-2,2,-10,-2,2
1537920239242024,6,0,-4,-5,-14,1,-2,-1
1537920239263967,-1,0,0,4,6,-22,1,0
1537920239263967,3,0,-1,-1,0,32,0,2
1537920239264963,0,-1,-2,-3,-11,2,-1,0
1537920239264963,-5,-1,0,2,13,6,-1,1
1537920239276931,6,0,-1,0,-8,26,0,0
1537920239276931,-4,-4,-2,-3,-8,-22,-3,-3
1537920239285907,-1,1,-1,5,23,13,0,-1
1537920239285907,-6,0,0,-5,-15,-12,-2,-1
1537920239300868,0,-3,2,3,2,25,1,0
1537920239300868,7,-1,-3,-7,-25,-8,-1,0
1537920239302861,-1,-2,0,2,5,11,0,-2
1537920239302861,-7,-3,-4,-2,-1,-10,-2,-3
1537920239323806,18,2,-1,0,12,-6,0,5
1537920239323806,-2,-1,2,8,33,-21,-4,0
1537920239324804,-10,-3,-3,-15,-61,-8,-2,-3
1537920239324804,12,-3,-1,2,19,-12,-3,6
1537920239336771,-6,-3,-3,-5,-12,15,2,-9
1537920239336771,6,4,-2,-2,10,-45,-5,7
1537920239345746,-3,0,-1,2,16,67,1,-3
1537920239345746,-7,-1,-2,-7,-21,-21,-3,-5
1537920239359708,-7,-6,-3,4,26,-48,-5,-3
1537920239359708,1,-3,-6,-16,-58,5,0,-1
1537920239368685,-2,2,2,7,32,-8,0,0
1537920239368685,-2,-1,-1,0,-2,9,0,1
1537920239383644,-2,0,1,1,3,-16,-1,0
1537920239383644,-5,-1,-1,0,-1,23,-1,-3
1537920239384642,4,0,-1,3,1,-16,3,2
1537920239384642,-5,-2,-5,-6,-8,4,-4,-4
1537920239396610,-3,0,-1,-4,-28,-13,-1,-2
1537920239396610,-14,0,1,0,-2,10,1,-4
1537920239405586,8,0,0,2,14,-17,-4,-1
1537920239405586,1,2,1,8,34,20,3,1
1537920239420546,-5,-1,-2,-2,-26,-29,1,-7
1537920239420546,-3,-3,1,1,28,10,-1,-2
1537920239422541,-2,-2,-1,-6,-26,-8,-2,-3
1537920239422541,-2,-2,-2,-4,3,23,4,2
1537920239443486,-1,2,-1,-1,-17,-3,0,2
1537920239443486,2,0,-2,0,3,-5,-1,-2
1537920239444484,0,0,0,4,24,-9,-2,2
1537920239444484,1,1,0,0,2,-13,0,-2
1537920239457448,1,-1,-1,0,8,17,1,2
1537920239457448,3,0,2,9,27,-5,-2,0
1537920239466424,2,1,-2,-4,-40,-11,-12,2
1537920239466424,-13,-4,-2,-3,-11,-22,-8,-4
1537920239480386,16,1,-4,-5,-19,89,13,4
1537920239480386,-1,0,0,1,-15,-4,5,-3
1537920239487368,-2,0,-2,-6,-8,-25,32,-8
1537920239487368,-8,-1,2,5,8,5,-40,-4
1537920239503326,-2,-2,-1,0,14,-73,-14,-13
1537920239503326,-2,-1,0,2,26,81,66,12
1537920239505321,6,0,0,-3,-23,-13,-9,-4
1537920239505321,7,2,-1,4,12,15,23,20
1537920239517288,-5,0,-2,-5,-26,-38,-19,-13
1537920239517288,4,-1,-1,-3,-3,23,-22,-3
1537920239526265,-5,-2,-2,-2,-17,-36,1,1
1537920239526265,0,0,-3,-4,13,37,0,3
1537920239540227,-5,-4,-2,0,6,-20,-93,-13
1537920239540227,-2,-1,0,-6,-18,43,77,9
1537920239547208,-2,2,3,7,31,7,18,8
1537920239547208,21,3,3,4,-6,1,40,3
1537920239563165,-2,2,0,4,22,12,-24,5
1537920239563165,-3,-4,-2,-4,-14,-35,-24,-12
1537920239565159,2,2,0,1,7,16,-1,7
1537920239565159,-13,-5,-2,-4,-14,-16,-47,-18
1537920239577127,-11,-2,0,1,10,24,30,3
1537920239577127,7,1,1,-3,-3,8,-43,5
1537920239586103,4,3,3,6,20,-18,48,2
1537920239586103,-1,1,-1,-3,-28,-30,-6,2
1537920239600066,27,-1,-3,-3,-7,5,-48,6
1537920239600066,-7,-5,-4,-5,-28,-35,-7,-5
1537920239607047,-3,-7,-2,-2,3,-21,-56,-13
1537920239607047,-10,0,-3,-5,2,47,3,-5
1537920239623005,-9,-2,3,2,10,-11,92,10
1537920239623005,3,1,2,7,19,-4,-11,6
1537920239625000,-2,-5,-6,-7,-23,7,-18,-5
1537920239625000,-4,-2,-2,-3,-6,-58,-81,-19
1537920239645945,1,3,3,3,-7,1,76,16
1537920239645945,6,2,-2,-1,-1,8,83,6
1537920239646943,-8,-2,-1,-1,0,-3,-43,-6
1537920239646943,1,1,0,0,-5,-1,5,-2
1537920239659908,-9,-3,-4,-4,7,4,-31,2
1537920239659908,0,-3,-2,0,-5,24,-61,-6
1537920239666889,3,1,3,3,11,24,48,6
1537920239666889,2,-1,2,0,1,15,39,-1
1537920239683844,1,1,1,1,5,-23,-1,3
1537920239683844,1,0,-1,0,2,10,-13,1
1537920239684842,-4,-2,-4,-6,-9,15,-33,-5
1537920239684842,1,-1,0,3,4,-10,72,-1
1537920239705785,-13,-2,1,1,3,66,64,-2
1537920239705785,18,4,-2,3,8,-41,-31,1
1537920239707780,1,0,3,5,23,-4,11,9
1537920239707780,6,-3,-5,-14,-34,18,50,8
1537920239720745,-4,-4,-4,-7,-20,-31,-88,-17
1537920239720745,-15,-3,-2,-6,-27,28,26,-18
1537920239726729,3,2,-1,0,8,3,47,5
1537920239726729,1,1,2,6,14,-32,-71,0
1537920239744681,-9,-3,-2,0,8,-13,27,-7
1537920239744681,-2,-1,-1,-3,-1,-27,-53,1
1537920239746675,0,-1,-1,1,3,19,17,1
1537920239746675,6,3,2,5,5,19,110,20
1537920239765624,-2,0,1,1,0,14,-21,-9
1537920239765624,0,-1,-3,-3,-6,-14,-22,-2
1537920239767619,-7,-5,-3,-7,-9,-30,-78,-17
1537920239767619,-4,-3,-2,0,4,-9,-33,-1
1537920239779586,7,4,2,2,4,60,84,17
1537920239779586,0,0,1,3,6,-13,-7,-7
1537920239788562,-6,-4,-3,-3,-5,-7,-40,-5
1537920239788562,-1,-1,-1,3,7,40,-13,-1
1537920239803522,-3,-1,-2,-3,-9,-66,-32,0
1537920239803522,-5,-3,-1,2,1,45,33,-6
1537920239804519,4,2,2,2,6,-24,16,3
1537920239804519,1,1,-1,0,-2,-36,-29,11
1537920239824466,1,-2,-3,0,-1,20,9,1
1537920239824466,1,-2,1,2,9,-17,-10,6
1537920239833442,0,0,-1,-1,-3,38,17,-1
1537920239833442,-4,-2,-1,-2,0,4,-8,-6
1537920239840423,0,0,-3,-2,-3,-37,-24,-4
1537920239840423,-5,-2,-4,-7,-15,34,16,-8
1537920239847405,-2,-2,-1,0,2,-9,-38,-3
1537920239847405,4,1,1,0,-1,-6,-4,11
1537920239863362,-1,0,-2,-1,1,-10,-43,-5
1537920239863362,-2,0,0,1,7,21,-39,-28
1537920239864360,1,1,-2,-3,-4,-13,44,3
1537920239864360,2,0,-1,-3,-2,38,22,22
1537920239886302,-2,0,-2,1,2,22,-11,9
1537920239886302,5,0,-2,1,0,-36,-24,9
1537920239887300,-7,-4,-4,-2,-4,-10,41,-42
1537920239887300,2,-1,-1,-2,-2,-11,-26,17
1537920239900266,-2,-3,1,-3,-1,2,-29,-12
1537920239900266,1,-2,0,-2,-5,-25,-1,21
1537920239907246,0,-1,-2,-1,0,31,14,-9
1537920239907246,-3,-2,-1,0,-1,-14,-7,-4
1537920239923204,-1,0,1,-2,-5,-12,-33,-4
1537920239923204,-3,-1,-2,-1,-4,-35,14,-13
1537920239925199,3,-1,-1,0,0,10,-1,22
1537920239925199,-3,-2,-1,0,-2,8,-17,2
1537920239946142,-1,0,-1,2,4,-3,8,-4
1537920239946142,-1,1,0,-1,-4,-24,46,-25
1537920239947139,3,-1,0,-1,-1,16,-5,59
1537920239947139,2,1,1,-1,2,0,30,-14
1537920239959106,-2,-3,-1,0,0,-7,35,-19
1537920239959106,-7,-1,-1,-1,2,2,-3,11
1537920239968083,-4,0,-3,-2,-2,-19,-23,-6
1537920239968083,-5,0,0,1,0,0,22,-15
1537920239991020,0,0,-2,-2,0,28,21,8
1537920239991020,-2,0,0,1,-2,-14,-11,-13
1537920239992018,2,-1,-1,0,0,-17,12,35
1537920239992018,-3,-3,-3,-6,-1,20,-25,-11
1537920240005981,2,0,0,1,3,7,10,1
1537920240005981,-1,-3,-3,-3,-5,-2,6,16
1537920240006978,-6,-1,-1,-2,-2,18,-4,-24
1537920240006978,-1,-1,-1,1,0,-24,-12,-15
1537920240019943,0,-2,-2,-4,-10,-64,-50,17
1537920240019943,9,5,3,5,13,83,46,10
1537920240028919,0,-1,0,-1,-1,15,41,9
1537920240028919,-6,-2,-1,-3,-4,-22,-53,-20
1537920240042882,-4,-2,1,-1,1,6,-22,-18
1537920240042882,0,-3,-2,-1,-3,-19,52,12
1537920240044877,0,-1,0,0,0,-4,-17,-9
1537920240044877,-2,-4,-4,0,-1,-5,-1,-17
1537920240065820,-2,-2,-5,-1,-1,10,6,2
1537920240065820,-4,-1,0,-1,-7,-35,-40,0
1537920240066818,-2,-1,-3,0,3,38,12,-4
1537920240066818,-2,-1,0,-1,-5,-27,-25,-28
1537920240079783,5,-1,-2,0,2,12,65,43
1537920240079783,4,2,0,1,3,5,-42,5
1537920240087762,-1,-1,0,0,-3,-35,-40,-23
1537920240087762,3,1,-3,-1,-3,-27,17,-3
1537920240102722,-1,-1,0,-2,-3,34,29,26
1537920240102722,-6,0,1,0,1,-64,-92,-21
1537920240103720,4,2,3,1,5,52,88,37
1537920240103720,-7,-2,-2,-4,-2,34,2,-48
1537920240125661,15,5,3,3,2,-63,55,83
1537920240125661,0,0,-2,-2,-6,19,18,-10
1537920240125661,-5,0,0,0,-1,-10,-46,-26
1537920240125661,0,-2,-1,-1,-2,5,4,11
1537920240149599,-3,0,-2,-4,-2,16,-53,-37
1537920240149599,-3,-5,-2,-2,-4,-17,4,12
1537920240150601,2,-1,-1,-2,1,-12,-8,-9
1537920240150601,1,0,0,0,-1,16,6,23
1537920240162566,-4,-4,0,0,2,-2,-16,-25
1537920240162566,-1,0,-2,-1,-2,14,13,6
1537920240163562,-1,-1,-1,-1,-4,-15,-5,-12
1537920240163562,2,0,2,-1,0,-17,-35,30
1537920240185501,2,0,-1,1,6,55,27,-2
1537920240185501,0,1,1,1,1,-16,-9,9
1537920240185501,-2,-1,0,-2,-3,3,3,-12
1537920240185501,-10,-1,-2,2,2,21,-3,-12
1537920240199464,13,5,3,2,0,-27,-29,61
1537920240199464,-4,-3,-3,-4,-3,28,5,-6
1537920240207442,0,-1,-2,0,-3,-23,10,35
1537920240207442,-1,0,1,-3,-1,1,12,-7
1537920240222402,-15,-5,-1,-2,1,11,-16,-50
1537920240222402,4,1,-1,-1,-3,2,37,32
1537920240223399,7,2,0,0,1,-9,-29,-25
1537920240223399,7,0,-2,-2,-1,8,27,69
1537920240245341,-11,-3,-1,-1,-1,11,10,-38
1537920240245341,-3,-2,-3,-3,-7,-38,6,-3
1537920240246338,-7,-3,0,-1,0,0,-17,-1
1537920240246338,1,-1,-2,-2,-3,-3,-38,-4
1537920240259303,-2,-1,1,-1,-3,16,60,-25
1537920240259303,-2,0,1,2,14,-3,-3,25
1537920240267283,-1,-3,-2,0,-1,5,-27,-19
1537920240267283,-1,1,-2,-2,-7,19,48,-3
1537920240282242,-1,0,-3,-4,-4,-28,-25,2
1537920240282242,-6,-2,-1,-2,-1,3,-10,-23
1537920240283239,1,0,0,0,-2,47,31,-2
1537920240283239,4,1,1,2,3,-15,17,-3
1537920240305181,10,2,-1,2,-1,-11,-10,5
1537920240305181,2,-1,-1,-1,-1,-3,-20,6
1537920240306178,-8,-5,-3,-2,1,-17,-14,-12
1537920240306178,-6,-2,0,-1,-2,5,5,-3
1537920240319143,-6,-4,-1,-3,2,9,-23,-27
1537920240319143,-4,-1,0,-2,-7,-13,11,3
1537920240328119,1,2,-2,-4,-5,-2,-56,-12
1537920240328119,-3,-2,-3,-1,-3,-3,9,-30
1537920240343079,-2,0,2,2,4,-27,-8,-7
1537920240343079,0,-1,-1,-2,-2,8,-11,-7
1537920240343079,0,1,0,-1,0,-1,20,13
1537920240343079,0,0,0,-2,-4,-9,-20,-10
1537920240365021,-1,-1,-3,-3,-1,-8,-12,5
1537920240365021,0,-4,-2,-1,-1,36,42,-3
1537920240366018,-2,0,-2,0,-3,-13,-3,-13
1537920240366018,-4,-3,-1,-1,1,-33,-8,5
1537920240379980,0,-1,-1,0,-4,32,-76,-3
1537920240379980,3,-1,0,1,0,-30,74,13
1537920240387959,-2,-2,-2,-1,5,16,17,-32
1537920240387959,-1,-2,0,0,2,-9,0,18
1537920240402919,2,1,-1,0,1,22,30,-4
1537920240402919,-6,-2,-1,-3,0,13,-38,-23
1537920240402919,0,1,-2,-2,0,-9,-20,6
1537920240402919,1,1,-2,1,-4,1,-13,0
1537920240424861,-2,-3,-1,-2,-6,-9,-6,7
1537920240424861,2,0,0,2,2,-2,-23,-13
1537920240425858,5,-1,0,1,-2,-5,19,23
1537920240425858,-2,0,-3,-2,1,20,-19,-9
1537920240439821,-2,1,-1,0,2,-41,17,6
1537920240439821,-2,0,-1,1,-1,12,-16,-5
1537920240447800,-9,-2,-1,0,1,-9,-5,-9
1537920240447800,-2,-2,-1,-3,-3,-3,-27,-9
1537920240462759,6,2,1,0,0,13,41,33
1537920240462759,-2,-2,-2,0,-1,-2,-18,15
1537920240463757,3,-1,1,2,0,-14,20,-1
1537920240463757,-2,-1,-1,1,6,-8,-16,3
1537920240484701,-3,0,1,2,-14,15,22,-21
1537920240484701,2,0,-3,-6,-11,-7,-25,-5
1537920240485698,-1,-1,0,-1,-4,-16,-22,-4
1537920240485698,5,-1,0,2,3,14,26,75
1537920240499661,-2,-1,-1,-3,-2,-1,-56,-21
1537920240499661,-1,-1,0,1,6,11,22,12
1537920240507639,-1,-1,-1,-2,-4,-3,8,1
1537920240507639,1,0,0,1,4,12,7,6
1537920240522599,-4,-2,-3,-1,1,-11,4,-9
1537920240522599,2,0,0,0,-2,-13,-37,0
1537920240523597,0,0,-1,-1,0,-2,-13,17
1537920240523597,-2,-1,-1,1,-1,7,21,-13
1537920240545538,2,-1,0,0,-1,6,7,10
1537920240545538,0,-1,-2,-2,-1,-5,-1,-27
1537920240545538,-3,-3,-1,-1,-1,3,-58,2
1537920240545538,1,0,-2,-1,-3,-1,42,-5
1537920240568477,-2,0,-1,-1,-1,-35,-14,3
1537920240568477,1,2,2,1,4,7,5,-12
1537920240569474,-2,-1,-3,-5,-1,1,-11,5
1537920240569474,1,0,0,0,7,22,-6,-6
1537920240582440,-6,-3,2,6,1,-45,-55,-23
1537920240582440,2,-1,-1,1,10,18,-83,23
1537920240583437,1,-2,-4,-14,-45,-18,84,32
1537920240583437,-4,2,3,7,17,3,-13,-16
1537920240605379,-3,0,2,19,60,-12,48,-7
1537920240605379,-10,-5,1,-7,-3,46,2,-12
1537920240605379,-5,-5,-10,0,-19,-41,-27,-26
1537920240605379,-2,-5,-8,-16,16,100,-23,-4
1537920240628317,1,-1,-1,2,-3,-48,6,11
1537920240628317,-10,-3,-2,0,-2,-103,2,-26
1537920240629314,-8,-4,3,19,66,58,-83,-31
1537920240629314,6,7,10,-1,-49,40,96,20
1537920240644274,-17,-2,-8,-15,20,104,5,4
1537920240644274,13,-2,-6,6,19,5,-18,-7
1537920240644274,-23,-5,1,8,-21,36,-7,18
1537920240644274,-4,-4,-18,-39,-87,49,-51,-10
1537920240665218,2,5,22,38,91,87,35,-32
1537920240665218,-45,-20,-1,-11,-118,-40,95,36
1537920240666216,-14,-20,-34,-18,37,92,10,-20
1537920240666216,-5,3,5,-8,-28,0,15,1
1537920240688157,33,35,26,2,-7,25,3,5
1537920240688157,-12,-58,-49,-9,-58,-27,-55,-32
1537920240689155,3,80,76,6,-72,80,115,1
1537920240689155,18,-125,-62,1,111,-54,-91,-65
1537920240703118,6,72,-3,-21,-97,23,23,78
1537920240703118,13,-2,70,2,-64,84,42,-81
1537920240703118,-25,-24,2,22,95,-114,-4,60
1537920240703118,72,67,82,36,-13,45,32,79
1537920240725060,-43,-113,-9,-16,-83,-102,-51,34
1537920240725060,-30,-42,-56,2,94,-48,21,-35
1537920240726058,68,-97,-71,-71,-128,70,-20,-39
1537920240726058,-37,-68,-32,16,119,-44,-13,58
1537920240747998,-46,55,16,41,104,35,21,-36
1537920240747998,5,-54,15,-47,-115,-86,-33,-18
1537920240748995,-30,56,9,-3,55,-11,-37,-5
1537920240748995,-13,-49,-6,14,10,-64,1,-50
1537920240762957,8,-9,-28,-25,-29,14,-24,16
1537920240762957,-16,51,10,4,35,17,6,-2
1537920240762957,19,1,7,26,14,-75,3,0
1537920240762957,2,10,-13,-12,-55,-27,-2,-12
1537920240784898,-16,-8,0,-11,-38,-27,1,-20
1537920240784898,16,43,7,22,49,22,-23,25
1537920240785896,18,-28,-7,9,-3,9,90,28
1537920240785896,-30,47,13,-6,-36,-19,-1,-4
1537920240807837,10,-6,-2,-7,-9,-20,-38,-32
1537920240807837,28,-1,-5,11,24,9,27,43
1537920240808835,-5,-2,2,-1,-9,-36,-83,0
1537920240808835,-17,26,8,-7,-20,-18,57,-22
1537920240822797,14,-22,-10,-3,-15,-5,-8,-14
1537920240822797,12,-3,-6,3,13,-6,-42,18
1537920240823794,-21,3,6,1,8,-12,22,-13
1537920240823794,-5,20,7,4,-3,-28,-18,-20
1537920240844738,10,-31,-15,-11,-20,-8,-9,2
1537920240844738,-5,19,6,5,10,24,39,30
1537920240845736,-2,9,9,8,14,50,11,-5
1537920240845736,6,3,-8,-3,-11,-54,-19,3
1537920240868675,5,-6,-6,-5,-6,11,4,7
1537920240868675,-6,10,1,-1,1,-10,8,1
1537920240868675,3,0,-1,2,3,-22,-2,2
1537920240868675,-6,-3,-3,-5,-15,-14,-95,-15
1537920240882639,-3,-2,-3,-2,-5,9,66,2
1537920240882639,1,5,-1,-1,6,-3,-20,2
1537920240883637,-4,-12,-6,-2,-7,5,2,0
1537920240883637,-6,9,-2,-3,-6,-49,-93,-6
1537920240905576,0,-2,11,-3,-2,-6,66,-9
1537920240905576,11,7,0,12,17,-28,-69,3
1537920240905576,-7,-3,0,-3,-7,6,38,0
1537920240905576,-6,2,0,2,-3,32,-47,-12
1537920240928516,-3,-9,-7,-3,-9,-17,-48,-15
1537920240928516,6,1,-1,-1,11,38,88,20
1537920240929513,-8,6,7,-2,-3,-40,-83,-3
1537920240929513,23,-2,-7,4,60,22,-5,-13
1537920240943476,-32,-11,-32,-19,-50,-40,-80,-13
1537920240943476,-9,-34,-8,2,24,50,64,-7
1537920240943476,-77,-9,31,18,-8,-38,20,1
1537920240943476,85,75,21,-7,43,50,17,-12
1537920240965416,-13,-103,-50,-2,-52,-40,-10,-36
1537920240965416,-58,106,37,-4,-48,-17,40,76
1537920240965416,81,-128,-52,-5,42,-85,-6,59
1537920240965416,-113,105,73,-3,-54,-37,77,-52
1537920240988355,22,29,9,-3,11,-117,-7,12
1537920240988355,41,-118,-15,19,110,127,-70,31
1537920240989352,91,127,51,-10,-52,-109,-36,6
1537920240989352,-79,-128,-21,38,97,-82,12,-42
1537920241002317,94,109,30,-9,-34,68,-3,32
1537920241002317,-23,-50,-44,4,98,8,16,-48
1537920241003315,-56,4,-50,-40,-104,127,52,80
1537920241003315,40,-22,-16,5,26,-80,-94,-72
1537920241025256,-36,18,9,-19,-1,-26,15,-26
1537920241025256,-11,-89,-6,-7,-21,-7,-32,-41
1537920241026253,-1,47,10,19,58,17,-24,-46
1537920241026253,-11,-19,-15,-5,-15,61,59,57
1537920241048194,-21,-87,-12,2,23,51,15,6
1537920241048194,43,71,15,-2,-50,-58,-10,24
1537920241049192,-29,-46,0,0,23,-3,3,-42
1537920241049192,15,4,-8,-8,-48,11,30,28
1537920241062157,9,7,13,12,16,-1,-13,15
1537920241062157,-16,-5,1,-11,-39,-32,-28,-27
1537920241063154,4,18,0,5,8,6,14,-15
1537920241063154,7,-16,-4,-8,-40,15,17,32
1537920241085096,1,-14,1,5,16,18,-7,3
1537920241085096,-3,24,1,-3,-7,-1,0,-1
1537920241086093,-7,-21,-5,1,14,1,-10,-15
1537920241086093,17,3,-5,-3,-14,1,13,30
1537920241108035,-15,-12,4,3,13,36,6,-9
1537920241108035,5,21,3,-5,-13,-12,-2,-8
1537920241109033,5,-5,3,5,10,-6,-10,-5
1537920241109033,-20,-21,-2,0,-10,48,9,0
1537920241122995,0,15,2,2,-12,-64,-7,-2
1537920241122995,9,3,-4,-16,-32,47,-3,-2
1537920241122995,-18,-18,-2,-1,-9,-46,-8,-13
1537920241122995,17,2,-4,-1,6,-4,0,10
1537920241144936,-6,-5,-2,0,17,37,30,-1
1537920241144936,7,12,1,1,-7,-16,-3,3
1537920241145934,-9,-8,0,1,19,6,-2,-16
1537920241145934,0,0,-2,-6,-14,-3,6,3
1537920241168873,0,2,4,5,15,10,-8,0
1537920241168873,-2,-1,1,0,1,-26,-2,-9
1537920241168873,4,3,-3,0,4,-1,-3,-5
1537920241168873,-3,-5,-1,-3,-5,-11,6,6
1537920241181838,3,-4,0,1,9,23,-5,0
1537920241181838,-6,4,2,4,9,5,0,-4
1537920241189816,0,-5,3,3,2,-8,-5,-1
1537920241189816,-9,-1,-6,-12,-30,22,7,4
1537920241204777,-2,-2,-1,-1,3,-17,-6,-2
1537920241204777,-4,3,-1,-3,9,-27,-5,-6
1537920241205774,5,2,1,1,1,13,2,1
1537920241205774,-1,-3,-5,-2,-2,-12,2,-1
1537920241228712,-1,2,0,1,6,21,-1,-2
1537920241228712,8,3,1,-1,-1,-6,-1,3
1537920241228712,-8,-4,-1,-3,-4,12,-1,0
1537920241228712,2,-1,1,0,-10,-13,5,1
1537920241241677,-2,-2,-2,0,-2,-6,-6,3
1537920241241677,-2,2,1,2,4,5,1,-1
1537920241250654,2,-5,-4,-4,6,-19,-4,-3
1537920241250654,5,1,0,1,-1,-8,0,1
1537920241265614,-2,-2,-2,-5,-39,-20,-3,-2
1537920241265614,-2,-2,0,0,-3,-2,-1,0
1537920241265614,2,-1,-1,-1,2,3,-2,-3
1537920241265614,-1,-1,-2,2,17,-2,0,0
1537920241288552,-1,-1,2,2,11,-9,-2,-1
1537920241288552,0,0,-1,-3,-27,-24,2,0
1537920241288552,2,-3,-2,-7,-16,-8,-2,-2
1537920241288552,2,0,-1,-2,-2,-1,-3,1
1537920241301517,-4,-1,2,6,17,-16,-2,-2
1537920241301517,-1,0,-1,-3,1,32,1,-1
1537920241310493,-2,0,3,1,10,0,-2,0
1537920241310493,-1,-2,0,-2,-1,19,1,-1
1537920241325453,0,-2,-1,1,8,13,0,-2
1537920241325453,0,1,-1,1,2,-19,-1,0
1537920241325453,0,-1,-1,-1,-5,6,-1,-3
1537920241325453,-1,-2,0,-4,-19,14,2,0
1537920241348392,1,-1,-1,-4,-14,-3,-1,-1
1537920241348392,0,-1,-1,0,-2,11,0,0
1537920241349389,0,-1,-2,3,14,15,0,-2
1537920241349389,0,0,-2,-3,-11,-26,-1,0
1537920241362354,0,0,0,-3,5,8,0,0
1537920241362354,-1,-1,0,-1,-6,-10,-3,-2
1537920241370334,1,0,1,1,-9,-39,-3,1
1537920241370334,2,-2,-2,-2,-3,1,0,-2
1537920241385293,0,0,-1,4,20,-25,-1,-2
1537920241385293,1,-1,-1,0,0,22,3,1
1537920241386291,-2,-3,-5,-8,-18,27,0,-2
1537920241386291,1,0,0,1,11,5,0,0
1537920241408232,-3,0,0,-2,-2,-7,-1,-2
1537920241408232,-1,-1,1,4,10,11,-2,-4
1537920241409230,4,1,0,2,9,33,3,2
1537920241409230,-1,-2,-1,0,-3,-6,-1,1
1537920241422195,-2,0,-2,0,4,27,-1,-1
1537920241422195,1,-2,0,-1,2,-5,-2,1
1537920241430173,-3,0,0,-2,-13,-11,-1,-4
1537920241430173,0,0,-1,-2,-1,-14,-2,-1
1537920241445133,-1,-2,-2,2,8,7,2,-1
1537920241445133,-3,0,0,0,11,13,-3,1
1537920241446131,-1,-1,-2,-3,-12,-7,0,-1
1537920241446131,-1,1,-2,-1,-13,-33,-1,-1
1537920241478046,-1,0,1,3,16,-11,-1,-2
1537920241478046,-4,0,-1,-2,2,24,-1,-4
1537920241481039,0,-1,-3,-6,-29,20,2,3
1537920241481039,-1,-2,-1,0,1,8,0,0
1537920241483033,-1,0,0,-2,-4,-3,-4,-1
1537920241483033,-2,-2,-3,0,2,-19,-1,-2
1537920241484031,0,-1,3,3,19,6,0,-2
1537920241484031,-3,-1,0,-1,0,6,-1,-1
1537920241496995,1,-1,0,-6,-7,-11,-1,0
1537920241496995,1,-2,-2,-1,-5,-11,0,-2
1537920241503976,-1,-1,-1,3,5,-14,-3,-1
1537920241503976,0,-1,-3,-3,-1,14,0,-2
1537920241519934,-2,-1,-3,-3,1,4,-2,0
1537920241519934,0,-1,1,-2,-11,-10,-1,0
1537920241520931,2,0,0,4,22,16,1,0
1537920241520931,-1,-2,1,-3,-10,-25,-5,-3
1537920241534894,2,0,0,-2,-22,8,0,-1
1537920241534894,-1,0,-1,1,1,-8,-1,-3
1537920241541875,0,-1,-2,-2,-8,-7,-1,-2
1537920241541875,-1,0,1,3,16,3,-1,-2
1537920241556835,-2,-2,-1,-1,0,29,-1,1
1537920241556835,-1,-2,-2,-2,-16,-39,-4,0
1537920241564815,-1,-2,0,0,2,61,0,-1
1537920241564815,0,-1,-1,2,3,-10,0,-1
1537920241579774,-2,0,-2,-1,-4,-11,-2,0
1537920241579774,0,0,0,0,0,6,1,-2
1537920241587753,-3,-2,-2,0,2,-20,-3,-1
1537920241587753,-1,0,-2,-1,-4,13,-2,0
1537920241594733,-2,-1,-1,0,-3,6,-1,-1
1537920241594733,-4,-3,-3,-1,6,6,-2,-3
1537920241601715,1,-2,-2,-1,0,-17,-1,-2
1537920241601715,0,-2,1,2,12,11,-3,-2
1537920241616675,0,-2,-3,-5,-18,12,1,-3
1537920241616675,-3,-2,-1,-3,-17,-20,-1,0
1537920241625651,-2,-3,-1,-2,1,-8,-4,-1
1537920241625651,-3,0,2,4,14,6,-1,-1
1537920241639614,1,-3,1,0,-3,1,0,-1
1537920241639614,0,-1,-3,-4,-19,-11,-3,-2
1537920241655571,-1,-2,-2,0,0,2,-1,-1
1537920241655571,0,-1,-1,1,13,22,1,-2
1537920241657566,0,2,0,3,7,-8,0,0
1537920241657566,1,-1,1,-1,-6,-1,0,2
1537920241661555,-1,-1,0,1,3,-20,-3,-2
1537920241661555,1,-1,-3,0,-2,2,-2,-1
1537920241676515,-2,-1,-2,0,1,-8,-3,-1
1537920241676515,0,-1,1,1,14,12,-1,-1
1537920241685491,0,1,-3,-5,-10,-7,-2,-1
1537920241685491,0,0,1,-1,-10,-10,2,0
1537920241699454,1,-2,-3,-5,-13,19,2,-1
1537920241699454,-1,-2,-1,1,8,3,-2,-2
1537920241707432,-1,-2,1,0,0,-3,2,-2
1537920241707432,1,-1,-2,-4,0,5,0,0
1537920241714414,-2,-1,1,4,16,-5,-1,-1
1537920241714414,1,1,-2,-4,-20,2,-2,-1
1537920241722392,-1,-2,-1,-4,-10,-3,-4,-1
1537920241722392,-2,-3,0,1,4,-14,-4,-1
1537920241737352,-1,-1,-2,-5,-10,-1,-2,-2
1537920241737352,-1,0,-2,-3,-6,14,0,0
1537920241745331,-2,-1,1,3,12,5,-1,0
1537920241745331,1,0,0,-1,-7,-15,-1,0
1537920241759293,-2,-2,-1,2,17,10,-2,-1
1537920241759293,0,-1,-1,-1,0,-5,1,1
1537920241768270,1,-1,-2,-1,-1,-5,-1,-1
1537920241768270,-3,-3,-1,1,-1,2,0,-1
1537920241782233,-1,0,0,-1,2,-4,0,-1
1537920241782233,1,-2,-4,0,3,-17,-2,0
1537920241783230,0,0,-2,-1,3,22,2,-1
1537920241783230,-2,0,-2,-3,-5,7,0,-1
1537920241797192,1,-1,0,-1,-3,-9,-5,1
1537920241797192,1,-1,1,5,10,0,0,1
1537920241805171,-3,0,-1,-7,-24,-13,-2,-1
1537920241805171,0,-2,-3,-4,-10,5,0,0
1537920241819134,-3,-2,0,1,16,-26,-2,1
1537920241819134,-2,0,2,3,5,10,1,-2
1537920241828110,0,-1,-4,-5,-19,7,-2,-1
1537920241828110,-1,-1,-1,-4,-7,-12,-2,-3
1537920241843070,2,1,1,1,7,10,2,1
1537920241843070,0,-1,-1,-3,8,35,1,1
1537920241843070,0,0,0,1,-12,-53,-2,-1
1537920241843070,1,-2,-2,-1,-8,4,1,0
1537920241858030,-2,-1,-1,0,-6,0,-2,-2
1537920241858030,-2,1,-1,0,14,8,0,0
1537920241865011,-2,0,1,2,12,14,-2,-3
1537920241865011,-1,0,0,-1,-8,-21,-5,-2
1537920241878974,1,1,0,3,2,-6,-15,-1
1537920241878974,-3,-2,-2,-2,-7,-7,-8,-6
1537920241887950,2,-2,0,2,14,12,48,8
1537920241887950,0,0,1,0,-14,-21,-29,-1
1537920241902910,-1,-2,-2,-1,0,30,45,3
1537920241902910,-1,-1,-2,-1,6,-11,-75,-11
1537920241902910,-3,-3,-1,0,11,-1,-6,-7
1537920241902910,5,1,-2,-4,-18,-9,54,12
1537920241916872,-4,-1,-1,-3,-18,-9,-45,-9
1537920241916872,1,1,1,2,0,-2,48,9
1537920241924851,-7,-2,0,4,42,5,-82,-21
1537920241924851,0,-1,-2,-5,-20,-6,-8,4
1537920241939811,0,-1,-1,-5,-14,-23,59,2
1537920241939811,7,2,2,2,4,8,42,15
1537920241947790,0,0,-2,2,-1,-11,52,3
1537920241947790,-6,-1,-3,1,15,-3,-33,-6
1537920241962750,-1,-3,-2,-3,-1,34,-3,-3
1537920241962750,-2,-2,-3,-3,-5,1,44,-2
1537920241963747,-3,-3,-1,-3,-16,-35,-79,-7
1537920241963747,-5,-2,1,1,6,28,-37,-6
1537920241976712,-3,-3,-3,-4,-6,-26,-43,-6
1537920241976712,2,1,1,3,0,-11,11,10
1537920241984691,2,1,-2,-3,-15,-59,-57,-1
1537920241984691,12,5,4,7,14,36,52,19
1537920241999651,-7,-2,-4,-3,2,-13,-125,-18
1537920241999651,9,7,3,6,5,31,106,19
1537920242007630,-5,-3,-4,-7,-18,6,-51,-11
1537920242007630,-6,-2,-1,-2,4,-17,-66,-18
1537920242022590,-4,-4,-2,-3,1,8,-64,-11
1537920242022590,4,2,1,-2,-10,-44,-2,10
1537920242023587,2,0,1,1,-5,0,84,1
1537920242023587,0,0,-1,1,11,53,-20,3
1537920242036552,2,1,2,2,3,-50,34,11
1537920242036552,-1,-1,-1,-3,-3,33,-34,-5
1537920242052510,-7,-5,-3,-4,-7,8,-71,-22
1537920242052510,4,1,0,2,5,-40,49,17
1537920242059491,-5,-1,-1,-2,-3,14,-12,-7
1537920242059491,-2,-1,-1,-3,-12,-31,6,7
1537920242067470,10,5,4,6,13,31,103,18
1537920242067470,-6,-4,-3,-2,8,-23,-75,-9
1537920242082430,-2,-2,-3,-4,-22,-13,3,-16
1537920242082430,-3,-3,-2,1,9,58,-22,29
1537920242083427,-2,-1,0,-1,2,-10,-9,-6
1537920242083427,-4,-2,0,-1,-1,26,15,-5
1537920242097390,0,1,2,2,0,-41,40,-7
1537920242097390,-1,-3,-2,-5,-14,3,-36,-43
1537920242104371,-10,-4,-4,-5,-5,1,-20,-33
1537920242104371,15,7,5,7,14,0,5,54
1537920242119331,3,-2,-1,0,8,54,22,54
1537920242119331,-11,-7,-4,-8,-15,-84,-128,-38
1537920242127310,6,0,0,1,1,44,18,29
1537920242127310,-5,-2,-1,-1,-2,-23,-76,-19
1537920242142270,0,1,0,1,7,28,58,-3
1537920242142270,3,1,-1,3,7,42,52,-1
1537920242143268,5,2,2,1,-6,-30,26,26
1537920242143268,-19,-11,-6,-10,-17,-3,-125,-61
1537920242157230,11,5,1,0,4,-13,39,35
1537920242157230,-6,-5,-3,-5,-5,-22,-11,-8
1537920242164212,0,0,1,1,1,-11,-30,1
1537920242164212,3,0,-1,-1,-1,11,65,1
1537920242179172,-5,-2,2,4,6,-3,-25,-39
1537920242179172,3,1,0,0,4,-1,29,15
1537920242188148,-2,0,-2,-3,-4,20,26,25
1537920242188148,-7,-3,-3,-2,-5,-27,-37,-17
1537920242202110,5,4,4,5,13,26,42,-11
1537920242202110,-12,-6,-2,-3,-8,-28,-53,-30
1537920242210089,6,3,4,4,7,19,69,16
1537920242210089,7,2,1,1,2,-13,-16,13
1537920242217070,0,-2,-2,0,-3,6,-11,17
1537920242217070,-5,-2,-1,0,0,5,-44,-12
1537920242224052,-2,-3,-2,-4,-6,-6,-5,-7
1537920242224052,-6,-1,-3,-2,-1,21,92,13
1537920242239011,2,4,3,2,-3,9,-7,-66
1537920242239011,0,0,0,0,6,-10,20,53
1537920242247988,7,2,1,3,5,13,33,5
1537920242247988,-4,-2,-2,0,-3,5,-46,-41
1537920242262947,3,-1,-2,-1,2,4,-61,38
1537920242262947,-9,-3,-2,-2,-5,-8,70,1
1537920242262947,16,6,3,1,4,-9,-78,13
1537920242262947,0,-3,-2,-4,-3,13,53,11
1537920242276910,-2,-2,-2,-1,-3,-3,15,12
1537920242276910,-5,-5,-1,-3,-4,1,-5,-25
1537920242284889,-4,-1,0,0,-1,-14,-41,11
1537920242284889,0,0,1,2,3,33,38,-4
1537920242299848,-2,-4,-4,-5,-4,2,-45,0
1537920242299848,-6,0,0,1,-2,-35,2,-12
1537920242307827,-12,-6,-3,-3,-3,-9,-41,-40
1537920242307827,6,3,1,-2,-2,-8,64,16
1537920242330766,-3,-3,-2,0,3,34,30,-8
1537920242330766,-2,-1,-1,-2,-1,-6,-50,-38
1537920242331764,-5,-2,-3,-3,-5,17,-2,9
1537920242331764,6,2,3,3,7,-18,19,9
1537920242336750,-2,-3,-1,-2,-6,-36,-23,1
1537920242336750,6,-1,-2,-1,2,23,4,33
1537920242344729,-3,-3,-2,-2,-9,-12,14,-29
1537920242344729,1,-1,-2,-4,-8,23,14,9
1537920242368665,2,0,2,3,11,6,-83,10
1537920242368665,4,2,0,-3,-7,-8,8,14
1537920242369662,-3,-3,-2,-1,9,13,81,27
1537920242369662,1,0,-2,-2,-2,-23,-10,-7
1537920242390606,-2,-2,0,1,1,-2,-28,-10
1537920242390606,10,2,0,0,3,2,31,50
1537920242392601,-5,-2,-2,-1,-3,5,-22,-9
1537920242392601,-7,-4,-3,-4,-7,-31,-26,-18
1537920242404569,2,2,2,0,-2,13,78,0
1537920242404569,-5,-2,-2,-4,-3,16,-8,-16
1537920242413545,5,1,1,0,-1,-23,8,22
1537920242413545,-1,-1,-2,-2,-1,5,3,9
1537920242427507,-11,-4,-4,-5,-7,-33,-88,-45
1537920242427507,10,2,2,4,4,21,35,40
1537920242434489,-5,-3,-4,-1,-3,6,12,-29
1537920242434489,-5,-1,1,2,1,-32,4,-13
1537920242451443,3,-2,1,-1,0,-4,19,28
1537920242451443,-2,-2,-2,-1,3,-3,14,-7
1537920242452441,-3,-2,-4,-2,2,15,-56,-5
1537920242452441,-3,-5,-1,0,-3,25,47,3
1537920242473385,0,2,-2,-1,-12,-38,16,-5
1537920242473385,-6,-3,-3,-6,-11,-17,-53,-17
1537920242474383,3,0,1,2,2,12,34,26
1537920242474383,1,-2,-2,-1,6,37,19,8
1537920242487348,2,1,3,5,10,8,17,-12
1537920242487348,4,1,1,-2,-3,-5,-42,22
1537920242494329,-7,-1,-2,-1,-3,-14,-19,-37
1537920242494329,4,3,0,2,2,-26,-27,14
1537920242511284,-5,-2,-3,-5,-2,25,21,-11
1537920242511284,-1,0,0,2,4,-21,-30,-22
1537920242512283,0,-1,0,-2,-3,-4,1,5
1537920242512283,-5,-3,-2,-1,-3,-6,-5,7
1537920242533227,-2,-2,-4,-2,0,2,-9,9
1537920242533227,1,0,-1,-1,2,12,29,-6
1537920242535222,0,-4,-3,-3,-6,-21,-51,12
1537920242535222,0,1,0,0,3,18,-16,-56
1537920242548188,-3,0,2,1,0,-6,4,0
1537920242548188,0,-1,0,0,3,29,24,-22
1537920242550182,-3,1,1,1,5,-35,-41,-17
1537920242550182,5,1,-2,0,-6,-13,-8,30
1537920242571127,-2,-2,-3,-3,-4,18,7,11
1537920242571127,-5,-3,0,1,6,-10,-24,-10
1537920242572123,2,0,0,0,-7,17,88,-2
1537920242572123,-4,-3,-4,-5,1,15,-32,-7
1537920242593066,1,-1,-1,-2,-4,8,11,2
1537920242593066,2,-1,-2,1,-3,-6,5,4
1537920242595060,-1,-1,-3,-3,-1,4,-4,-13
1537920242595060,-1,-1,1,1,-3,-17,3,0
1537920242608025,0,-1,-2,-2,-3,-7,-15,2
1537920242608025,-1,-1,2,1,7,9,39,-66
1537920242621988,4,3,2,2,1,10,-18,-1
1537920242621988,-4,-1,-2,-2,1,6,-13,-20
1537920242631961,3,0,-2,-1,-2,-20,-17,1
1537920242631961,-1,1,1,0,-1,4,25,5
1537920242633956,1,1,-1,0,0,1,-12,3
1537920242633956,-4,-1,-1,-4,-4,-22,-35,-11
1537920242652905,0,-1,-2,-2,0,37,62,-18
1537920242652905,-4,-2,-3,-5,-11,-14,-61,-33
1537920242654900,3,-1,-1,0,-7,10,21,48
1537920242654900,-3,-2,-1,3,5,-13,-26,5
1537920242667865,-4,-3,-2,-2,-1,-35,-24,3
1537920242667865,4,1,1,1,3,3,1,20
1537920242674846,-8,-5,-1,-3,-1,4,-5,7
1537920242674846,0,0,1,3,5,14,-4,-19
1537920242690803,1,0,-2,-2,-4,-17,-22,6
1537920242690803,-3,-3,-4,-4,0,9,-1,4
1537920242691801,-5,-4,-4,-3,-4,-5,9,-6
1537920242691801,2,1,2,0,4,-5,24,25
1537920242713742,1,0,1,3,-1,7,19,7
1537920242713742,-6,-2,-2,-3,-5,-15,-10,-1
1537920242714740,1,0,0,0,5,16,-18,-9
1537920242714740,-2,-2,1,-1,-3,-20,-12,-25
1537920242727705,0,-1,-1,-1,2,13,14,18
1537920242727705,-3,-2,0,0,-4,-9,-39,-5
1537920242734686,1,-1,0,0,0,2,-21,-10
1537920242734686,0,0,-2,-3,-6,2,26,-9
1537920242750643,-3,-1,-2,-2,-2,-5,1,-14
1537920242750643,4,3,0,1,2,9,-10,32
1537920242752639,-3,-2,0,-4,1,9,24,-16
1537920242752639,0,-2,-1,-2,1,14,52,8
1537920242773582,3,1,1,0,0,-26,-17,-1
1537920242773582,-5,-1,-3,0,-1,30,7,-17
1537920242774580,-2,0,-1,0,0,-7,-24,-39
1537920242774580,0,-1,-2,-1,2,5,4,20
1537920242787546,-3,-1,0,-1,-5,-3,43,7
1537920242787546,-3,-2,0,-1,-5,-34,-26,-12
1537920242794526,0,1,0,-3,-13,18,-2,-6
1537920242794526,0,0,-1,-2,0,10,-7,6
1537920242810484,-2,-3,-1,-2,3,-2,-12,19
1537920242810484,-1,-2,0,0,3,-8,-1,6
1537920242812479,1,1,0,-1,2,-25,24,2
1537920242812479,0,-1,-1,1,-4,-1,-19,17
1537920242833423,-5,-3,-1,-2,-3,1,20,-3
1537920242833423,4,3,1,1,-1,-2,46,7
1537920242834420,0,0,-3,0,3,17,-10,5
1537920242834420,-2,-2,-2,-2,-5,-11,-12,-10
1537920242847386,0,-3,-3,-4,1,32,25,-11
1537920242847386,2,-1,1,0,-1,-17,5,9
1537920242854367,-1,0,-1,0,1,-13,-14,5
1537920242854367,-1,1,0,0,1,18,-11,-1
1537920242870324,-5,-3,-3,-1,-4,-7,-25,-9
1537920242870324,-2,-1,0,-2,4,2,-4,2
1537920242872319,0,-2,-2,1,0,-19,-2,1
1537920242872319,-6,-2,-2,0,-3,-3,-24,-38
1537920242893263,1,2,1,0,-1,-7,4,-5
1537920242893263,-1,-1,-2,-2,-1,5,-31,5
1537920242895257,-5,-3,0,2,2,14,18,-14
1537920242895257,5,0,-2,-1,-5,-7,2,14
1537920242907226,-2,-1,0,-1,6,31,-15,0
1537920242907226,4,1,-1,3,-5,-77,-12,17
1537920242914207,-3,-2,-2,-3,-4,56,-44,-49
1537920242914207,1,0,0,0,1,-2,14,9
1537920242931162,4,-1,-3,0,-1,1,6,12
1537920242931162,0,-1,-1,-1,1,3,31,-3
1537920242932159,2,-1,-1,1,2,-19,-6,9
1537920242932159,-1,-1,0,-1,-2,-4,24,4
1537920242953102,-4,-2,-1,-1,-3,-8,-27,-25
1537920242953102,-2,-2,-2,-2,0,23,37,-7
1537920242955097,0,-2,-1,0,0,21,13,21
1537920242955097,1,-1,1,-1,4,1,12,8
1537920242967065,-4,-1,-2,-3,-4,-38,-36,-13
1537920242967065,-3,-2,-2,-3,-2,23,12,3
1537920242976041,5,3,0,2,1,-29,-11,18
1537920242976041,-2,-3,-4,-4,-6,-1,0,7
1537920242991001,1,0,-1,2,2,0,52,31
1537920242991001,0,0,-1,-2,-1,7,-33,-9
1537920242991999,-1,-1,-2,-3,-2,-6,26,12
1537920242991999,1,1,-1,-1,-2,-1,-9,11
1537920243012943,-4,0,1,-1,0,-25,-30,-19
1537920243012943,-2,-1,-3,0,3,39,15,4
1537920243014938,1,0,0,0,-8,-9,-2,19
1537920243014938,-3,-1,-1,0,2,-1,-55,-17
1537920243026905,1,-2,0,-1,1,24,50,14
1537920243026905,5,-2,-1,-3,-5,-21,-31,5
1537920243042862,-3,-2,-1,-1,2,-3,11,-10
1537920243042862,1,-1,0,3,2,-6,-18,14
1537920243050841,5,1,2,2,-2,-1,5,63
1537920243050841,-1,-4,-2,-2,3,10,1,10
1537920243051839,0,-1,-1,0,-7,-18,-3,1
1537920243051839,-1,0,-1,-3,-5,2,-5,-15
1537920243072782,-4,0,0,0,-1,4,-24,-26
1537920243072782,-1,-1,-2,0,-1,-17,9,-22
1537920243074777,-2,-1,0,-2,0,27,-16,-1
1537920243074777,-2,-1,0,-1,-2,-12,72,-1
1537920243086745,-2,-2,0,-1,0,1,-32,-26
1537920243086745,-3,-2,-3,0,-2,14,30,1
1537920243095722,0,-1,0,1,1,-16,15,-14
1537920243095722,0,1,-1,1,1,22,-22,-14
1537920243110681,5,1,0,0,1,4,65,14
1537920243110681,-3,-1,-1,1,-1,19,-5,-19
1537920243112676,-4,-2,-2,-2,-2,-30,2,-15
1537920243112676,6,3,0,-1,-2,-1,-32,80
1537920243133620,4,-1,-2,-1,-3,-47,4,1
1537920243133620,0,2,0,2,2,56,16,7
1537920243134617,0,0,0,1,2,10,-12,-13
1537920243134617,-4,-3,-1,0,2,-4,-16,-20
1537920243146585,-5,-3,-3,-1,1,-12,20,0
1537920243146585,1,0,-1,-3,-9,-47,-39,13
1537920243155561,-2,-4,-1,-3,-1,14,7,7
1537920243155561,-1,1,0,2,1,-1,38,12
1537920243170521,0,1,0,0,3,23,-31,-63
1537920243170521,3,-1,0,-2,-2,-22,-20,23
1537920243172516,-2,0,-1,0,0,-5,14,14
1537920243172516,-1,-3,-1,-2,-2,-8,34,-9
1537920243193460,-1,1,-1,0,1,24,-21,-9
1537920243193460,1,-1,-1,1,0,-4,21,0
1537920243194457,-2,-2,-2,-4,-2,-2,2,-2
1537920243194457,2,0,-1,0,-1,-7,-7,10
1537920243206425,1,0,1,0,-3,-6,-24,7
1537920243206425,-3,0,0,-2,-1,-4,-14,-14
1537920243215401,-2,0,-2,-1,3,-1,0,21
1537920243215401,-5,-3,-2,1,-3,-1,-41,-75
1537920243230361,4,1,-1,-1,0,-6,45,46
1537920243230361,-5,-3,-3,-2,-3,-11,-28,-7
1537920243232356,2,1,0,-1,8,26,34,-7
1537920243232356,-3,-2,-2,-4,-8,28,-22,-25
1537920243253300,-5,-2,-1,-4,-2,-3,-20,-26
1537920243253300,3,0,-2,0,2,31,20,24
1537920243254297,2,0,0,1,-1,-27,10,10
1537920243254297,3,0,0,-1,4,-10,14,7
1537920243267262,-3,-3,-1,-2,-1,27,-41,4
1537920243267262,-4,-1,1,1,0,-3,42,-12
1537920243276238,1,2,1,2,-1,-4,-31,-5
1537920243276238,-3,-1,-1,0,3,2,19,7
1537920243298180,-4,-1,0,0,-5,-7,0,-19
1537920243298180,0,-2,0,0,-2,-7,-19,-13
1537920243300175,1,-1,0,0,1,27,-10,6
1537920243300175,6,0,-2,2,0,-17,-12,21
1537920243313140,-1,1,-1,1,2,-4,9,1
1537920243313140,-1,-1,-1,0,0,-14,-19,-44
1537920243319124,-1,0,-2,-1,-4,6,10,-9
1537920243319124,0,-1,-1,-2,-1,-11,-10,11
1537920243327103,-1,-2,-1,-3,-2,16,7,4
1537920243327103,-2,-3,-2,-3,-1,12,-48,-3
1537920243336078,1,-1,0,0,2,-6,67,-3
1537920243336078,3,2,2,0,-6,-7,-2,5
1537920243351039,0,0,-1,-1,-4,-31,-7,-14
1537920243351039,-7,-3,-2,-3,0,4,24,-12
1537920243352036,2,-1,0,-1,-2,2,-29,55
1537920243352036,0,-1,-1,-3,-3,-39,-32,3
1537920243372980,5,1,2,3,9,85,70,13
1537920243372980,-1,-1,-3,-2,-2,-10,-16,0
1537920243374975,-1,-1,-3,0,1,-23,-36,6
1537920243374975,-6,-2,0,-2,-1,19,33,-18
1537920243395919,-2,-1,-1,-2,-5,-36,-45,15
1537920243395919,-2,-1,0,-2,-1,-11,-12,0
1537920243396916,3,-2,-1,-1,-4,22,-2,-16
1537920243396916,-1,1,-1,1,-1,-13,11,18
1537920243410878,0,0,-2,0,0,-19,-14,-7
1537920243410878,-4,-2,0,-1,-1,23,45,-31
1537920243411876,-2,-1,-2,-2,-2,-25,-32,-15
1537920243411876,-5,-2,-1,0,2,13,10,-2
1537920243432820,3,-2,-3,-2,-3,-8,-6,12
1537920243432820,-3,3,1,2,-2,-1,20,-3
1537920243434815,-5,-4,-1,0,-2,-5,-34,-5
1537920243434815,-6,-3,-1,-2,3,21,-19,-20
1537920243455759,-2,-2,-3,-3,-4,-30,53,9
1537920243455759,-3,-2,-1,-1,0,5,-22,-15
1537920243456756,-3,-1,0,0,3,-11,17,0
1537920243456756,0,-1,-2,-1,-8,1,-39,7
1537920243469721,-2,-1,0,-2,-1,10,8,-8
1537920243469721,3,0,0,0,-1,-9,-9,14
1537920243476703,-5,-2,-1,-2,-1,-4,15,-5
1537920243476703,-3,-3,-4,-3,-3,-6,-39,29
1537920243493657,1,2,3,2,3,-8,43,-31
1537920243493657,2,0,-3,0,0,14,-9,10
1537920243494655,0,0,-1,-2,-1,14,22,-5
1537920243494655,-2,-1,-1,-2,-2,3,23,2
1537920243515599,-5,-1,0,-3,-5,-8,-22,-13
1537920243515599,4,-1,-3,-3,-1,-11,-9,23
1537920243517593,-5,-2,-2,-2,-2,12,5,-11
1537920243517593,4,2,3,1,2,-5,34,2
1537920243530559,-1,0,-2,3,3,-5,-31,3
1537920243530559,2,-1,0,1,1,-5,6,7
1537920243536543,1,1,-1,-3,-9,-18,-22,7
1537920243536543,-2,-2,-1,-2,-3,17,14,-18
1537920243553498,1,-1,0,-1,2,18,12,15
1537920243553498,-5,-2,-2,-2,0,-20,-38,-28
1537920243555493,-2,-2,-1,-1,-1,-8,-9,3
1537920243555493,-3,-3,-2,0,0,-3,21,-8
1537920243575439,-4,-2,-3,0,4,6,-71,-9
1537920243575439,2,1,2,1,-6,-28,42,0
1537920243577433,-2,0,-1,-3,-7,-4,-14,-11
1537920243577433,-1,-1,-1,-2,-2,7,22,-22
1537920243589401,-1,-3,-1,1,-1,-6,-33,2
1537920243589401,-5,-1,0,-3,4,11,-1,7
1537920243598378,2,0,0,1,3,-6,15,14
1537920243598378,-3,-1,0,0,-1,-8,-8,1
1537920243613338,1,-2,-2,-1,-4,-10,23,9
1537920243613338,-3,-1,-1,0,-2,17,-10,-6
1537920243614335,-1,-1,-2,1,3,-7,-18,-11
1537920243614335,-4,-1,-1,-3,-5,2,-14,-34
1537920243636276,-2,0,-1,-2,-3,8,18,8
1537920243636276,-4,-1,-1,-1,-5,-7,7,2
1537920243637274,4,0,0,-2,0,4,-19,29
1537920243637274,2,2,2,2,8,4,40,12
1537920243650239,-1,0,-1,1,-4,-6,8,-15
1537920243650239,3,0,-1,0,-2,-5,-10,27
1537920243657220,-4,0,-1,3,4,3,-7,-41
1537920243657220,1,-3,-1,-3,-3,13,36,25
1537920243673177,-1,0,1,2,-1,1,-13,10
1537920243673177,2,-2,-2,-3,2,-11,22,2
1537920243675172,1,-2,0,1,-4,-1,46,3
1537920243675172,0,-3,-1,0,0,-8,-56,31
1537920243696116,-1,-1,-1,-1,-3,-5,13,-4
1537920243696116,0,1,-3,-2,1,9,14,8
1537920243697114,-3,-3,-3,-3,-2,-20,-41,-2
1537920243697114,0,-1,-2,-1,-2,-9,-4,-1
1537920243710079,-1,-1,-1,-4,-2,12,-4,0
1537920243710079,0,0,0,1,1,1,-7,7
1537920243717060,-3,-3,0,0,-3,-3,24,8
1537920243717060,0,0,-3,-1,1,-7,-16,-9
1537920243733018,-2,1,-1,-1,1,4,5,-8
1537920243733018,-3,-2,-1,2,-3,8,0,-6
1537920243735012,0,-2,-3,-2,1,23,12,-1
1537920243735012,0,1,2,0,2,-17,-2,-5
1537920243755956,-2,-1,0,-1,0,-23,-44,-12
1537920243755956,4,3,0,2,5,30,32,14
1537920243756954,-1,1,-1,-2,0,14,-7,-10
1537920243756954,1,3,-1,1,1,-24,0,8
1537920243769920,0,-1,-2,-4,-3,-2,-2,-2
1537920243769920,1,0,-1,-1,-5,-10,-26,-17
1537920243776902,6,1,-1,-4,-2,-26,-74,17
1537920243776902,-4,-1,-1,0,3,28,18,-31
1537920243792858,1,-2,1,-1,-2,-18,18,12
1537920243792858,3,1,2,0,2,-6,-17,9
1537920243794854,1,-1,-1,-1,0,22,27,3
1537920243794854,1,0,0,-1,-5,-10,-48,-12
1537920243815798,0,-3,-2,-1,-3,-14,45,-12
1537920243815798,-4,-6,-2,-2,-7,33,-16,1
1537920243816795,-3,-2,1,2,0,-20,9,-14
1537920243816795,-3,0,-3,-1,-5,6,15,13
1537920243829760,3,0,0,0,0,3,6,18
1537920243829760,0,-1,1,-1,-1,-28,-7,1
1537920243836742,-3,0,-2,0,2,26,13,-18
1537920243836742,3,-2,-1,0,3,-6,14,49
1537920243853695,-5,-2,0,0,-4,8,-8,-19
1537920243853695,5,-2,-3,-2,-5,-25,-34,35
1537920243854693,-1,0,-1,1,1,14,2,-8
1537920243854693,-4,-2,0,-2,0,1,15,-25
1537920243876634,-4,-1,1,0,1,5,-14,-23
1537920243876634,-2,0,0,-2,-2,-15,-13,18
1537920243877631,0,1,-1,0,3,-16,60,12
1537920243877631,3,0,-2,-1,-4,42,-4,4
1537920243889599,-2,0,-1,1,1,17,-31,-29
1537920243889599,-4,-1,0,-3,-7,3,37,-18
1537920243898576,2,0,1,0,-4,-21,-18,0
1537920243898576,1,0,-3,-4,-7,-35,-31,-5
1537920243913535,-1,0,-2,1,4,19,29,-5
1537920243913535,-2,-2,-3,-1,6,14,13,0
1537920243914533,2,0,1,0,-3,1,-18,14
1537920243914533,-5,-2,-1,-2,0,4,6,-21
1537920243935478,2,-2,1,2,-1,-9,-2,40
1537920243935478,2,1,0,-1,-2,-10,-6,-8
1537920243937473,-6,-2,-2,0,0,14,-1,-8
1537920243937473,-2,-2,1,2,2,-9,-16,-9
1537920243949442,-3,-1,-1,0,2,12,31,2
1537920243949442,-3,0,-1,0,-1,-12,-20,-51
1537920243958417,2,0,-1,-2,-4,8,13,12
1537920243958417,-1,0,-1,-2,-1,2,-7,-4
1537920243973377,0,1,-2,-4,-1,-21,3,6
1537920243973377,0,-1,-1,0,0,7,-9,-12
1537920243974375,1,-1,-2,-1,0,-4,16,2
1537920243974375,-3,-3,-1,1,4,-2,-4,1
1537920243995318,2,-1,-2,-1,-5,12,-18,11
1537920243995318,-1,0,0,-1,-1,-23,30,20
1537920243997314,-2,-1,-1,0,-4,-15,-25,-4
1537920243997314,1,-2,-2,0,0,5,-6,4
1537920244009281,-3,-2,-2,-3,0,-4,-11,-9
1537920244009281,-2,-1,1,1,3,13,31,17
1537920244018256,-1,0,0,-1,3,7,16,-17
1537920244018256,9,1,0,-1,-9,7,23,61
1537920244033215,-6,-3,0,-1,-3,-15,-34,-8
1537920244033215,0,0,-2,-2,-3,-10,-12,-10
1537920244035210,0,-1,0,0,2,-7,8,-3
1537920244035210,-7,-3,-1,0,1,6,15,-28
1537920244056154,2,0,1,0,-3,-14,27,9
1537920244056154,1,0,0,-1,-2,-7,-60,4
1537920244057151,1,0,-1,-1,1,20,53,9
1537920244057151,-2,-1,-2,-1,-6,-18,-17,-4
1537920244069119,-1,-1,-2,-2,-3,3,-11,0
1537920244069119,-4,-5,-2,-5,-2,-9,-3,-4
1537920244078095,-4,-3,-1,-1,-1,23,35,-12
1537920244078095,0,-1,1,1,5,9,15,-24
1537920244093055,3,-2,-2,-3,-7,-8,-30,8
1537920244093055,0,-2,0,-1,-6,-1,27,4
1537920244095050,-5,-2,-3,-3,-4,18,-16,5
1537920244095050,-3,1,1,1,1,-23,-29,-20
1537920244115994,3,0,-3,-1,4,1,2,27
1537920244115994,-2,-1,0,-1,0,-18,-22,-21
1537920244116991,2,0,1,0,0,11,8,10
1537920244116991,0,-1,1,-1,-2,23,6,-5
1537920244128959,-1,1,-1,0,5,-10,-1,3
1537920244128959,-2,-1,0,-2,-5,7,0,-3
1537920244137935,0,-1,-2,-2,-5,-36,4,7
1537920244137935,-2,-1,-1,0,5,4,-1,-16
1537920244152896,-5,-1,0,-1,2,30,10,-13
1537920244152896,1,2,-1,1,4,17,5,-4
1537920244154892,0,1,-1,1,-1,-32,-57,22
1537920244154892,-2,0,0,-1,-8,-13,51,-15
1537920244175836,1,1,-1,-4,-8,-18,-18,4
1537920244175836,-2,-1,-1,2,5,16,11,4
1537920244176834,-1,-1,-2,-5,-5,-12,-34,-20
1537920244176834,0,1,-1,-1,3,-3,-35,-7
1537920244189798,-1,-2,0,0,3,19,78,22
1537920244189798,-1,0,0,0,0,-9,16,5
1537920244198774,-1,-2,0,-3,-1,5,-11,-7
1537920244198774,0,-1,-1,-2,1,11,29,6
1537920244213734,-2,-3,2,0,-1,-12,-29,-56
1537920244213734,-2,-1,0,0,4,3,11,-10
1537920244214733,-2,0,-2,-1,-4,-26,16,-8
1537920244214733,-2,0,-2,-2,-3,37,-29,6
1537920244235676,1,1,-2,-1,1,6,8,-7
1537920244235676,-2,-1,-1,0,-2,1,17,1
1537920244237670,-2,-2,-1,1,1,-19,-47,-19
1537920244237670,-2,-1,0,1,1,-7,-6,-17
1537920244249637,0,-1,0,-2,-1,8,16,7
1537920244249637,-2,-3,-1,-3,-5,2,-1,3
1537920244258613,2,0,1,2,2,-6,1,7
1537920244258613,-1,-2,-3,-2,-4,-16,-10,3
1537920244273573,-1,-1,0,2,4,-1,14,4
1537920244273573,0,2,-2,1,2,8,-40,-7
1537920244274570,-1,-1,-1,-2,1,4,-9,-49
1537920244274570,0,-2,-1,-1,-1,-6,21,21
1537920244295514,0,-1,1,0,-5,-13,-63,-1
1537920244295514,2,0,-2,-2,-3,20,67,6
1537920244297509,-5,0,1,1,-1,5,-9,-11
1537920244297509,-2,-1,-2,-1,2,-9,-2,5
1537920244318453,-4,-1,-2,-2,-1,-5,-35,-9
1537920244318453,1,-1,-1,-1,-1,-13,-18,-10
1537920244319450,-1,-3,-1,-3,-4,20,3,17
1537920244319450,2,0,2,3,4,-31,49,30
1537920244333413,-3,0,0,0,3,19,29,-5
1537920244333413,3,1,0,2,-1,1,8,-2
1537920244334410,-4,-2,-2,2,0,1,-22,2
1537920244334410,1,-1,-1,-4,-4,-1,-8,-3
1537920244355354,1,-2,-1,-2,-1,-2,-7,8
1537920244355354,-3,-1,-1,-1,-2,0,-21,-36
1537920244357349,3,-1,-1,-1,0,-10,32,37
1537920244357349,0,-2,-3,-1,-2,-3,-39,-3
1537920244378294,1,1,1,3,7,11,53,9
1537920244378294,1,-1,-1,-2,-4,-9,-24,5
1537920244379291,3,0,1,-2,-7,-7,4,4
1537920244379291,-1,-1,-2,-1,0,-1,-7,-13
1537920244393254,-2,-2,-2,-1,-2,28,-13,-20
1537920244393254,2,0,0,0,3,2,-8,20
1537920244394252,-1,0,-2,0,1,-1,3,-12
1537920244394252,1,1,-1,-1,-3,2,1,27
1537920244416193,1,1,0,0,-4,-25,-28,-6
1537920244416193,-2,-1,0,-1,0,-4,-19,-18
1537920244417191,-1,-2,-2,-2,1,2,2,-7
1537920244417191,1,1,1,0,0,13,33,23
1537920244438134,2,-2,-2,1,3,26,36,19
1537920244438134,-2,-1,0,0,-1,-8,14,13
1537920244440130,3,-2,-1,-1,-2,-6,-6,0
1537920244440130,-4,-3,-1,-3,-7,-15,-32,-21
1537920244453094,1,-1,-1,-3,-3,12,8,23
1537920244453094,-4,-3,-2,-1,1,0,45,8
1537920244455089,-2,-1,-1,0,-1,7,-16,-3
1537920244455089,-4,-1,-1,0,3,2,1,-2
1537920244476031,-2,-2,-1,0,-1,-29,-8,-2
1537920244476031,-1,0,1,0,-4,-8,-42,-10
1537920244477029,1,1,-3,-2,-1,23,27,28
1537920244477029,0,0,0,2,4,-1,-29,-18
1537920244497973,-3,-2,-4,-5,-13,-12,-16,-10
1537920244497973,2,1,0,-1,5,-4,-25,11
1537920244499968,2,-1,0,-1,-3,-8,-2,34
1537920244499968,0,0,-1,1,1,-1,1,6
1537920244512933,-4,-2,-1,-1,0,8,-20,-9
1537920244512933,-5,-1,-1,0,-1,-16,22,17
1537920244519914,2,0,0,-1,-2,12,-21,-18
1537920244519914,-1,0,-1,-1,0,9,18,18
1537920244535872,-1,0,2,-1,-4,-20,-13,-11
1537920244535872,-5,-4,-3,-3,-3,8,-25,17
1537920244536869,-4,0,-2,1,0,-21,-17,-22
1537920244536869,0,-3,-1,0,2,7,29,-7
1537920244557813,-1,-2,-1,-3,-5,-8,-29,-10
1537920244557813,5,0,0,-2,-1,8,41,33
1537920244559809,-1,0,0,0,4,9,-11,-18
1537920244559809,1,-1,-2,-2,-4,-9,52,-6
1537920244572773,-2,-1,-2,1,1,-14,-28,4
1537920244572773,-4,-1,-2,-2,-4,-4,-16,-33
1537920244579754,-2,-2,1,0,2,26,13,4
1537920244579754,-1,0,-1,-1,-6,-13,4,-13
1537920244595711,3,1,1,-1,1,1,1,-4
1537920244595711,-1,-1,0,0,2,14,41,-5
1537920244596709,0,-2,-2,1,3,2,18,10
1537920244596709,-2,1,1,-1,-4,-3,-33,-17
1537920244618650,-3,0,0,-1,0,-1,8,6
1537920244618650,3,0,-1,1,0,4,-22,9
1537920244619648,-2,-2,-2,-2,-1,3,2,9
1537920244619648,-3,0,1,1,1,-7,-40,-40
1537920244632613,2,0,0,1,-2,-12,31,22
1537920244632613,-3,-2,0,-1,0,13,15,-17
1537920244639594,0,-1,0,-4,-3,-34,-26,0
1537920244639594,-2,-2,-1,0,7,37,21,-8
1537920244655551,-3,-2,-1,0,-2,2,-17,-10
1537920244655551,1,0,-3,-4,-7,-1,-2,-5
1537920244657546,-3,-2,-1,-1,-5,-11,-12,-12
1537920244657546,0,-3,-2,-2,0,-1,-7,20
1537920244678490,0,1,-1,-1,1,-1,-19,-12
1537920244678490,2,-2,-1,2,7,1,12,21
1537920244684474,0,2,1,2,-3,-13,29,1
1537920244684474,-3,-2,-3,-2,-4,-30,-6,12
1537920244692453,-2,-3,-2,-1,4,47,19,11
1537920244692453,0,1,0,0,1,-12,-46,-23
1537920244699434,-2,-1,-2,-2,-3,-5,34,6
1537920244699434,-1,0,1,0,-1,13,4,-6
1537920244715391,0,-4,-3,-2,-7,-30,11,20
1537920244715391,-1,-2,2,-2,-2,4,-20,-4
1537920244717386,-1,-1,-1,-1,0,0,-46,-8
1537920244717386,0,-1,-1,-1,3,8,28,7
1537920244738330,0,-1,0,0,-1,-4,-22,-2
1537920244738330,-4,-2,-2,0,1,6,16,-4
1537920244739328,4,0,-2,-2,-4,-7,-5,-11
1537920244739328,-1,-3,-2,-1,1,-8,-15,8
1537920244752293,2,2,1,2,-6,14,26,-17
1537920244752293,3,-1,-1,1,0,6,3,16
1537920244761269,-3,0,0,0,3,-1,-2,-9
1537920244761269,4,0,-1,0,-7,-15,-1,33
1537920244776229,-1,0,-1,0,5,7,2,-35
1537920244776229,0,-1,-1,-3,-4,-12,22,37
1537920244777226,1,-1,-1,-2,-2,13,2,7
1537920244777226,-3,-1,-1,-1,-1,-7,-50,-15
1537920244798171,-1,-1,1,0,3,-2,64,-3
1537920244798171,-2,-2,-4,-2,-6,10,11,-7
1537920244800165,-2,0,-1,0,2,-2,-1,-6
1537920244800165,0,0,-1,-2,-3,5,-16,6
1537920244812133,2,1,0,-1,0,-21,-26,19
1537920244812133,-2,-1,-1,-1,3,19,21,-1
1537920244827093,-2,-2,-1,1,-6,-4,0,-1
1537920244827093,-3,-1,-3,0,1,-1,-7,-26
1537920244836069,-2,0,-2,-2,-3,-7,-1,-1
1537920244836069,-2,-1,0,-1,2,7,-6,1
1537920244837067,0,-1,-1,-3,0,-15,-14,0
1537920244837067,0,0,0,0,1,30,20,6
1537920244858010,-1,0,-2,-3,-3,-25,-15,7
1537920244858010,-2,-1,-2,-2,-4,-17,-36,-23
1537920244860005,-1,-2,-1,1,3,16,25,29
1537920244860005,-1,0,2,1,1,-7,8,-14
1537920244871973,2,-1,0,-1,-4,2,8,10
1537920244871973,0,0,-3,0,-3,1,13,-16
1537920244880950,-3,-3,-2,0,-3,6,9,3
1537920244880950,-2,-1,-1,0,0,4,12,-20
1537920244895909,-3,-2,-2,0,1,-2,-10,11
1537920244895909,-1,1,-1,0,-3,13,-2,-19
1537920244896906,-2,0,-2,0,2,1,-2,-18
1537920244896906,0,-1,-1,-1,-4,-30,-23,4
1537920244917850,-2,-2,0,0,4,7,-4,1
1537920244917850,-1,0,0,0,0,-22,-1,6
1537920244919845,-3,-2,-2,-3,-2,19,10,-4
1537920244919845,-1,-1,-1,-3,-1,9,-6,-1
1537920244931813,-3,-2,-2,-3,-8,-18,-42,-11
1537920244931813,1,-1,-1,0,-1,2,9,-9
1537920244940789,1,0,0,0,1,-7,5,43
1537920244940789,-2,-2,-2,-2,1,0,14,11
1537920244955749,3,0,0,-1,-3,-2,-42,-12
1537920244955749,2,1,0,-1,-1,-6,4,-5
1537920244956746,-2,-3,-3,-2,-4,-21,-12,-38
1537920244956746,-2,-1,-3,-3,-2,23,12,10
1537920244985669,0,-1,-1,-1,-2,-13,-9,4
1537920244985669,-4,-1,0,0,-1,-4,-7,5
1537920244986666,2,0,0,-2,-4,-6,-20,1
1537920244986666,-1,-1,-2,-2,-4,-21,13,-7
1537920244999631,2,0,-1,2,8,57,28,50
1537920244999631,-2,-2,-2,-1,-3,-6,6,-1
1537920245000629,-2,-2,-1,0,-1,-11,-31,-13
1537920245000629,-2,-1,2,1,-1,6,2,21
