timestamp,emg1,emg2,emg3,emg4,emg5,emg6,emg7,emg8
1537912288641700,-1,-1,-3,-1,-1,1,-1,1
1537912288641700,-1,-2,0,1,0,0,0,0
1537912288651673,-1,-2,-2,-2,-1,-1,-3,0
1537912288651673,0,-1,-2,-1,0,-2,-2,0
1537912288666633,-1,-1,1,-1,0,1,0,-1
1537912288666633,-1,-1,-1,-1,2,2,-1,0
1537912288672618,-3,-1,-1,-1,1,0,0,1
1537912288672618,-1,0,-1,0,2,0,-1,0
1537912288687578,-1,-2,2,-1,-2,-1,0,-2
1537912288687578,0,-2,-1,0,0,1,-2,-2
1537912288695556,-1,-1,1,0,-2,-4,1,1
1537912288695556,-2,-1,0,-1,-3,0,-1,-3
1537912288702537,-2,-2,-1,1,-3,1,-2,-2
1537912288702537,1,1,1,0,0,1,0,-1
1537912288711514,-1,0,0,-2,-1,-2,-1,-3
1537912288711514,-2,-2,-1,-1,-1,-1,0,-1
1537912288726474,-1,-1,-3,-2,-2,0,-1,-1
1537912288726474,0,0,-1,-1,1,0,-1,-1
1537912288732458,0,-2,-1,0,0,-1,0,-1
1537912288732458,-2,-2,-1,-2,0,1,0,0
1537912288747418,-2,-1,-1,0,-3,-1,1,-2
1537912288747418,0,0,-1,0,0,-1,-1,-2
1537912288756394,-2,0,-1,-1,-2,0,-1,-1
1537912288756394,-1,0,0,-1,1,-2,-2,-1
1537912288786314,-2,0,-1,0,-1,1,-1,-2
1537912288786314,-1,0,0,-1,-2,0,-2,-3
1537912288794292,-1,-2,0,-1,-1,-1,0,-1
1537912288794292,-2,-1,-1,0,0,-2,-2,-2
1537912288794292,0,-2,1,-1,0,3,1,-2
1537912288794292,-2,-1,-1,0,-3,1,0,-1
1537912288796287,-1,0,1,-1,0,2,-3,-2
1537912288796287,0,0,1,0,-2,1,-1,2
1537912288807258,-1,-1,0,-1,1,-3,-1,0
1537912288807258,-1,0,0,-1,-1,2,-2,-2
1537912288816234,-1,1,-1,1,1,-2,0,-1
1537912288816234,-3,-3,-4,-4,-3,5,-1,-3
1537912288822218,0,-1,0,-1,-2,0,0,1
1537912288822218,-1,-1,-1,-1,-1,-2,-2,1
1537912288838175,1,-1,0,-2,-2,-3,-2,1
1537912288838175,-1,0,1,1,0,-1,-1,-3
1537912288844159,-1,0,0,1,-1,-2,-1,-1
1537912288844159,0,-3,-2,0,0,-1,-1,-1
1537912288853135,0,0,0,0,-2,-1,-3,-2
1537912288853135,-2,0,-3,0,0,1,-2,1
1537912288867098,-1,-1,-3,-3,-1,-3,-2,-3
1537912288867098,0,-1,2,1,-1,-3,0,-1
1537912288876074,1,0,-2,1,-1,1,0,-2
1537912288876074,-2,1,-1,0,0,-2,-1,0
1537912288882057,-2,-1,-1,-2,-2,-1,-2,-2
1537912288882057,0,1,0,0,-1,-1,-1,-1
1537912288898015,0,-3,0,-2,-4,1,-1,-1
1537912288898015,0,-3,-1,-1,-1,-3,0,1
1537912288904996,-1,-2,1,0,-2,-1,-1,1
1537912288904996,-2,-1,-2,-1,0,0,0,-3
1537912288912975,-1,1,-2,-1,-2,0,1,-2
1537912288912975,-1,-1,-2,0,2,-1,1,-1
1537912288926937,-2,0,-1,-1,-3,1,-2,1
1537912288926937,0,-1,0,0,2,-3,2,-1
1537912288935914,-1,-1,-1,1,0,-1,-1,0
1537912288935914,0,-2,-1,-2,-1,-3,0,0
1537912288941898,0,0,-2,-1,-1,1,0,-1
1537912288941898,0,-2,0,-2,-3,-1,-2,0
1537912288958852,-3,-2,-2,-1,1,2,2,1
1537912288958852,2,-1,1,-1,-2,-2,0,-3
1537912288964836,-1,-1,0,-2,3,-1,0,-1
1537912288964836,0,0,-2,-1,-2,-1,-3,0
1537912288973813,-2,-2,0,0,-1,-2,-2,0
1537912288973813,-4,-2,-2,-1,-3,6,-4,-1
1537912288986778,0,-1,-1,0,1,2,-1,0
1537912288986778,1,-2,-3,-2,-5,-12,2,0
1537912288995754,-3,-3,0,-2,2,3,-2,-1
1537912288995754,0,0,0,1,0,-3,1,1
1537912289001738,-2,-1,-1,0,-2,3,-3,-4
1537912289001738,-3,1,1,0,0,2,0,2
1537912289016698,0,0,-2,-2,-2,1,0,-1
1537912289016698,0,-2,0,-1,-1,-4,-1,-1
1537912289024676,1,-1,-1,-2,0,-1,-1,-1
1537912289024676,-2,-1,0,0,0,1,-1,0
1537912289033652,0,0,-1,-2,0,-2,-1,-3
1537912289033652,-1,0,1,0,1,4,-3,-2
1537912289046618,0,-2,0,0,-2,-2,-2,0
1537912289046618,-2,-1,-1,-1,-1,0,-2,0
1537912289055594,-1,0,-2,-1,-3,-2,0,-3
1537912289055594,1,-3,2,1,1,1,-4,0
1537912289061578,-2,0,-1,-1,2,0,0,-2
1537912289061578,1,0,-1,-3,-4,-1,0,-1
1537912289076538,-2,0,0,0,2,4,-2,-2
1537912289076538,4,0,-1,-3,-9,-3,1,2
1537912289084516,-1,-2,-2,-1,-2,-1,0,-2
1537912289084516,-2,-2,-1,-1,2,5,-2,-2
1537912289093492,0,-1,0,2,-1,-6,-2,4
1537912289093492,-3,1,-5,-3,-3,-6,0,-2
1537912289107456,-1,0,2,-1,0,-1,-1,0
1537912289107456,2,-1,0,-2,1,1,0,-1
1537912289115434,0,-2,-2,-2,-2,-3,-3,1
1537912289115434,0,1,0,-3,1,3,2,-1
1537912289122415,0,0,2,2,-7,-16,1,2
1537912289122415,-2,-2,-2,-1,-1,-1,-3,-3
1537912289137375,-1,-2,-2,-1,4,8,-3,-2
1537912289137375,-4,0,-1,3,-2,-5,4,-5
1537912289144356,-2,-3,-6,-10,-8,8,-4,7
1537912289144356,5,7,3,5,9,8,5,-3
1537912289159317,-3,1,-2,0,-4,-6,-2,-5
1537912289159317,2,0,-2,-3,5,6,6,7
1537912289167295,-5,-6,-4,3,-5,-21,-5,-11
1537912289167295,-5,-8,-11,-9,6,24,-5,-5
1537912289176272,12,6,7,-4,-7,-10,2,8
1537912289176272,0,4,7,0,-2,17,3,-3
1537912289182255,-4,-2,-12,-4,5,-11,-6,-2
1537912289182255,-5,-8,-2,-4,0,-9,-5,-3
1537912289197215,9,8,17,0,-9,4,3,5
1537912289197215,3,4,12,7,-7,-5,3,4
1537912289204197,-4,-1,6,9,1,4,-7,-6
1537912289204197,-6,-2,-6,7,20,34,9,-6
1537912289219157,-12,-16,-20,-4,-8,-24,-25,-5
1537912289219157,6,1,-8,-8,-13,-53,-6,9
1537912289227135,-3,-3,-1,-10,0,-14,-13,-8
1537912289227135,6,8,1,-8,1,19,-2,3
1537912289236111,-12,-6,-14,3,0,-28,-4,-16
1537912289236111,-2,-6,-1,1,17,7,-13,11
1537912289242095,13,14,12,6,1,-24,20,16
1537912289242095,-2,-5,1,-15,-20,17,-2,5
1537912289258052,8,7,19,16,12,7,21,1
1537912289258052,0,3,12,6,10,-7,1,-10
1537912289264037,-4,-7,-7,5,-7,13,4,2
1537912289264037,-9,-5,-6,-8,-17,-49,-9,-8
1537912289278997,0,-1,-6,-6,-4,14,-4,-2
1537912289278997,-5,-9,-9,6,7,48,12,-11
1537912289286975,-5,-6,-6,-17,-6,-25,-7,2
1537912289286975,1,2,-13,1,-5,-25,-11,-5
1537912289295952,-18,-15,-26,-27,-3,35,-11,-21
1537912289295952,9,7,12,-2,6,0,3,10
1537912289301936,9,14,23,14,40,14,14,5
1537912289301936,-4,-4,9,17,-23,-2,-9,-2
1537912289318890,-13,-7,-17,-18,-7,-14,-12,-17
1537912289318890,2,-4,2,-1,-11,19,0,1
1537912289324874,15,17,21,10,16,9,13,13
1537912289324874,2,0,10,4,-9,-19,1,2
1537912289339834,6,6,15,22,51,33,13,9
1537912289339834,-14,-13,-21,-13,-59,-26,-15,-12
1537912289346815,-7,-13,-24,-9,17,34,-13,-14
1537912289346815,7,5,1,-10,-33,-52,19,12
1537912289355792,8,5,6,7,-1,-2,-4,20
1537912289355792,-11,-5,-25,-7,11,-24,-19,-22
1537912289361776,-2,-6,-9,5,-4,8,-6,-3
1537912289361776,4,3,9,-20,-21,40,13,-3
1537912289378732,-8,-3,-3,-3,21,12,12,-1
1537912289378732,4,-7,3,2,-1,-12,-9,2
1537912289384715,3,9,31,13,-51,-27,-7,-2
1537912289384715,-5,-1,3,25,47,25,0,2
1537912289399676,7,0,7,5,-36,-41,-1,10
1537912289399676,7,11,6,0,30,13,10,8
1537912289406657,-2,-8,-17,-14,8,32,6,-4
1537912289406657,-5,-3,-1,9,25,22,-2,-4
1537912289415632,-10,-10,-18,-28,-61,-56,-12,-4
1537912289415632,-9,-5,-15,-6,4,23,-2,-17
1537912289421616,-1,-5,-6,-8,-16,17,-3,-1
1537912289421616,2,5,12,8,4,-67,-10,3
1537912289436575,4,-1,-8,-6,4,42,10,6
1537912289436575,1,1,10,13,28,3,11,5
1537912289444554,-8,-3,-22,-29,-3,-7,1,-7
1537912289444554,2,-1,8,9,-7,1,-4,-3
1537912289459514,9,12,30,14,-7,7,7,5
1537912289459514,4,9,21,24,18,-3,2,10
1537912289466495,-11,-10,-21,11,11,14,6,-4
1537912289466495,-7,-13,-28,-24,11,13,-9,-8
1537912289475471,6,8,11,6,-1,8,10,8
1537912289475471,5,4,3,-8,-5,-6,-1,8
1537912289490431,-7,-3,5,1,-7,-30,-20,-7
1537912289490431,-5,-6,-23,-10,-6,19,-8,-10
1537912289497413,-1,-2,2,10,5,23,6,1
1537912289497413,-9,-4,1,-4,-27,-48,-25,-8
1537912289504395,0,-3,-5,-11,-3,47,10,4
1537912289504395,3,-1,-5,-1,-1,-62,-11,-1
1537912289519354,-2,-2,-12,-12,-1,-75,-16,-12
1537912289519354,-7,-7,-12,1,10,44,10,-4
1537912289527333,2,2,6,-6,-2,-11,6,4
1537912289527333,-2,2,12,6,-29,-53,-9,-1
1537912289536310,2,1,12,19,35,18,6,1
1537912289536310,7,2,2,-3,-38,-36,-3,5
1537912289550273,1,-1,5,18,-2,0,-7,2
1537912289550273,2,2,0,-2,2,36,15,4
1537912289557253,0,0,-7,-7,17,15,-5,5
1537912289557253,-5,-5,-9,-6,13,31,11,-16
1537912289564235,0,0,6,1,16,22,6,10
1537912289564235,7,7,2,2,4,-2,-6,-5
1537912289579195,-5,-7,-19,-29,-13,32,-2,-3
1537912289579195,6,6,16,8,-18,-13,3,6
1537912289587174,2,4,8,7,-12,-11,-2,-5
1537912289587174,-4,-1,3,-5,10,10,10,1
1537912289596150,-6,-3,7,22,3,22,-5,1
1537912289596150,0,-1,-2,10,17,47,14,-2
1537912289610112,-1,-7,-7,-12,-4,-26,-11,-2
1537912289610112,2,0,3,4,4,24,8,8
1537912289617094,2,2,0,-3,0,9,5,-4
1537912289617094,-13,-10,-15,-20,-17,-32,-18,-9
1537912289624076,-4,-3,-12,3,-12,-65,-22,-12
1537912289624076,-2,-1,-2,-3,15,45,11,2
1537912289639036,2,1,-14,-18,-15,-38,-15,0
1537912289639036,-4,-1,8,8,18,12,4,1
1537912289647015,8,11,21,13,27,42,17,5
1537912289647015,1,-3,6,9,-8,-14,-4,5
1537912289655990,-3,-1,-5,12,6,20,9,-1
1537912289655990,5,-1,5,-10,-10,1,0,5
1537912289669952,3,0,2,-14,-24,-5,-1,5
1537912289669952,-5,-5,-1,5,10,17,11,-4
1537912289676933,-6,-4,0,3,17,2,-15,-1
1537912289676933,-4,-2,-16,-16,6,29,-2,-8
1537912289684911,-1,-4,-11,-8,-21,-56,-3,-5
1537912289684911,-6,-1,-4,-6,-16,-23,-1,-14
1537912289699872,10,6,10,6,24,-27,4,22
1537912289699872,-2,2,3,3,17,22,-11,-16
1537912289706853,-13,-10,-20,-8,-15,-10,-10,-1
1537912289706853,9,-1,-19,-15,28,10,1,4
1537912289715829,4,12,32,5,-42,-16,4,1
1537912289715829,1,7,13,31,14,-24,3,10
1537912289729791,0,-6,14,19,-3,22,5,-4
1537912289729791,1,3,5,-8,-11,2,-5,1
1537912289736773,-6,-12,-21,-15,18,20,-3,-14
1537912289736773,0,-6,-12,-23,-87,-26,-5,10
1537912289744752,3,10,10,8,6,-22,-6,-12
1537912289744752,-4,-4,-1,10,-1,41,3,4
1537912289759713,-4,-2,-4,-5,18,22,-5,-9
1537912289759713,0,3,-7,-13,-33,-38,-5,5
1537912289766695,-5,-7,-21,-15,29,64,6,-4
1537912289766695,-3,-2,-2,2,-29,-3,-7,-9
1537912289781654,0,-1,0,-12,-29,-20,-2,0
1537912289781654,-2,-5,-13,-3,29,29,2,-5
1537912289790631,6,2,11,-2,-9,2,1,8
1537912289790631,12,21,39,22,18,-3,9,16
1537912289805590,-13,-13,-16,8,9,14,-5,-9
1537912289805590,-3,-10,-4,0,-2,6,-2,-3
1537912289805590,2,3,6,-5,-1,-1,1,5
1537912289805590,-4,-2,-1,-2,-1,17,4,1
1537912289819553,0,1,-1,1,-14,-9,3,-1
1537912289819553,-1,1,-9,-12,9,-11,-9,-1
1537912289827532,-4,-6,-21,-4,5,-49,-4,-8
1537912289827532,1,-7,-15,-22,-22,-39,-12,0
1537912289842491,1,8,12,8,21,74,15,-3
1537912289842491,-1,3,11,7,-15,-74,-27,-7
1537912289850470,-6,-2,-4,11,20,19,4,0
1537912289850470,-6,-12,-18,6,15,-5,-11,-7
1537912289865431,11,6,3,-12,-30,-33,-6,6
1537912289865431,3,7,19,2,23,44,21,7
1537912289865431,-10,-5,1,8,-39,-22,-5,-3
1537912289865431,-1,-2,-9,-11,-13,6,-3,7
1537912289879393,-4,-2,0,11,6,-4,5,-3
1537912289879393,-2,-6,-13,-15,-17,10,0,-1
1537912289887371,5,7,6,-16,-21,6,10,5
1537912289887371,-8,-8,-10,-3,-1,-9,-4,-7
1537912289902331,-2,-1,-1,2,8,-41,-9,-1
1537912289902331,5,6,-1,-5,12,34,0,0
1537912289910309,2,-11,-15,6,41,23,3,1
1537912289910309,0,4,7,-15,-26,-17,-2,-1
1537912289925269,6,10,34,37,12,-10,5,4
1537912289925269,2,1,20,24,8,4,5,7
1537912289926267,1,0,-2,4,8,13,-6,-2
1537912289926267,-5,-4,-12,-7,5,-22,-7,-4
1537912289939233,-4,-8,-14,-10,-3,5,0,-4
1537912289939233,-1,-1,-2,-9,-12,-10,3,0
1537912289947211,0,2,4,0,0,19,3,-3
1537912289947211,1,0,1,0,0,-5,0,2
1537912289962171,-6,-5,-12,-9,-10,16,0,-7
1537912289962171,-3,-4,-6,1,4,-1,3,1
1537912289970150,6,4,2,0,23,18,6,3
1537912289970150,-1,1,3,-3,-10,7,5,-3
1537912289985110,-1,-5,-5,-5,-7,-26,-9,-2
1537912289985110,-1,-3,-5,-3,7,-25,1,1
1537912289986107,-1,2,3,-1,1,7,-2,-3
1537912289986107,-3,-2,2,7,11,8,-1,0
1537912289999072,1,-2,-1,-2,-14,-4,3,0
1537912289999072,-1,-2,-3,3,9,-2,-3,-3
1537912290007051,1,3,3,0,-7,-10,2,2
1537912290007051,4,5,6,6,16,7,-4,1
1537912290022012,0,-2,-2,-7,-2,-2,0,-2
1537912290022012,-6,-3,-1,-1,1,4,-7,-6
1537912290029990,-3,-4,-4,-1,-1,-3,0,-1
1537912290029990,0,-4,-2,1,-2,2,-1,-2
1537912290044950,1,-1,-4,-5,1,5,-1,2
1537912290044950,-3,-3,-7,-3,-2,3,0,-5
1537912290045948,-1,-1,-4,-7,-6,8,3,2
1537912290045948,2,1,4,3,0,-26,0,-1
1537912290059910,-4,-1,1,-3,-5,-6,-7,-6
1537912290059910,1,-2,1,2,3,-1,3,3
1537912290066892,-1,-3,1,-2,-5,-9,-7,-3
1537912290066892,1,-2,-1,2,6,15,3,2
1537912290081850,-2,-2,-4,-3,-6,-19,-3,-1
1537912290081850,1,0,0,1,6,6,0,1
1537912290089829,1,-1,1,1,6,-17,-3,3
1537912290089829,-4,-2,-2,1,1,6,-2,-5
1537912290104789,-1,2,0,1,3,3,0,0
1537912290104789,2,0,-1,0,9,3,-1,-2
1537912290105786,-1,-1,0,-1,-12,-5,-1,1
1537912290105786,-1,-1,1,0,0,0,-2,0
1537912290119749,-2,-1,-2,2,2,6,0,1
1537912290119749,-1,-2,-4,-4,-13,-3,0,2
1537912290126730,-1,0,0,-1,-3,-15,-3,-3
1537912290126730,-1,-1,1,0,1,3,1,-3
1537912290141690,1,0,-3,0,-2,1,4,1
1537912290141690,-2,0,0,-1,-4,-1,-2,-2
1537912290149669,0,0,1,-1,2,13,1,-1
1537912290149669,0,1,0,-1,-2,5,4,1
1537912290164629,-2,-2,-4,-2,-5,-8,-7,-4
1537912290164629,0,-2,1,0,7,7,4,1
1537912290165627,-2,0,-1,-2,4,13,-3,-4
1537912290165627,-1,0,-1,-3,-8,-23,-5,-2
1537912290179589,1,3,3,3,-4,3,3,2
1537912290179589,-1,0,-3,-1,4,28,13,-1
1537912290186571,-4,-3,-3,-2,1,-11,-20,-6
1537912290186571,2,0,2,3,9,20,10,4
1537912290201530,-1,-2,1,-3,-3,-8,-1,0
1537912290201530,-2,-1,0,-1,1,-11,-7,1
1537912290210506,0,0,0,-1,-7,2,8,2
1537912290210506,-2,-2,-1,1,0,0,-2,1
1537912290225466,-1,0,-4,-2,-3,-1,-2,1
1537912290225466,-1,-2,0,0,3,-2,0,-4
1537912290225466,-1,0,-1,0,-6,-3,0,-4
1537912290225466,-1,-3,-1,-1,-3,-5,-5,-2
1537912290239429,0,-1,0,0,3,7,3,0
1537912290239429,0,-1,-1,-2,-3,-6,-2,1
1537912290247408,1,-3,-2,-1,-2,-3,1,1
1537912290247408,-1,-1,-2,-1,-1,-1,-4,-1
1537912290262368,-2,-3,-3,-2,-2,5,0,-3
1537912290262368,0,-1,-2,-1,-3,-9,-8,-1
1537912290270346,-3,-1,-1,-1,0,-1,2,0
1537912290270346,0,-1,0,1,0,-5,3,2
1537912290285306,-3,0,-1,-3,4,17,-4,-3
1537912290285306,0,-1,-3,-1,-5,-9,-4,-2
1537912290286304,-2,0,-2,-1,-10,-1,2,-2
1537912290286304,-1,0,0,-1,-1,1,-3,-4
1537912290299269,-2,-1,1,-1,-2,4,-1,-2
1537912290299269,-1,1,1,0,-6,-34,-2,1
1537912290307248,0,-2,-1,-2,2,1,-1,2
1537912290307248,1,-2,1,-1,-2,1,-5,-1
1537912290322208,0,-1,-2,0,-2,-2,3,1
1537912290322208,-1,-2,-2,-1,4,9,0,-2
1537912290330186,0,-2,1,-1,-11,-6,1,0
1537912290330186,-2,-1,-3,-3,-4,-2,-5,-4
1537912290345146,0,-1,-2,-1,1,-4,-2,-2
1537912290345146,-1,-1,-1,0,-3,2,1,-2
1537912290346144,-2,0,0,1,6,0,2,3
1537912290346144,-3,-1,-1,1,1,3,-2,-2
1537912290359109,0,-2,-2,-2,-4,-2,0,0
1537912290359109,-3,1,-3,-2,-2,-3,-5,-4
1537912290367088,0,2,-1,1,3,1,-2,-1
1537912290367088,-2,-1,1,1,2,-3,-1,1
1537912290382048,0,-3,-2,-1,-2,1,0,1
1537912290382048,0,-1,0,1,2,-5,-1,1
1537912290390026,0,-1,0,0,3,9,0,-3
1537912290390026,0,-1,0,-1,1,0,3,0
1537912290403989,-1,-3,-1,-3,-4,-5,-2,-2
1537912290403989,-2,0,1,1,0,8,-2,0
1537912290412965,-2,-2,-3,-3,-7,-1,0,-2
1537912290412965,-1,0,-1,-2,-3,-16,-2,-4
1537912290418949,-1,1,2,2,0,-5,-2,0
1537912290418949,0,-2,-2,-3,-4,7,3,-4
1537912290426928,0,0,-2,2,5,2,1,0
1537912290426928,-2,-4,-2,-1,-7,-11,-6,-4
1537912290441888,-2,1,-1,0,-2,-4,1,2
1537912290441888,-2,-2,0,0,2,1,2,0
1537912290449867,-1,0,-3,-3,-16,-2,-10,-5
1537912290449867,0,1,-1,0,1,6,-5,-3
1537912290464826,0,-3,0,0,9,11,1,1
1537912290464826,-3,-3,-4,-1,-7,2,0,-2
1537912290472805,0,-2,-1,-3,-2,3,4,0
1537912290472805,2,3,1,3,4,3,0,2
1537912290479787,-3,-3,-1,-2,-6,-7,-4,-1
1537912290479787,2,1,0,1,0,-5,-2,-1
1537912290486768,-2,-1,1,0,3,0,0,-1
1537912290486768,-1,-3,-2,-3,-3,11,1,-2
1537912290501728,0,2,2,1,2,-4,0,0
1537912290501728,0,-2,0,-2,-3,1,-2,1
1537912290509706,-1,-2,0,-1,2,1,1,1
1537912290509706,-1,0,-2,-1,1,-15,1,-1
1537912290524667,-1,0,-1,1,-1,0,-1,-2
1537912290524667,-1,2,-2,0,-4,-8,-4,0
1537912290532645,1,-1,0,-1,1,9,3,-3
1537912290532645,-1,0,-1,2,12,10,4,2
1537912290547605,0,0,0,1,-6,-29,-9,-4
1537912290547605,1,2,-3,-1,9,10,5,1
1537912290548603,1,-1,-1,1,-3,-7,0,1
1537912290548603,0,-3,-1,-1,0,7,-2,1
1537912290561568,0,-1,-2,-4,3,6,4,1
1537912290561568,-1,-1,0,0,1,-5,-4,-3
1537912290570544,1,-3,-1,1,4,2,-2,-1
1537912290570544,1,0,-2,-1,-5,-1,2,1
1537912290584507,-2,-2,-3,-2,0,2,-2,-2
1537912290584507,-2,-1,0,-2,-6,-4,-3,0
1537912290592485,0,2,2,1,3,-4,0,1
1537912290592485,-2,-2,1,-3,-4,-4,-7,-2
1537912290607445,0,0,-2,-2,-4,5,-1,-1
1537912290607445,0,-1,-2,1,6,10,1,0
1537912290608443,-1,0,-1,0,0,-20,-2,-2
1537912290608443,-3,-1,-1,-1,-1,19,3,0
1537912290622405,-1,-3,-2,-3,4,6,-6,-5
1537912290622405,-1,-3,0,-1,-2,-5,0,-1
1537912290630384,0,0,-1,0,2,-11,-4,1
1537912290630384,1,1,-1,-1,-8,2,5,1
1537912290644347,-2,-1,-2,0,5,2,-8,-5
1537912290644347,-1,-1,-1,0,-3,-1,-1,1
1537912290652325,-2,-1,-1,-1,3,8,3,0
1537912290652325,-4,-3,0,0,-12,-10,-5,-3
1537912290667285,-1,2,0,1,-2,-4,-2,1
1537912290667285,-2,-2,-1,-2,-4,-4,-2,-4
1537912290668283,-1,-1,-3,-2,-3,1,-1,-1
1537912290668283,-1,0,1,-1,7,-1,0,1
1537912290682245,0,-1,-1,-2,-7,3,1,1
1537912290682245,-3,-3,0,-1,1,0,-5,-2
1537912290690224,-1,0,-2,-1,3,-1,0,-1
1537912290690224,0,-2,0,-1,1,-1,-1,-1
1537912290704187,-2,-2,1,0,-4,-2,2,-1
1537912290704187,2,1,0,0,-1,-7,-1,0
1537912290712166,-1,-2,-2,-1,-5,1,0,-2
1537912290712166,0,0,-2,-2,7,12,-1,0
1537912290729120,-2,-1,-1,-3,-5,-2,-2,-3
1537912290729120,1,-1,-1,-1,-2,-2,-1,-1
1537912290729120,0,-2,-2,0,-2,1,-2,-1
1537912290729120,-3,1,0,-1,-3,-2,0,-3
1537912290742086,-2,-1,-1,0,0,-4,0,-1
1537912290742086,-2,-1,0,1,-6,-6,2,-1
1537912290750065,0,-2,-1,-3,6,20,1,-2
1537912290750065,-1,-2,-3,-1,-3,-16,-7,-4
1537912290765026,1,-1,-1,0,-1,5,3,0
1537912290765026,-1,0,0,-2,4,10,2,3
1537912290773005,-3,-2,-2,-3,-25,-10,-2,0
1537912290773005,1,-1,1,0,2,1,3,1
1537912290787965,-3,-2,-2,-1,1,1,-1,-3
1537912290787965,0,-2,-1,0,-1,2,2,1
1537912290788962,-1,-1,0,1,2,0,-5,-4
1537912290788962,-2,-2,-2,-1,-2,-5,1,0
1537912290801927,-1,-1,0,-2,-5,2,0,-2
1537912290801927,-1,-3,-3,-3,-1,4,-4,-2
1537912290809906,-1,-1,-1,-2,1,-4,1,0
1537912290809906,1,0,-1,1,-1,-4,-4,0
1537912290824866,0,0,0,1,3,0,0,1
1537912290824866,-1,-1,1,1,-1,-7,-2,-1
1537912290832844,-1,-1,-1,-2,2,1,4,1
1537912290832844,0,-1,1,2,0,-4,-1,-2
1537912290846807,-2,-3,-4,-4,-3,3,-3,-2
1537912290846807,-1,-1,-2,-2,-1,-2,-1,-1
1537912290855785,-4,-1,-1,0,5,-1,-1,-1
1537912290855785,-1,0,-1,3,11,1,2,0
1537912290861768,0,-1,2,1,0,-13,-1,-1
1537912290861768,-1,0,1,1,4,-1,-2,2
1537912290870742,-1,-1,1,1,1,-5,1,-3
1537912290870742,-2,-2,-2,-3,1,14,-10,-4
1537912290884704,-1,-3,-2,0,5,1,1,1
1537912290884704,0,0,-1,0,1,6,6,2
1537912290893680,-1,-1,-2,-2,-4,-12,-9,-4
1537912290893680,3,1,-1,1,3,8,6,6
1537912290906646,-4,-1,-3,-4,0,1,-4,-7
1537912290906646,-2,-2,-11,-4,-2,11,-2,-5
1537912290915622,2,2,4,0,-3,2,-1,4
1537912290915622,1,2,10,6,-4,-6,3,1
1537912290921606,-2,-4,-6,-6,-2,-1,-6,-5
1537912290921606,2,1,2,4,19,-3,0,1
1537912290930581,-1,-4,-9,-7,-10,11,-3,-1
1537912290930581,-5,0,-6,-2,-5,12,-1,-2
1537912290944545,-5,-5,-5,4,-8,3,-10,-12
1537912290944545,4,6,4,2,3,-30,-4,6
1537912290953521,-6,-3,-20,-11,-16,-54,-9,-6
1537912290953521,-3,-9,-4,-6,10,57,1,-6
1537912290966486,11,15,22,-3,-3,-6,4,12
1537912290966486,-6,-3,12,15,-12,-28,0,-7
1537912290975462,-12,-14,-33,-11,-5,-54,-14,-10
1537912290975462,11,4,17,22,5,2,20,12
1537912290981446,6,11,17,-17,-5,37,0,3
1537912290981446,1,-1,3,9,1,36,3,1
1537912290991420,1,3,17,16,5,17,1,-1
1537912290991420,-6,-8,-17,-11,-18,-58,-17,-6
1537912291004385,-4,-10,-17,4,11,26,7,-5
1537912291004385,-1,0,-3,-11,6,-26,-8,1
1537912291013362,-3,-1,-5,-6,-2,-21,-3,-2
1537912291013362,-1,-3,-14,-5,17,-53,-17,0
1537912291027324,3,-1,1,0,-20,-17,14,1
1537912291027324,1,3,-4,-8,-12,2,-5,8
1537912291036300,-11,-10,-24,-17,-2,16,-3,-14
1537912291036300,10,4,18,13,-7,-10,8,11
1537912291042284,10,23,27,3,-2,0,22,17
1537912291042284,-9,-16,-11,5,-6,0,-2,-9
1537912291051260,7,10,32,5,-2,21,7,7
1537912291051260,4,8,13,15,3,29,12,8
1537912291064225,-13,-15,-18,9,22,7,-6,-13
1537912291064225,0,-6,-12,-14,-2,25,0,-6
1537912291073201,14,14,26,10,-11,38,8,17
1537912291073201,-8,-6,-11,-9,-1,-23,-5,-15
1537912291087163,-8,-11,-14,2,6,47,-8,-1
1537912291087163,-6,-5,-23,-27,-61,-100,-24,-15
1537912291096140,-4,-7,-12,6,14,21,9,-6
1537912291096140,-4,2,-11,-34,14,24,-4,-4
1537912291118081,3,-4,1,14,-2,-7,5,5
1537912291118081,8,10,27,1,0,34,12,6
1537912291120076,10,8,26,22,12,8,9,5
1537912291120076,-8,-1,3,14,3,-11,-12,0
1537912291124065,3,-8,-14,-5,2,-41,-10,1
1537912291124065,-4,-1,-4,-8,0,33,12,2
1537912291133040,-4,-2,5,13,22,4,-2,-4
1537912291133040,6,3,3,2,-2,34,-9,-3
1537912291147004,-7,-5,-8,-11,-27,-34,-10,-2
1537912291147004,-6,-6,-8,0,15,48,-9,-10
1537912291155980,-5,-1,-11,-10,-4,16,-8,-7
1537912291155980,-11,-8,-6,-10,-11,19,2,1
1537912291161965,12,12,9,1,-11,-15,0,7
1537912291161965,-2,-2,-5,-9,26,-5,4,1
1537912291170940,-1,-6,-13,-15,-29,-15,-7,-1
1537912291170940,-1,2,11,14,6,2,2,-7
1537912291184901,7,7,19,3,-17,-37,-7,5
1537912291184901,-2,3,21,25,9,21,12,10
1537912291192880,-1,-7,-9,13,34,14,4,0
1537912291192880,-7,-9,-19,-10,-30,-12,-3,-13
1537912291207840,-7,-6,-14,-44,-66,-80,-14,-11
1537912291207840,6,5,7,10,8,67,-6,-4
1537912291209835,4,3,3,1,6,-90,-11,10
1537912291209835,-6,-3,-6,-6,-34,33,11,-15
1537912291221803,-11,-9,-9,7,39,43,-14,-4
1537912291221803,1,-1,-11,-9,-26,-99,-4,-1
1537912291230779,-3,0,-16,-17,3,17,8,-5
1537912291230779,5,0,8,15,-11,-9,9,12
1537912291244742,-6,-2,-4,-8,18,8,-9,-10
1537912291244742,5,-1,-2,-15,-5,-33,8,7
1537912291253718,1,6,14,-2,-10,3,1,4
1537912291253718,1,0,9,33,40,7,8,10
1537912291267680,0,1,11,-1,-3,4,12,1
1537912291267680,2,4,6,16,-35,26,12,7
1537912291275659,-16,-16,-32,-27,-10,-67,-32,-16
1537912291275659,0,-5,-22,-28,14,32,-2,-8
1537912291281643,9,9,17,36,11,-43,15,11
1537912291281643,-3,-3,-4,-4,2,21,5,-3
1537912291290620,3,0,11,0,-30,-13,-2,1
1537912291290620,-8,-7,-19,-20,-9,4,1,-9
1537912291304583,1,-4,-10,-6,9,26,-1,1
1537912291304583,3,14,21,2,14,-45,2,1
1537912291313559,0,-5,5,9,27,47,9,16
1537912291313559,-11,-9,-15,-23,-41,-68,-31,-15
1537912291327521,5,2,3,11,19,31,5,1
1537912291327521,1,2,12,6,3,25,-5,1
1537912291334503,5,6,14,15,13,25,10,2
1537912291334503,-3,-2,0,2,-4,-15,-7,-2
1537912291341484,-10,-12,-22,-2,10,93,16,-7
1537912291341484,-5,-8,-15,-15,-21,-75,-30,-14
1537912291350459,1,-1,-8,-4,4,48,11,0
1537912291350459,16,13,27,4,1,11,26,17
1537912291364423,2,8,15,11,17,17,2,1
1537912291364423,-4,-8,-11,14,20,72,5,-6
1537912291373399,-11,-2,-15,-16,-8,-50,-21,-13
1537912291373399,-7,-13,-21,-14,-3,12,-6,-5
1537912291387361,14,15,23,-10,-23,5,10,11
1537912291387361,-11,-2,-1,-6,1,1,-24,-4
1537912291394343,-8,-9,-10,11,12,11,-3,-13
1537912291394343,3,1,3,13,9,-1,2,6
1537912291402321,3,3,8,0,14,-8,-2,1
1537912291402321,1,-1,1,-8,-47,-23,-3,0
1537912291411298,2,0,-4,5,1,35,12,0
1537912291411298,-4,-4,-1,-6,-17,-111,-20,5
1537912291424262,-2,-5,-14,-2,5,41,-14,-2
1537912291424262,2,3,-2,-14,5,32,10,2
1537912291433238,-1,0,-5,-4,2,-43,8,1
1537912291433238,-1,0,10,18,19,6,-3,-5
1537912291447201,-5,-7,-2,-9,-10,-49,-1,1
1537912291447201,2,0,-5,6,34,26,-2,-2
1537912291454183,-1,-6,-6,-9,-41,-7,-5,-8
1537912291454183,8,7,5,-8,21,8,10,17
1537912291471137,-5,-2,3,7,-11,-34,-5,-13
1537912291471137,0,1,8,18,0,-3,4,1
1537912291472135,1,5,6,6,18,26,8,4
1537912291472135,1,-2,-8,-2,-43,-39,-18,-7
1537912291484103,-3,-5,-14,-24,-22,47,6,1
1537912291484103,-4,-1,0,0,-27,-78,-6,-5
1537912291493078,4,3,1,-5,10,53,6,-1
1537912291493078,-3,0,0,5,1,-16,-15,1
1537912291508039,4,4,5,18,7,0,8,3
1537912291508039,-3,-3,-8,-5,28,49,2,-7
1537912291514022,-4,-3,9,2,-19,-14,-6,-1
1537912291514022,9,10,11,1,50,63,24,5
1537912291530977,-7,-8,-21,-24,-63,-64,-14,-14
1537912291530977,2,0,3,21,43,-40,0,14
1537912291531974,10,8,27,18,20,30,7,5
1537912291531974,-6,1,1,-1,-5,-29,-2,-9
1537912291543942,-7,-10,-19,10,23,1,-3,-6
1537912291543942,0,-1,-1,-10,-17,25,7,4
1537912291552918,-4,-4,-13,-23,-14,-17,-6,-2
1537912291552918,-9,-10,-20,-8,-6,-4,-8,-15
1537912291567878,11,9,14,8,47,-3,3,9
1537912291567878,-1,3,17,0,-28,26,7,0
1537912291574859,3,0,3,9,16,1,3,10
1537912291574859,-12,-10,-23,-33,-41,-3,-12,-16
1537912291590817,-1,-1,-11,6,-5,-33,-4,2
1537912291590817,3,3,8,-3,0,-7,1,1
1537912291591814,-2,1,4,5,-7,5,0,0
1537912291591814,-2,-5,0,7,24,48,7,-1
1537912291604779,2,1,0,-8,-28,6,-1,3
1537912291604779,2,1,-4,5,25,-15,-5,-4
1537912291613755,-10,-6,-5,-7,-33,10,-9,-11
1537912291613755,3,5,4,11,23,-26,6,7
1537912291635697,-3,-2,-6,-6,10,-3,-13,2
1537912291635697,-1,-4,-5,9,13,44,13,-1
1537912291637691,6,4,1,-5,-5,-26,-10,4
1537912291637691,10,12,23,5,9,19,12,9
1537912291650656,-13,-6,-2,9,8,0,-13,-9
1537912291650656,1,-4,-11,-3,13,25,-4,-2
1537912291652652,-1,3,3,-2,-3,-22,-4,0
1537912291652652,2,-2,5,1,-23,16,11,4
1537912291664619,-3,-3,-14,-19,-23,-40,7,-3
1537912291664619,-14,-15,-19,-7,16,25,-22,-15
1537912291673595,6,3,3,0,4,21,-6,0
1537912291673595,2,7,12,-5,-15,12,-6,-2
1537912291687558,-3,-4,-6,4,43,4,-8,-1
1537912291687558,-9,-13,-29,-16,-20,-14,4,-14
1537912291694540,15,10,17,6,7,-16,8,14
1537912291694540,5,13,35,21,20,19,9,8
1537912291710497,-8,-5,8,7,-15,-9,-13,-7
1537912291710497,1,-5,-6,-5,-17,-28,-4,5
1537912291712491,-2,2,-6,-9,22,29,2,-8
1537912291712491,-2,-9,-14,-4,-35,-42,-13,-3
1537912291724459,-2,3,5,4,18,39,10,0
1537912291724459,-2,2,5,-2,-14,-51,-10,-1
1537912291733435,-7,-8,-17,-7,-17,28,11,-3
1537912291733435,3,0,-10,2,20,28,6,-1
1537912291747398,0,0,4,-2,14,37,8,2
1537912291747398,6,4,8,7,24,23,4,2
1537912291754380,-1,-1,6,8,-2,-22,-3,-3
1537912291754380,-20,-17,-38,-32,1,-25,-6,-16
1537912291770337,8,3,4,6,-16,1,-13,-1
1537912291770337,6,16,29,14,25,56,13,6
1537912291772331,-5,-5,-3,9,-6,-82,-11,2
1537912291772331,-3,-1,-3,1,4,12,1,-3
1537912291784300,-2,-6,-1,-4,-12,-11,0,-1
1537912291784300,8,7,13,12,34,14,11,6
1537912291793276,-10,-7,-6,-2,-5,-15,-12,-9
1537912291793276,-1,-5,-7,-3,-31,3,-7,-2
1537912291807238,-1,0,-7,3,6,9,7,-2
1537912291807238,1,-3,-7,-15,-28,-27,1,2
1537912291814219,-6,-5,-3,-21,-6,-6,-9,-8
1537912291814219,-2,-2,-4,7,22,54,4,-1
1537912291838155,3,0,-4,-16,-8,-25,2,1
1537912291838155,-6,-4,-7,-10,-15,1,1,-6
1537912291840150,2,1,11,23,-8,40,14,0
1537912291840150,6,7,21,-2,-44,-88,-13,9
1537912291844139,-9,-9,-10,9,12,24,3,-10
1537912291844139,-2,-7,-11,-10,5,14,0,-1
1537912291853116,2,4,13,-17,-49,-39,-1,4
1537912291853116,5,5,6,4,18,13,2,5
1537912291868075,-6,-6,-6,11,-8,-19,-18,-1
1537912291868075,-1,0,-9,-13,-30,-31,-10,-7
1537912291874060,-1,0,-1,7,21,72,6,2
1537912291874060,0,-1,5,0,-9,7,-2,-1
1537912291891014,-8,-3,-12,-15,3,-35,-10,-6
1537912291891014,-10,-8,-20,-4,4,6,-4,-4
1537912291892012,-2,-6,-25,-11,9,-37,-8,-5
1537912291892012,10,9,15,9,34,40,11,9
1537912291904978,8,15,32,10,-1,15,10,3
1537912291904978,-14,-13,-14,1,-3,-27,-10,-9
1537912291912955,11,3,16,6,-20,-20,1,5
1537912291912955,7,11,22,20,17,15,11,10
1537912291927915,-4,-8,-1,2,6,5,-4,-1
1537912291927915,0,2,-4,-7,18,28,4,2
1537912291933899,-12,-15,-24,0,4,-37,-5,-12
1537912291933899,-9,-10,-19,-19,-18,5,-13,-10
1537912291950854,1,2,-1,-17,-4,-49,-11,-4
1537912291950854,-3,-2,-1,7,-7,-17,1,6
1537912291951852,0,-3,-13,-11,-7,5,-10,-8
1537912291951852,0,3,7,7,-11,-2,1,0
1537912291964817,5,3,-2,-4,6,38,17,7
1537912291964817,5,1,7,7,-15,-27,1,-2
1537912291972796,7,13,33,19,34,24,9,17
1537912291972796,1,-1,2,2,-9,-27,-2,-3
1537912291987755,-8,-6,-11,1,-14,5,-2,-7
1537912291987755,4,2,-2,4,1,3,0,3
1537912291994737,-1,0,-7,-10,1,23,5,-1
1537912291994737,-7,-7,-12,-8,4,4,-6,-5
1537912292010694,1,-1,-1,-1,3,4,1,2
1537912292010694,1,3,7,-2,-3,-15,-4,-2
1537912292012689,-1,0,2,-1,1,8,-1,1
1537912292012689,-4,-7,-10,-9,2,-11,1,-5
1537912292024657,3,3,2,2,-9,-5,3,1
1537912292024657,-3,1,7,-1,-10,-4,-2,-3
1537912292033633,-3,-3,-7,-2,2,6,-1,-2
1537912292033633,3,-2,-1,-1,5,-1,0,0
1537912292047595,1,1,4,-1,-3,6,3,-1
1537912292047595,0,-1,2,3,-1,5,-3,-1
1537912292054577,-2,-1,-1,1,8,4,2,0
1537912292054577,-3,-4,-6,-4,-6,-10,-6,-3
1537912292070534,-1,-1,0,-3,-6,-2,-1,0
1537912292070534,-1,-5,-7,-7,-1,0,1,-2
1537912292072529,3,0,3,9,-1,-4,-1,1
1537912292072529,2,4,5,-8,-4,15,3,1
1537912292084497,-3,-1,-2,2,-3,-4,-2,-2
1537912292084497,-2,1,0,-3,-4,8,-3,-1
1537912292093473,-1,1,-4,-4,0,9,-3,2
1537912292093473,-4,-2,-7,1,4,5,-4,-7
1537912292107436,1,3,0,-1,1,4,3,2
1537912292107436,-3,0,1,2,1,8,3,-1
1537912292114417,-2,-3,-2,-2,-3,-18,3,-1
1537912292114417,-3,-3,-2,-3,-9,-9,-7,2
1537912292130374,2,1,2,-1,-1,3,0,0
1537912292130374,0,-1,1,0,-2,-2,-3,-1
1537912292132369,-2,-1,-1,-2,4,10,2,-3
1537912292132369,0,-3,0,1,-8,-5,3,2
1537912292144337,-2,-1,-2,0,-1,-4,0,-2
1537912292144337,1,0,1,1,-4,-6,-2,1
1537912292153313,0,1,2,0,-4,3,3,-1
1537912292153313,0,-1,-2,0,3,-6,0,-2
1537912292167276,-2,-2,-2,1,1,2,-1,-2
1537912292167276,0,-2,1,-2,-3,-3,-1,1
1537912292174257,-1,-1,-2,-1,0,0,-2,-1
1537912292174257,-1,-2,-2,0,1,-5,-1,-2
1537912292191212,0,0,0,-3,-3,-4,-3,-1
1537912292191212,2,0,-2,-2,0,-3,2,0
1537912292192209,1,1,1,-1,2,2,-1,-3
1537912292192209,-2,1,-1,1,6,-4,1,0
1537912292204178,-1,-1,0,0,9,26,3,-2
1537912292204178,0,-3,-1,-1,-4,-22,-1,1
1537912292213153,-5,-1,-1,1,1,7,-4,-2
1537912292213153,0,-1,-3,1,8,-4,0,1
1537912292228113,1,-1,-1,1,-5,-3,0,2
1537912292228113,0,4,1,1,-2,4,-1,-1
1537912292234097,0,-1,1,-1,-4,3,3,1
1537912292234097,-4,-1,-3,-1,-1,3,-3,-3
1537912292251052,-1,-1,1,0,-6,-10,-2,-1
1537912292251052,0,-1,-1,-1,-1,8,0,2
1537912292252049,2,2,-1,1,2,-2,1,0
1537912292252049,-1,-3,-1,-1,-4,-4,-5,1
1537912292264017,-3,-1,-3,-1,2,6,0,-3
1537912292264017,-1,-1,-3,0,-2,-1,-2,0
1537912292272994,0,-1,-1,-1,1,12,1,-1
1537912292272994,1,0,3,-1,0,-13,-4,1
1537912292287954,-3,-2,-5,-3,2,5,-9,-7
1537912292287954,0,-2,0,-2,-5,-17,-6,0
1537912292293938,-1,1,0,1,0,6,0,0
1537912292293938,-2,-3,-2,-1,-6,-2,4,2
1537912292309894,1,0,2,2,-2,-10,3,3
1537912292309894,0,0,0,-1,3,9,-1,-2
1537912292316876,0,-3,-3,-2,-2,-4,-3,-3
1537912292316876,0,2,0,-3,-1,-10,-1,-1
1537912292324854,0,0,1,0,-1,-4,2,2
1537912292324854,1,-1,1,-1,-4,1,3,-1
1537912292333830,-2,-1,1,-1,6,8,-1,-2
1537912292333830,-1,-2,0,-1,-1,2,2,-2
1537912292347793,2,2,0,-1,-1,5,2,0
1537912292347793,-1,-2,-1,-3,1,-16,-8,-2
1537912292354775,-1,1,0,1,-9,-7,0,2
1537912292354775,-3,-3,-3,0,4,9,1,-1
1537912292369735,-1,-2,-3,-1,-3,-8,-4,-2
1537912292369735,-2,0,0,0,1,12,5,-1
1537912292376716,-1,-2,-2,-1,-2,-2,-7,-3
1537912292376716,2,2,1,-4,-3,-23,1,4
1537912292393671,0,-1,1,2,0,4,-4,-6
1537912292393671,0,-2,-6,-3,-14,2,3,0
1537912292394669,-2,-4,-2,-2,8,2,-1,-1
1537912292394669,1,1,0,1,-11,-3,-2,-3
1537912292407634,-1,-4,-3,-2,5,-1,-3,-2
1537912292407634,1,0,0,-2,-1,1,3,5
1537912292414614,1,2,4,0,-5,2,3,2
1537912292414614,0,-3,-2,-1,9,20,3,-5
1537912292430572,-7,-1,-2,0,-4,12,1,-7
1537912292430572,-4,-3,-4,-3,2,-26,-11,-4
1537912292436556,4,5,9,3,7,10,6,6
1537912292436556,-2,-2,0,-1,4,7,-6,-4
1537912292453511,-3,-4,-7,-2,-5,-13,-6,-7
1537912292453511,-1,0,1,0,1,23,8,-2
1537912292454508,-2,0,-2,-5,7,-38,-15,1
1537912292454508,-4,-3,0,0,-13,6,5,1
1537912292467473,2,1,-1,-2,-25,-44,3,8
1537912292467473,-3,-4,-8,-3,13,11,-15,-11
1537912292474455,-8,-6,-9,-5,-9,-54,-15,1
1537912292474455,-5,-3,-9,-9,12,48,7,-7
1537912292490414,2,2,1,0,-5,-22,3,9
1537912292490414,12,8,16,10,-20,26,11,12
1537912292497394,-1,0,1,-11,-18,-38,-1,0
1537912292497394,-10,-6,-17,4,19,-2,-25,-15
1537912292513351,2,-3,9,-5,-4,27,-2,-6
1537912292513351,21,28,45,11,-15,-8,10,24
1537912292514349,-1,1,16,26,-11,71,13,1
1537912292514349,-10,-7,-10,-4,-17,-96,-29,-5
1537912292527314,-8,-9,-25,-6,8,33,2,-12
1537912292527314,-9,-11,-24,5,48,35,-11,-27
1537912292534296,-1,-10,-18,-30,-3,-65,2,19
1537912292534296,15,14,5,-15,-26,-1,-3,-6
1537912292550252,-6,-4,5,6,-27,-65,-21,-3
1537912292550252,-9,1,-12,-16,33,22,18,1
1537912292557233,-7,-10,3,21,-1,11,-6,-17
1537912292557233,14,7,15,3,-27,-4,-2,19
1537912292573191,8,11,18,14,73,37,14,13
1537912292573191,-1,0,14,-1,-22,7,-5,3
1537912292574189,-19,-9,-11,-3,-4,-40,-14,-19
1537912292574189,-2,-4,-3,6,17,33,8,4
1537912292587154,8,2,9,-5,-26,-28,6,3
1537912292587154,-12,-12,-12,-5,-21,-26,-25,-5
1537912292594135,-1,-2,-16,-12,8,11,-8,-8
1537912292594135,-3,-3,-8,-9,14,-16,2,-3
1537912292610092,-5,-5,-19,-2,15,32,-3,-9
1537912292610092,-13,-14,-24,-21,15,-2,6,-8
1537912292617074,20,11,4,1,-2,15,11,9
1537912292617074,1,5,25,10,-26,14,-3,-8
1537912292633031,-7,4,4,1,27,28,-3,9
1537912292633031,-2,-8,-27,-13,10,32,13,-9
1537912292635026,10,10,25,0,-20,20,-3,2
1537912292635026,-2,3,7,-8,11,-26,14,-2
1537912292647992,1,-7,7,17,-23,-1,-3,3
1537912292647992,-9,0,17,15,-18,-1,0,-6
1537912292653976,-6,-12,-21,0,-4,-14,4,-4
1537912292653976,19,8,5,2,-4,-8,2,19
1537912292669933,-1,5,11,-5,-40,1,2,2
1537912292669933,-5,-10,-15,2,-2,-44,-7,-5
1537912292676914,-7,-2,-4,1,30,43,-4,-7
1537912292676914,-3,-4,-6,-14,-44,-17,7,20
1537912292692871,1,-2,-30,-17,6,45,-7,-11
1537912292692871,11,0,3,-6,-26,16,6,0
1537912292694866,13,18,32,4,-29,-20,9,10
1537912292694866,-13,-10,1,32,92,89,19,-10
1537912292707831,-4,-9,-14,-41,-71,-89,-18,-4
1537912292707831,-8,-1,-18,-8,16,12,-4,-7
1537912292714813,9,-1,4,5,9,1,2,0
1537912292714813,2,5,6,-11,-6,-28,-1,3
1537912292729772,3,0,4,12,14,18,13,4
1537912292729772,4,2,27,37,7,-20,-7,5
1537912292736753,-10,-2,-15,8,52,71,11,-3
1537912292736753,-6,-15,-22,9,-8,-66,-14,-13
1537912292753708,4,9,28,-4,-1,24,-1,12
1537912292753708,7,5,6,-4,5,20,12,5
1537912292754706,-5,-7,-15,-1,-7,-43,-17,-11
1537912292754706,0,5,-1,-19,-53,-38,-11,4
1537912292767671,-3,-3,-2,14,48,49,3,5
1537912292767671,5,5,-6,-9,-2,-50,-12,-3
1537912292774652,2,0,-4,-6,-12,1,7,5
1537912292774652,-2,-1,-5,-9,-9,58,8,-7
1537912292789613,-1,0,1,5,20,-48,10,-9
1537912292789613,3,4,-1,-17,-18,-81,-4,20
1537912292796594,2,-2,7,26,23,47,-4,-7
1537912292796594,-11,-6,-11,-9,17,-49,-9,-2
1537912292813549,6,-2,-1,-19,19,17,3,1
1537912292813549,6,14,40,40,-4,4,0,6
1537912292814548,-7,-5,9,13,-5,16,4,-3
1537912292814548,-1,-4,-7,4,90,104,12,2
1537912292827512,-8,-12,-18,4,-32,-45,-20,-16
1537912292827512,2,2,-3,-8,23,80,1,12
1537912292834493,5,5,-3,-23,-71,-93,-11,4
1537912292834493,-1,-2,-6,1,9,39,6,-7
1537912292850450,-1,-3,-10,-24,-44,-14,-1,2
1537912292850450,2,7,3,2,-17,-34,-1,-8
1537912292856435,-6,-5,-5,1,32,16,11,2
1537912292856435,-5,-8,-14,-14,-17,-19,-4,-4
1537912292873390,3,3,5,-4,-11,-13,2,1
1537912292873390,11,4,23,12,8,-5,-3,9
1537912292874387,1,5,13,16,11,-19,6,10
1537912292874387,-8,-7,-4,14,-16,-17,-12,-17
1537912292887351,-13,-10,-9,-1,-22,-23,-7,-4
1537912292887351,3,-3,-11,4,30,48,-2,-5
1537912292896328,-5,-5,-16,-38,-61,-47,-6,-4
1537912292896328,-2,1,-3,-4,-2,13,-5,-3
1537912292910293,0,4,6,18,33,40,7,1
1537912292910293,-3,-1,-1,-12,-26,-18,-7,-8
1537912292917272,-7,-5,-10,-7,40,27,4,-2
1537912292917272,2,-2,7,7,-27,-40,-10,-9
1537912292933230,10,12,25,17,42,48,10,14
1537912292933230,-1,-4,-3,4,10,-16,1,-12
1537912292935224,-4,-5,-13,-8,36,73,4,0
1537912292935224,2,5,14,14,-32,-4,-4,4
1537912292947192,4,8,1,-4,11,5,0,0
1537912292947192,-12,-16,-22,-10,-21,17,2,-7
1537912292956168,7,5,7,-1,-4,3,-10,-4
1537912292956168,6,6,10,15,59,35,6,6
1537912292970130,-8,-10,-14,-14,-62,-89,-12,-2
1537912292970130,0,-1,-2,-2,-22,-9,-11,1
1537912292977111,-5,-4,-5,-5,-10,2,9,-3
1537912292977111,-9,-7,-16,-28,-7,-3,-22,-11
1537912292993068,-2,-2,3,8,5,-2,3,-3
1537912292993068,2,3,9,-2,17,-2,13,3
1537912292995063,4,0,3,6,21,33,-8,5
1537912292995063,0,0,-1,-4,27,22,15,3
1537912293007031,-7,-2,-8,3,-11,13,-4,-5
1537912293007031,-8,-9,-7,2,-8,-8,-7,-9
1537912293016007,5,7,13,11,-7,-7,8,10
1537912293016007,4,3,5,1,-9,5,3,2
1537912293029969,-2,-4,-5,0,31,23,0,-3
1537912293029969,-8,-8,-14,1,-29,-5,-5,-1
1537912293036951,0,0,-5,-20,16,-4,-8,-3
1537912293036951,-2,0,1,4,0,21,5,5
1537912293052909,4,5,6,4,-37,-73,-9,-1
1537912293052909,1,7,11,7,-1,-1,-5,4
1537912293058893,1,-1,-1,-4,1,17,5,-1
1537912293058893,0,-3,-1,-2,-16,-22,1,3
1537912293066871,-3,-5,-8,-9,-10,58,2,1
1537912293066871,5,3,1,-2,-3,-27,5,2
1537912293075847,-8,-5,-12,-7,-12,-25,-9,-9
1537912293075847,0,-3,4,12,11,32,-4,-1
1537912293089809,1,1,11,8,6,-10,1,0
1537912293089809,-4,-1,-1,-6,3,9,-4,1
1537912293096791,-4,-5,-5,-1,-16,1,0,-4
1537912293096791,0,4,2,2,-11,-2,2,0
1537912293112748,-5,-3,-9,-3,1,-12,-1,-5
1537912293112748,-7,-8,-13,-12,-10,-9,-8,-8
1537912293114744,3,1,5,4,-2,38,13,2
1537912293114744,0,1,0,-11,-36,-51,-6,0
1537912293126711,1,4,6,3,6,0,-8,-3
1537912293126711,-1,-3,-1,-2,9,0,6,2
1537912293135687,-2,1,5,8,-1,-7,-13,-4
1537912293135687,1,-3,-1,-1,-29,-19,7,2
1537912293149650,-2,-3,-7,-5,14,33,-2,-5
1537912293149650,-3,-2,-5,-6,-14,-38,-10,-8
1537912293156631,0,-4,-1,-1,4,15,0,2
1537912293156631,-1,-1,0,2,9,-2,0,0
1537912293180567,0,1,1,-1,9,15,4,0
1537912293180567,-3,-2,-3,-2,14,32,1,-1
1537912293182562,0,-1,2,2,-1,-13,3,-1
1537912293182562,3,1,2,2,0,3,-1,4
1537912293186551,-1,-2,1,3,2,4,2,-3
1537912293186551,-5,-5,-4,-6,-2,1,-1,-1
1537912293195527,-1,-1,-1,-4,-4,-18,-7,1
1537912293195527,-1,-1,1,-1,-2,10,-3,-5
1537912293210487,1,-1,-2,2,9,10,5,3
1537912293210487,-3,-3,-2,-1,4,1,0,-3
1537912293216471,-1,-1,0,-1,-8,-10,-5,-2
1537912293216471,2,0,2,1,5,2,6,2
1537912293232428,-4,-3,-2,-3,1,-1,-3,-7
1537912293232428,0,-1,-1,-1,1,5,2,2
1537912293239410,3,2,2,2,-5,-11,-2,-3
1537912293239410,-2,-2,-1,-1,1,3,-2,0
1537912293246391,0,1,-1,0,16,-8,-3,0
1537912293246391,0,-4,-2,0,0,16,4,5
1537912293255367,0,1,1,1,-3,-13,0,-3
1537912293255367,-3,-2,-1,-1,-3,-54,-19,-3
1537912293269330,3,3,3,1,0,6,5,4
1537912293269330,-1,0,0,1,8,12,4,-3
1537912293278306,-2,-3,0,-2,-17,-10,-7,-5
1537912293278306,1,-1,0,2,5,16,11,5
1537912293292268,-2,-3,-1,0,-11,-4,-5,-1
1537912293292268,0,1,0,-2,2,-8,-1,2
1537912293299249,-2,-1,-3,-1,-4,-3,2,2
1537912293299249,1,1,1,1,-1,11,3,-2
1537912293315207,0,-1,-2,-3,-2,-1,-4,0
1537912293315207,-1,1,-1,-2,-1,1,2,-1
1537912293316204,-2,-1,-1,-2,5,-2,-4,-2
1537912293316204,-2,1,-1,-1,1,3,0,-1
1537912293331165,1,-2,-1,1,5,0,1,-1
1537912293331165,-1,-2,-1,-2,-4,-5,-5,0
1537912293337148,-1,0,-2,-2,0,4,1,-2
1537912293337148,0,-1,0,0,0,3,-1,-1
1537912293352108,0,0,-2,-1,-5,0,2,-1
1537912293352108,-1,-2,-2,-2,-2,-2,-1,-4
1537912293359090,-2,-1,-2,0,-1,4,-4,-2
1537912293359090,0,-1,0,-1,-1,2,4,1
1537912293375047,-3,-2,-3,-3,0,0,-10,-5
1537912293375047,-1,-3,-2,-1,-3,-4,0,2
1537912293376044,-1,-2,1,-1,0,-5,-4,-1
1537912293376044,0,0,0,1,-1,10,4,-1
1537912293391004,-2,0,-1,0,0,1,0,-3
1537912293391004,-1,0,0,-1,-2,-10,-3,2
1537912293396988,2,-3,-1,-3,-2,-2,-3,0
1537912293396988,0,2,-1,0,-4,7,0,-3
1537912293411948,-1,-1,1,2,2,-5,2,0
1537912293411948,0,-1,-3,-1,-2,4,-8,-5
1537912293418930,-2,-3,-2,0,13,-4,2,1
1537912293418930,-1,-1,-4,-1,3,-9,-8,-2
1537912293434887,-1,0,0,-2,0,3,3,1
1537912293434887,0,1,-1,-1,1,-2,-1,-2
1537912293435885,0,-2,2,0,0,5,3,3
1537912293435885,0,0,0,-1,-1,1,0,-3
1537912293450844,-3,-2,-1,0,0,-1,-2,2
1537912293450844,0,0,-1,-1,2,0,-1,-1
1537912293456828,-1,1,-3,-2,-6,0,-2,0
1537912293456828,-1,-1,-1,0,3,-5,4,0
1537912293471789,2,-2,0,-1,-3,3,2,0
1537912293471789,0,-2,0,-1,-3,-4,0,0
1537912293479767,-2,0,0,-1,-2,0,1,-1
1537912293479767,-2,-3,-4,-3,-6,0,-4,-1
1537912293494727,0,-2,0,0,3,1,-5,-1
1537912293494727,3,1,-1,-3,-4,-13,-1,-3
1537912293495724,-2,-1,-2,0,-1,0,0,0
1537912293495724,2,0,4,1,2,10,2,0
1537912293510685,-2,-3,-3,-2,-2,-19,-3,-3
1537912293510685,1,-2,0,1,-5,-1,1,1
1537912293516668,-2,0,-2,-1,-1,-4,-2,-3
1537912293516668,1,-1,0,0,9,8,1,3
1537912293531629,1,1,-1,-1,0,-4,2,0
1537912293531629,-2,1,-1,-1,-3,0,2,-1
1537912293539608,1,-2,0,-1,-3,-5,1,-3
1537912293539608,-3,-1,-1,-1,1,5,-5,-3
1537912293554568,-2,-1,-2,-1,1,-20,-2,1
1537912293554568,-3,-4,-1,0,-3,11,1,-3
1537912293555565,0,1,0,1,2,6,4,-2
1537912293555565,-1,-2,-1,-2,-3,-6,-5,-3
1537912293570525,0,0,-1,-2,2,12,1,0
1537912293570525,-1,-3,1,-1,-3,-3,1,0
1537912293576509,-3,1,-1,-2,-3,-3,-1,2
1537912293576509,-1,-2,-1,0,-3,-2,4,0
1537912293591469,0,-1,0,-1,-5,0,-1,-1
1537912293591469,1,-1,-2,0,2,2,1,0
1537912293599448,0,-2,-2,-2,-4,1,-3,-3
1537912293599448,0,1,-1,1,-3,-8,1,0
1537912293615405,-5,-3,-4,-4,-2,16,-10,-4
1537912293615405,0,-1,0,0,6,3,2,1
1537912293615405,-1,1,-2,0,3,-3,-1,-1
1537912293615405,0,-2,0,-2,-7,-6,-2,2
1537912293630366,-2,-1,-1,2,1,6,6,1
1537912293630366,-3,0,-1,-1,5,-2,-5,-3
1537912293637347,-1,-1,0,-2,-2,12,5,3
1537912293637347,0,-2,1,-1,-2,-33,-7,0
1537912293652307,0,-1,0,-1,-23,2,4,0
1537912293652307,-1,0,1,0,1,7,1,1
1537912293659288,-2,-3,2,0,1,-2,-1,-2
1537912293659288,-4,1,-1,-3,-5,10,0,-3
1537912293675246,3,0,0,0,5,-5,2,1
1537912293675246,-3,1,-2,1,9,6,-3,-4
1537912293676243,0,-1,-2,-2,-5,-2,-5,-3
1537912293676243,1,0,1,1,0,2,2,1
1537912293691204,-1,2,0,0,4,1,-2,-1
1537912293691204,1,-1,1,2,0,1,1,2
1537912293697186,-3,0,0,-2,-6,4,-1,-2
1537912293697186,-5,-5,-5,-3,-3,-15,-9,-5
1537912293712146,-3,-2,-1,-2,-4,-5,-3,-3
1537912293712146,-2,-1,-3,-1,-3,-2,-2,-2
1537912293719127,0,1,0,1,1,-1,2,0
1537912293719127,0,0,-3,-1,0,5,2,-1
1537912293735085,0,0,-1,-1,2,2,1,0
1537912293735085,0,1,0,-3,-7,-11,-5,-2
1537912293736083,-3,-4,-4,-2,14,13,-2,-5
1537912293736083,-3,0,-1,-3,-4,12,1,-3
1537912293751042,1,0,2,3,6,-8,0,2
1537912293751042,1,-2,0,-1,5,9,2,0
1537912293757026,1,-1,1,1,-6,-16,0,3
1537912293757026,-4,-1,-2,-4,-1,7,-5,-5
1537912293771986,0,-1,0,2,13,1,-3,-1
1537912293771986,-1,-2,0,-2,-1,-7,-3,-1
1537912293778968,-2,-3,-2,-2,-13,-8,-5,-2
1537912293778968,-1,-1,1,3,6,-3,3,1
1537912293794925,-1,0,-1,-1,-8,-7,-4,-2
1537912293794925,-1,0,-2,-4,-5,2,2,-1
1537912293795923,1,0,0,0,4,-3,-1,0
1537912293795923,-1,-1,0,0,-3,0,2,1
1537912293810883,-2,-1,-1,0,1,12,4,0
1537912293810883,-1,-3,0,1,-4,-16,3,0
1537912293816866,-3,-1,0,-1,-4,-11,-7,-4
1537912293816866,-2,1,0,-1,0,7,1,1
1537912293831827,1,0,-1,-2,1,4,1,1
1537912293831827,-2,-1,-1,0,1,2,-1,-3
1537912293839806,-1,-2,-1,0,-2,0,0,2
1537912293839806,0,0,0,1,0,-1,1,-1
1537912293854766,-3,-2,-1,0,-4,-1,-2,-1
1537912293854766,-1,1,-4,-2,-3,2,-3,2
1537912293855764,0,-1,0,-1,2,1,1,-1
1537912293855764,-1,-2,-1,0,0,-2,-2,1
1537912293870724,1,0,0,0,4,1,3,0
1537912293870724,-4,-2,-1,-2,-13,-4,-5,-3
1537912293876708,0,0,-1,-2,0,1,-1,-2
1537912293876708,1,3,0,1,4,-3,1,2
1537912293891668,-2,-2,-2,-4,-7,7,2,-2
1537912293891668,0,1,-2,-1,-5,-8,-2,0
1537912293899646,0,-1,1,3,10,18,-3,3
1537912293899646,-5,-7,-6,-8,-13,0,-1,-7
1537912293914607,1,0,1,0,-3,-13,-5,0
1537912293914607,0,0,0,3,5,12,8,3
1537912293915605,-3,0,-2,-1,-1,-13,-19,-8
1537912293915605,1,0,1,0,3,5,3,2
1537912293930563,1,-1,0,0,-1,-9,-3,1
1537912293930563,-1,-3,0,-2,-2,-3,1,0
1537912293936548,-1,-1,-1,0,-1,2,5,0
1537912293936548,-3,-2,1,2,1,6,-1,-1
1537912293951507,-2,1,-3,-1,-2,-2,-3,-2
1537912293951507,-1,-2,0,2,18,6,2,3
1537912293959487,-1,1,-2,-2,0,-4,-1,-3
1537912293959487,3,0,3,1,-14,-15,-4,2
1537912293975442,-3,-2,-3,-3,-1,6,-2,0
1537912293975442,-1,1,0,-2,-3,5,-6,-3
1537912293975442,-3,-3,-3,-2,4,12,11,0
1537912293975442,-3,-3,-5,-5,-17,-20,-7,-4
1537912293990402,2,1,2,4,14,33,5,1
1537912293990402,-2,-1,-1,-4,-21,-64,-8,1
1537912293996386,2,-2,-1,-1,-4,19,1,-1
1537912293996386,0,-1,2,5,7,20,3,1
1537912294012343,-4,-4,-3,-4,-2,-2,3,-2
1537912294012343,0,-2,-4,-4,2,18,1,-1
1537912294019325,1,0,-1,1,0,-7,4,3
1537912294019325,-1,-1,-2,0,2,-15,3,0
1537912294035282,-5,0,-1,0,-2,11,-6,-4
1537912294035282,1,1,1,0,1,5,-3,2
1537912294036280,-1,-1,1,0,-2,-17,0,1
1537912294036280,1,2,1,0,9,17,6,-2
1537912294051240,-7,-4,-7,-7,-11,-6,-15,-7
1537912294051240,0,0,-1,0,-1,3,3,1
1537912294057224,-1,-1,1,0,4,-3,0,2
1537912294057224,2,0,-1,2,8,-7,-1,1
1537912294080163,-1,-3,-1,-4,-4,3,5,-2
1537912294080163,-1,-1,-3,-2,-4,-11,-3,-6
1537912294081160,-2,0,0,1,0,17,-2,1
1537912294081160,1,1,2,-1,1,-7,-1,-1
1537912294095123,4,1,1,4,15,4,1,3
1537912294095123,-5,-3,-3,0,-2,-10,-3,-5
1537912294096120,1,0,0,-3,-14,2,3,-1
1537912294096120,-2,-2,-3,-2,-9,-6,-5,-1
1537912294111081,1,1,0,3,1,-4,4,3
1537912294111081,-1,-1,-1,-1,3,13,3,-2
1537912294117064,-1,0,-1,-1,-4,-4,-1,1
1537912294117064,1,0,-1,-1,5,8,1,1
1537912294132024,-1,-1,0,-2,-7,-15,-3,-2
1537912294132024,0,1,0,0,3,8,-2,-3
1537912294147983,-2,-1,2,-1,-8,-19,1,-1
1537912294147983,1,0,0,0,9,21,0,-2
1537912294153967,1,0,-1,1,4,-31,-2,2
1537912294153967,0,-1,-1,0,-3,11,3,3
1537912294161947,-2,-3,-2,1,4,-6,-7,-4
1537912294161947,4,3,2,2,1,-2,-3,6
1537912294170920,-2,0,0,-2,-17,-11,-1,-5
1537912294170920,0,-1,0,4,5,7,3,2
1537912294176905,2,1,1,2,15,24,10,7
1537912294176905,-6,-5,-6,-9,-25,-46,-16,-6
1537912294199843,0,0,1,3,2,-40,-15,-2
1537912294199843,3,2,2,-1,-7,9,0,3
1537912294200840,1,1,-2,-4,-6,-11,1,-5
1537912294200840,-3,-1,-2,0,9,19,0,-2
1537912294214802,0,1,1,1,2,8,11,1
1537912294214802,-5,-5,-2,-2,0,-4,-9,-3
1537912294221784,3,2,2,7,8,-7,-3,4
1537912294221784,0,0,-2,2,8,10,11,1
1537912294230760,-1,-4,-2,-8,-20,-6,-2,-1
1537912294230760,-5,-4,-5,-6,11,19,-15,-9
1537912294236744,2,2,1,2,2,6,8,3
1537912294236744,-1,-1,-3,-2,8,5,2,-1
1537912294251703,-1,0,0,3,1,12,3,3
1537912294251703,1,1,2,-2,-10,-33,3,1
1537912294259682,-3,-1,-4,-5,-2,18,-7,-5
1537912294259682,-2,-2,1,1,-2,-32,-7,-1
1537912294274642,0,2,-2,2,12,9,5,1
1537912294274642,1,0,3,0,-1,14,11,2
1537912294281623,0,-1,1,1,4,-3,-5,-5
1537912294281623,-2,-3,-3,-3,-7,11,1,3
1537912294297581,0,-1,-4,-2,0,7,-9,-2
1537912294297581,-2,-1,0,1,4,-8,-5,-4
1537912294298578,-4,-3,-2,-5,-5,-9,-5,-2
1537912294298578,0,-3,0,0,-3,-3,0,2
1537912294311544,1,1,1,3,9,9,11,4
1537912294311544,-7,-5,-6,-6,-17,-21,-24,-12
1537912294319522,-1,-3,-2,-4,-7,13,4,0
1537912294319522,1,0,0,-1,-1,1,2,-1
1537912294334483,-1,-3,0,-2,-2,1,7,0
1537912294334483,-3,0,-1,1,4,6,-8,-3
1537912294341465,-4,-2,-3,-1,-8,-5,3,1
1537912294341465,-4,-1,-5,-3,6,-4,-11,-6
1537912294357422,0,-1,0,-1,-4,3,7,2
1537912294357422,4,0,2,1,3,8,8,3
1537912294358420,-1,-1,-1,-4,-10,-26,-6,0
1537912294358420,0,-1,0,1,2,14,8,0
1537912294372382,-2,-3,-2,-3,-2,-1,-7,-1
1537912294372382,0,-1,-2,0,0,7,7,-1
1537912294379364,-2,-2,-3,-1,2,-6,-9,-7
1537912294379364,0,1,0,0,-5,-1,3,5
1537912294394324,4,4,4,1,2,5,-2,0
1537912294394324,1,1,2,3,7,12,8,2
1537912294402302,2,0,0,2,0,11,8,3
1537912294402302,-1,-2,-1,-3,0,13,8,0
1537912294417262,-1,1,1,5,16,-1,-22,-8
1537912294417262,1,0,-3,-4,-1,13,10,6
1537912294418259,1,2,-2,-1,-3,-5,-2,1
1537912294418259,-2,0,-1,0,1,7,-6,-3
1537912294432221,0,-5,-2,-3,-6,-2,2,-3
1537912294432221,-2,0,2,4,7,-5,1,-1
1537912294439203,-4,-4,-4,-7,-17,-25,-20,-9
1537912294439203,-2,-1,-1,-1,-6,-3,2,-1
1537912294454162,-1,-1,-1,-2,-2,-4,0,1
1537912294454162,-2,-4,-1,-2,-5,-8,-4,-1
1537912294462141,-5,-2,-2,-3,6,20,7,-8
1537912294462141,4,-1,-1,-3,-3,-27,-18,1
1537912294477101,-2,-1,-1,-3,-6,-5,2,-4
1537912294477101,-3,-1,0,-1,3,8,2,2
1537912294478098,0,-1,0,-3,-4,-16,0,3
1537912294478098,-2,-3,0,1,-11,3,-3,-2
1537912294492061,-1,-1,-4,-1,0,7,7,-1
1537912294492061,2,0,1,-2,0,16,1,4
1537912294499042,-1,0,0,1,1,-3,2,0
1537912294499042,-1,0,2,-1,2,1,-19,-9
1537912294514002,-1,-3,-3,-4,-8,-21,2,2
1537912294514002,1,-1,0,2,1,6,2,-2
1537912294521981,-1,0,1,2,10,16,3,2
1537912294521981,3,2,1,2,5,6,8,6
1537912294537938,-4,-1,-1,-2,5,-12,-12,-8
1537912294537938,0,0,-3,-3,-4,-13,-6,-2
1537912294537938,0,-1,0,1,1,2,-1,0
1537912294537938,-1,-2,-2,-2,-6,-25,-1,-2
1537912294551901,0,-1,-2,0,-4,12,3,1
1537912294551901,1,1,-1,0,-5,-16,2,4
1537912294558882,-1,-1,-1,-3,5,17,-5,-4
1537912294558882,0,-2,1,4,4,0,4,-2
1537912294573842,-3,-1,0,-2,2,7,0,1
1537912294573842,0,-1,-2,-2,-2,-8,0,-2
1537912294581821,-4,-1,-1,0,-3,3,1,-1
1537912294581821,1,0,0,-1,-1,-20,0,4
1537912294597779,-1,-2,-3,-3,-5,-6,-12,-7
1537912294597779,-2,-1,-1,-3,-8,3,3,-2
1537912294597779,1,-2,0,1,3,14,2,3
1537912294597779,-2,-2,-3,-4,-3,-29,-7,-4
1537912294611741,3,3,2,4,-1,5,6,3
1537912294611741,-1,0,0,0,2,-3,-8,-4
1537912294619720,2,-1,1,2,5,-3,11,3
1537912294619720,-4,-3,-3,-6,-21,4,-14,-9
1537912294634680,0,-1,-1,-2,-7,6,9,6
1537912294634680,-2,-2,-2,-2,-3,-16,-9,-7
1537912294642659,0,1,-1,0,8,3,5,1
1537912294642659,0,0,-1,1,2,15,7,2
1537912294657618,0,-2,-1,-1,0,-2,3,0
1537912294657618,-2,-1,1,0,-7,3,2,-1
1537912294658616,0,0,-3,-2,-3,-20,-10,0
1537912294658616,-1,0,1,2,17,20,13,4
1537912294671581,-3,0,-3,-2,-6,-7,-8,-4
1537912294671581,3,0,0,2,4,0,3,-1
1537912294679560,-2,-2,-1,-3,-9,-14,-14,-4
1537912294679560,0,1,-1,-2,-5,-13,-2,0
1537912294694520,0,-1,0,1,3,21,4,3
1537912294694520,-2,-2,-2,2,12,-13,-5,-1
1537912294702498,-1,1,-1,-5,-27,-39,-13,-1
1537912294702498,3,-1,-2,-2,2,19,8,4
1537912294717459,1,-1,1,0,3,10,5,-2
1537912294717459,-3,-2,-3,-4,-14,-27,-10,-6
1537912294718456,-2,-1,0,2,6,25,1,-3
1537912294718456,1,2,1,3,9,12,10,5
1537912294732419,-1,-2,0,-2,-1,5,-2,3
1537912294732419,0,0,-1,-3,0,9,3,-1
1537912294739400,2,-1,-1,0,3,1,4,-1
1537912294739400,-3,-1,-2,-3,-6,-1,-6,-5
1537912294754360,0,0,2,2,7,8,2,0
1537912294754360,-3,-2,0,-1,-2,9,-3,1
1537912294762339,-3,-2,-3,-5,-11,-12,-5,-1
1537912294762339,-1,-1,-3,-1,-3,2,2,-4
1537912294777299,0,-3,0,-1,4,-6,-7,1
1537912294777299,2,0,-1,-1,0,12,2,-1
1537912294778296,0,2,0,1,-7,-33,-2,2
1537912294778296,-4,-2,-2,-4,-3,15,1,-1
1537912294792259,0,2,0,0,-3,0,2,2
1537912294792259,-1,0,0,1,3,-17,-6,-5
1537912294799240,2,-1,1,2,3,20,7,5
1537912294799240,0,-1,-3,-3,-10,-34,-22,-8
1537912294814200,-3,-1,-2,0,-2,-6,-1,-1
1537912294814200,0,0,-1,-1,3,9,4,3
1537912294822179,0,-1,0,2,1,-2,4,-2
1537912294822179,-4,-3,-3,-3,-2,-19,-18,-6
1537912294837138,0,-2,-3,-1,-7,-10,0,0
1537912294837138,0,1,0,-1,-2,-6,-2,1
1537912294838136,-2,-4,0,-1,5,16,1,-3
1537912294838136,0,0,1,2,-1,1,5,3
1537912294852099,0,0,-2,-3,1,3,-2,-4
1537912294852099,0,-3,-1,-2,-9,0,3,2
1537912294859080,-2,-2,-1,-2,4,13,5,-2
1537912294859080,-2,-2,-2,-3,-13,5,-2,-2
1537912294874040,-3,-1,-2,-2,-1,-25,-21,-10
1537912294874040,-1,1,-2,0,2,1,5,2
1537912294883016,2,0,1,2,-2,-3,-3,1
1537912294883016,1,0,0,2,7,6,6,4
1537912294897976,-4,-1,-2,-4,-10,10,9,-4
1537912294897976,-5,-4,-5,-7,-7,-18,-15,-1
1537912294897976,1,-2,0,1,2,-1,-4,0
1537912294897976,1,0,0,0,-1,5,4,3
1537912294911939,-2,-1,2,0,0,0,3,-1
1537912294911939,1,0,0,2,6,7,2,1
1537912294918920,0,-2,-2,-1,-3,-1,1,0
1537912294918920,-1,-1,1,0,-3,2,2,2
1537912294933880,-1,-2,-1,0,0,0,2,0
1537912294933880,-3,-2,1,-1,0,10,2,0
1537912294942856,-4,0,-1,-2,-1,3,3,1
1537912294942856,-2,0,0,0,5,1,-10,-7
1537912294957816,0,-1,0,1,0,-16,-3,-1
1537912294957816,-1,-2,-3,-3,0,16,3,-3
1537912294957816,-3,-4,-4,-2,-1,-18,-14,-6
1537912294957816,2,1,2,2,1,5,10,6
1537912294971779,0,-4,-1,-2,-5,-2,-2,1
1537912294971779,-2,-4,-2,0,4,8,-9,-6
1537912294979758,-1,1,-1,-2,-1,-19,-5,-1
1537912294979758,3,0,0,0,7,2,4,4
1537912294994718,0,-1,-3,-1,0,2,2,2
1537912294994718,0,-2,0,-1,-4,-5,2,3
1537912295002697,0,-1,0,-2,-2,6,1,0
1537912295002697,0,-2,0,0,-3,-4,2,-2
1537912295017656,-1,-1,0,0,-3,-1,-2,0
1537912295017656,-2,0,-2,-1,0,-5,-6,-5
1537912295018654,-1,0,1,-1,-1,1,0,0
1537912295018654,-1,-3,-2,-1,-3,1,0,-2
1537912295033614,1,0,-1,-1,4,6,-2,0
1537912295033614,-1,-3,-3,-1,-4,-4,-3,-1
1537912295039598,-1,-1,-2,1,-4,-3,-2,-2
1537912295039598,-2,-3,-2,-1,3,22,0,-1
1537912295054559,0,2,1,1,12,3,11,3
1537912295054559,-6,-3,-5,-10,-37,-31,-21,-7
1537912295062537,0,-3,-1,0,17,11,-5,-6
1537912295062537,1,-1,0,-3,-2,-8,5,4
1537912295076499,-1,-1,-1,0,4,-4,0,-1
1537912295076499,-1,-1,0,1,5,21,16,3
1537912295085475,-2,0,-3,-2,-5,1,-3,-2
1537912295085475,-3,0,-4,-3,-9,-21,-13,-11
1537912295091459,-1,-2,2,-1,-2,1,0,-1
1537912295091459,2,2,1,3,11,7,8,2
1537912295099438,-1,-1,0,-2,-8,-10,-3,3
1537912295099438,-1,0,1,2,2,-9,4,2
1537912295114399,-1,1,0,-1,-4,4,-6,0
1537912295114399,0,1,0,1,3,-1,2,0
1537912295122378,-2,-2,-2,0,4,17,2,-4
1537912295122378,-1,-1,-1,-1,3,-2,-4,1
1537912295136339,0,-2,-1,-1,-4,-1,-2,-4
1537912295136339,-2,-1,-2,-3,1,9,-4,-3
1537912295145316,2,1,0,2,2,2,6,4
1537912295145316,-3,1,-1,0,7,18,-2,-5
1537912295152297,-3,-3,-1,-2,-8,-5,-12,-7
1537912295152297,-1,-2,0,2,6,-3,4,2
1537912295159279,1,0,-2,-3,-6,-6,3,3
1537912295159279,-3,-3,0,-1,-1,-1,-15,-7
1537912295174238,1,3,0,1,0,-2,4,2
1537912295174238,0,1,0,2,8,1,5,4
1537912295182217,-3,-2,0,-2,-8,-9,-2,-3
1537912295182217,1,-2,-1,-1,-3,1,3,3
1537912295197178,0,-1,-1,-3,-9,6,-7,-2
1537912295197178,2,-1,0,0,-7,-12,-3,1
1537912295205157,-1,-1,0,2,6,10,2,2
1537912295205157,-3,0,0,-2,-4,2,-3,0
1537912295220115,-3,-3,-3,-1,-3,-15,-4,-1
1537912295220115,4,2,2,3,6,14,5,2
1537912295221113,-1,0,-5,-4,-4,6,0,-3
1537912295221113,-1,-2,-2,-1,-5,-4,1,-5
1537912295234077,1,-1,-1,0,1,-3,0,0
1537912295234077,-5,-4,-4,-4,-3,1,-13,-9
1537912295242056,1,2,0,3,0,9,3,2
1537912295242056,0,0,-3,1,-5,-25,-5,1
1537912295257017,1,0,2,-1,0,10,6,3
1537912295257017,-2,-1,1,-3,-9,-34,-8,-1
1537912295264995,-2,-2,0,0,-2,4,-7,-4
1537912295264995,1,2,-1,0,2,14,3,4
1537912295279955,0,0,0,2,5,6,-1,-2
1537912295279955,1,-1,-2,1,-4,-8,2,1
1537912295280952,-2,-1,-3,-4,-8,17,0,-2
1537912295280952,-2,0,-2,-1,0,-2,-7,-4
1537912295293918,-3,-3,-3,-1,-2,-18,-5,-1
1537912295293918,-2,-1,1,0,-3,-5,-6,-1
1537912295302893,2,-1,0,0,0,-10,2,1
1537912295302893,1,-1,0,2,4,11,9,1
1537912295316856,0,1,0,-1,-1,9,-2,-1
1537912295316856,2,2,0,1,7,14,4,1
1537912295324835,0,0,0,1,-2,-10,-2,-2
1537912295324835,-3,-2,-2,-4,-4,9,-1,-1
1537912295339795,0,0,2,1,4,0,1,0
1537912295339795,-1,0,-1,0,-4,1,3,1
1537912295340792,0,-3,0,-1,1,-14,-5,-1
1537912295340792,1,0,2,1,1,5,6,1
