timestamp,emg1,emg2,emg3,emg4,emg5,emg6,emg7,emg8
1537917106331044,3,-1,-4,-4,-9,-26,-45,1
1537917106331044,-2,-1,0,-1,4,34,73,-7
1537917106332040,-5,-4,1,-2,-5,-10,-9,-7
1537917106332040,-2,1,1,1,-6,4,-13,-4
1537917106336029,1,-1,-3,-3,3,21,8,9
1537917106336029,1,-2,1,5,19,-10,-22,-4
1537917106337027,0,3,-3,-7,-38,6,6,5
1537917106337027,-3,-1,1,-1,5,-40,-23,-10
1537917106342013,-5,-2,-4,-1,-11,6,31,0
1537917106342013,-2,-2,3,-3,-5,19,-16,4
1537917106351986,0,-1,2,9,26,9,-2,8
1537917106351986,0,0,3,7,14,-26,-12,-1
1537917106357970,9,0,-6,-14,-21,38,-9,23
1537917106357970,1,-1,-2,-4,0,-22,3,12
1537917106372930,-1,-1,0,-1,6,-58,22,-7
1537917106372930,1,1,0,4,13,118,7,-5
1537917106381907,0,-1,2,8,9,-48,-9,1
1537917106381907,5,1,-4,-5,-22,-44,-9,7
1537917106403848,-2,-2,-3,-8,-17,36,-18,-6
1537917106403848,-9,-3,-3,-3,-1,2,26,-3
1537917106404845,-2,0,1,1,5,11,1,-8
1537917106404845,-16,-1,-1,4,4,12,-9,-18
1537917106450723,3,-3,-5,-7,-18,-63,-26,6
1537917106450723,-3,-3,-2,-7,-3,78,28,-3
1537917106451720,9,0,-4,-4,-7,-17,2,14
1537917106451720,1,-1,-1,0,10,27,-12,-1
1537917106455709,-4,-2,1,-2,-5,-29,-8,16
1537917106455709,12,1,2,2,5,4,-15,3
1537917106456707,0,0,4,2,-3,-5,1,-7
1537917106456707,-4,-1,-3,-1,-1,3,7,-1
1537917106461693,-1,8,-4,-1,1,-1,12,9
1537917106461693,-13,-20,6,4,0,-12,-35,-23
1537917106469672,-3,7,1,2,3,20,22,-33
1537917106469672,13,-10,2,3,-2,-21,-10,3
1537917106478648,20,-4,-3,-1,0,14,14,22
1537917106478648,1,-4,0,4,2,-13,-6,13
1537917106492611,-11,3,-6,-10,-6,-23,-18,-22
1537917106492611,14,-19,-4,-6,-1,20,-10,9
1537917106499592,-4,19,9,7,5,11,10,3
1537917106499592,23,11,0,5,-2,0,46,30
1537917106523528,-2,-2,-1,-1,-3,-22,-52,-27
1537917106523528,-17,-5,-18,-5,-1,-1,35,8
1537917106524525,-24,-48,-9,-7,-2,26,-17,-13
1537917106524525,-35,52,17,0,-1,-13,-45,-92
1537917106536493,41,25,11,5,3,-23,-16,110
1537917106536493,-10,4,6,2,-4,17,83,-55
1537917106545469,-5,-10,-2,3,11,-22,-58,18
1537917106545469,-16,-24,-11,0,9,6,58,-34
1537917106560430,-25,-28,-2,2,3,-10,-46,-27
1537917106560430,-25,1,-5,-20,-36,-18,-103,-16
1537917106562424,10,3,0,3,4,29,120,27
1537917106562424,4,-6,-10,-11,-21,-57,-97,31
1537917106583368,6,-4,-1,2,15,37,45,-20
1537917106583368,-20,-3,-2,8,15,8,-40,-18
1537917106584366,15,14,5,3,3,30,-37,-28
1537917106584366,5,-9,6,-6,-3,-36,-26,15
1537917106596334,-10,-7,-16,-2,-5,12,67,0
1537917106596334,8,9,0,-2,-8,-90,3,5
1537917106605310,14,10,-6,-2,4,100,31,2
1537917106605310,-15,8,-1,3,5,14,30,-65
1537917106620270,-5,-34,0,-1,-10,-10,-32,26
1537917106620270,0,3,1,3,12,-4,43,5
1537917106622264,-9,5,-4,-7,-13,-10,-75,-31
1537917106622264,15,-5,-2,1,16,42,-12,1
1537917106643208,-9,16,2,1,9,11,22,-21
1537917106643208,18,1,4,-1,-21,-7,13,-4
1537917106644206,5,-2,8,1,0,-62,54,-4
1537917106644206,1,-1,-8,-4,-5,8,-99,21
1537917106657171,-33,-6,-1,-7,4,30,14,-54
1537917106657171,19,13,12,9,19,-6,-28,13
1537917106666147,-7,6,-9,-8,-17,-13,-10,-15
1537917106666147,16,-7,-3,-2,-11,-24,75,89
1537917106681107,15,19,8,-1,-1,15,-18,2
1537917106681107,-20,5,-3,-2,0,-11,-2,-11
1537917106682104,-6,-4,2,3,6,27,-33,-16
1537917106682104,-7,-24,-8,-1,2,-20,16,10
1537917106703048,4,9,0,-2,-4,-8,24,3
1537917106703048,3,5,11,2,-2,8,-12,8
1537917106705043,-21,-16,-6,1,1,-7,-26,-20
1537917106705043,-1,-8,-17,-6,-9,11,10,-7
1537917106717010,4,-6,-5,1,11,-35,-46,4
1537917106717010,5,3,-2,3,9,51,-16,-5
1537917106723992,-11,4,4,-7,-24,-52,-13,-24
1537917106723992,13,1,0,1,-2,10,-11,26
1537917106740947,6,-1,1,6,11,41,-22,24
1537917106740947,-5,-5,-4,-2,2,-68,-37,10
1537917106741944,-1,-6,-3,-5,-3,-11,6,-31
1537917106741944,30,0,2,-2,-7,21,-29,-44
1537917106762888,3,6,-1,-3,-9,-20,73,12
1537917106762888,-14,3,1,-2,-4,-8,-25,-30
1537917106764884,-23,-8,-3,2,9,28,29,15
1537917106764884,10,8,2,0,-2,-17,7,42
1537917106776851,-10,-9,-3,-2,-5,-26,-12,-20
1537917106776851,20,1,-4,-3,6,73,71,10
1537917106785827,-5,-9,2,2,-9,-50,11,3
1537917106785827,-16,3,3,6,17,8,32,-16
1537917106800787,-3,-2,-2,-4,-8,-5,-50,-6
1537917106800787,1,-7,3,-3,-9,-21,8,19
1537917106801784,10,5,-8,-3,2,70,15,16
1537917106801784,-7,-2,8,-1,-1,-20,-43,-7
1537917106822728,6,-7,3,-2,-9,31,70,22
1537917106822728,-8,0,-2,2,2,12,-2,0
1537917106824723,16,14,4,2,4,10,19,61
1537917106824723,12,5,-3,-2,-13,-30,12,-19
1537917106836691,10,-7,-6,-4,3,-10,-37,0
1537917106836691,-20,-12,-7,-11,-19,-26,-25,-36
1537917106845667,-11,-4,3,8,31,40,-55,-36
1537917106845667,34,12,0,-7,-37,-33,79,45
1537917106860627,-4,6,-1,-3,-7,-16,22,-23
1537917106860627,1,-9,-5,-2,-1,23,-8,27
1537917106862621,7,-1,1,0,3,-48,-108,-10
1537917106862621,-27,-6,-4,-5,5,86,-3,-17
1537917106883565,15,8,-3,2,9,20,3,-11
1537917106883565,-1,-7,-4,-3,1,-9,-32,-15
1537917106884563,6,4,-3,-5,-15,-62,35,10
1537917106884563,-14,4,16,2,9,32,20,4
1537917106896531,-2,-2,1,0,-8,-41,-31,8
1537917106896531,10,-3,-15,-2,6,50,31,14
1537917106905507,7,12,4,1,8,21,10,8
1537917106905507,-13,-15,-8,0,5,-32,-41,-11
1537917106920467,-10,5,1,-6,-10,12,-21,17
1537917106920467,19,7,4,3,-3,-24,-48,-10
1537917106922462,-3,-4,0,-3,-2,-9,57,-47
1537917106922462,-10,-9,-5,-1,8,15,-32,-18
1537917106943406,14,4,-2,-7,-20,-55,30,82
1537917106943406,3,4,4,1,1,53,6,2
1537917106944403,-13,-11,0,3,0,-19,-1,-35
1537917106944403,-23,-1,-1,-2,-3,-9,36,0
1537917106956371,4,-3,-6,0,8,18,-24,-24
1537917106956371,-3,-1,6,3,2,-29,36,15
1537917106965347,5,2,1,1,1,13,15,32
1537917106965347,-12,4,-5,-3,6,-1,41,-11
1537917106980307,-22,-8,2,4,0,-17,2,-18
1537917106980307,13,5,0,0,-5,19,18,-15
1537917106982302,7,0,18,-1,1,7,-15,24
1537917106982302,4,4,-6,2,-3,-62,-38,-4
1537917107003245,-17,-15,3,2,10,82,14,-19
1537917107003245,-2,4,12,-6,-9,-40,-9,1
1537917107004243,6,-7,-35,-8,-10,15,-26,-8
1537917107004243,-9,-6,2,0,3,18,8,2
1537917107017208,-8,-1,5,7,17,-16,12,-23
1537917107017208,1,-1,-6,-2,-15,-2,11,25
1537917107026184,15,2,2,-2,-8,-17,10,31
1537917107026184,-13,2,2,1,5,-14,-85,-92
1537917107040147,35,9,-6,-2,-7,-14,92,94
1537917107040147,-10,-3,1,0,9,61,-7,-1
1537917107042142,5,4,4,5,9,20,1,1
1537917107042142,4,-7,-2,-2,-15,-45,0,-11
1537917107063085,-21,7,2,1,14,28,-98,-74
1537917107063085,2,0,-3,2,0,-18,30,4
1537917107065080,-4,-5,-2,-8,-12,-14,15,6
1537917107065080,7,-1,-3,4,9,14,-4,59
1537917107093005,0,-2,-3,-3,-9,-10,-21,-5
1537917107093005,-11,-13,-6,-3,2,-7,39,34
1537917107095000,0,13,-1,-1,4,36,-33,-7
1537917107095000,24,5,2,-3,-10,-11,-6,16
1537917107100984,6,15,-12,-3,2,16,-9,2
1537917107100984,-6,-25,9,2,0,-26,-19,-9
1537917107101982,-15,-4,-11,-4,-6,-35,9,11
1537917107101982,1,-3,8,-1,-2,35,5,11
1537917107122926,-1,15,6,3,1,-14,-22,-11
1537917107122926,-7,0,-17,-6,-1,5,4,0
1537917107124920,24,-20,4,1,6,24,21,-19
1537917107124920,-23,-6,-17,-5,-3,-29,15,32
1537917107145864,21,-5,5,-3,-24,15,78,-10
1537917107145864,0,17,10,12,21,-5,-41,39
1537917107146862,-9,5,4,-4,-17,-3,-45,6
1537917107146862,1,-5,-5,0,10,-33,-13,3
1537917107160824,8,1,9,4,-6,76,30,15
1537917107160824,-17,-8,-6,-8,-7,-31,-14,-23
1537917107161822,-10,-9,0,3,5,2,28,-7
1537917107161822,12,17,7,3,4,0,-22,-2
1537917107182766,-14,-14,-6,-3,0,-21,-16,-8
1537917107182766,-1,-5,-6,-2,-1,-27,-9,-74
1537917107184760,-16,-6,-1,2,2,-1,-33,-5
1537917107184760,-5,12,2,-1,1,52,45,2
1537917107205704,3,-7,-1,-3,-2,-48,-43,-7
1537917107205704,9,5,1,2,2,29,30,11
1537917107213684,-7,-4,-4,-8,-18,-56,-16,10
1537917107213684,0,-7,-2,-1,-2,11,25,-22
1537917107219667,-28,-5,-2,4,18,-36,-59,25
1537917107219667,18,5,-5,-4,-9,54,39,11
1537917107226649,7,-1,8,-2,-9,-2,59,56
1537917107226649,-5,1,0,-2,-4,7,8,-21
1537917107243603,-11,4,-5,0,2,-13,-18,-37
1537917107243603,4,5,11,0,7,-32,-31,-4
1537917107244600,5,-1,-4,1,6,24,-9,-12
1537917107244600,-2,10,-1,0,-4,16,9,-2
1537917107265544,-21,-17,-7,-6,-2,-36,6,-13
1537917107265544,8,-1,-4,2,6,12,0,-25
1537917107267539,2,1,1,-1,0,11,10,-21
1537917107267539,7,7,0,-2,-2,3,-15,9
1537917107279507,-9,-8,-1,2,0,-28,-37,3
1537917107279507,-11,-2,-1,-4,-7,23,5,-29
1537917107286488,-5,-5,1,3,9,-27,-35,39
1537917107286488,11,-8,-4,-2,5,-12,23,28
1537917107303443,5,4,4,0,0,30,-1,-7
1537917107303443,-2,-4,-3,-6,-18,-24,20,20
1537917107304440,5,-1,1,1,11,20,18,-37
1537917107304440,-2,12,6,2,1,10,9,0
1537917107325385,3,-2,-6,-11,-9,11,10,-2
1537917107325385,1,5,2,4,0,-28,0,65
1537917107327379,0,1,-5,1,8,27,-11,-38
1537917107327379,6,-17,-6,-2,-2,-6,-17,5
1537917107340345,-16,-1,2,0,1,12,19,-10
1537917107340345,13,6,1,0,-1,-13,-32,-9
1537917107346329,-2,-4,-4,1,0,-30,-4,-2
1537917107346329,5,-9,-6,-3,-5,-36,2,22
1537917107363283,4,-1,4,-3,-3,74,-15,0
1537917107363283,-15,-15,-16,-1,10,23,14,-18
1537917107364281,7,15,-1,0,-4,-10,-9,-7
1537917107364281,1,-2,1,-3,-3,6,22,-12
1537917107386222,4,4,5,2,-10,-24,32,16
1537917107386222,1,1,3,1,1,-15,-13,-49
1537917107387219,-17,-3,-2,0,8,24,13,1
1537917107387219,-9,-8,-1,-3,-7,-22,15,-3
1537917107399187,16,9,-1,-1,-3,16,10,-21
1537917107399187,-2,-1,7,3,9,-7,-16,0
1537917107407166,3,8,1,0,-8,-29,-7,-3
1537917107407166,-7,-2,3,3,14,83,8,3
1537917107430105,2,-9,-2,0,-1,-36,-21,-5
1537917107430105,0,4,-1,-1,-5,-14,7,21
1537917107431102,-8,0,-2,-3,-1,10,-23,-2
1537917107431102,2,13,13,1,-1,-2,-21,-8
1537917107445064,-16,-40,-13,-2,-1,-5,27,-5
1537917107445064,-5,2,9,3,2,-5,6,0
1537917107446062,-5,-2,0,-1,-4,-15,-19,-18
1537917107446062,4,5,-10,-3,-6,-4,39,58
1537917107467006,5,2,-1,-1,1,3,12,7
1537917107467006,6,2,-1,0,1,23,-62,-24
1537917107468003,-7,-10,2,2,0,7,-1,-16
1537917107468003,0,10,0,-4,-10,1,0,-35
1537917107490942,13,8,-2,-3,1,-29,-25,11
1537917107490942,-7,-9,-3,-2,-3,-8,9,31
1537917107491939,10,19,0,-4,-7,-6,-8,16
1537917107491939,-14,-11,-1,4,8,13,47,-13
1537917107504905,-2,3,-11,-1,-1,6,-1,14
1537917107504905,3,-4,5,-3,0,17,-7,24
1537917107505902,-7,-6,2,2,7,14,23,1
1537917107505902,2,-6,-4,-2,-8,-22,-35,13
1537917107527843,10,2,2,5,4,-6,0,8
1537917107527843,10,3,-4,-2,0,-17,-6,-10
1537917107527843,3,-8,-2,-2,0,7,16,17
1537917107527843,-12,1,-2,-2,-4,-3,-17,-13
1537917107550782,27,4,-2,-5,0,41,-28,-3
1537917107550782,0,3,-3,-2,-4,-53,-21,18
1537917107551779,0,-3,3,0,2,8,27,7
1537917107551779,-1,-9,-4,0,4,0,-62,-19
1537917107564745,-20,0,4,3,3,-6,0,-18
1537917107564745,-18,-14,2,-5,0,21,43,4
1537917107565742,24,10,-7,-1,-2,4,-6,3
1537917107565742,4,4,0,0,-4,-25,14,16
1537917107587684,-16,-16,-10,-1,-6,-14,-29,-6
1537917107587684,-7,27,6,0,0,19,17,-8
1537917107587684,-5,2,-3,-3,-4,-18,4,-11
1537917107587684,4,-10,-5,-3,1,-9,-33,22
1537917107610622,-14,-3,1,-1,-5,-3,-45,-24
1537917107610622,15,-4,-5,1,6,25,102,9
1537917107611620,-17,-5,-1,1,-1,-7,-45,-56
1537917107611620,11,4,1,-4,-7,-13,-19,3
1537917107624585,7,3,7,3,4,36,40,7
1537917107624585,-13,-10,-7,-6,-9,-23,-55,4
1537917107625582,0,-5,-2,-1,1,-4,28,-3
1537917107625582,-6,0,4,6,18,-8,19,13
1537917107647524,-3,2,0,-4,5,33,-11,18
1537917107647524,-1,0,-2,-7,-22,-30,-20,-79
1537917107648521,-2,-4,0,5,8,11,-34,19
1537917107648521,-2,-7,-1,0,-10,-17,9,-23
1537917107670462,-2,14,4,7,17,21,1,-13
1537917107670462,23,-3,-4,-3,-12,10,16,62
1537917107671459,-14,1,-1,-3,-5,-17,25,-28
1537917107671459,-9,-7,-2,-2,5,3,-29,-55
1537917107685422,0,5,0,-1,0,-34,-13,36
1537917107685422,-16,-9,-1,5,8,28,-25,-42
1537917107685422,-6,1,-2,-3,-6,25,30,10
1537917107685422,-14,-2,2,2,7,5,-3,4
1537917107707364,19,10,3,-1,-16,-20,9,0
1537917107707364,-11,-3,-3,-1,1,-28,-54,-12
1537917107708361,9,-5,0,-6,-6,-16,-47,22
1537917107708361,-1,-3,-4,-1,4,30,92,-14
1537917107730302,4,-3,2,0,5,-3,1,-17
1537917107730302,-2,2,0,0,-2,-25,-49,-38
1537917107731299,-2,3,3,1,5,45,-11,-19
1537917107731299,3,-5,-4,-5,-4,-10,-50,-16
1537917107745262,-10,-7,-4,-7,-22,-37,49,53
1537917107745262,15,3,2,5,11,12,54,26
1537917107745262,7,-8,-9,-7,-5,-7,-6,-21
1537917107745262,-6,4,2,1,-2,-22,-26,-18
1537917107767204,1,-2,-3,-3,2,-2,6,18
1537917107767204,-1,12,6,1,0,9,-34,-12
1537917107768201,4,-2,-6,-3,-1,-13,-23,42
1537917107768201,30,9,4,4,0,19,16,16
1537917107790142,-11,-6,-4,-4,-1,-29,-5,-26
1537917107790142,-18,-5,-6,0,-3,14,30,-43
1537917107791140,10,-2,1,0,4,-17,-14,28
1537917107791140,4,1,0,-2,1,19,42,58
1537917107805103,9,-1,-2,2,7,-1,5,14
1537917107805103,-5,-5,-4,-10,-31,-16,-20,18
1537917107806101,-7,2,3,4,5,11,11,-36
1537917107806101,-6,-2,2,-1,-8,-20,-8,6
1537917107827044,-12,-3,-3,-1,0,-12,-12,-64
1537917107827044,-3,-6,-5,-1,19,45,-4,-15
1537917107828041,3,-1,1,1,-19,-13,31,25
1537917107828041,-4,-2,-4,-3,-7,3,-16,18
1537917107849982,0,1,-1,-1,-5,4,54,-27
1537917107849982,8,3,2,4,9,13,70,41
1537917107850980,-11,-5,-3,0,1,-14,-15,15
1537917107850980,5,-4,-1,1,5,-7,-49,5
1537917107864943,2,-1,-1,-2,-5,24,29,9
1537917107864943,-3,-2,-1,-4,-4,4,-7,6
1537917107865940,-2,0,0,0,1,8,-6,7
1537917107865940,-11,0,0,1,2,-12,30,-13
1537917107887881,-4,-2,-2,-1,-3,6,-14,1
1537917107887881,6,0,-2,-1,3,-8,-12,39
1537917107887881,-4,1,-7,-3,-1,-6,-17,-33
1537917107887881,-8,0,7,-5,-8,-25,-45,-77
1537917107910820,6,-2,4,2,3,23,63,49
1537917107910820,-2,-1,1,3,3,-6,3,38
1537917107911817,2,-2,1,-1,-1,-8,10,15
1537917107911817,7,3,0,2,1,-7,-5,-24
1537917107924782,0,5,-3,-5,-5,12,-47,12
1537917107924782,-3,7,1,0,2,-24,-26,-31
1537917107925779,0,-6,11,3,6,7,-6,19
1537917107925779,-10,-12,-5,4,10,97,7,16
1537917107947721,-6,-20,5,-1,-8,-62,-92,-35
1537917107947721,5,-11,-15,-4,0,20,-65,-1
1537917107947721,0,39,-8,-10,-32,-128,-37,-43
1537917107947721,20,18,10,22,34,91,104,19
1537917107971658,-16,2,40,-3,2,-78,-47,-44
1537917107971658,-20,-5,-1,-5,-3,13,95,-26
1537917107972654,21,-6,20,6,9,-22,-28,-24
1537917107972654,-2,-6,1,-9,-21,-36,-51,15
1537917107984623,2,-1,-8,5,1,18,8,12
1537917107984623,-4,-7,-2,-2,0,-40,-75,-30
1537917107985620,-15,-12,-5,-4,7,52,86,-37
1537917107985620,0,0,-7,3,-3,-22,-19,2
1537917108007561,8,1,-10,-1,9,39,30,40
1537917108007561,5,0,0,-12,-9,-8,-9,-29
1537917108008558,-7,-8,-9,6,17,52,19,7
1537917108008558,0,0,-3,-8,-32,-56,-47,-20
1537917108029502,6,3,-10,-4,-9,6,18,12
1537917108029502,-1,2,8,3,0,-4,-2,4
1537917108030500,2,-1,2,-1,2,31,-21,23
1537917108030500,-2,0,1,-4,21,-14,36,5
1537917108044462,1,-1,-5,1,4,-6,-41,-14
1537917108044462,-1,0,1,8,0,4,2,33
1537917108045459,-3,-3,-1,-1,2,21,-21,-13
1537917108045459,-1,-4,-8,-12,-38,-19,25,6
1537917108067401,-1,3,-7,-1,-5,9,32,-15
1537917108067401,2,-1,0,2,15,-9,-54,-3
1537917108068398,0,-2,-4,3,-2,-25,18,23
1537917108068398,-5,-1,-2,-2,-7,4,-20,-6
1537917108090339,0,0,1,1,4,7,-7,-8
1537917108090339,-6,0,1,3,0,1,42,2
1537917108091337,8,-2,-2,-3,-2,-3,-17,18
1537917108091337,-4,0,-2,0,2,-10,-13,11
1537917108105299,-5,-1,0,2,3,5,-11,-23
1537917108105299,7,-1,-1,2,0,-5,0,21
1537917108112281,-10,-3,-2,1,0,16,-8,-17
1537917108112281,3,-1,0,0,25,-27,-46,-5
1537917108127241,3,0,-1,2,-7,15,20,14
1537917108127241,-1,-1,-2,-7,-7,-7,4,-2
1537917108128238,-4,-1,0,-2,-4,2,22,3
1537917108128238,-10,-3,-3,-3,-3,-3,3,-6
1537917108150180,-1,1,-3,4,11,1,-23,-5
1537917108150180,2,-1,-1,2,4,9,11,-1
1537917108151177,-3,-2,-3,-1,-6,-8,5,-3
1537917108151177,5,0,-1,1,6,4,1,-5
1537917108181097,-5,0,-4,-5,-2,-4,-2,-2
1537917108181097,-18,-2,0,1,-5,8,6,-5
1537917108181097,3,0,0,0,0,-11,4,8
1537917108181097,5,-3,-3,-1,-3,-6,10,-2
1537917108187081,5,-1,-3,-2,-3,20,-4,-8
1537917108187081,8,-1,-1,-4,-7,-16,-10,-2
1537917108188079,-24,-4,-2,-5,0,3,6,-4
1537917108188079,4,1,-2,-1,1,4,-9,6
1537917108210019,5,1,0,1,-2,-7,8,0
1537917108210019,3,2,2,5,4,3,2,-1
1537917108211017,8,0,0,0,0,0,-1,7
1537917108211017,-16,-8,-5,-7,-10,-2,1,-14
1537917108224979,-3,-2,0,-2,1,-8,-6,-1
1537917108224979,-5,0,0,2,2,7,1,-4
1537917108225977,-6,0,0,2,-1,-5,0,-1
1537917108225977,31,5,1,-2,-3,3,3,20
1537917108248916,0,-2,-2,1,-1,1,0,-7
1537917108248916,18,3,-1,-4,5,5,-3,4
1537917108249913,-15,-4,-1,-1,-12,-15,-17,-10
1537917108249913,6,-1,-2,-4,1,7,11,5
1537917108270857,8,2,1,0,0,6,4,8
1537917108270857,-18,-7,2,14,40,-7,-15,11
1537917108270857,-1,-3,-3,-12,-26,-1,-2,-4
1537917108270857,-15,-1,3,0,-39,-16,13,5
1537917108284820,3,0,-4,-3,-11,-44,-14,-9
1537917108284820,-23,-1,1,-4,5,-14,-13,-16
1537917108285817,-8,-3,-4,1,6,22,-26,-3
1537917108285817,-7,-1,7,14,59,37,4,-13
1537917108307760,-15,-2,7,52,110,98,66,11
1537917108307760,10,-2,-15,-34,-103,-49,2,-5
1537917108307760,6,-2,-10,-24,44,4,-48,0
1537917108307760,12,2,-9,-25,-73,-81,14,3
1537917108330697,-22,-7,-12,-48,-43,21,-13,-11
1537917108330697,11,6,19,70,125,70,-11,21
1537917108331694,24,3,-5,-5,-109,-49,51,23
1537917108331694,-27,-14,-18,-59,-47,-42,-46,-53
1537917108344659,9,2,-6,-33,-82,-4,7,15
1537917108344659,22,-8,-8,-35,-78,-92,-9,14
1537917108352638,8,-1,18,83,101,34,-2,2
1537917108352638,-16,28,31,96,31,-52,29,15
1537917108367598,34,-2,-10,-39,-81,-46,-24,-3
1537917108367598,-11,-4,-14,-74,-62,-25,10,-26
1537917108368596,4,-4,-5,-34,91,-21,1,-6
1537917108368596,-16,-20,-11,-23,-36,-39,4,-10
1537917108390537,-12,11,22,71,127,86,-18,-3
1537917108390537,-10,5,-8,0,-59,6,23,12
1537917108391535,37,0,12,46,43,-37,0,13
1537917108391535,9,4,-2,8,-13,93,-22,7
1537917108404500,-16,-2,5,34,51,-94,-2,-22
1537917108404500,26,-5,-10,-31,2,-22,-16,-12
1537917108412479,-24,-2,-7,-32,-74,31,3,6
1537917108412479,8,-7,-8,-34,-62,-50,12,15
1537917108427438,8,1,10,58,66,3,-8,5
1537917108427438,2,6,10,33,127,-78,20,24
1537917108428436,-19,-11,-20,-58,-74,17,-2,-19
1537917108428436,5,0,-4,-5,57,11,-12,6
1537917108450377,1,5,7,-1,-7,47,12,1
1537917108450377,-9,6,20,65,116,24,1,-6
1537917108451375,12,9,8,18,71,-36,3,5
1537917108451375,-15,-22,-32,-69,-42,-61,-16,-23
1537917108464340,-14,-4,-14,-42,6,-11,-10,-10
1537917108464340,-14,-5,-1,-12,-68,57,14,-3
1537917108472319,19,16,22,47,-21,95,30,13
1537917108472319,-26,12,1,25,8,-29,0,-18
1537917108487279,42,0,-12,-28,16,-63,-9,53
1537917108487279,7,7,25,104,104,84,-5,-9
1537917108488277,-5,-19,-39,-90,-72,-128,3,31
1537917108488277,-3,-2,17,53,127,88,-3,-3
1537917108510219,-9,-4,-3,56,-120,-52,25,9
1537917108510219,-10,-9,-28,-113,-91,-4,-10,-16
1537917108511216,-12,-5,-18,-14,2,34,-3,-24
1537917108511216,6,0,0,6,-13,-52,-15,-6
1537917108524180,-54,-4,4,-13,-65,-85,20,-68
1537917108524180,14,6,20,46,111,14,-2,33
1537917108532159,-13,0,5,19,20,3,0,-24
1537917108532159,8,-6,-1,-41,-51,-33,0,6
1537917108547119,4,13,13,34,36,-30,3,-6
1537917108547119,-4,-2,-6,14,-24,55,3,-1
1537917108548117,9,7,19,47,121,96,14,11
1537917108548117,3,-6,-12,-24,-55,78,-5,3
1537917108572053,13,-18,-20,-93,-4,18,-20,19
1537917108572053,9,14,31,65,23,60,18,2
1537917108573052,3,0,-12,-50,44,27,-17,6
1537917108573052,-1,-2,-12,-19,-25,114,16,4
1537917108584022,-9,-8,-10,30,-75,-3,-9,4
1537917108584022,1,-4,-9,-54,-73,-88,3,-14
1537917108592997,2,7,12,69,-88,-104,8,3
1537917108592997,4,7,15,31,127,37,14,0
1537917108606959,13,-11,-17,-63,-21,15,-35,15
1537917108606959,-19,0,4,24,20,-115,-1,-24
1537917108607957,13,4,11,47,-34,89,12,1
1537917108607957,1,-1,-5,-34,62,82,-12,-1
1537917108630896,-20,5,21,45,-33,-54,23,-29
1537917108630896,3,-9,-24,-23,-35,95,-14,-4
1537917108630896,-14,-8,-25,-128,-58,-5,-8,-8
1537917108630896,10,7,27,127,114,58,3,23
1537917108652836,-12,-6,-16,-84,10,4,-14,-15
1537917108652836,-9,-9,-27,-44,-79,-67,-8,-5
1537917108653835,-33,-8,4,34,-62,49,9,-44
1537917108653835,-2,4,13,43,16,-31,4,-5
1537917108667796,10,7,14,63,42,-5,10,10
1537917108667796,8,1,-3,-6,3,-3,2,20
1537917108667796,-4,7,13,63,91,-48,-6,1
1537917108667796,10,4,7,22,87,-42,2,0
1537917108697716,8,-10,-31,-89,-114,-9,-11,11
1537917108697716,-8,-4,2,-2,82,6,2,3
1537917108698714,-6,-1,10,39,91,42,12,-9
1537917108698714,-1,-3,0,-40,-63,-70,0,-2
1537917108712676,-1,9,10,46,100,97,14,3
1537917108712676,-1,-6,-6,-40,29,10,1,-5
1537917108713673,-3,-3,2,0,-55,-50,-15,-12
1537917108713673,21,-1,-3,8,-34,16,1,35
1537917108727636,0,-1,2,15,42,43,0,11
1537917108727636,-1,9,5,12,-23,5,-6,-12
1537917108727636,4,0,-4,-25,20,-41,0,2
1537917108727636,-17,-4,-6,-10,-1,-41,3,-19
1537917108750575,7,3,4,19,60,71,1,3
1537917108750575,0,-9,-4,24,-16,25,-3,8
1537917108751572,8,0,-7,-33,-15,-12,-6,11
1537917108751572,3,-1,-5,-19,-54,-6,-3,6
1537917108773514,0,3,6,42,55,-24,1,-4
1537917108773514,0,3,2,-1,-21,26,-1,-1
1537917108773514,1,-1,0,-8,36,14,1,5
1537917108773514,-3,-4,-8,-7,-63,-52,-2,-4
1537917108787479,4,3,1,3,-14,-12,-3,-4
1537917108787479,-4,-5,-11,-32,-50,-6,-7,-9
1537917108788476,2,-1,2,9,23,13,4,9
1537917108788476,-5,1,-4,-16,-31,-17,-5,-4
1537917108810416,9,-2,-4,-13,13,13,-8,15
1537917108810416,-2,-1,2,8,-9,-13,1,1
1537917108811415,2,1,3,16,3,2,0,5
1537917108811415,-4,1,-1,11,24,18,2,-8
1537917108833355,0,-3,-5,-18,-24,-17,-8,11
1537917108833355,6,-1,0,10,14,26,-3,12
1537917108833355,0,-1,-2,-7,-16,-29,-4,-1
1537917108833355,-2,-2,-2,-11,-1,12,1,-1
1537917108846320,-4,-2,3,1,-15,2,0,-14
1537917108846320,-1,1,1,14,11,-3,3,5
1537917108855295,-1,0,-7,-10,-10,-1,-1,2
1537917108855295,-4,-1,-4,-11,-9,-1,-3,-3
1537917108870255,-2,-1,1,3,-7,-1,2,-8
1537917108870255,-3,0,1,5,5,0,0,-3
1537917108872250,-2,-1,-1,-5,-11,-15,-1,-2
1537917108872250,2,-2,1,4,13,19,0,2
1537917108893193,1,0,2,3,1,-9,3,-1
1537917108893193,-1,0,-5,-8,-5,-7,-3,-4
1537917108894191,-3,-4,-2,-4,-15,-4,-6,-1
1537917108894191,1,1,0,1,4,-3,0,0
1537917108907156,-2,-1,-2,-1,1,4,1,-2
1537917108907156,-3,-1,0,-5,-6,-6,-1,-4
1537917108916132,-4,-3,-2,0,-7,-1,-1,-1
1537917108916132,4,0,0,1,7,6,-2,1
1537917108931092,-3,0,-1,-2,-2,-4,-2,-3
1537917108931092,-4,-2,0,4,2,5,1,-2
1537917108932090,-2,-3,-2,-3,-6,-8,1,4
1537917108932090,0,0,-2,-1,4,5,-1,-10
1537917108954031,-1,1,-2,-3,-5,1,-3,-6
1537917108954031,4,-1,-1,-1,-2,-4,2,12
1537917108956026,-1,0,-1,1,-4,-1,-2,-2
1537917108956026,-1,-1,0,-3,0,0,-3,3
1537917108966996,-4,-1,-1,-3,-5,-1,7,-3
1537917108966996,-4,0,-2,-2,-1,-4,-6,-10
1537917108975972,-1,-2,0,1,0,-1,-6,4
1537917108975972,-4,-1,-2,1,1,2,-9,-14
1537917108990933,2,-1,-2,-1,-1,-1,3,2
1537917108990933,0,-2,-1,-2,-1,-2,1,-4
1537917108991930,-5,-2,-1,-1,-4,-3,-4,-7
1537917108991930,3,0,-1,-1,-1,-2,10,-5
1537917109015866,-2,-2,-1,2,1,-1,-9,41
1537917109015866,-1,-2,-1,-1,0,2,11,2
1537917109016864,3,0,0,0,-2,0,3,-4
1537917109016864,-1,-2,-3,-3,-3,0,-2,7
1537917109019855,-4,-2,-1,-1,-2,-3,-7,-17
1537917109019855,2,-1,-1,-2,0,-1,10,15
1537917109028831,-2,0,1,2,1,-1,-5,0
1537917109028831,0,1,1,1,3,2,3,7
1537917109041796,-2,-4,-5,-5,-3,-3,-7,-11
1537917109041796,-1,-2,-1,-1,-2,-3,-17,-14
1537917109049775,-2,-2,-1,-2,0,1,20,1
1537917109049775,-4,-1,2,-1,-2,-1,0,0
1537917109064736,-1,0,2,-2,-3,-2,-1,-5
1537917109064736,-1,-3,-2,3,0,-1,-4,3
1537917109065733,1,0,-3,-4,-4,-3,-3,-7
1537917109065733,-3,-3,-2,-3,-3,-1,-4,0
1537917109079695,-2,-2,-3,-2,-2,-2,1,1
1537917109079695,-5,-2,0,-1,-1,-2,0,-16
1537917109086677,1,0,1,0,0,-2,-4,-2
1537917109086677,-2,-2,0,1,0,-1,-1,3
1537917109101637,-1,-1,-1,2,0,-1,-1,-7
1537917109101637,-1,0,0,-1,-1,0,-2,-1
1537917109109615,1,0,-2,-1,-3,-1,-2,3
1537917109109615,-4,-3,-2,-2,0,-1,-2,3
1537917109124576,0,0,1,0,0,-2,2,-6
1537917109124576,-2,-3,-2,0,-1,-1,0,1
1537917109125573,1,-1,-3,-2,-1,-1,-3,3
1537917109125573,-2,-2,-3,-3,-3,-1,-1,-8
1537917109139535,-2,-2,-2,0,-1,0,0,-2
1537917109139535,0,-1,3,5,3,-1,-1,1
1537917109146517,0,-2,0,0,-2,-3,-2,-4
1537917109146517,-1,-1,-5,-6,-5,-3,-3,-2
1537917109161477,-2,-2,0,0,-1,-2,0,-2
1537917109161477,-1,-1,-1,-1,-1,-1,-1,2
1537917109169455,0,-1,1,1,1,-2,1,-1
1537917109169455,-1,0,2,2,2,-2,-2,0
1537917109184415,-2,0,-2,-3,-3,-1,-1,-1
1537917109184415,-1,-1,-4,-4,-7,-3,-1,-4
1537917109185413,0,-1,-2,0,-1,0,-2,0
1537917109185413,-1,0,1,3,3,1,0,1
1537917109199375,-1,-1,3,2,-1,-1,-1,-1
1537917109199375,1,-1,-2,-3,-1,-1,-2,1
1537917109206356,0,-1,-2,0,-1,-1,-2,0
1537917109206356,-1,-2,-4,-3,-5,-4,-2,1
1537917109221317,-1,-1,-1,-2,-3,-2,0,-3
1537917109221317,0,-2,-2,-1,0,1,-1,-1
1537917109230293,-5,-1,2,0,-1,0,-2,1
1537917109230293,2,0,-2,-4,-2,-1,-2,-2
1537917109245254,1,-1,-2,0,-1,-1,0,-3
1537917109245254,0,1,-1,-1,-3,-1,-1,-1
1537917109245254,1,0,-1,-2,-2,0,-2,-1
1537917109245254,-2,-2,3,3,3,3,2,0
1537917109259215,0,2,0,-3,-2,-1,0,0
1537917109259215,-2,2,5,5,5,4,0,-1
1537917109267194,1,-1,-5,-4,-5,-2,-1,-2
1537917109267194,-4,-1,-3,-1,9,-3,-2,-2
1537917109282154,-1,-1,-2,-9,-17,-3,-1,0
1537917109282154,-4,-2,8,15,24,14,5,-4
1537917109290132,7,13,6,17,52,-1,2,-4
1537917109290132,5,-3,-2,11,-7,36,5,17
1537917109305092,-1,1,-1,1,72,18,-9,-8
1537917109305092,-1,-4,-12,-36,-105,-84,-5,-4
1537917109312074,-13,-14,-12,-24,-58,28,-4,-9
1537917109312074,-2,-1,5,20,97,101,-5,0
1537917109319055,0,1,-10,-44,-116,-109,5,-5
1537917109319055,-8,-5,-4,7,127,94,-11,-8
1537917109327034,4,-3,-3,-14,-96,3,6,18
1537917109327034,-10,-1,-1,-22,-53,-3,-11,-26
1537917109341994,1,1,10,19,12,-8,6,6
1537917109341994,-4,3,5,8,19,51,-3,-14
1537917109349972,4,5,11,37,89,-61,-1,13
1537917109349972,-9,3,7,12,-68,93,27,-13
1537917109364932,9,6,18,57,104,-28,-11,2
1537917109364932,0,-7,-20,-45,-128,22,23,8
1537917109365930,-10,-13,-21,-27,75,31,-17,-13
1537917109365930,5,6,7,5,62,35,3,8
1537917109378895,-10,-10,-18,-53,-86,-66,-18,-16
1537917109378895,14,7,17,62,127,4,-8,30
1537917109386874,8,-3,2,1,38,70,-20,18
1537917109386874,1,-8,-22,-54,-95,-67,20,5
1537917109402831,1,-4,-5,4,50,54,12,12
1537917109402831,-2,4,7,11,74,-48,-12,-2
1537917109417791,1,0,-4,-16,-89,54,6,-7
1537917109417791,4,0,-2,1,39,-73,-20,7
1537917109425770,1,4,6,25,-27,100,-5,1
1537917109425770,-5,-5,-12,-30,-90,-128,13,-9
1537917109425770,-10,-2,-2,-4,55,69,5,-9
1537917109425770,4,4,11,35,127,69,-13,4
1537917109438735,-3,-6,-4,-25,-72,-52,4,-2
1537917109438735,6,6,14,43,64,9,-1,3
1537917109446714,-2,1,4,3,-38,81,4,-3
1537917109446714,10,3,1,14,57,-7,6,17
1537917109461674,-10,-8,-10,-23,15,80,-13,-8
1537917109461674,-2,0,5,-1,42,7,-9,-4
1537917109469653,1,-1,3,4,-82,-92,10,4
1537917109469653,-6,1,-3,0,32,32,-4,-10
1537917109484613,0,-3,-13,-23,1,89,5,7
1537917109484613,-1,0,-4,-14,-8,94,6,-1
1537917109485610,5,4,0,-4,-3,-24,-15,14
1537917109485610,-2,1,12,35,-1,58,2,-9
1537917109499572,15,6,8,44,-70,-72,6,19
1537917109499572,2,-5,-14,-52,-4,99,-13,1
1537917109506554,-10,-3,-8,-15,-61,43,3,-16
1537917109506554,-9,-4,-5,-3,-14,47,-12,-11
1537917109521514,-12,-4,-7,-14,-10,51,16,-13
1537917109521514,-5,1,-5,-21,-1,1,0,-12
1537917109529493,-3,-3,2,18,111,43,0,-16
1537917109529493,7,-3,-11,-64,-118,-99,-4,9
1537917109544452,-7,5,22,66,127,-6,7,-8
1537917109544452,1,2,-9,4,2,-21,2,-6
1537917109545450,-3,2,8,23,-15,-67,-6,-7
1537917109545450,-4,3,13,39,82,51,4,-8
1537917109559412,5,0,-9,-35,-77,-95,-1,5
1537917109559412,-14,-11,-14,-32,-31,44,-6,-13
1537917109566394,3,1,5,5,-27,-54,-2,4
1537917109566394,-4,-3,-1,19,71,70,3,-8
1537917109581354,-8,-8,-15,-88,-47,-74,-14,-9
1537917109581354,-2,-2,-4,8,-127,-50,0,5
1537917109590330,-1,-2,-1,-22,-29,15,4,-4
1537917109590330,4,2,5,20,-49,-128,12,8
1537917109605290,7,9,15,58,85,27,3,2
1537917109605290,3,0,4,22,57,-96,0,7
1537917109605290,11,1,-5,-10,-34,-13,-1,16
1537917109605290,-1,-2,-8,-12,11,55,-4,6
1537917109619253,-11,-3,-6,-14,15,-3,-2,-24
1537917109619253,3,1,8,10,-26,-69,1,0
1537917109627231,13,2,8,30,118,-51,-4,25
1537917109627231,-4,-12,-21,-52,-93,-34,-14,1
1537917109642191,0,-2,-6,-12,-38,1,-3,1
1537917109642191,-1,-1,1,-2,-31,65,-2,2
1537917109650170,-5,2,5,21,7,-47,2,-7
1537917109650170,-3,5,5,-19,8,-14,0,-7
1537917109664133,7,1,4,65,39,6,1,13
1537917109664133,2,-6,-11,-80,-15,3,-6,1
1537917109672111,-3,0,0,-19,-31,54,4,-6
1537917109672111,6,4,2,50,-102,-80,12,9
1537917109679093,3,-1,-7,-41,59,35,4,9
1537917109679093,-7,0,3,22,98,103,-8,-1
1537917109687072,-11,-7,-6,-28,-24,-62,6,-16
1537917109687072,17,7,9,30,-13,-109,-9,16
1537917109711007,-5,-7,-8,-6,-39,-14,-10,2
1537917109711007,-6,1,4,13,41,39,11,-13
1537917109711007,10,-3,-9,-17,16,-50,-13,16
1537917109711007,-3,3,9,20,46,29,6,-2
1537917109723973,-4,1,11,20,47,56,5,-6
1537917109723973,10,2,10,29,13,33,-5,14
1537917109732949,-2,4,13,101,-19,91,12,-5
1537917109732949,-8,-10,-27,-69,80,-96,-5,-8
1537917109738933,-6,-11,-23,-52,-104,33,-9,-5
1537917109738933,-10,-4,1,25,37,-38,-3,-9
1537917109747909,0,5,9,22,-7,85,16,1
1537917109747909,6,1,5,9,120,103,1,1
1537917109770848,-2,-2,1,-7,-49,3,-3,-2
1537917109770848,6,7,9,11,46,89,5,10
1537917109770848,0,2,8,25,51,-57,4,-4
1537917109770848,-13,-7,-8,-25,-108,-47,-11,-15
1537917109783813,5,0,-4,-10,50,45,-2,-1
1537917109783813,4,6,9,-13,-29,-99,6,-2
1537917109792788,6,7,8,78,79,43,9,5
1537917109792788,-10,-10,-11,-72,74,-32,-8,-6
1537917109806751,3,-4,-5,-33,-88,-8,-9,-3
1537917109806751,6,1,5,75,29,-74,5,6
1537917109815727,-1,-3,-14,-107,83,35,-3,-5
1537917109815727,0,-5,-8,-7,-128,-16,-6,0
1537917109821711,10,8,20,58,95,55,4,10
1537917109821711,0,-2,-2,24,22,-31,0,0
1537917109830687,-8,-5,-9,-5,24,38,-4,-4
1537917109830687,-2,-3,-3,-48,-71,108,6,-1
1537917109844650,9,-4,-6,7,-17,-30,-8,25
1537917109844650,7,7,12,49,14,33,-3,2
1537917109853626,-7,0,-1,8,76,17,-7,-15
1537917109853626,-3,-2,-5,14,-101,40,-6,-7
1537917109868586,-4,1,2,-37,62,-52,-8,-7
1537917109868586,-5,-7,-11,-20,-71,68,-1,-4
1537917109869584,-7,-2,-1,-13,-24,-31,-1,-11
1537917109869584,-2,0,4,18,113,-17,-1,-3
1537917109890528,-5,2,7,0,-47,-31,5,-5
1537917109890528,0,-2,-6,20,1,-2,-1,2
1537917109892522,0,-1,-4,-78,-71,-85,-2,1
1537917109892522,1,3,12,111,69,-1,7,3
1537917109913466,-7,-3,-6,-19,124,-5,1,-7
1537917109913466,-14,-8,-9,-43,-119,21,2,-17
1537917109914465,6,2,6,36,-16,3,0,7
1537917109914465,6,6,10,31,72,35,1,8
1537917109935408,-7,-3,-4,35,4,-79,2,-9
1537917109935408,-2,-5,-13,-87,-59,-17,0,-1
1537917109937403,-1,-1,3,23,8,-1,-1,1
1537917109937403,1,-2,-3,17,68,15,-3,-1
1537917109950368,-6,1,5,-10,-80,-21,4,-13
1537917109950368,-2,-3,-9,-10,30,66,0,2
1537917109956352,-4,-8,-15,-41,-74,-57,-7,-2
1537917109956352,-6,-2,-2,-38,-61,40,4,-6
1537917109973307,0,0,4,52,67,9,-1,-2
1537917109973307,5,1,2,-9,-37,-49,0,3
1537917109974304,-6,-4,-3,15,-34,9,-2,-5
1537917109974304,0,3,6,9,82,50,4,7
1537917109995249,1,0,4,25,-1,2,0,4
1537917109995249,3,0,-6,-22,13,-50,-7,3
1537917109997244,-6,-6,-12,-50,-22,3,-5,-5
1537917109997244,-5,-5,-7,-25,-88,-33,-6,-7
1537917110010208,-1,1,4,2,27,-1,5,-4
1537917110010208,0,1,10,61,43,14,3,-1
1537917110017190,3,3,2,13,51,26,3,4
1537917110017190,-2,-2,-6,-23,-53,-48,-3,-4
1537917110033147,7,3,0,-1,0,106,-4,8
1537917110033147,-1,-1,-6,-19,-13,-64,-1,0
1537917110034144,0,-2,3,3,-14,-4,-2,2
1537917110034144,4,0,0,5,-19,-22,0,2
1537917110056085,-1,-1,-3,10,28,27,-2,-4
1537917110056085,-5,-3,-4,-11,7,20,1,-4
1537917110057083,-1,-3,-6,-14,-14,7,-3,-2
1537917110057083,-3,-1,-1,9,4,-6,0,-2
1537917110069052,-3,-1,1,-5,-11,21,0,0
1537917110069052,-1,0,2,-5,15,4,0,1
1537917110078028,0,0,-1,6,-3,-14,-1,1
1537917110078028,2,-1,1,0,-5,-3,-1,2
1537917110092986,2,2,-1,0,5,1,3,2
1537917110092986,1,0,1,7,-7,8,-1,-2
1537917110094981,-1,-1,0,2,20,5,-2,1
1537917110094981,-3,-2,-2,-4,-15,-10,-2,-2
1537917110115925,-2,-2,0,-6,-9,13,1,-4
1537917110115925,1,-1,-2,5,11,-6,-1,-1
1537917110116922,-2,0,-2,-2,-8,3,-1,-1
1537917110116922,-1,-1,-2,-5,4,-10,-1,-1
1537917110128890,-1,1,-1,-1,-13,-4,0,-1
1537917110128890,-4,-2,0,2,5,8,-1,2
1537917110137866,0,-1,-3,-3,7,-6,-3,0
1537917110137866,0,-1,-2,-4,-11,-4,-1,0
1537917110152826,-1,-2,-1,2,5,5,-1,-2
1537917110152826,-2,-2,0,2,-3,1,-1,-2
1537917110154821,-1,1,-1,2,1,1,0,1
1537917110154821,-1,0,0,-2,-2,-11,0,-2
1537917110175765,-1,-1,-1,-8,-8,4,-1,-1
1537917110175765,0,-2,-2,-4,1,0,-1,-2
1537917110176762,-2,-1,-2,1,-3,-3,-1,2
1537917110176762,-1,0,-1,-2,-3,-1,-1,-1
1537917110189727,1,1,-1,2,1,2,0,-2
1537917110189727,0,-1,0,-1,-4,1,1,-2
1537917110197706,1,0,-2,-5,0,-1,-3,-3
1537917110197706,0,0,1,1,-5,-3,-3,-1
1537917110212666,-2,-1,-3,-1,-2,2,-1,-1
1537917110212666,1,-1,-1,0,2,-1,-2,1
1537917110214661,0,-1,-1,0,-2,0,-2,-4
1537917110214661,2,0,-1,-1,1,-1,4,2
1537917110235605,-1,-3,0,1,-4,-2,-1,-2
1537917110235605,-2,-2,-1,1,1,2,-1,-3
1537917110236603,2,-1,-2,0,-1,-2,0,2
1537917110236603,-4,-2,0,-3,-5,-2,1,-6
1537917110249568,-1,0,0,-1,-2,-1,-1,2
1537917110249568,0,0,-1,-1,0,-1,-2,0
1537917110258544,-1,0,0,-1,0,-1,-2,-1
1537917110258544,-2,0,-1,-1,0,-3,-1,-2
1537917110273504,0,0,2,-2,-2,2,-1,0
1537917110273504,-1,1,0,0,1,1,-1,-2
1537917110274501,-1,-3,0,-1,-1,-1,-2,-2
1537917110274501,0,-1,-2,-1,-3,0,0,0
1537917110295445,-2,-1,-1,-1,-2,-3,-2,-3
1537917110295445,1,-1,-2,0,0,-1,-1,1
1537917110297440,-2,0,0,2,2,1,1,1
1537917110297440,-2,-2,-1,-2,1,-1,-2,-4
1537917110309408,-2,-1,-2,-1,0,-1,0,2
1537917110309408,-1,-1,-1,0,0,1,-3,-1
1537917110318384,0,-1,-2,-3,-3,-1,-1,1
1537917110318384,-1,-1,-1,-1,-2,-1,-2,-1
1537917110333344,1,-1,-3,-2,-1,1,-1,-1
1537917110333344,0,1,1,0,0,1,0,1
1537917110334341,-2,0,-2,-2,0,-2,-2,-1
1537917110334341,1,-1,0,-1,-1,-1,-1,1
1537917110355285,1,-2,-1,0,-1,-1,-1,-1
1537917110355285,0,-2,-1,-1,0,1,1,1
1537917110357280,0,1,-1,-1,0,0,-1,0
1537917110357280,-1,-2,-1,-1,-2,-2,-1,-2
1537917110369248,-1,0,0,-2,-3,0,-1,1
1537917110369248,-2,-2,-2,-4,-2,-1,-1,-1
1537917110378224,-1,0,0,1,0,-1,1,-2
1537917110378224,-1,0,1,0,2,-1,1,2
1537917110392187,-2,-2,-1,0,-1,-4,-2,-1
1537917110392187,0,0,-1,-2,-4,-2,-2,-2
1537917110399168,-1,-1,0,0,-1,0,0,-1
1537917110399168,-1,0,-2,-3,-1,0,-3,0
1537917110415125,0,0,0,0,1,0,1,0
1537917110415125,-2,-1,0,0,0,-1,0,-2
1537917110417120,0,-1,-2,0,0,2,-2,0
1537917110417120,0,0,-1,1,1,-2,-1,2
1537917110429088,0,-1,-3,-4,-4,-1,-1,0
1537917110429088,-1,1,-2,0,-2,-1,-1,0
1537917110438064,-1,-3,0,0,0,-1,-2,-1
1537917110438064,-1,-2,0,1,-1,-2,-2,-2
1537917110452026,-1,1,-1,0,2,0,0,0
1537917110452026,1,-2,0,-1,0,-1,0,1
1537917110466986,-1,-1,1,-1,0,0,1,-1
1537917110466986,0,-2,-3,-3,-2,0,-1,-1
1537917110475963,-2,0,0,0,-2,0,0,-1
1537917110475963,-1,0,0,0,0,0,0,0
1537917110476960,-1,-1,-2,0,-2,-2,0,-2
1537917110476960,-1,-1,0,0,-1,-1,-1,0
1537917110488928,-1,0,1,1,1,1,1,-2
1537917110488928,0,-2,-1,-1,-1,-3,-1,0
1537917110497904,0,-2,0,-1,0,1,1,-1
1537917110497904,-2,-1,-1,-3,-3,-3,-1,0
1537917110512864,0,-3,-2,-2,-3,-1,-2,-1
1537917110512864,0,-1,1,-1,1,0,-1,-2
1537917110518848,-1,0,0,-1,-1,-1,0,0
1537917110518848,0,0,-1,-1,-1,1,1,-1
1537917110535802,-1,-1,0,-2,-1,-2,0,0
1537917110535802,-2,-1,-2,0,-1,1,0,-1
1537917110536801,-1,-1,-3,-2,0,0,-2,-1
1537917110536801,0,-1,1,1,-1,1,0,-1
1537917110557744,-3,-1,0,0,-1,-2,-2,-1
1537917110557744,-1,0,-2,-2,-2,-2,0,-1
1537917110559739,0,0,1,-1,-2,0,0,-1
1537917110559739,1,-1,-1,0,-1,0,-1,0
1537917110572704,-1,-1,-2,2,1,-1,0,-1
1537917110572704,-2,-1,-1,-3,0,-1,-1,0
1537917110579685,-1,-1,0,-3,-2,-1,-2,-1
1537917110579685,-2,-2,-2,0,-2,0,0,-1
1537917110595643,-1,-2,-1,-2,-2,-1,0,0
1537917110595643,1,-1,0,3,2,-1,-1,-1
1537917110596642,1,0,-2,-1,-1,0,-2,-1
1537917110596642,0,1,1,1,0,-1,-2,-2
1537917110618582,0,-1,0,0,1,0,-1,0
1537917110618582,-1,-1,0,-1,-2,-2,1,-1
1537917110619581,0,-2,-1,-2,0,-3,-1,1
1537917110619581,0,-2,0,-2,-1,-2,-1,-1
1537917110632545,0,-2,-2,-1,-1,-1,1,-2
1537917110632545,-3,0,-1,0,-1,2,0,0
1537917110639527,-2,0,-1,2,2,1,1,-1
1537917110639527,-1,-1,0,0,0,0,0,0
1537917110655483,1,-3,-4,-4,-2,-2,-1,-2
1537917110655483,-1,0,-3,-3,-2,-1,-2,-2
1537917110657479,-2,-1,2,-1,1,-1,1,-2
1537917110657479,-2,0,2,1,2,1,-1,-2
1537917110678423,0,-1,1,9,9,5,1,2
1537917110678423,0,-1,1,8,18,-3,-2,-3
1537917110679421,-1,-1,-2,1,11,2,-1,-3
1537917110679421,-10,-4,-3,-4,26,44,4,-17
1537917110692385,5,1,-4,-2,-39,-64,4,5
1537917110692385,-8,-4,3,8,38,-58,-17,-14
1537917110699367,8,-2,-6,-17,-62,77,9,17
1537917110699367,-2,0,2,10,27,-47,-14,-4
1537917110715323,-2,0,-1,2,-9,93,11,-7
1537917110715323,-7,-2,-14,-47,-63,-39,1,-7
1537917110717318,-17,-3,7,4,-21,-22,-8,-31
1537917110717318,11,3,-1,-14,-4,4,21,10
1537917110738261,1,3,8,11,16,19,-9,-6
1537917110738261,4,5,3,-1,-26,-4,12,4
1537917110739259,-12,-11,-20,-49,-65,-94,-30,-11
1537917110739259,-9,-5,3,20,32,69,-6,-8
1537917110752224,-1,8,17,37,65,33,-1,11
1537917110752224,6,0,1,9,11,-29,18,6
1537917110760202,-12,0,-3,5,48,21,2,-31
1537917110760202,10,-1,-7,-15,-29,82,14,10
1537917110775162,0,-10,-11,-22,63,-16,-22,16
1537917110775162,-13,4,20,47,100,-17,-19,-26
1537917110777157,16,2,-1,-5,-56,30,55,26
1537917110777157,4,-2,-7,-12,-33,-116,-18,7
1537917110798101,-7,0,5,31,98,28,-11,-4
1537917110798101,-1,-11,-27,-58,-119,57,-5,26
1537917110799099,-4,4,12,34,68,-86,-18,-5
1537917110799099,-10,2,8,23,62,76,15,-26
1537917110812064,24,0,-14,-35,-94,-114,5,41
1537917110812064,3,2,11,45,127,94,-17,-5
1537917110821040,-7,0,4,1,-4,-69,5,-1
1537917110821040,1,-5,-21,-59,-84,-93,-6,12
1537917110836000,-8,-4,0,4,53,127,0,-9
1537917110836000,0,-1,0,-3,2,104,4,6
1537917110836997,13,5,-2,-15,-4,75,0,12
1537917110836997,-2,0,5,17,70,-24,-9,-6
1537917110857941,-10,-3,-3,-17,-54,-46,-8,-27
1537917110857941,9,0,-7,-32,-116,-101,11,6
1537917110859936,-8,-1,0,17,65,8,0,2
1537917110859936,2,4,15,32,72,51,-7,1
1537917110871904,8,-1,-8,-14,-113,101,9,14
1537917110871904,12,1,4,30,92,-41,-7,16
1537917110880881,20,0,-3,2,4,-3,-24,33
1537917110880881,-7,-2,-5,-4,22,9,-11,-5
1537917110895840,13,-3,-13,-36,-44,-83,-15,9
1537917110895840,3,1,6,27,64,43,-4,3
1537917110896838,-34,-10,-8,-30,10,112,9,-53
1537917110896838,4,-2,-4,-4,-76,42,7,0
1537917110917781,-5,4,9,26,57,-53,8,-11
1537917110917781,-14,-4,-2,-14,59,-39,-1,-19
1537917110919776,5,7,16,65,92,60,-9,0
1537917110919776,-6,-5,-1,-4,-8,-17,3,-6
1537917110932741,-17,-2,-5,-26,-40,8,10,-15
1537917110932741,16,2,-5,-18,-38,7,-7,30
1537917110940720,5,-3,-2,3,6,-81,-13,0
1537917110940720,0,1,5,32,-4,-17,-4,-5
1537917110955680,30,9,7,4,87,-75,-3,36
1537917110955680,-17,-16,-18,-34,-14,41,-18,-26
1537917110956677,-3,1,0,-5,67,81,6,-2
1537917110956677,-7,-3,-10,-29,-124,-95,-6,-10
1537917110977622,-10,1,11,32,90,38,4,-9
1537917110977622,4,8,12,30,-53,19,19,1
1537917110979616,3,0,2,50,39,-23,-9,4
1537917110979616,18,0,-6,-54,41,72,3,35
1537917110991584,5,-13,-24,-40,-33,2,-25,6
1537917110991584,23,-2,-7,-18,-19,18,-13,41
1537917111000560,6,2,6,-2,10,-113,8,14
1537917111000560,-2,4,13,57,127,39,5,-10
1537917111015520,0,-2,-3,-21,-61,28,2,-2
1537917111015520,-6,1,4,11,-46,-49,8,-7
1537917111017514,8,7,26,96,84,81,-5,15
1537917111017514,8,-6,-21,-54,-96,36,-12,24
1537917111038459,-17,-9,-21,-81,53,12,-2,-28
1537917111038459,-20,-7,-13,-26,-104,-51,0,-24
1537917111039456,11,-5,-11,-68,18,30,0,0
1537917111039456,-22,0,14,50,14,14,9,-16
1537917111051424,-9,3,14,52,64,66,18,-10
1537917111051424,-3,4,0,15,87,21,-3,-9
1537917111060400,-2,-2,-4,-20,-122,5,6,7
1537917111060400,-1,-4,-4,13,-42,-86,-1,2
1537917111075360,-3,1,2,3,16,-51,-10,-10
1537917111075360,-7,1,7,12,14,12,14,-8
1537917111077355,2,1,-1,16,52,-6,-4,-3
1537917111077355,2,-6,-8,-17,38,15,-8,15
1537917111098299,-2,-4,-5,-23,-110,66,-10,4
1537917111098299,-1,-1,8,7,8,-80,9,10
1537917111099297,-7,-1,-2,16,29,-36,-6,-12
1537917111099297,4,-6,-19,-83,-93,-55,-2,0
1537917111111264,-4,-1,-2,-3,-116,-79,1,-9
1537917111111264,-9,3,11,20,47,90,8,-26
1537917111120240,1,2,4,19,-53,-88,4,5
1537917111120240,-4,4,12,62,127,76,5,-7
1537917111135200,0,-2,-6,-36,-68,63,-3,-1
1537917111135200,-5,-4,-5,-26,-33,-107,-4,1
1537917111137195,1,1,3,32,34,18,5,-1
1537917111137195,7,1,-3,-17,-39,4,2,1
1537917111158139,1,-2,1,4,17,-105,-1,16
1537917111158139,6,0,-1,19,31,81,-4,-1
1537917111159136,-10,-3,-5,-37,-65,-19,4,3
1537917111159136,1,2,1,2,53,11,-3,-11
1537917111172101,-3,3,7,34,27,-43,5,-3
1537917111172101,-5,-4,-7,-34,-62,48,-6,-9
1537917111181078,-2,-1,-6,-32,-3,3,2,-2
1537917111181078,-5,-1,1,4,-79,-35,-1,-12
1537917111196037,-1,5,7,34,71,57,7,-7
1537917111196037,-6,-2,1,22,36,-33,2,-11
1537917111197035,-8,-6,-10,-31,-69,37,5,-8
1537917111197035,12,6,7,-3,32,53,-12,28
1537917111225957,11,2,10,53,-4,-77,4,6
1537917111225957,5,1,-2,-9,96,91,-1,1
1537917111226955,-4,-7,-15,-38,-65,-82,-12,-8
1537917111226955,-7,-2,0,-11,-41,-5,2,-4
1537917111231942,12,2,0,6,-35,1,-5,19
1537917111231942,1,2,6,41,70,-1,7,8
1537917111240919,-3,-6,-10,-51,-10,8,-16,-2
1537917111240919,-6,-3,-3,10,-15,-36,-3,-13
1537917111255878,-8,-1,-2,-17,12,8,1,-14
1537917111255878,2,0,2,6,-14,50,2,3
1537917111256875,7,8,10,39,78,51,10,8
1537917111256875,-1,-2,-1,12,4,-86,-2,-2
1537917111277819,-5,-6,-7,-37,-9,2,8,-6
1537917111277819,-5,-3,-4,-18,-8,-4,-10,-1
1537917111279813,1,0,3,10,7,6,4,5
1537917111279813,-2,2,2,10,10,7,0,-13
1537917111291781,-4,1,-1,13,28,1,-5,1
1537917111291781,-1,-2,-4,-19,-36,-27,-3,4
1537917111307739,0,-1,-3,-4,-14,-6,2,-9
1537917111307739,2,-1,-1,-4,-11,-23,-1,9
1537917111315718,-6,0,4,10,21,15,2,-10
1537917111315718,1,-1,-3,-2,-24,-18,-1,4
1537917111316715,-3,-2,-3,-11,-22,2,-5,0
1537917111316715,-4,0,1,1,17,16,2,-4
1537917111337659,-8,-2,2,7,7,11,9,-7
1537917111337659,5,1,-4,-5,-21,-21,-8,2
1537917111339654,-2,-2,-1,-5,-9,2,-1,-3
1537917111339654,-4,0,-1,1,-3,3,-7,-8
1537917111351622,1,-1,-1,4,12,0,-4,5
1537917111351622,-2,-2,-1,-8,-22,-20,29,0
1537917111376555,0,-1,-1,-4,-8,-1,-16,-5
1537917111376555,0,2,2,2,3,10,-6,-3
1537917111377552,0,-3,-2,0,0,-1,45,1
1537917111377552,-8,-12,-1,-3,-5,-11,-27,-1
1537917111381542,14,29,3,-5,-7,5,1,18
1537917111381542,-4,-40,-5,3,10,15,33,-5
1537917111398496,9,35,28,2,2,-10,-24,-9
1537917111398496,5,-15,-4,-5,-15,-14,-8,-14
1537917111399495,2,-25,-18,-1,0,3,0,7
1537917111399495,-10,34,2,-9,-11,-25,-74,-9
1537917111411462,8,-37,-24,-3,1,8,85,28
1537917111411462,2,37,-11,-1,4,21,-16,-17
1537917111420437,-23,-22,17,3,-4,9,-41,-15
1537917111420437,8,-5,-10,2,7,-14,14,-5
1537917111434400,-6,-4,9,0,-5,-10,-15,48
1537917111434400,-19,-4,3,-2,-8,-27,-27,-51
1537917111441382,19,19,-5,-2,-1,10,29,57
1537917111441382,-18,-30,-11,-1,0,12,16,-8
1537917111458336,24,45,18,4,5,0,-41,5
1537917111458336,11,-7,2,-3,-10,-12,12,37
1537917111459334,-6,4,6,-1,1,16,24,-23
1537917111459334,22,-14,5,0,-2,6,-34,39
1537917111480278,-4,9,-13,1,5,-20,-17,-27
1537917111480278,-18,-14,-10,-2,-3,-6,-30,-12
1537917111482272,-7,-3,5,-2,-2,-7,59,-5
1537917111482272,7,26,-4,-4,-5,-5,-16,3
1537917111495238,-18,-11,-7,-3,0,30,-35,-45
1537917111495238,15,1,6,-1,1,6,36,25
1537917111502219,-10,1,-6,3,2,-15,7,-22
1537917111502219,-5,7,4,3,-1,-13,35,17
1537917111518176,-23,-32,-12,-3,2,27,8,-9
1537917111518176,-13,13,9,5,0,7,-4,-50
1537917111519174,9,-16,-5,-4,-2,-21,-14,30
1537917111519174,11,14,4,-2,-3,26,-37,-22
1537917111540118,-15,-16,1,-1,-6,-13,-11,-20
1537917111540118,24,-6,-3,-3,-3,13,12,72
1537917111542112,8,13,-3,-2,0,-2,-29,-27
1537917111542112,-3,4,4,1,-2,-9,33,12
1537917111555077,-5,-6,-4,3,2,-18,43,10
1537917111555077,2,-2,-1,-3,-6,14,-15,-12
1537917111562059,-14,-2,1,2,7,-2,-16,-6
1537917111562059,9,-1,2,1,15,-1,-13,0
1537917111578016,2,6,-6,-11,-32,0,41,7
1537917111578016,7,-2,-1,-1,-9,-46,-54,-2
1537917111580011,7,0,-1,-2,-4,55,66,13
1537917111580011,-6,3,3,10,12,-84,-72,-13
1537917111600955,18,-1,-2,-1,0,78,-1,23
1537917111600955,-20,-1,-1,-3,4,-32,12,-19
1537917111601953,9,-5,-6,-2,-3,43,-14,-19
1537917111601953,0,1,0,-5,3,20,39,14
1537917111614918,-9,-1,2,6,7,-46,-12,-15
1537917111614918,2,0,-1,-2,-5,33,27,12
1537917111621899,-2,-1,-2,1,-1,-14,-5,5
1537917111621899,-11,-4,-2,-1,-10,-33,0,-8
1537917111637856,-12,2,3,2,11,28,-50,-39
1537917111637856,10,0,-4,-2,-2,2,48,51
1537917111639851,2,3,-2,-5,-6,-26,-27,-18
1537917111639851,-1,-15,-1,-3,-4,12,5,-4
1537917111660795,-11,-4,-2,0,1,-21,-10,-8
1537917111660795,4,-6,-6,0,4,0,-1,-7
1537917111661792,-1,-21,4,-1,-8,-6,-5,8
1537917111661792,-2,11,1,-2,-2,6,7,4
1537917111673760,4,2,-2,-3,-3,3,2,-6
1537917111673760,-4,3,-1,-2,-3,-32,-20,-13
1537917111682736,-13,-4,0,3,7,17,16,-22
1537917111682736,3,-1,-1,0,-4,8,11,43
1537917111697697,4,0,0,8,17,-25,-16,5
1537917111697697,-8,-5,-2,-5,-8,5,43,-4
1537917111699691,-9,1,-2,-6,0,-18,-10,-16
1537917111699691,6,-2,-4,-8,-16,3,-8,4
1537917111720635,0,2,1,0,5,4,20,2
1537917111720635,4,2,5,2,1,-14,-34,4
1537917111721632,1,3,-4,0,6,15,-12,7
1537917111721632,-6,1,-2,3,4,9,21,-14
1537917111734598,7,-3,-2,-3,-7,-8,-25,12
1537917111734598,-5,-2,0,0,-3,-12,11,-12
1537917111743574,-1,2,0,2,-1,13,-7,14
1537917111743574,3,-2,-3,-1,4,10,9,-12
1537917111758534,-5,0,0,1,7,3,-2,-6
1537917111758534,-8,0,1,1,-3,0,5,-5
1537917111759531,5,3,-4,-9,-19,-28,-1,17
1537917111759531,-5,-1,-1,1,0,12,6,-12
1537917111780475,3,3,-1,0,0,-6,0,0
1537917111780475,2,-1,-1,-1,9,11,-7,6
1537917111782470,1,-1,-1,1,3,-9,-8,5
1537917111782470,-7,-1,-1,-3,-2,1,14,-22
1537917111794438,3,1,-1,0,-4,-8,-8,5
1537917111794438,-4,-2,3,0,3,35,4,-3
1537917111810395,-3,-2,-2,-1,-7,-24,-6,-6
1537917111810395,-5,-4,0,-1,0,3,-7,-8
1537917111825355,0,-1,2,3,10,-8,10,2
1537917111825355,4,-1,-2,0,2,17,-3,0
1537917111827350,-4,1,-3,-7,-22,-29,-7,-6
1537917111827350,-2,-2,0,2,3,20,21,9
1537917111840315,1,-3,-3,-7,-12,-17,-4,3
1537917111840315,0,1,0,1,8,2,-19,-5
1537917111842310,-4,-1,0,1,10,20,21,0
1537917111842310,-1,1,1,0,-2,-11,-14,-4
1537917111854278,2,0,0,-1,1,-5,-10,-1
1537917111854278,-3,1,5,0,-5,-6,-10,-3
1537917111863254,9,-3,-14,-1,0,-4,13,11
1537917111863254,-1,1,2,1,-1,10,11,-8
1537917111878214,2,-2,-3,-1,-2,1,-8,1
1537917111878214,3,0,0,-2,-3,-12,5,34
1537917111879211,2,2,1,1,2,10,-24,-26
1537917111879211,-1,-2,-2,-2,0,-2,1,7
1537917111900155,2,-1,0,0,-2,-4,-4,3
1537917111900155,-4,-1,-3,-4,-8,-17,-1,-7
1537917111902150,-5,0,4,1,4,12,-13,-5
1537917111902150,2,-3,-3,-2,-2,7,19,4
1537917111914118,-2,-1,1,-2,-4,-6,-2,-3
1537917111914118,-1,-1,-3,1,0,-1,1,-20
1537917111931073,0,1,1,1,1,2,-14,15
1537917111931073,-1,0,0,0,0,-6,-7,1
1537917111938054,-5,-1,-3,2,-2,-7,-15,-4
1537917111938054,-1,-3,-5,-2,-3,4,-5,-13
1537917111939051,0,0,1,1,1,-8,28,9
1537917111939051,-7,-3,-1,-4,-7,-5,17,-3
1537917111960993,4,1,2,0,-1,-11,-5,0
1537917111960993,-3,-1,-3,0,0,18,-22,-10
1537917111961990,0,1,1,0,-1,-42,-8,-18
1537917111961990,5,-1,-1,-2,-4,39,-10,9
1537917111975952,-5,-4,-3,-1,3,16,12,-5
1537917111975952,4,-1,-1,-3,-2,-13,-12,-9
1537917111982934,0,1,1,0,0,-6,-12,13
1537917111982934,-3,-1,-3,0,-1,-17,-9,-11
1537917111997894,-2,0,-1,-1,1,-2,4,4
1537917111997894,-4,-2,-1,1,0,7,16,3
1537917111999889,-3,-1,-3,-4,-3,6,-3,-2
1537917111999889,1,-1,-2,-1,1,-11,-5,1
1537917112020832,0,-2,3,2,3,5,-14,-1
1537917112020832,1,0,-4,0,-2,9,24,9
1537917112021830,-1,-2,5,1,3,2,-21,-7
1537917112021830,-5,0,0,1,4,-3,-2,-4
1537917112033798,-2,0,-4,-5,-8,16,16,-3
1537917112033798,-1,-2,2,0,-2,-1,6,1
1537917112042774,1,-2,-3,-4,1,-8,-13,-1
1537917112042774,1,-2,-2,-4,-23,-14,-6,-3
1537917112057734,-1,-1,-1,0,4,-2,19,5
1537917112057734,-1,1,-1,2,2,-18,-19,-1
1537917112059729,-3,0,-1,1,6,24,-3,7
1537917112059729,1,0,0,1,6,32,9,-1
1537917112080673,-5,-3,-2,-1,-4,-10,-11,-10
1537917112080673,15,-1,-2,-5,-4,3,0,15
1537917112081670,-2,-2,0,-1,-2,-17,-13,-4
1537917112081670,-1,-2,-1,0,2,-7,-3,-3
1537917112094635,-1,0,0,-2,-4,1,-1,3
1537917112094635,-6,0,-3,-3,0,2,12,-4
1537917112102614,-5,-1,0,1,-1,-14,-20,-15
1537917112102614,0,0,-2,0,1,0,-2,-1
1537917112117574,2,-2,0,0,1,3,1,1
1537917112117574,-9,-2,1,0,0,-4,1,-14
1537917112119569,5,0,-1,-1,-2,13,15,15
1537917112119569,1,-4,1,2,2,-21,-13,-2
1537917112140513,-2,-1,0,-1,-1,7,0,-12
1537917112140513,-8,-6,-2,-1,0,-4,9,2
1537917112142507,28,30,-3,-6,-3,7,18,-3
1537917112142507,-18,-34,9,7,9,3,9,0
1537917112154476,4,23,7,-4,-8,-13,-33,-15
1537917112154476,-3,18,0,0,2,5,27,1
1537917112163451,-16,-11,-28,-9,-1,0,28,10
1537917112163451,9,-17,-10,-4,-4,-9,-21,3
1537917112178412,-5,-38,12,4,3,7,13,-3
1537917112178412,-25,2,-13,-3,-4,-8,-6,-16
1537917112179409,1,10,6,2,-7,-19,6,8
1537917112179409,4,11,-3,-4,3,29,-5,0
