timestamp,emg1,emg2,emg3,emg4,emg5,emg6,emg7,emg8
1537918615586198,-3,-1,-3,-3,-4,-2,0,-7
1537918615586198,0,-1,-1,1,12,3,-6,-1
1537918615586198,0,-1,-2,-4,-33,-25,-3,0
1537918615586198,-1,-2,0,1,2,1,-2,-6
1537918615587195,0,-1,0,1,9,9,4,9
1537918615587195,0,-1,-3,-1,-4,-28,7,5
1537918615590187,-2,-1,-2,-3,9,18,-15,-15
1537918615590187,0,-1,-1,-1,-8,-44,11,1
1537918615598165,0,-2,2,1,0,57,-7,-5
1537918615598165,-1,-1,1,3,4,-6,-32,0
1537918615606143,2,-2,0,1,3,-8,46,8
1537918615606143,0,0,-1,-4,-10,0,-7,-30
1537918615612128,2,0,-3,-4,3,-24,-9,4
1537918615612128,-3,-2,0,-3,0,11,-6,-12
1537918615627087,-4,-1,-1,1,1,0,-17,-2
1537918615627087,-4,-1,1,0,0,-9,-3,-4
1537918615638057,-5,-2,0,2,1,-20,3,-6
1537918615638057,-7,-3,-2,-1,8,29,-14,-15
1537918615652019,0,-1,-2,-1,-4,-1,38,-3
1537918615652019,-2,0,-1,-3,3,3,-10,1
1537918615658003,-4,-1,0,4,1,-11,-21,-16
1537918615658003,10,1,-3,-9,-38,3,28,35
1537918615671966,-3,0,-1,2,11,-6,-16,2
1537918615671966,1,-1,-1,1,2,11,0,14
1537918615713855,-2,-2,-1,0,1,1,-8,1
1537918615713855,1,0,1,-1,3,-9,51,12
1537918615714852,-1,-2,-2,-3,4,9,-29,0
1537918615714852,2,0,1,-1,-7,13,0,3
1537918615718841,-1,-1,1,0,3,6,4,1
1537918615718841,-2,0,0,3,4,-1,-6,-4
1537918615718841,-1,0,-1,-4,-15,-33,-2,-1
1537918615718841,-1,-3,-2,-3,-8,6,9,4
1537918615724825,-2,-3,-2,-1,3,3,-9,-1
1537918615724825,0,0,2,3,6,-10,-4,-5
1537918615731806,3,-2,-2,-6,-17,3,-18,8
1537918615731806,-1,-2,-1,2,3,-28,56,0
1537918615740782,0,-1,0,-4,-9,38,-10,-24
1537918615740782,1,-1,0,0,4,-1,-6,57
1537918615755743,-8,-1,3,8,14,10,6,-23
1537918615755743,0,0,-1,-1,-1,-3,-4,2
1537918615762726,4,0,-3,-6,-5,-19,1,1
1537918615762726,-1,-2,-2,-3,-6,8,2,-15
1537918615786661,-1,1,1,2,3,9,6,-2
1537918615786661,-1,0,-1,1,0,-2,-14,5
1537918615787658,-3,-1,1,3,5,-7,9,-1
1537918615787658,2,-3,-4,-5,-5,6,-34,-8
1537918615799626,1,0,-2,-1,1,4,26,7
1537918615799626,-1,-1,1,3,11,-8,-24,-14
1537918615808602,-1,-1,0,-1,-9,-14,15,6
1537918615808602,-6,-2,0,-4,-9,-1,-9,-13
1537918615823562,2,-3,-1,-1,-2,-9,-1,10
1537918615823562,-2,-1,2,3,17,24,-15,-6
1537918615825556,-1,0,-1,0,-15,-18,16,-1
1537918615825556,1,-1,-2,-2,-6,8,11,-4
1537918615846500,-1,-2,-2,-4,0,10,8,-2
1537918615846500,-2,0,-2,-4,-3,-8,-17,-5
1537918615847497,1,-1,0,-1,8,2,-7,5
1537918615847497,-7,0,2,4,4,-15,-3,-24
1537918615859465,-1,2,-1,-2,-1,-12,0,1
1537918615859465,1,-1,-3,-4,-12,8,1,1
1537918615868441,0,-1,1,0,4,-6,-12,-3
1537918615868441,-1,0,-1,-2,3,10,-3,-2
1537918615883401,-1,-2,-1,2,1,-19,4,-2
1537918615883401,-3,-2,0,-2,-5,4,-8,2
1537918615885396,-1,-2,-1,-2,-2,1,12,-2
1537918615885396,2,0,-1,0,2,5,-16,-3
1537918615906340,-2,0,-3,-2,-3,0,12,0
1537918615906340,3,-1,0,-1,-6,-8,7,2
1537918615907338,-2,0,-2,-1,-1,5,-7,1
1537918615907338,0,-1,-2,-2,1,-5,-16,-3
1537918615919306,0,-1,1,1,4,8,15,-3
1537918615919306,-1,0,0,0,-1,2,2,-3
1537918615928284,-2,0,1,5,39,25,-5,0
1537918615928284,-4,0,1,6,1,-43,6,-5
1537918615944283,-3,-2,-1,-8,-51,5,-13,6
1537918615944283,-3,-1,-3,-7,-18,5,12,-8
1537918615945239,-2,0,-1,2,18,-8,-1,2
1537918615945239,-2,2,9,31,104,94,-7,-38
1537918615966182,-4,-3,4,13,-5,-84,0,-44
1537918615966182,-1,0,0,9,44,-33,12,35
1537918615967179,21,2,0,-4,-61,87,-15,43
1537918615967179,-14,-6,4,24,58,-117,-9,38
1537918615980144,14,3,2,-8,-41,124,-1,-93
1537918615980144,19,7,-8,-48,-85,-89,85,10
1537918615989121,10,-5,-13,-47,-109,101,5,9
1537918615989121,32,12,2,-4,38,-72,-67,35
1537918616004081,-20,4,9,17,17,-16,-15,-27
1537918616004081,-12,1,12,38,115,-31,-37,-35
1537918616005079,-17,-4,-4,-22,-69,-9,25,-15
1537918616005079,-33,-9,-16,-54,-17,85,-21,-28
1537918616026021,-4,8,23,50,10,90,68,2
1537918616026021,-9,-12,-28,-50,-81,-89,-104,-37
1537918616028017,-3,6,12,45,127,-41,-36,-36
1537918616028017,-8,-9,0,33,-19,-8,67,-36
1537918616039984,-21,-13,8,25,127,47,-1,4
1537918616039984,4,14,-18,-63,-85,75,26,23
1537918616048959,-10,-10,-19,-58,-89,21,-24,-30
1537918616048959,8,-3,4,10,70,29,9,22
1537918616063919,28,9,-11,-8,66,-77,-47,26
1537918616063919,0,7,24,91,127,127,30,3
1537918616064917,-7,-1,-11,-34,-38,-57,-11,10
1537918616064917,9,-1,-9,-34,-105,87,1,-4
1537918616085860,-5,-6,-3,9,105,90,37,71
1537918616085860,19,-8,-5,-32,-86,47,-35,41
1537918616087855,-7,12,27,69,127,-128,41,-34
1537918616087855,-2,-8,-12,-32,-115,112,7,-27
1537918616099823,9,-3,-4,-8,-77,-128,-11,50
1537918616099823,4,-4,-3,-7,-52,50,-11,26
1537918616108806,2,2,13,45,109,-33,58,29
1537918616108806,1,-7,-18,-57,-82,43,-1,-30
1537918616123760,-1,2,-3,-27,10,-28,-20,2
1537918616123760,-9,-1,5,21,34,-57,11,-7
1537918616124758,0,0,6,31,83,22,-39,-42
1537918616124758,17,8,-2,6,-39,-128,2,32
1537918616145702,10,-3,-15,-32,-44,-34,-22,-1
1537918616145702,-17,4,24,62,118,73,-7,-31
1537918616147696,-12,-9,-26,-68,-128,-64,-19,-12
1537918616147696,8,3,0,15,127,34,-24,11
1537918616159663,-6,-7,-11,-33,-37,-3,26,39
1537918616159663,1,-2,7,26,24,-3,27,23
1537918616168640,17,10,19,57,119,-43,12,35
1537918616168640,-14,-5,-12,-36,-128,-94,-7,-24
1537918616184597,-5,-2,1,11,12,52,17,-29
1537918616184597,0,-4,-5,-11,24,-54,-21,-14
1537918616189583,-5,-4,-2,1,-41,63,-24,22
1537918616189583,-6,0,4,-6,13,-21,53,15
1537918616206538,3,2,1,-1,-25,-25,-34,5
1537918616206538,-3,-5,-5,-7,1,-6,37,-15
1537918616207535,0,-1,-3,-10,-33,11,-26,41
1537918616207535,5,6,11,35,49,23,23,13
1537918616219503,-6,0,-4,-6,-13,10,-16,-19
1537918616219503,-5,-2,-2,-7,-19,-10,-16,-12
1537918616236457,0,-3,-4,-6,-8,8,-14,-8
1537918616236457,-7,12,4,8,10,0,2,-9
1537918616243439,6,-1,-4,-7,-3,-10,-2,11
1537918616243439,-10,-24,-2,-6,-7,-20,-51,-32
1537918616245434,-19,-5,-2,-2,-12,23,92,-48
1537918616245434,7,8,0,7,23,-8,-4,3
1537918616266377,-2,4,-2,-5,-12,-8,-5,-39
1537918616266377,6,4,-1,-2,-1,6,15,23
1537918616267375,-4,-4,-3,-2,-1,17,-5,-10
1537918616267375,0,-1,8,25,55,-33,-34,-11
1537918616288319,-6,-6,-13,-24,-56,-26,1,-1
1537918616288319,-5,-1,-6,-19,-25,-5,-6,-15
1537918616288319,5,1,3,4,19,35,7,10
1537918616288319,-3,-4,4,13,19,-62,-4,8
1537918616302282,-1,-5,-5,-18,-32,19,-4,1
1537918616302282,-4,1,-4,-4,-14,-7,40,11
1537918616310261,5,2,-1,-6,-17,11,-27,-8
1537918616310261,-1,-2,3,9,-1,22,3,15
1537918616325221,-1,0,3,11,35,12,6,0
1537918616325221,-2,1,-1,-2,-9,-7,-26,-5
1537918616326220,1,2,-2,-6,-6,-10,3,3
1537918616326220,0,-3,-3,-3,-9,27,-9,-11
1537918616348160,-5,-2,0,5,4,-18,-12,-1
1537918616348160,1,1,0,-2,9,1,7,11
1537918616349157,3,-1,0,8,16,1,10,5
1537918616349157,-4,-3,-3,-8,-24,-46,-7,-1
1537918616363121,1,-4,0,-1,9,53,-8,6
1537918616363121,1,-1,-1,3,4,-40,2,-1
1537918616364119,-1,-1,-1,-2,10,71,0,1
1537918616364119,-3,-4,-4,-16,-47,29,1,-1
1537918616385061,1,0,4,18,41,-59,11,3
1537918616385061,0,1,2,8,44,39,-10,-11
1537918616386059,1,-3,-10,-31,-101,-109,-11,1
1537918616386059,-4,-2,0,-1,-1,12,11,-2
1537918616408001,4,0,3,12,23,-18,-2,9
1537918616408001,-5,-2,-6,-14,-31,84,-3,-8
1537918616408998,-1,2,1,12,60,-9,-13,4
1537918616408998,-9,-3,0,-4,-21,-11,10,-1
1537918616422960,14,1,-5,-10,-42,-29,-6,20
1537918616422960,-3,2,1,4,11,-31,-31,-15
1537918616423958,3,8,-1,0,2,19,24,0
1537918616423958,-9,-11,0,1,5,13,-26,-20
1537918616444901,-5,1,1,4,26,52,39,38
1537918616444901,29,14,-2,2,-16,-57,25,33
1537918616445898,-27,-33,-1,-1,-13,-9,-70,-45
1537918616445898,32,8,-1,1,24,47,61,5
1537918616467839,-10,28,6,3,-8,-3,-49,-38
1537918616467839,5,20,-1,-8,-5,-7,4,17
1537918616468836,7,-12,-2,2,-7,-13,47,-7
1537918616468836,-21,-21,-2,1,12,1,-38,-11
1537918616481802,-18,5,-1,-3,-2,3,-6,-19
1537918616481802,16,-4,8,-5,-14,-27,-62,8
1537918616489780,29,-1,-9,-4,10,20,70,76
1537918616489780,-4,28,-2,5,5,0,24,-20
1537918616505737,-3,-8,2,6,3,18,39,15
1537918616505737,-26,-4,-14,0,4,-1,9,-86
1537918616505737,-1,13,42,2,-12,-5,78,43
1537918616505737,13,38,33,1,17,47,33,43
1537918616527679,22,-48,-53,-4,-2,-21,-32,-7
1537918616527679,-24,-13,4,2,1,0,-7,-3
1537918616528676,-24,-31,-34,-8,-9,-13,-77,-50
1537918616528676,-11,-6,0,-6,-11,-22,-4,-5
1537918616542639,6,11,22,0,0,0,-12,-12
1537918616542639,1,4,2,-1,1,0,19,17
1537918616543636,-1,1,-2,3,5,18,-25,-11
1537918616543636,5,4,3,2,4,-30,-27,19
1537918616565578,3,2,-1,-6,-2,39,35,15
1537918616565578,-1,-11,-7,2,5,12,8,1
1537918616566575,7,24,7,0,2,-15,-26,19
1537918616566575,2,-15,-15,-6,-9,-35,-36,-17
1537918616587519,-9,-5,4,-3,-2,23,-1,-8
1537918616587519,-9,-5,3,3,0,0,4,-2
1537918616588516,3,4,-3,-3,-1,8,8,-15
1537918616588516,-7,-14,-9,0,5,18,-13,2
1537918616602479,-7,-11,2,-1,-6,-38,-50,-12
1537918616602479,13,6,5,-2,-1,2,53,17
1537918616603476,-4,5,-1,4,4,-18,-44,-3
1537918616603476,0,-16,-6,3,6,30,20,5
1537918616625418,17,29,11,1,-1,-8,15,1
1537918616625418,-3,-10,-7,-6,-5,3,-37,-9
1537918616626415,-4,-1,-3,-3,-8,-9,-22,-5
1537918616626415,-1,-2,-5,-4,-3,-13,6,0
1537918616648357,5,9,2,1,4,8,-10,9
1537918616648357,-15,-20,1,0,-2,1,5,-5
1537918616648357,8,8,-2,-1,1,2,16,-3
1537918616648357,-5,-6,-2,1,3,7,-1,4
1537918616663316,-10,-5,-2,1,0,3,3,-8
1537918616663316,3,7,-2,-3,-6,-16,9,1
1537918616663316,-5,-2,-1,-1,-2,4,7,1
1537918616663316,-1,-3,-1,5,12,18,-19,-11
1537918616684260,-6,-3,-1,-3,2,-7,16,1
1537918616684260,6,4,-2,-12,-23,-51,11,2
1537918616693236,2,-2,-1,1,-1,24,-33,-2
1537918616693236,0,2,-3,-4,-13,3,13,2
1537918616708196,0,-4,-3,-4,1,2,-9,-4
1537918616708196,-4,-2,2,5,11,12,-9,4
1537918616708196,-1,1,0,-3,-1,-20,1,-5
1537918616708196,-2,2,-1,2,2,-1,1,-6
1537918616730137,-9,-5,-1,1,10,18,-8,-5
1537918616730137,3,1,1,6,6,-42,8,3
1537918616731135,-2,0,-5,-10,-9,56,-2,-2
1537918616731135,-5,0,0,0,-3,-4,0,-9
1537918616753076,5,-4,0,0,2,9,5,6
1537918616753076,5,3,-1,2,10,5,-4,5
1537918616754074,-10,-2,-1,2,4,-14,9,-16
1537918616754074,4,-1,-1,-5,-7,-2,1,8
1537918616768036,-6,-3,-1,-2,-7,-11,9,-7
1537918616768036,-3,-1,-2,2,3,20,-2,-5
1537918616775019,2,-1,0,3,1,-12,-18,2
1537918616775019,1,-3,-3,-3,-3,-2,18,6
1537918616789978,-4,-1,0,1,-3,-12,14,-3
1537918616789978,2,-1,0,-2,-1,13,-11,-2
1537918616790976,1,0,0,-2,-4,-3,12,2
1537918616790976,-1,-1,2,4,8,-15,-18,-1
1537918616804938,2,-1,0,0,-3,2,0,-1
1537918616804938,-4,-4,-6,-8,-10,7,6,-2
1537918616812916,1,0,-1,2,8,-9,-6,2
1537918616812916,0,0,-1,2,14,12,-3,-2
1537918616827877,-1,-3,-1,-4,-21,-16,7,-4
1537918616827877,-4,0,4,17,65,30,-9,6
1537918616828874,1,2,5,11,5,-10,-25,-22
1537918616828874,-4,-8,-13,-25,8,-4,17,20
1537918616851813,-4,0,2,0,-2,-30,5,-22
1537918616851813,-10,-4,-2,0,-12,58,-35,-8
1537918616852810,-1,-1,8,36,93,-25,42,-68
1537918616852810,13,5,-5,-25,-86,-44,-108,-1
1537918616864778,2,-2,-14,-51,-82,-34,76,-23
1537918616864778,-9,-1,24,76,85,-72,-3,-38
1537918616872757,-15,-9,-26,-76,-128,-8,60,71
1537918616872757,2,0,-1,11,102,-85,-73,-97
1537918616887717,-9,4,8,20,16,89,-110,-18
1537918616887717,1,-5,-28,-78,-108,-128,10,-47
1537918616888714,7,4,9,23,48,36,-41,47
1537918616888714,1,4,20,63,50,71,124,74
1537918616910656,-13,-15,-25,-75,-40,-51,-69,2
1537918616910656,6,6,18,69,118,121,1,16
1537918616910656,8,4,5,9,-35,-74,-6,4
1537918616910656,-7,-12,-28,-67,-112,66,-48,4
1537918616933594,0,-1,6,24,12,-25,30,-46
1537918616933594,4,2,0,-6,35,85,60,37
1537918616934591,2,2,10,23,106,69,-15,-8
1537918616934591,2,7,22,57,-12,-34,7,-9
1537918616947557,-2,3,8,44,127,-30,-1,32
1537918616947557,1,-9,-34,-99,-128,16,-1,-19
1537918616948554,6,-6,-12,-2,110,127,86,93
1537918616948554,-7,-3,-1,-18,6,-51,13,-13
1537918616970495,15,8,19,49,105,16,-18,7
1537918616970495,6,0,6,13,99,13,-33,14
1537918616971492,2,1,5,12,60,65,3,-60
1537918616971492,0,-1,-5,-15,-34,27,-13,39
1537918616993434,4,-7,-13,-26,-128,10,6,15
1537918616993434,-2,2,8,20,38,-9,-1,5
1537918616994433,-14,-8,-10,-31,-92,-50,-42,-37
1537918616994433,1,2,-6,-8,4,-38,19,-7
1537918617007397,-8,0,5,21,39,77,18,18
1537918617007397,-13,-3,1,0,70,-38,28,-2
1537918617008394,3,-2,-14,-44,-128,-63,-63,-24
1537918617008394,-8,1,14,31,124,67,8,25
1537918617030335,17,6,-4,-10,-88,-67,34,31
1537918617030335,4,2,-4,0,-42,105,-33,-1
1537918617031333,0,4,4,13,-17,-124,21,-7
1537918617031333,2,4,9,44,78,80,12,24
1537918617053274,-23,-13,-17,-53,-80,18,-2,13
1537918617053274,7,0,-5,-24,-80,21,13,2
1537918617054271,-5,3,7,31,55,-89,-2,-17
1537918617054271,3,-3,-3,-8,14,110,53,21
1537918617068234,-14,-7,-5,-4,17,67,17,4
1537918617068234,13,4,-4,-13,-86,-128,29,14
1537918617068234,-6,-6,-2,-20,-61,9,-28,6
1537918617068234,-3,-4,-4,-16,-90,-101,-24,-24
1537918617090175,3,2,9,23,87,53,8,7
1537918617090175,0,-1,-4,-5,24,-34,-35,0
1537918617091172,1,3,9,24,50,45,33,-8
1537918617091172,-2,-2,-2,-4,56,48,-8,16
1537918617114111,5,2,0,1,-5,-65,-30,-7
1537918617114111,1,-2,1,3,8,47,36,11
1537918617114111,2,-1,-7,-26,-85,-36,-23,-18
1537918617114111,4,8,16,35,53,-37,21,-24
1537918617128074,-3,-1,2,14,75,-28,-13,-18
1537918617128074,2,-2,-8,-24,-62,-64,24,31
1537918617129071,-5,-1,-7,-2,78,63,-3,-32
1537918617129071,14,0,-10,-38,-71,-83,52,61
1537918617152010,0,2,3,11,-11,44,5,-38
1537918617152010,-4,0,4,18,37,56,-33,8
1537918617152010,-2,-3,-3,-3,18,5,-15,-4
1537918617152010,-12,-11,-9,-16,-59,-78,-63,-53
1537918617173951,8,3,0,13,38,77,89,4
1537918617173951,6,-5,-7,-25,-80,-66,-28,21
1537918617173951,8,6,6,31,53,29,32,23
1537918617173951,0,-2,-4,0,28,93,14,9
1537918617187914,-3,-2,-4,-14,-9,-55,-49,-35
1537918617187914,-17,-4,-2,-1,4,10,1,-37
1537918617188911,8,2,2,-2,-12,-5,-2,52
1537918617188911,-3,1,1,7,-12,-10,-3,-17
1537918617210853,-2,-1,-1,-4,-14,-4,4,54
1537918617210853,1,1,3,12,48,-9,-9,-21
1537918617210853,-9,-2,1,0,-28,-1,-13,-17
1537918617210853,-5,0,1,2,19,1,-7,-23
1537918617233792,-1,-2,-4,-15,-32,2,-49,5
1537918617233792,-8,-1,3,13,48,-9,16,-4
1537918617233792,4,-2,-8,-17,-25,76,-13,2
1537918617233792,1,-2,-7,-21,-25,20,21,-9
1537918617247754,0,-1,4,3,-12,-68,22,-11
1537918617247754,-2,2,4,11,-2,19,10,0
1537918617248751,-3,-1,1,6,16,4,6,-12
1537918617248751,-5,-1,-2,-3,6,1,-8,-16
1537918617270693,-2,1,-1,5,3,11,-23,2
1537918617270693,0,-1,4,6,18,42,-1,4
1537918617270693,0,-2,-1,-4,-9,-18,31,11
1537918617270693,-2,-1,0,3,2,0,7,2
1537918617293632,2,0,2,1,4,5,1,-6
1537918617293632,-4,-2,-2,0,-5,-7,-12,-13
1537918617294629,0,-1,-2,-4,-4,-23,-16,-2
1537918617294629,-3,-1,-1,-4,-18,-10,-6,3
1537918617307594,-3,-2,-1,-2,1,1,-9,-12
1537918617307594,-1,1,1,-2,3,4,-9,-4
1537918617308592,-5,-3,0,2,4,3,2,1
1537918617308592,19,32,-1,-1,-2,12,-4,-8
1537918617330534,-11,-32,-4,0,-1,0,12,11
1537918617330534,3,-19,-3,1,3,-3,-6,-12
1537918617331532,11,28,4,1,2,10,-3,10
1537918617331532,-28,-24,-5,-8,-11,-8,-8,8
1537918617353473,28,34,2,-1,2,-6,-8,5
1537918617353473,13,4,7,2,-1,0,5,5
1537918617354472,-1,-16,-10,-3,-5,-10,-11,1
1537918617354472,5,-1,-1,-4,-4,2,-54,-15
1537918617367435,0,-2,1,3,3,1,81,6
1537918617367435,-17,8,3,1,2,8,-8,5
1537918617368433,1,-22,-6,-3,-2,-3,-5,-9
1537918617368433,5,15,8,5,2,0,7,1
1537918617390375,-20,3,-8,-7,-4,-6,-23,-8
1537918617390375,7,9,-2,-1,-3,-3,-4,-4
1537918617391372,-2,-1,0,-1,-2,-5,10,1
1537918617391372,-3,-13,-4,-2,-5,-3,0,-4
1537918617415308,5,-4,3,0,1,2,-7,0
1537918617415308,-8,4,-3,0,2,0,-1,-3
1537918617415308,-5,-3,-1,-1,-3,-4,-9,-1
1537918617415308,-2,-7,-1,0,-2,1,21,0
1537918617427275,-5,0,-2,1,-1,-1,-13,-5
1537918617427275,0,-2,0,1,1,1,-1,-3
1537918617435253,-6,-2,1,0,-1,-8,-5,0
1537918617435253,2,-2,-2,2,0,7,7,-4
1537918617450213,0,5,-1,-1,-3,-2,0,2
1537918617450213,-2,-6,-4,1,-3,2,-4,-3
1537918617451211,3,1,3,1,-1,-5,-3,0
1537918617451211,-2,0,-3,0,-4,-4,3,-3
1537918617473152,-1,-6,-3,-2,1,2,-11,-1
1537918617473152,0,-3,0,-2,0,3,1,1
1537918617474149,-5,1,2,4,34,22,-3,-5
1537918617474149,0,-2,-2,-6,-38,-21,16,3
1537918617487114,-1,-2,-2,-4,-18,-18,-9,-1
1537918617487114,1,-2,-1,0,-1,-1,-1,-3
1537918617495093,1,4,-1,-2,2,-3,4,0
1537918617495093,-1,-3,-2,3,24,44,-5,0
1537918617510053,0,-2,1,-1,-6,-19,-19,0
1537918617510053,-1,0,-2,-3,-3,30,57,1
1537918617511050,1,-1,-1,0,2,11,-6,0
1537918617511050,-2,-2,0,2,10,-12,-1,-1
1537918617533989,-4,0,-2,0,-2,1,-5,-4
1537918617533989,-4,-2,-2,-2,5,-4,-19,0
1537918617533989,-3,-1,-3,-6,-15,-10,6,0
1537918617533989,0,0,0,-2,0,-10,-2,-1
1537918617546954,1,1,0,1,1,4,2,-1
1537918617546954,0,-2,-1,1,2,-10,-11,-2
1537918617555930,-1,-1,1,-2,-7,-3,6,2
1537918617555930,-2,-1,-3,-2,-3,-10,-9,-3
1537918617571888,1,-1,1,4,10,12,3,-1
1537918617571888,0,-2,0,0,2,-1,-3,-1
1537918617578869,-1,0,-1,-3,-12,-9,-1,-3
1537918617578869,-1,-2,-3,-1,0,1,-2,0
1537918617586848,0,-3,0,-2,5,5,5,3
1537918617586848,-1,-1,-1,-1,-4,-8,-6,-1
1537918617588844,-2,0,0,-2,-6,-4,-1,-1
1537918617588844,-2,0,1,2,0,-2,-1,-3
1537918617599813,0,-1,0,0,2,4,3,-3
1537918617599813,-3,-1,-1,3,-2,-6,-10,0
1537918617606794,1,0,-2,-1,-3,-1,1,-3
1537918617606794,-3,0,0,-3,0,-1,0,3
1537918617621754,1,-1,-1,-1,-1,4,5,4
1537918617621754,-2,1,-2,-3,-2,-3,-11,2
1537918617629733,1,1,3,11,54,26,-4,-11
1537918617629733,-3,-3,3,4,0,11,0,4
1537918617645690,-5,-5,-6,-18,-39,13,-14,-21
1537918617645690,6,3,4,9,58,-16,2,25
1537918617645690,-9,-9,-15,-42,-89,-19,8,-38
1537918617645690,1,7,14,37,127,-8,-35,-5
1537918617659653,2,1,6,13,-19,5,27,7
1537918617659653,1,-4,-9,-12,-28,-44,21,-5
1537918617667631,-18,-5,3,20,41,88,-61,-63
1537918617667631,1,-6,-19,-57,-128,-105,22,47
1537918617682591,-4,1,-1,4,117,67,-13,-70
1537918617682591,4,1,6,16,-13,58,39,38
1537918617689573,5,-2,-15,-53,-85,-47,9,-14
1537918617689573,-10,-7,-4,0,9,-21,38,-33
1537918617705530,-7,9,24,65,72,54,-57,14
1537918617705530,10,5,-2,-2,-26,35,16,26
1537918617706528,-7,-9,-14,-22,-56,-91,-19,7
1537918617706528,-13,-6,-16,-54,-103,66,-39,-51
1537918617719493,10,-4,-10,-22,-22,-84,65,22
1537918617719493,-6,0,13,43,127,83,-22,-31
1537918617727472,-5,7,31,84,93,76,15,31
1537918617727472,5,-7,-7,-9,-62,-106,-35,6
1537918617742433,-31,-12,-15,-32,-37,-25,-44,-77
1537918617742433,4,-1,0,-1,45,-45,-23,-2
1537918617749414,11,2,-5,-17,24,-9,72,41
1537918617749414,-8,-11,-13,-16,106,127,-49,-15
1537918617765371,11,12,17,43,77,106,-23,11
1537918617765371,-8,-3,-5,-8,-27,-98,25,-36
1537918617766368,13,4,-5,-28,-46,-114,-55,12
1537918617766368,7,3,10,42,88,77,26,-34
1537918617779333,4,4,5,25,58,-1,39,91
1537918617779333,-9,-5,-18,-53,-76,66,-62,-64
1537918617787312,-1,0,8,25,67,17,-22,10
1537918617787312,14,11,10,7,-104,-74,56,57
1537918617802271,-15,-14,-25,-62,-92,-62,-3,-44
1537918617802271,3,1,10,25,57,-18,-20,-50
1537918617809253,1,-1,-2,-7,-8,32,1,-24
1537918617809253,-5,0,6,19,45,95,9,-2
1537918617825210,4,1,5,8,15,-17,0,30
1537918617825210,-10,2,8,21,48,24,-49,-63
1537918617826208,-12,-8,-12,-31,-63,-43,12,-15
1537918617826208,-15,2,12,27,103,-49,43,21
1537918617840170,4,-3,-3,-12,-100,62,-7,-15
1537918617840170,-3,-4,-12,-11,27,-25,27,33
1537918617847152,5,0,-6,-2,-12,50,-27,6
1537918617847152,-2,3,11,27,75,81,29,-11
1537918617862113,3,0,0,2,-9,-42,12,16
1537918617862113,-11,-8,-21,-61,-111,120,-9,21
1537918617870091,-10,5,12,34,96,47,81,-1
1537918617870091,-2,-4,-9,-21,1,-2,-55,11
1537918617885051,-5,3,2,17,49,75,-20,-53
1537918617885051,14,2,4,1,-39,-26,4,43
1537918617886048,-7,-1,2,15,68,46,-14,28
1537918617886048,5,2,0,-9,-32,101,10,-36
1537918617900011,0,3,5,24,84,4,-16,-14
1537918617900011,3,0,2,12,48,-30,15,33
1537918617906992,-11,-10,-18,-56,-96,-76,-98,-44
1537918617906992,7,1,9,28,99,66,62,16
1537918617921952,7,-1,3,-4,-33,-102,5,46
1537918617921952,-1,-3,-8,-3,-49,13,37,53
1537918617929931,28,4,0,-7,-52,59,19,36
1537918617929931,0,1,0,-1,-10,-20,-21,-23
1537918617944892,0,-5,-8,-28,-58,-10,-30,-29
1537918617944892,-7,-3,1,3,35,-12,-7,-44
1537918617952870,3,3,6,22,34,10,4,-11
1537918617952870,-9,-2,-2,1,-29,-87,10,13
1537918617968828,4,0,-9,-23,-71,27,47,-4
1537918617968828,-5,-2,5,10,0,29,-20,-25
1537918617969825,-1,2,6,11,27,6,42,13
1537918617969825,-1,-2,-8,-28,-112,-45,-44,-36
1537918617981792,13,-1,-5,5,87,-2,10,54
1537918617981792,-6,0,0,-10,-27,-50,16,57
1537918617989771,7,0,0,-3,-31,-10,1,16
1537918617989771,1,-2,-4,4,-4,-95,-40,-28
1537918618004731,-7,-1,2,-5,28,71,31,-7
1537918618004731,-1,-2,-1,-4,-32,-41,-5,-25
1537918618012709,1,1,5,8,28,5,-8,13
1537918618012709,-1,-2,-4,-4,4,-23,-15,1
1537918618019690,-3,0,2,5,-5,-34,-22,5
1537918618019690,7,2,0,-3,-13,29,45,22
1537918618027669,-9,-2,0,5,15,2,4,-25
1537918618027669,3,-2,-4,-8,0,12,-26,27
1537918618042629,-4,-4,-6,-21,-56,-32,32,-1
1537918618042629,1,0,3,6,18,0,-3,-18
1537918618049610,0,1,2,11,21,-5,37,23
1537918618049610,1,1,0,-1,-8,4,18,-11
1537918618064570,-3,-1,-2,2,15,8,-19,-1
1537918618064570,4,0,1,2,3,-29,-37,-10
1537918618072549,-1,0,-2,2,10,3,-1,-5
1537918618072549,0,-2,-3,-5,-6,-7,7,6
1537918618079530,0,0,1,-1,-12,-12,-12,4
1537918618079530,0,0,1,5,8,4,3,-3
1537918618087509,-1,-1,-4,-3,-12,-19,-2,-5
1537918618087509,0,-1,-1,-1,-6,5,7,11
1537918618102469,-3,-3,-2,0,-4,-22,-10,1
1537918618102469,-1,-1,-3,-3,-2,3,5,3
1537918618110448,0,0,-2,-2,4,4,7,-4
1537918618110448,3,0,1,0,-5,-19,-9,9
1537918618124410,-1,1,-2,0,2,5,11,10
1537918618124410,1,0,-1,1,5,1,-3,-14
1537918618133387,-2,0,0,2,-2,-8,-9,1
1537918618133387,-1,1,-1,-1,-2,-2,8,4
1537918618139370,-1,-2,0,-5,-10,-10,-3,-6
1537918618139370,-1,-1,-1,-2,0,2,-2,2
1537918618147349,-2,-1,-1,2,1,-10,-3,-4
1537918618147349,-1,-2,-4,-2,-6,-1,0,6
1537918618162309,-1,0,2,2,5,5,2,0
1537918618162309,-1,0,-2,-4,-2,-10,-10,0
1537918618170288,-2,0,0,1,2,2,5,0
1537918618170288,-2,1,1,2,-1,1,1,1
1537918618184251,2,-1,-2,-4,-7,-5,-5,-1
1537918618184251,-1,-1,2,1,1,1,0,-2
1537918618193226,0,-1,-2,-2,-4,-6,-5,-1
1537918618193226,0,-2,2,0,-2,0,-1,2
1537918618208186,-2,-1,-1,1,1,-2,-1,-3
1537918618208186,0,-1,-1,0,1,1,-2,5
1537918618208186,0,-1,-2,-3,1,-1,1,-2
1537918618208186,0,0,-2,-4,-4,-2,0,1
1537918618222149,-1,1,-1,3,-2,-5,-1,0
1537918618222149,-2,-1,0,3,1,3,2,-2
1537918618230128,0,-1,-1,-2,-2,-10,-6,-1
1537918618230128,-1,-1,-1,0,9,12,5,1
1537918618245088,-1,-2,-2,-4,-14,-8,-2,-2
1537918618245088,-2,-1,-2,0,0,0,1,-2
1537918618253067,-1,-2,1,0,-1,-6,-3,2
1537918618253067,0,0,-2,-1,3,4,-4,-2
1537918618268027,-1,0,0,4,10,5,7,0
1537918618268027,-1,0,-1,-1,-7,-5,-2,-2
1537918618269024,-1,-3,-1,-1,0,3,1,-1
1537918618269024,2,0,-1,-4,-6,-6,-3,1
1537918618281989,-1,-1,0,0,5,2,-2,-1
1537918618281989,-3,1,-1,-1,2,0,-2,-2
1537918618289968,2,1,-1,-2,0,-2,-4,-2
1537918618289968,-1,-1,0,2,5,-2,0,-1
1537918618304928,1,-1,-1,0,-17,-11,1,1
1537918618304928,1,-1,-1,-4,-10,-7,-3,2
1537918618320885,-1,-1,0,-1,-3,1,0,-2
1537918618320885,-2,-3,0,-1,1,-1,-1,-2
1537918618327867,0,-2,-1,1,8,9,-3,0
1537918618327867,0,-1,-1,-2,0,-4,1,-2
1537918618328864,2,0,-2,-1,-4,0,-7,2
1537918618328864,1,0,0,3,-1,-3,9,14
1537918618341830,-1,0,0,1,11,6,-3,-6
1537918618341830,-1,-2,-2,-5,-17,-11,2,1
1537918618350806,-1,-4,-1,0,2,1,-10,-6
1537918618350806,-3,-1,-2,0,6,11,-2,9
1537918618364768,-5,-1,3,18,50,-88,-17,-41
1537918618364768,14,3,0,-13,-69,82,13,29
1537918618372747,-3,-1,-2,5,39,25,27,11
1537918618372747,-4,-2,-1,0,-1,-22,-6,-32
1537918618387707,7,0,-1,-10,-51,45,15,66
1537918618387707,-11,-2,-1,4,41,19,-12,-55
1537918618388704,4,-4,-6,-16,-58,-86,-49,10
1537918618388704,-13,-6,1,23,96,84,3,-40
1537918618402666,-2,0,3,17,105,25,-59,-45
1537918618402666,0,-5,-11,-33,-77,-7,64,2
1537918618410646,-1,2,-1,-17,5,-39,-57,-13
1537918618410646,-19,-4,4,27,77,-99,24,-35
1537918618424608,13,8,10,16,33,110,56,42
1537918618424608,5,6,5,22,94,-114,-28,40
1537918618432587,-4,-6,-15,-44,-98,-74,67,-5
1537918618432587,19,1,-3,-4,29,8,-35,53
1537918618447546,-1,6,13,24,17,-15,86,66
1537918618447546,-6,-4,-4,-9,11,-4,-34,-22
1537918618448544,-6,6,22,59,91,122,-5,22
1537918618448544,14,1,-9,-33,-128,-122,-4,26
1537918618469488,-21,-14,-17,-30,-68,42,-29,-30
1537918618469488,9,-3,-9,-24,-54,84,-20,23
1537918618478465,-10,-6,-5,-17,13,10,-1,-29
1537918618478465,6,7,14,29,29,-26,29,16
1537918618493424,-6,0,3,13,36,27,-42,-63
1537918618493424,6,4,3,16,89,-13,32,45
1537918618495419,-11,0,-2,1,-50,-37,-12,-8
1537918618495419,-12,-6,-12,-37,-30,106,6,-23
1537918618516363,4,0,3,1,21,67,-47,13
1537918618516363,-8,-2,-2,-17,-91,-80,42,4
1537918618517360,2,2,0,-1,-33,96,32,4
1537918618517360,13,6,2,3,21,96,13,31
1537918618529328,-14,-7,-5,-11,7,82,32,32
1537918618529328,-3,-1,8,27,41,-17,-16,-40
1537918618538304,10,2,4,16,53,-53,-29,43
1537918618538304,-1,1,3,2,-90,-87,64,-69
1537918618553264,-2,-5,-14,-42,-68,-38,-38,-22
1537918618553264,1,4,9,6,16,-35,9,-1
1537918618555259,1,0,0,-8,-3,4,8,-4
1537918618555259,-12,-4,10,28,55,-21,-11,-21
1537918618576203,-3,-7,-22,-55,-85,18,-19,-29
1537918618576203,-3,-2,-3,0,-6,81,-7,7
1537918618577201,-3,-1,1,11,50,-1,-41,-33
1537918618577201,0,-2,-10,-31,-116,-69,-13,54
1537918618590165,22,6,2,6,12,-115,66,44
1537918618590165,-7,-3,-8,-9,3,39,-22,-5
1537918618599141,-3,-2,0,3,7,54,29,-7
1537918618599141,4,4,4,9,11,36,-8,-23
1537918618613104,-3,2,9,35,98,14,43,40
1537918618613104,14,-3,-14,-36,-62,-72,-34,8
1537918618620085,7,0,2,9,63,-85,16,-2
1537918618620085,-7,-3,-3,-6,20,102,-9,-11
1537918618636043,-5,-3,-2,1,25,-2,-5,-8
1537918618636043,-12,-3,5,10,28,-1,1,-27
1537918618637040,15,1,2,9,0,-16,6,50
1537918618637040,-7,-6,-11,-29,-62,1,-15,-22
1537918618650005,-5,-2,3,15,12,-16,-14,-20
1537918618650005,6,3,4,5,-19,42,0,-35
1537918618658982,-6,-4,-6,-4,11,8,4,-32
1537918618658982,-4,-2,1,-3,-5,-33,-22,12
1537918618672945,6,5,3,-2,-18,-60,-20,-9
1537918618672945,-10,-1,5,17,31,12,10,-1
1537918618679926,-6,1,-1,-11,-36,-6,-4,-17
1537918618679926,3,0,-1,5,33,16,-13,-4
1537918618695883,-6,-2,0,-6,-57,-26,17,-13
1537918618695883,-5,-3,-2,-4,14,18,2,-11
1537918618697878,-5,0,-1,2,-11,-2,-12,-8
1537918618697878,1,0,-1,0,16,9,-4,9
1537918618709845,0,1,0,-1,9,-15,-37,-33
1537918618709845,4,-3,-1,10,31,-27,30,65
1537918618718822,-2,-5,-3,-4,8,96,-33,-24
1537918618718822,5,2,1,0,-13,-89,25,4
1537918618732784,0,1,-3,-6,-47,40,-20,8
1537918618732784,-11,-1,0,8,42,2,5,-23
1537918618739765,-4,-1,-6,-10,-34,-27,9,-5
1537918618739765,1,-2,-1,4,20,29,-6,8
1537918618755723,3,1,2,5,13,-20,18,11
1537918618755723,-3,-2,-3,4,20,-5,-24,3
1537918618757718,2,-3,-2,-11,-23,2,20,10
1537918618757718,-6,-1,0,4,12,11,-23,-47
1537918618769685,7,0,0,6,26,-2,4,19
1537918618769685,-2,-1,-4,-11,-54,21,-1,0
1537918618778662,3,-2,-7,-16,-60,-82,2,-4
1537918618778662,3,-1,-3,-5,6,3,-17,7
1537918618792624,-7,-2,0,0,-12,34,9,-23
1537918618792624,5,2,1,4,8,-39,2,21
1537918618799605,6,5,2,7,14,91,-11,-9
1537918618799605,-3,-1,-2,-3,7,15,-8,-17
1537918618815563,2,-1,-1,0,-10,-19,-12,-3
1537918618815563,-3,-2,2,2,-6,-29,-35,-15
1537918618817558,-5,-1,0,5,14,-25,5,0
1537918618817558,-1,-2,-1,-1,11,-9,1,11
1537918618838502,1,-1,1,8,34,28,-6,2
1537918618838502,-1,2,4,14,56,-7,-4,-12
1537918618839499,2,0,-4,-8,-26,-8,-4,7
1537918618839499,2,-1,-3,-6,-12,8,8,22
1537918618853462,-2,-3,-2,-4,-12,-33,1,1
1537918618853462,-4,-1,4,7,21,32,3,-6
1537918618855456,0,0,1,2,11,-13,12,21
1537918618855456,3,-1,-3,-2,0,-5,2,15
1537918618876400,0,-2,-3,-7,-17,-55,-14,-25
1537918618876400,-1,-1,0,0,-12,-6,1,26
1537918618877398,-5,0,3,8,29,33,6,-8
1537918618877398,-2,-1,0,-1,1,-1,7,7
1537918618898341,-1,-1,-1,-1,-9,-23,0,-6
1537918618898341,-1,-3,-3,-5,-15,12,-5,-20
1537918618900336,-3,-2,-1,0,4,-11,1,2
1537918618900336,1,-1,1,1,6,0,-3,11
1537918618913302,-4,1,-2,-4,-9,-16,6,5
1537918618913302,0,0,-2,-1,-6,2,-1,-5
1537918618915296,4,4,2,5,9,-3,-2,4
1537918618915296,0,-11,-2,0,2,-9,-2,0
1537918618936240,-3,-4,-3,-2,-1,1,-4,-2
1537918618936240,-5,-3,0,-2,-10,-2,-3,-10
1537918618937238,0,1,-2,1,3,-6,4,-1
1537918618937238,0,4,1,0,-1,3,-5,3
1537918618958181,0,0,0,1,-3,-10,3,3
1537918618958181,1,-1,-3,-4,-4,0,-1,-3
1537918618960177,-2,-1,0,1,1,-3,2,1
1537918618960177,-1,1,-1,-3,2,2,-1,1
1537918618973142,1,0,-2,-3,-3,-8,-4,5
1537918618973142,0,1,3,5,20,-17,0,-6
1537918618980123,1,-2,-2,-7,-34,27,-1,9
1537918618980123,-3,-2,-2,0,1,16,-9,-3
1537918618996080,-4,1,1,4,26,-30,2,-10
1537918618996080,2,-2,-4,-9,-61,27,0,-14
1537918618997078,-3,-5,-1,3,20,-1,-7,6
1537918618997078,1,3,3,12,25,-5,3,26
1537918619018022,2,1,-4,-10,-16,15,10,10
1537918619018022,0,0,-1,8,26,-77,-3,3
1537918619020016,-10,-4,-2,-8,-53,46,1,-27
1537918619020016,1,0,0,1,24,22,4,21
1537918619031984,1,0,3,10,56,7,-11,-8
1537918619031984,2,0,-5,-19,-68,-54,-3,2
1537918619040961,-10,-2,5,11,31,-28,3,-9
1537918619040961,0,0,-3,-5,-5,2,-1,-9
1537918619055920,-3,-2,-1,-1,-2,40,4,9
1537918619055920,0,-2,0,-1,-4,12,-1,-1
1537918619057915,-1,-2,-1,6,45,29,-1,-3
1537918619057915,-2,0,-2,-8,-39,-72,3,-7
1537918619078859,0,-1,-1,0,-6,-18,-3,2
1537918619078859,-4,-2,-3,-2,3,16,-1,-6
1537918619079856,3,1,1,5,20,-24,0,5
1537918619079856,-4,0,4,14,54,41,1,-10
1537918619091824,0,-4,-10,-24,-82,-78,-5,-5
1537918619091824,2,0,1,1,1,27,2,4
1537918619100801,7,0,-2,-3,-12,-27,-3,12
1537918619100801,4,0,-1,-1,9,-5,-4,-6
1537918619115760,-6,-1,2,5,12,-10,1,-10
1537918619115760,-3,-2,2,4,29,21,1,-2
1537918619117755,1,-1,-1,-3,-8,-29,-1,-2
1537918619117755,-4,-1,-1,-3,-26,-4,-7,-6
1537918619138699,2,-1,-1,0,0,19,8,5
1537918619138699,2,3,-1,-1,0,6,2,3
1537918619139696,-5,3,-1,-2,-1,12,-4,-6
1537918619139696,-5,-20,-4,-8,-16,-4,6,3
1537918619152662,18,15,2,4,-1,17,-10,-5
1537918619152662,3,-8,-3,1,15,6,0,-5
1537918619160640,4,-6,4,-1,4,-10,11,3
1537918619160640,-15,10,-4,-7,-8,1,-11,-5
1537918619175600,-8,-15,-1,2,-5,-11,-8,-5
1537918619175600,-2,-6,-2,0,1,2,-1,0
1537918619177595,-3,9,-5,-2,-3,0,-25,-40
1537918619177595,4,-6,0,1,-9,0,44,22
1537918619198539,-12,2,2,0,2,13,-21,-15
1537918619198539,-2,-1,-3,-4,1,-1,29,19
1537918619199536,22,-3,1,3,3,6,-51,-23
1537918619199536,7,9,2,1,1,0,0,-45
1537918619212502,9,3,-1,0,-3,-2,16,68
1537918619212502,-3,0,1,2,2,4,-6,-22
1537918619221478,-13,2,-1,-4,-6,-9,10,23
1537918619221478,0,2,0,0,-5,-1,-10,-2
1537918619236438,-1,-6,0,2,3,7,4,-2
1537918619236438,-10,-1,-1,-3,-3,-1,-14,-8
1537918619237435,2,-3,-4,-2,-2,2,19,15
1537918619237435,-1,-1,-2,-3,-6,-3,-17,-4
1537918619258379,-8,-3,-2,-1,-1,0,9,-16
1537918619258379,2,4,1,3,8,0,-5,9
1537918619260374,-4,-2,-2,-1,1,-3,6,-4
1537918619260374,1,-1,-3,-3,-9,-4,1,10
1537918619272342,-1,1,-1,-4,-2,-3,-3,-5
1537918619272342,1,1,0,1,6,0,-4,-5
1537918619281318,-2,-3,0,1,31,40,5,10
1537918619281318,-1,-2,-3,-11,-65,-58,1,6
1537918619296278,1,-1,-1,-5,-7,-4,1,-6
1537918619296278,1,0,-1,-2,-1,-11,-10,-2
1537918619297276,-4,-1,1,0,-4,24,9,2
1537918619297276,-1,0,1,2,21,15,-10,0
1537918619318219,-2,0,2,11,26,14,-8,-8
1537918619318219,-2,1,-2,10,58,37,1,-1
1537918619320214,-6,-7,-12,-23,-77,-80,5,8
1537918619320214,-2,4,4,2,8,-59,-22,-27
1537918619332182,-3,-4,-2,9,16,69,31,-5
1537918619332182,-2,-3,-11,-24,-81,-92,-45,-45
1537918619341158,15,1,3,13,60,118,4,18
1537918619341158,12,6,6,25,37,-71,12,7
1537918619356118,-11,-4,-11,-32,-74,-128,-30,-25
1537918619356118,5,4,4,-2,-10,127,45,8
1537918619357115,-3,6,11,38,28,8,26,-20
1537918619357115,-31,-20,-39,-103,-106,-14,-33,-58
1537918619378059,5,-1,6,41,127,-23,-77,33
1537918619378059,16,14,16,22,-122,-14,78,60
1537918619380054,-14,-11,-8,-3,84,100,-33,-23
1537918619380054,-2,15,45,122,127,31,28,-20
1537918619392022,-10,-12,-36,-103,-128,15,20,-13
1537918619392022,-13,-16,-19,-34,50,-24,-67,-26
1537918619400998,10,8,22,44,66,46,-10,22
1537918619400998,-11,-18,-37,-104,-103,-94,3,9
1537918619415958,-16,4,24,70,127,93,2,-36
1537918619415958,42,10,-2,-16,-63,78,45,72
1537918619417953,-8,-9,-8,-20,51,42,-24,-6
1537918619417953,28,8,4,11,-29,-60,-2,99
1537918619438897,-4,5,15,35,61,-44,2,-46
1537918619438897,-7,-6,-17,-58,-60,-128,-15,-2
1537918619439894,-1,6,6,28,64,-31,-64,-48
1537918619439894,17,-2,-7,-17,-20,127,-14,-27
1537918619451862,13,6,12,30,63,67,34,23
1537918619451862,-12,-1,8,28,77,83,10,1
1537918619460838,2,-5,-6,-16,-37,-10,9,-40
1537918619460838,1,-2,-2,3,-26,-15,-13,-31
1537918619474800,12,4,7,8,1,-41,20,10
1537918619474800,-3,0,6,29,46,11,-2,23
1537918619483777,-13,-4,-12,-42,-120,-128,7,-14
1537918619483777,-2,-1,7,23,75,127,-10,18
1537918619498737,5,-1,2,3,40,36,31,26
1537918619498737,-7,-6,-2,3,39,-31,-33,-1
1537918619499734,8,1,-11,-26,-80,11,20,53
1537918619499734,3,5,9,23,55,6,27,20
1537918619511703,-11,-9,-22,-53,-85,126,-13,-23
1537918619511703,5,-3,-5,-12,-41,-119,-57,-27
1537918619520678,-4,2,5,14,10,-52,32,-9
1537918619520678,-11,-2,-1,-1,-16,-25,-25,-43
1537918619535638,6,-3,-8,-15,-45,-49,9,65
1537918619535638,-8,4,7,17,4,4,41,-40
1537918619537633,4,4,-1,-2,-44,-50,49,2
1537918619537633,7,4,6,22,57,-34,0,23
1537918619558577,-11,-5,-1,3,0,-69,-45,-35
1537918619558577,13,-1,-7,-12,-7,25,15,29
1537918619559574,3,4,2,-3,-12,-45,-42,12
1537918619559574,-22,-8,-1,-2,-7,38,59,-1
1537918619572539,11,2,-1,-1,-7,5,-6,1
1537918619572539,-11,0,6,12,35,7,-2,-18
1537918619581515,-4,-1,-2,-6,-11,-5,4,-7
1537918619581515,-1,4,1,3,10,8,-17,0
1537918619595478,-10,-11,-5,-10,-40,-36,-12,-5
1537918619595478,4,9,0,2,10,4,-11,-8
1537918619602459,6,17,-1,-4,1,-9,12,20
1537918619602459,4,-25,1,1,-4,-1,1,4
1537918619618417,8,-9,-3,-7,-20,-8,29,2
1537918619618417,-15,24,61,6,12,-22,-40,-7
1537918619620411,-15,-14,-20,-1,6,31,44,-6
1537918619620411,-21,4,-30,0,-4,-15,-43,-2
1537918619632379,35,-47,-25,-13,-16,-4,4,-5
1537918619632379,-3,6,-91,2,18,1,11,-9
1537918619641355,8,-14,53,-4,-5,1,45,17
1537918619641355,-40,20,33,-9,-17,-3,-9,-5
1537918619655318,17,-2,-18,-1,1,6,4,3
1537918619655318,-19,2,23,12,9,-5,-19,-14
1537918619662299,39,24,5,-4,0,-8,-40,11
1537918619662299,-2,-35,-35,-5,-9,-2,24,-5
1537918619678257,-22,16,8,0,-1,1,36,5
1537918619678257,-15,-34,-16,-7,4,15,4,-17
1537918619680252,-3,14,19,4,-11,-22,-28,-11
1537918619680252,27,27,72,17,9,17,-31,3
1537918619692220,-17,-1,-6,-2,-9,-44,-3,-2
1537918619692220,-5,-3,6,3,4,36,38,-6
1537918619701196,-26,-14,-15,-5,-6,-5,-59,0
1537918619701196,15,19,-13,-5,-2,-27,-10,4
1537918619715158,13,6,13,8,-4,26,25,9
1537918619715158,-1,-4,5,0,0,-37,-28,-12
1537918619722139,15,8,-16,-2,0,5,-13,48
1537918619722139,6,-18,-6,0,5,7,29,-20
1537918619738097,-27,-7,-10,3,-4,-7,-4,3
1537918619738097,-7,1,6,-2,1,1,13,-24
1537918619740092,-1,-2,-11,-4,-8,-27,2,-5
1537918619740092,-14,-4,-7,-1,13,61,5,2
1537918619752059,13,15,10,-5,-11,-5,-2,-3
1537918619752059,8,-11,3,2,4,10,-26,7
1537918619761036,-18,-13,-7,3,0,16,37,-17
1537918619761036,12,11,-4,-1,-3,-31,-12,7
1537918619774998,-10,-10,5,2,2,-2,-19,-15
1537918619774998,3,-5,-8,-2,-6,-3,12,6
1537918619781980,-2,-5,-5,2,2,-8,-9,10
1537918619781980,7,-18,-7,-8,-5,-8,3,3
1537918619798934,-14,15,7,0,-8,23,27,-15
1537918619798934,13,11,2,1,3,-12,-12,18
1537918619799932,-4,-10,-3,0,3,11,10,-7
1537918619799932,1,2,-4,-1,0,-11,-1,-6
1537918619820875,2,1,2,0,2,15,-27,4
1537918619820875,-1,-9,3,-6,-19,-6,-5,7
1537918619822870,-6,1,0,0,0,5,22,-18
1537918619822870,5,-7,-19,-3,-1,-3,4,-2
1537918619834838,-10,2,7,3,-6,-28,-8,-5
1537918619834838,5,1,-4,0,25,30,-2,3
1537918619843814,-1,-3,-1,-3,-8,1,-4,-1
1537918619843814,-11,-8,0,1,-1,5,19,-4
1537918619858774,2,16,2,-2,-1,-27,-24,-4
1537918619858774,20,-12,3,1,-4,-4,5,30
1537918619859772,-1,-6,-1,0,5,18,-12,2
1537918619859772,0,4,3,3,1,16,13,-6
1537918619880716,5,9,0,-2,-3,11,2,-12
1537918619880716,-4,2,1,-1,0,-21,24,10
1537918619882710,-18,-5,-5,-2,0,-30,-27,-14
1537918619882710,9,8,0,1,2,16,0,18
1537918619894678,9,6,4,4,4,21,-23,-14
1537918619894678,3,-1,-3,-2,-4,-37,11,-6
1537918619903654,-6,-6,-3,-1,1,30,21,17
1537918619903654,-3,5,3,-1,-4,-15,-18,-33
1537918619918614,2,-6,-4,-4,-2,-6,-13,9
1537918619918614,-10,14,5,7,17,19,34,-44
1537918619919612,11,1,-4,-8,-17,-29,-40,-3
1537918619919612,10,5,-1,-7,-8,-21,-13,0
1537918619940556,-15,4,-5,-5,-10,19,11,24
1537918619940556,-8,-12,-2,1,-2,-26,-6,-28
1537918619942550,-12,-5,1,3,6,33,11,-15
1537918619942550,20,10,6,3,7,18,-8,26
1537918619954518,6,-4,6,1,-1,-1,19,-10
1537918619954518,-7,2,-17,-2,-3,-13,2,15
1537918619963495,14,8,8,0,-2,-55,10,55
1537918619963495,-30,-28,-9,-5,-5,55,23,-17
1537918619977457,9,4,2,0,-4,-56,12,13
1537918619977457,-1,-5,5,1,5,55,-36,13
1537918619986433,-7,-1,-7,0,-3,-5,31,-21
1537918619986433,-3,2,-3,-2,-3,-25,13,13
1537918620001394,1,3,1,1,2,7,-14,-11
1537918620001394,-14,-11,-3,-1,-6,-4,2,-9
1537918620002391,16,5,1,0,4,20,-13,-11
1537918620002391,0,12,1,0,-3,-17,3,10
1537918620015356,-9,-24,-9,-3,0,-10,5,-2
1537918620015356,-16,-1,3,1,1,18,17,-7
1537918620022337,6,-2,-1,2,2,8,-11,6
1537918620022337,13,7,0,2,-2,-14,-13,17
1537918620038294,1,6,12,-1,2,-2,3,11
1537918620038294,-2,-10,-18,-7,-4,-3,-6,-14
1537918620040289,-16,0,11,3,4,6,0,-33
1537918620040289,-1,1,2,2,2,7,4,5
1537918620061233,-7,-11,-27,-6,-5,-7,-7,-7
1537918620061233,19,-9,17,0,-1,-5,-26,37
1537918620062231,-38,-14,-11,-5,-6,-30,0,-16
1537918620062231,23,12,6,-1,-9,-48,-3,-11
1537918620074198,-2,-4,-1,6,18,108,14,13
1537918620074198,3,9,3,-2,-6,-35,-18,-18
1537918620083175,20,2,-6,-3,-8,1,21,30
1537918620083175,-10,-9,0,5,18,42,-38,-8
1537918620098135,7,12,4,-4,-16,-128,-15,-2
1537918620098135,-5,-1,-2,0,-5,38,78,23
1537918620100129,1,-1,-3,-2,6,60,11,-21
1537918620100129,-10,-6,-8,-5,-4,12,4,1
1537918620121073,8,1,-1,-6,2,64,-44,-10
1537918620121073,-1,8,1,2,0,-27,-33,-35
1537918620122071,16,-6,-6,-4,-15,-28,62,9
1537918620122071,-1,-3,7,1,-4,-43,22,20
1537918620135036,1,0,3,2,3,7,-12,7
1537918620135036,-1,-4,2,-5,-6,-26,-11,-1
1537918620144013,-6,25,-4,1,5,3,-17,-26
1537918620144013,-2,2,-2,-2,3,37,1,-15
1537918620157974,-2,-18,-2,0,-2,-17,30,8
1537918620157974,0,-1,3,4,1,-1,-32,20
1537918620164956,2,-8,1,1,4,-3,-20,-19
1537918620164956,7,7,-7,-4,1,5,46,22
1537918620180913,0,18,-1,-3,-6,-17,-18,-36
1537918620180913,-3,-12,-3,-1,2,3,7,-2
1537918620182908,-4,-9,-3,1,2,13,-36,2
1537918620182908,-4,-4,-3,-5,-10,-11,-1,-8
1537918620194876,-10,-4,1,0,-1,-6,13,0
1537918620194876,4,7,0,1,0,-8,-17,2
1537918620203852,4,5,0,1,8,35,-5,15
1537918620203852,-3,-7,-3,-2,-6,0,-7,-1
1537918620218812,-1,0,2,3,8,24,6,0
1537918620218812,1,11,4,3,4,-38,11,5
1537918620219809,-1,-9,1,-8,-15,-11,-1,13
1537918620219809,-1,0,-12,2,0,-1,-18,-14
1537918620240753,-17,-8,1,0,-5,3,3,0
1537918620240753,12,23,19,2,8,10,-2,-4
1537918620242748,-2,-18,-20,5,2,-26,-1,-8
1537918620242748,-1,15,5,-5,-3,1,1,-15
1537918620263692,-6,-10,7,-5,-10,-57,-27,3
1537918620263692,12,5,-15,0,9,86,53,21
1537918620265687,5,11,14,1,-1,-26,22,-5
1537918620265687,-6,-7,16,3,2,2,-16,3
1537918620278652,4,7,-27,0,-1,1,7,-5
1537918620278652,0,-6,6,-4,-6,-4,9,18
1537918620279649,-17,-22,-1,1,-2,7,-10,-15
1537918620279649,4,16,-11,-3,-2,-6,2,-4
1537918620300593,-2,4,15,3,0,-12,-18,-3
1537918620300593,-5,-17,-12,-4,-6,28,24,-12
1537918620302588,1,-6,-12,1,2,-31,-37,2
1537918620302588,-8,-10,4,-4,-4,1,-9,-3
1537918620323532,2,9,1,0,0,4,10,4
1537918620323532,-8,-6,1,-1,2,1,-5,-14
1537918620324529,6,5,-6,-3,-3,-21,-25,26
1537918620324529,4,-10,-3,-2,0,33,48,5
1537918620337495,0,1,-2,-3,-5,-11,18,-4
1537918620337495,6,2,2,1,1,15,-10,-3
1537918620344477,3,11,8,-3,4,16,24,12
1537918620344477,-9,-20,-5,3,3,-11,-44,-29
1537918620361431,2,-18,-13,-3,-3,-16,35,42
1537918620361431,-4,20,1,-2,-7,-18,-33,0
1537918620362428,-5,6,1,0,0,7,4,-10
1537918620362428,0,-2,-2,-2,-5,-37,-26,3
1537918620374396,-1,6,3,0,0,23,26,5
1537918620374396,-11,-13,-18,-1,3,11,-8,-23
1537918620383372,-2,4,17,1,1,-22,5,-2
1537918620383372,-2,-11,1,-2,0,44,7,15
1537918620398332,4,8,-3,-1,0,1,-15,-4
1537918620398332,1,-1,-4,-3,-1,-11,9,9
1537918620400327,0,-1,-3,-1,0,7,-7,-9
1537918620400327,3,0,-4,-2,-6,-20,15,-5
1537918620421270,-6,-7,6,3,3,1,-41,-16
1537918620421270,10,2,3,-1,-1,-11,1,4
1537918620422268,11,1,0,-1,1,1,3,23
1537918620422268,-7,4,2,1,-2,-27,25,16
1537918620434236,-14,-15,-4,0,6,58,-2,-12
1537918620434236,12,10,1,-3,-7,-7,-22,-8
1537918620443212,8,12,5,-3,-4,-19,0,15
1537918620443212,-15,-14,-14,3,11,41,-10,-17
1537918620458172,10,2,5,2,7,-25,16,-14
1537918620458172,-13,-15,7,-2,-5,2,5,9
1537918620460167,6,2,-3,0,3,-3,-23,-10
1537918620460167,-3,4,-3,1,1,-14,1,-2
1537918620481110,-5,7,-3,-2,1,-4,-13,-16
1537918620481110,-8,-4,3,1,-4,-6,8,-8
1537918620482108,-5,-15,-10,-1,-5,-9,-2,13
1537918620482108,16,8,4,-1,-1,-5,17,15
1537918620495073,-7,-2,0,-1,-1,22,-18,-30
1537918620495073,-5,-4,-3,0,0,-4,-19,-22
1537918620504049,-6,0,-2,-2,-5,7,3,-17
1537918620504049,-1,-4,-5,-2,-6,-31,-18,1
1537918620519009,-12,-3,1,-3,0,34,27,-10
1537918620519009,-1,-1,-5,-3,-4,-12,-30,3
1537918620520007,-2,-1,-2,2,3,12,50,11
1537918620520007,-12,-2,13,1,1,-2,-16,-12
1537918620540951,14,7,3,-3,-9,-33,0,2
1537918620540951,5,12,-21,-2,4,48,-2,-4
1537918620542946,11,3,5,2,7,-13,-13,-4
1537918620542946,-2,-1,11,-1,0,-2,4,7
1537918620563889,-25,-31,-24,-6,-3,-16,-11,-6
1537918620563889,-9,-4,-1,0,-3,-15,18,9
1537918620564887,0,-5,0,-4,-6,2,-15,15
1537918620564887,10,20,-3,3,4,32,6,-3
1537918620578849,8,2,9,3,-1,-27,-21,18
1537918620578849,-2,-5,-2,-3,-1,-3,8,12
1537918620579847,-6,3,0,-1,0,-24,5,-16
1537918620579847,-9,-12,-5,0,-5,29,-17,-25
1537918620600791,13,6,-2,0,5,-1,-35,24
1537918620600791,10,-7,-3,-3,-5,-33,55,28
1537918620602785,-3,7,8,2,5,30,-10,-20
1537918620602785,-2,-1,-5,-5,-3,-21,-25,-11
1537918620614753,8,-1,-7,-3,-4,3,53,35
1537918620614753,-3,3,5,1,0,7,-23,-14
1537918620623729,-3,-4,-3,0,-4,0,1,-2
1537918620623729,0,-14,6,2,6,-2,-9,12
1537918620638689,-1,26,-2,0,-6,0,1,-9
1537918620638689,7,-5,6,1,2,-20,-20,1
1537918620639687,-2,-3,-14,-7,-5,9,-4,-3
1537918620639687,-9,-6,-3,-1,-1,8,16,9
1537918620660631,8,-2,4,1,-2,-14,-8,0
1537918620660631,0,-3,-5,1,5,16,5,19
1537918620662625,3,-1,1,-2,0,-11,-16,-10
1537918620662625,9,7,-7,-1,-3,5,6,16
1537918620674593,-2,-1,7,-2,-3,-17,1,-11
1537918620674593,-8,-2,-4,-3,-6,-5,7,-10
1537918620683570,-7,-4,1,5,6,19,-25,-3
1537918620683570,-5,-1,-3,-4,0,-17,2,-11
1537918620698529,-5,-4,-3,1,-5,3,1,-12
1537918620698529,-3,-3,2,0,-2,1,-10,11
1537918620699527,6,2,-1,-2,-3,-2,25,8
1537918620699527,-7,0,7,2,-1,3,1,-6
1537918620721468,-6,-6,-8,-3,-1,-28,-5,-5
1537918620721468,-8,-3,6,1,4,55,13,-14
1537918620722466,3,1,-3,-4,-5,0,-9,8
1537918620722466,0,0,-2,0,0,-20,-8,2
1537918620743409,3,2,4,-2,-1,-8,2,0
1537918620743409,-15,-11,-1,0,3,2,8,-2
1537918620745405,4,-3,-4,-3,-5,-4,3,-2
1537918620745405,4,10,-4,-2,-1,29,-4,-13
1537918620758369,-2,-19,3,3,1,-5,8,-4
1537918620758369,1,3,-3,-4,-4,-37,-24,11
1537918620760365,2,9,1,0,7,37,7,-3
1537918620760365,-12,-7,3,-1,-4,-23,0,-7
1537918620781308,1,0,-12,0,-1,17,-6,-15
1537918620781308,6,1,8,-2,-4,-18,2,34
1537918620782305,1,1,4,1,-2,-14,-7,2
1537918620782305,3,10,12,1,-2,-2,4,2
1537918620803249,-15,-17,-11,-3,2,23,24,5
1537918620803249,1,4,-4,0,1,-16,-24,-21
1537918620805244,-12,-3,-3,-1,-2,-9,5,-7
1537918620805244,9,-9,-2,-4,2,-2,-12,5
1537918620819207,2,9,9,2,1,21,-15,-3
1537918620819207,0,3,-3,2,2,-3,11,-13
1537918620820204,-7,-8,-2,-3,-1,7,11,6
1537918620820204,4,3,-6,-2,-10,-51,2,-9
1537918620841148,7,4,2,-2,0,53,-14,18
1537918620841148,0,-1,-2,1,2,2,2,-12
1537918620842145,-6,-2,0,1,-1,-1,-4,-9
1537918620842145,-13,-14,2,0,-3,0,3,7
1537918620863089,27,10,-6,-2,-3,-22,-2,-3
1537918620863089,5,18,17,5,-3,6,-13,-2
1537918620865084,-4,-5,-2,-1,-2,-3,9,-5
1537918620865084,4,-1,-10,-2,1,5,12,8
1537918620878049,-4,7,10,4,0,-4,1,-7
1537918620878049,-3,-16,-5,-5,-3,-2,-18,-3
1537918620885031,-11,-20,-9,1,0,-7,16,-4
1537918620885031,9,19,3,0,-2,17,2,-11
1537918620900988,7,7,6,-1,-1,-18,0,8
1537918620900988,-1,1,-7,-5,-4,-6,-10,-18
1537918620901985,1,0,3,3,0,-15,13,-1
1537918620901985,-8,-9,-6,-2,2,19,5,8
1537918620923927,-6,-3,0,0,7,41,-7,-5
1537918620923927,4,2,-2,2,1,-6,6,1
1537918620925921,-12,-7,10,-1,-2,-6,-11,-2
1537918620925921,9,1,-6,-4,-11,-30,16,-4
1537918620937889,-7,2,3,1,3,18,-1,-6
1537918620937889,-7,-5,3,4,10,10,-16,2
1537918620944871,10,17,-4,-1,1,30,5,5
1537918620944871,-1,-11,0,5,2,2,1,16
1537918620960828,-6,-17,-11,-5,-6,-44,7,-5
1537918620960828,-5,19,0,-5,-5,-4,9,1
1537918620962823,-12,-3,-1,5,5,12,18,-1
1537918620962823,23,11,-14,-13,-6,-17,-22,8
1537918620983767,-2,-20,0,2,-1,6,0,-12
1537918620983767,-20,-2,16,4,0,0,28,3
1537918620984764,4,-13,-31,-6,-2,-12,-16,1
1537918620984764,1,6,12,1,2,12,-7,-9
1537918620997730,5,-1,-3,-1,-4,-15,-5,12
1537918620997730,11,7,-1,-3,-4,-17,-4,-17
1537918621004711,1,5,7,-2,-13,-31,12,17
1537918621004711,-10,-10,-6,3,17,69,-28,-9
1537918621020668,2,15,3,1,3,-25,-16,1
1537918621020668,12,-6,-7,-10,-20,-76,-15,1
1537918621022663,10,8,2,2,9,69,31,11
1537918621022663,-9,-2,-3,4,11,-16,-8,-16
1537918621043607,-7,4,4,-4,-7,26,14,7
1537918621043607,-6,1,-10,5,8,40,-49,-10
1537918621044604,3,0,8,-4,-12,-72,55,11
1537918621044604,-3,3,-9,-1,-2,21,-8,-11
1537918621057569,-6,-11,-9,-5,-7,-20,-20,-4
1537918621057569,5,9,-1,-1,0,-10,21,15
1537918621064551,2,-3,0,0,3,33,-26,-16
1537918621064551,-5,-1,8,2,-4,-13,-10,17
1537918621080508,-2,1,0,0,0,-13,20,8
1537918621080508,3,-13,-8,-2,-3,5,-18,0
1537918621082503,-4,2,4,1,5,15,-22,-10
1537918621082503,-2,1,-3,-2,-10,-20,26,-1
1537918621103447,-1,-2,-3,-2,-3,-17,-35,5
1537918621103447,6,-3,1,-1,10,21,29,-1
1537918621105442,-1,2,-1,-4,-4,-9,-27,-2
1537918621105442,-7,-11,-5,-2,-7,-12,3,5
1537918621117410,1,4,3,3,0,20,9,-1
1537918621117410,-4,-3,-1,1,0,9,-12,-11
1537918621124391,-4,-2,-2,-1,-2,-6,10,-4
1537918621124391,-4,-3,-2,-2,-1,-1,-9,-1
1537918621141346,-2,0,2,0,-1,-6,-5,-3
1537918621141346,-2,-4,-1,-1,-1,-3,11,1
1537918621142343,4,1,-2,-2,-2,-15,-30,-3
1537918621142343,-1,-6,0,-1,-4,18,6,0
1537918621163287,2,5,0,1,3,-13,3,11
1537918621163287,-8,-6,-2,1,-2,0,8,-13
1537918621163287,-2,-1,1,-1,-2,13,-5,-12
1537918621163287,1,2,0,0,-1,-1,2,2
1537918621177250,-4,-1,-1,-2,-3,-6,-5,-9
1537918621177250,1,0,1,2,4,-7,2,5
1537918621185228,-4,-2,0,2,4,-10,-13,7
1537918621185228,-6,1,3,3,6,2,1,-5
1537918621200188,9,-2,-3,-4,-2,6,15,8
1537918621200188,-7,-7,-3,-5,-10,-3,4,-3
1537918621201186,14,7,1,-2,-6,10,-10,-4
1537918621201186,-6,-6,0,3,7,-9,-12,1
1537918621223127,-8,2,-1,-3,-1,-15,27,0
1537918621223127,6,2,2,1,5,63,2,10
1537918621223127,-19,-5,-1,2,3,-20,-10,-20
1537918621223127,27,3,-2,-3,-9,-1,9,5
1537918621237090,-12,-5,2,0,3,-7,-16,-14
1537918621237090,5,-3,-1,-1,-4,-3,-2,5
1537918621245068,-6,-2,0,-2,2,-1,-10,-4
1537918621245068,-4,1,1,1,2,-3,10,6
1537918621260029,-6,2,-3,0,-1,2,-8,-2
1537918621260029,-2,-5,-5,-1,-4,-10,14,-12
1537918621261026,-1,-3,-1,0,0,5,-27,-4
1537918621261026,-3,6,0,0,-2,-14,-4,-4
1537918621282967,2,1,3,2,1,-16,-21,-23
1537918621282967,-8,-1,-2,1,0,28,30,-1
1537918621283965,3,-1,0,1,4,14,17,-2
1537918621283965,-1,-3,-2,-2,-6,-45,-17,18
1537918621296930,0,1,1,3,13,77,3,-4
1537918621296930,2,0,0,-2,-3,-27,-10,6
1537918621304909,-1,-3,-2,-1,-2,-3,-4,-5
1537918621304909,-2,-4,-1,-3,-4,0,38,14
1537918621319870,3,2,-2,-3,-4,-13,18,18
1537918621319870,-2,-1,0,-2,-1,-15,-21,2
1537918621320867,5,-2,-1,-1,-7,-3,3,-7
1537918621320867,-9,1,-1,-1,4,-9,-25,-16
1537918621342808,2,-2,-1,1,0,37,4,4
1537918621342808,-3,-1,-1,-3,-4,-14,5,1
1537918621343806,2,-1,-2,-1,1,-4,0,0
1537918621343806,3,0,-1,-4,-4,0,-4,10
1537918621356774,-2,-3,1,0,-2,-2,10,6
1537918621356774,-2,-3,-1,-2,-5,-44,-27,-19
1537918621365747,0,0,1,0,1,22,20,-1
1537918621365747,4,-1,-1,-1,-2,4,-12,5
1537918621380707,1,-3,-1,-2,2,4,-15,-5
1537918621380707,-1,0,-1,0,1,11,22,9
1537918621380707,-14,-3,-2,-2,-5,-19,-9,8
1537918621380707,2,1,-1,-2,-1,22,9,-16
1537918621402647,10,-1,-2,-5,-7,-15,-17,18
1537918621402647,7,4,1,3,3,0,5,13
1537918621403645,-4,-3,-2,-2,-3,-17,9,7
1537918621403645,2,-1,-3,-2,-3,24,-4,4
1537918621416610,-9,-2,0,-2,-3,-14,-13,-16
1537918621416610,2,-4,-3,0,-3,-22,14,0
1537918621425586,13,8,2,-1,1,30,-2,30
1537918621425586,-3,-1,0,1,3,20,8,-5
1537918621440546,0,1,-2,1,1,-28,7,-4
1537918621440546,-11,-2,0,1,-1,6,-26,-6
1537918621440546,1,-3,-1,-1,1,-24,19,4
1537918621440546,-8,-6,-3,-4,-7,-29,-20,-25
1537918621462488,-5,-3,-1,-3,-4,22,14,4
1537918621462488,-1,3,0,-2,0,3,-9,-4
1537918621463485,2,0,-1,1,1,10,4,4
1537918621463485,1,2,2,2,2,-25,-27,-1
1537918621477447,-4,-4,-1,1,7,28,-11,-20
1537918621477447,-3,0,0,0,-1,-5,-5,-16
1537918621485426,1,-2,0,-2,-3,-3,12,23
1537918621485426,-1,-2,-1,-1,-2,7,12,-9
1537918621500386,-7,-1,1,3,-1,-30,6,-10
1537918621500386,4,3,-1,-1,2,30,5,-18
1537918621501383,-4,-2,-1,0,0,1,-8,-8
1537918621501383,-7,4,-1,-3,-4,-26,12,4
1537918621522327,1,-24,0,-1,-4,12,6,2
1537918621522327,-3,10,1,0,6,28,-6,-1
1537918621523325,5,-2,-3,-1,-5,-9,-14,2
1537918621523325,-2,-4,0,1,2,-10,1,-3
1537918621537288,0,3,-3,-4,-9,-44,2,0
1537918621537288,-3,-6,0,1,8,36,5,-6
1537918621545267,-2,-2,0,-2,0,11,-26,-36
1537918621545267,8,-1,0,-2,-3,-6,12,12
1537918621560227,-11,6,0,-1,-1,-1,6,45
1537918621560227,4,-3,-2,-1,-5,-27,3,4
1537918621561225,-6,3,0,1,-1,3,18,-9
1537918621561225,1,-1,-2,0,4,-3,5,-3
1537918621583166,-1,2,0,1,4,23,-22,-19
1537918621583166,-3,-2,-3,-3,-4,-4,-1,0
1537918621583166,-9,-5,-1,1,-1,-16,-7,4
1537918621583166,-1,-2,-1,-2,1,31,3,2
1537918621597127,6,3,-3,-1,-3,-11,3,10
1537918621597127,-2,-4,0,1,-2,-15,-1,2
1537918621605106,1,0,-1,-3,-5,13,-10,-10
1537918621605106,-7,-3,0,0,6,13,-2,1
1537918621620066,0,4,-3,-4,-4,-13,-7,-3
1537918621620066,3,2,-2,-3,-1,5,1,-7
1537918621621063,-7,-15,1,-1,-3,-25,32,-19
1537918621621063,3,5,1,4,5,45,-35,8
1537918621643005,5,2,0,0,0,1,7,-4
1537918621643005,-7,-4,-2,-1,1,13,-1,0
1537918621649986,-2,3,-1,-1,-1,-7,-12,1
1537918621649986,12,1,-1,-3,-7,-33,2,-2
1537918621665944,-4,0,1,0,1,21,12,-17
1537918621665944,0,0,0,-1,-5,-25,-8,-2
1537918621666941,0,3,-2,-1,1,14,-12,-1
1537918621666941,-2,-2,0,1,2,2,-12,8
1537918621679907,2,1,-1,-1,-3,-24,5,6
1537918621679907,5,-2,-4,-1,-6,-33,11,3
1537918621680904,0,1,-2,1,11,61,-39,6
1537918621680904,-5,1,-17,-3,-6,-12,38,-4
1537918621702845,-1,-6,12,3,-1,-8,-2,-14
1537918621702845,0,24,5,-1,0,3,-11,16
1537918621703844,-2,-9,1,-3,-6,-21,-24,0
1537918621703844,-5,-4,-4,0,0,5,21,-12
1537918621725784,0,4,-4,1,2,40,-10,10
1537918621725784,-2,-6,0,2,5,-8,11,-8
1537918621726782,-5,4,0,2,-1,-13,-8,10
1537918621726782,-17,1,4,-1,-3,6,11,-47
1537918621740745,-1,-4,1,6,6,-8,46,16
1537918621740745,-25,-7,1,-3,0,6,-50,-70
1537918621740745,22,9,1,2,4,10,12,65
1537918621740745,-19,-7,5,11,7,31,105,-7
1537918621762686,-5,-3,-2,0,21,-24,-115,-35
1537918621762686,-19,-7,-4,3,-6,14,97,-31
1537918621770673,23,3,-8,-20,-23,-17,-9,5
1537918621770673,-16,-9,4,-4,9,-15,-39,-1
1537918621785625,-16,-9,-5,-12,-46,-8,-52,-33
1537918621785625,9,25,6,11,42,51,40,-22
1537918621786622,-21,-23,-6,-16,-27,-64,-64,-96
1537918621786622,12,-19,-1,2,-3,32,69,43
1537918621800584,21,18,15,16,16,19,112,31
1537918621800584,-6,-25,-9,8,25,-23,-53,7
1537918621800584,24,9,-7,-2,1,19,-2,41
1537918621800584,-3,7,10,9,-24,-23,-71,-86
1537918621822525,-19,-7,-10,-4,14,2,-10,-32
1537918621822525,0,-9,-5,-10,10,-10,-35,18
1537918621823522,4,4,2,7,-6,27,-4,25
1537918621823522,7,3,-5,-20,-44,-20,-6,-11
1537918621846461,22,7,-6,-20,5,12,-4,11
1537918621846461,9,0,-1,-19,-42,1,-43,21
1537918621846461,-23,1,1,-6,-48,-52,2,-9
1537918621846461,-12,-1,0,5,5,17,-34,11
1537918621860424,32,21,4,21,24,-23,-23,-29
1537918621860424,-10,14,0,15,35,43,53,20
1537918621861421,-14,0,9,31,34,33,39,-25
1537918621861421,7,-4,3,-2,19,-29,-17,58
1537918621882365,-9,-15,-9,-7,23,30,-70,-13
1537918621882365,1,0,10,25,53,54,33,12
1537918621883362,10,20,-19,-39,-56,-63,-48,-5
1537918621883362,-1,1,-9,-35,-15,-25,-34,22
1537918621906301,-12,-16,-13,-24,-87,-30,31,10
1537918621906301,15,-3,3,18,-19,-62,-96,-49
1537918621906301,9,-2,8,13,51,57,32,17
1537918621906301,1,8,-12,9,8,-30,-28,24
1537918621920264,18,-20,11,-15,-15,-13,-15,1
1537918621920264,4,3,-3,2,-16,27,-41,33
1537918621928243,-20,1,9,26,49,-12,45,18
1537918621928243,-13,-14,6,8,54,28,32,-13
1537918621943204,-30,-9,-5,25,-35,8,43,11
1537918621943204,17,8,-3,-19,28,-22,11,23
1537918621943204,-41,-18,-16,-36,-59,3,-20,-21
1537918621943204,-5,11,-9,1,-4,15,-14,-77
1537918621966142,0,-16,-1,-19,-5,-13,55,74
1537918621966142,0,-10,-2,-11,-42,3,32,2
1537918621967140,-3,16,9,21,26,23,11,-6
1537918621967140,-2,-3,2,16,9,-12,12,-17
1537918621980107,-7,12,-13,-25,17,-1,-24,-44
1537918621980107,7,3,-9,-28,-68,-34,-28,5
1537918621981104,11,-4,5,-1,9,17,49,-8
1537918621981104,0,-18,4,19,-19,1,-51,0
1537918622003042,26,10,5,32,74,3,44,37
1537918622003042,2,-15,-3,-6,16,-22,-56,0
1537918622003042,3,12,1,9,-19,-8,-15,-7
1537918622003042,5,-2,10,5,22,5,-9,7
1537918622025981,8,10,-5,-11,7,-6,-4,5
1537918622025981,-18,-10,-8,-34,-57,21,5,-16
1537918622026978,0,-17,-8,-14,-6,-33,-9,-3
1537918622026978,14,7,-2,-11,-14,-1,25,24
1537918622039943,1,9,6,13,4,11,64,32
1537918622039943,22,30,5,22,19,39,2,2
1537918622047922,2,-41,1,11,33,-6,-4,-22
1537918622047922,26,44,11,-15,-18,-7,-61,44
1537918622062882,-10,-35,-10,4,-4,-4,33,13
1537918622062882,-35,5,4,9,9,-4,72,-27
1537918622063880,25,21,-11,-5,5,0,-23,4
1537918622063880,-16,-20,11,-7,-7,3,0,-3
1537918622085821,38,27,-10,1,-10,8,-29,-21
1537918622085821,-16,-6,7,-1,-1,-15,25,18
1537918622086819,-2,-13,-15,-1,4,6,-27,11
1537918622086819,11,15,-8,-2,-14,-9,26,5
1537918622100782,-11,3,21,-5,-6,-1,-23,-17
1537918622100782,4,-33,-23,-5,-2,-9,-21,7
1537918622100782,0,24,24,6,6,-12,26,9
1537918622100782,2,12,-11,2,6,7,-2,-19
1537918622122724,-16,-13,-5,-1,-7,-14,-13,-10
1537918622122724,3,-6,4,2,6,36,-15,11
1537918622123722,-2,-2,5,-1,-3,-12,7,-5
1537918622123722,5,-7,-8,0,0,-4,18,10
1537918622145662,-13,6,13,1,-4,25,-26,-12
1537918622145662,11,-1,-5,5,5,-47,3,26
1537918622146660,-2,3,-8,-11,1,-6,-35,-39
1537918622146660,2,-5,0,-4,-9,21,28,41
1537918622160621,-8,-2,-4,0,-5,-8,-14,-5
1537918622160621,15,6,-4,-6,-10,-17,35,2
1537918622160621,-6,-5,3,3,5,18,-6,1
1537918622160621,-13,-15,0,-2,7,-23,3,7
1537918622182562,10,9,-1,-1,-3,19,-26,-23
1537918622182562,-1,1,2,-3,-6,-34,-10,4
1537918622183560,-3,-5,0,2,3,37,15,10
1537918622183560,1,-5,-3,-2,1,0,-4,-8
1537918622205501,-4,0,-6,-2,-4,-14,17,10
1537918622205501,-9,11,2,-2,-2,9,-8,-9
1537918622206499,1,0,-11,-1,-4,-9,18,9
1537918622206499,-10,-7,4,1,1,0,-17,-31
1537918622220461,-3,7,-1,0,-1,-2,-4,-2
1537918622220461,16,-8,3,1,4,0,-15,12
1537918622220461,-7,-7,-2,2,-3,-1,26,-6
1537918622220461,-3,6,-1,1,3,11,-17,5
1537918622242402,-8,-2,-4,-3,1,-10,17,-5
1537918622242402,-1,-2,2,2,2,11,-19,8
1537918622243400,-2,-1,0,0,-3,-1,29,10
1537918622243400,-15,-5,2,2,4,5,-20,-48
1537918622266338,-9,-6,6,12,25,-7,-44,36
1537918622266338,7,-4,-8,-7,-2,34,67,26
1537918622266338,5,1,1,-2,-5,-1,-27,-17
1537918622266338,-2,-1,2,18,30,-9,16,-1
1537918622279304,-19,-8,-8,-19,-46,-82,-41,-30
1537918622279304,-2,0,0,-1,43,91,0,-4
1537918622287282,9,2,1,-11,-84,-12,-27,2
1537918622287282,16,1,5,29,99,96,39,61
1537918622303240,24,11,13,53,13,16,71,67
1537918622303240,-5,-9,-22,-83,-49,-93,-128,-61
1537918622303240,1,-7,-10,-37,-53,-29,0,19
1537918622303240,-19,0,-4,-16,-55,9,-9,-35
1537918622326179,-13,2,-5,-7,24,9,-16,-14
1537918622326179,14,-29,1,19,3,0,73,47
1537918622327177,7,50,10,14,16,0,-23,-6
1537918622327177,21,-28,7,10,22,-37,-20,5
1537918622340142,-17,-6,-5,2,2,44,4,-31
1537918622340142,-3,12,7,15,-6,-29,-6,-14
1537918622348122,-16,-15,15,-4,22,-6,-3,-14
1537918622348122,-4,1,-16,-8,-34,-10,18,2
1537918622363082,15,-10,6,-11,6,1,-15,10
1537918622363082,-21,14,-10,6,-2,-3,9,-7
1537918622363082,-1,-23,-15,10,20,14,17,26
1537918622363082,-11,-2,10,-4,-19,-7,-10,-2
1537918622386020,-10,-20,-10,-23,-10,-11,-4,-8
1537918622386020,15,44,13,13,1,-31,-23,-3
1537918622387022,-1,-7,2,2,15,43,21,12
1537918622387022,-11,4,-1,-2,-4,-29,-7,-51
1537918622399982,9,26,12,1,1,22,10,14
1537918622399982,6,-43,-27,5,-2,-20,25,-5
1537918622407960,-26,-18,-7,-1,24,-25,-53,-30
1537918622407960,6,8,5,-20,-18,30,38,66
1537918622422920,-7,-9,-7,-9,-13,14,25,-24
1537918622422920,-6,35,10,12,0,-20,-45,-8
1537918622423917,1,-6,7,5,10,-31,-6,-4
1537918622423917,-9,5,3,3,1,-7,1,-12
1537918622445859,0,-15,-20,-4,5,4,4,8
1537918622445859,4,-18,2,1,-10,40,0,4
1537918622446856,-6,-4,-10,-10,9,9,-3,-10
1537918622446856,4,11,4,-6,6,-36,-25,11
1537918622459821,5,16,11,-3,-17,4,42,-14
1537918622459821,-8,-9,3,8,4,-2,8,-38
1537918622467800,21,6,-5,4,3,3,-28,65
1537918622467800,1,17,10,0,-7,6,-9,-27
1537918622482760,2,-22,-9,-5,4,-7,40,-4
1537918622482760,-8,-4,7,1,-1,-7,-13,12
1537918622483758,-6,1,1,18,8,16,39,-15
1537918622483758,3,-12,-27,-17,-4,-5,-8,0
1537918622505699,-1,3,0,-6,-7,-35,-54,-15
1537918622505699,-12,-9,10,-1,-2,-25,-2,12
1537918622506696,17,20,-39,-4,17,38,22,-16
1537918622506696,-24,-11,-5,1,-5,34,24,-18
1537918622519661,-1,26,9,4,-7,-11,-40,-18
1537918622519661,-16,-15,16,4,5,6,-38,17
1537918622527640,19,9,-5,-2,1,-12,27,45
1537918622527640,12,-7,9,2,-4,-15,-3,-49
1537918622542600,-2,1,-5,2,3,17,9,20
1537918622542600,-6,-5,-7,0,2,-9,54,3
1537918622543597,-1,-3,7,0,-8,-13,-34,-6
1537918622543597,14,6,5,8,5,12,37,-14
1537918622565539,3,-2,6,-2,10,-23,-44,7
1537918622565539,-20,-1,6,-10,-14,11,25,-10
1537918622566537,-10,-22,-29,-7,-1,-4,7,-22
1537918622566537,-21,6,18,-9,-16,-5,-14,8
1537918622588478,-6,-27,5,9,5,-8,8,-15
1537918622588478,-21,1,3,-1,6,2,2,2
1537918622589476,1,20,1,2,6,16,15,-22
1537918622589476,-2,-15,-29,-21,-25,-53,-52,1
1537918622602441,-4,-15,3,-1,-20,-46,63,-5
1537918622602441,9,3,-1,10,36,99,-82,-4
1537918622603438,6,5,23,6,-3,-69,85,30
1537918622603438,0,-6,-3,7,0,86,-8,40
1537918622626376,0,8,-4,1,36,-104,-7,-6
1537918622626376,17,-4,-9,-17,-42,67,20,4
1537918622626376,2,-4,4,-3,-13,-73,-50,20
1537918622626376,20,4,-7,-10,-25,-114,9,-3
1537918622648317,-3,0,-3,5,11,127,-12,0
1537918622648317,0,4,0,-1,22,-58,12,3
1537918622649315,-6,-14,1,-6,-12,-14,-21,8
1537918622649315,-5,14,-6,-7,-10,-19,29,-15
1537918622662280,0,-4,2,-2,-5,-18,0,16
1537918622662280,20,4,-3,6,5,-23,6,-20
1537918622663277,-16,-15,12,-1,1,32,0,-16
1537918622663277,-8,-12,-5,3,10,12,-6,-16
1537918622686216,6,8,5,3,-3,11,-35,-6
1537918622686216,1,7,-15,-1,3,0,15,11
1537918622686216,5,2,5,-1,-10,4,-23,-20
1537918622686216,-6,-9,0,5,14,18,7,19
1537918622708157,3,4,8,1,0,9,-25,-3
1537918622708157,-3,-8,-8,-4,-14,-36,7,3
1537918622709155,1,7,12,1,9,20,1,-13
1537918622709155,0,-7,-11,-1,3,2,-11,8
1537918622722120,-2,-1,-4,-2,-5,2,-9,2
1537918622722120,-1,2,2,-2,-5,-12,-7,-17
1537918622731097,-9,1,0,2,4,15,10,-30
1537918622731097,4,1,-2,3,7,23,10,20
1537918622746057,3,3,-4,-2,1,-7,-40,-6
1537918622746057,7,4,1,-2,-14,-23,2,-6
1537918622747055,-6,-5,-1,-1,3,8,-1,-5
1537918622747055,4,0,2,-2,1,-9,-4,-2
1537918622768996,0,5,-3,-1,3,27,28,11
1537918622768996,2,6,-14,-1,2,-21,-10,5
1537918622769994,0,-8,17,0,4,33,-11,3
1537918622769994,-3,-13,-3,3,4,12,-2,-6
1537918622781962,13,24,-5,-5,-6,-4,-23,8
1537918622781962,-5,-8,-1,0,0,-14,1,-38
1537918622790938,-5,10,-6,-1,-9,-32,-8,14
1537918622790938,11,11,1,2,11,23,27,8
1537918622805896,-5,-10,-5,-2,-9,1,-6,-8
1537918622805896,-1,-1,5,-1,2,-4,6,-9
1537918622807891,1,-6,-4,-2,-2,-1,-16,-2
1537918622807891,-4,-1,0,-3,-6,-10,-2,0
1537918622828835,-3,-5,-2,-1,-4,11,-14,-18
1537918622828835,6,2,4,2,5,-8,7,26
1537918622829832,-7,-4,-3,-4,-3,-5,4,-2
1537918622829832,6,4,-2,-2,-5,-6,-3,10
1537918622842797,-4,-2,-5,-4,-10,-6,10,5
1537918622842797,2,11,4,2,1,17,7,-2
1537918622849779,-6,-13,1,4,6,-1,1,-3
1537918622849779,6,8,0,-2,-1,-12,-20,-10
1537918622865736,-5,-15,-1,0,0,2,6,12
1537918622865736,-5,-5,0,-3,-2,3,17,4
1537918622867731,2,2,-3,-1,-4,-24,15,16
1537918622867731,-5,-2,-1,0,-1,19,-14,-4
1537918622888675,-2,0,1,3,6,16,0,-12
1537918622888675,-2,0,2,-2,-2,-3,-3,9
1537918622889672,1,-1,-4,1,1,7,-3,0
1537918622889672,-5,-5,-1,-5,-6,-23,-1,5
1537918622901640,-4,-2,-2,-2,-8,-20,-31,-9
1537918622901640,3,-7,0,1,4,29,24,-8
1537918622910616,5,22,2,2,1,3,-12,2
1537918622910616,1,0,1,0,-2,-19,-12,-14
1537918622925576,2,0,-3,-1,1,-9,-3,5
1537918622925576,-2,-5,-2,0,-4,2,-7,6
1537918622927571,-4,-8,-2,-4,-7,7,-6,-5
1537918622927571,2,1,0,2,13,2,6,0
1537918622948515,-3,1,-1,-5,-6,-10,1,-4
1537918622948515,0,-3,-1,-1,-6,-17,-12,3
1537918622949513,1,-1,-3,0,-1,-16,6,-4
1537918622949513,-6,-2,1,-1,-4,37,-29,-2
1537918622962478,-2,-2,0,3,8,7,36,-4
1537918622962478,-4,1,2,3,5,-24,3,1
1537918622969459,2,-3,-9,-3,2,50,3,-2
1537918622969459,0,-12,0,0,-2,-17,7,-5
1537918622986416,-13,-9,-2,-1,-6,-13,-21,-2
1537918622986416,8,9,0,1,0,8,-10,-4
1537918622987414,7,5,1,2,-1,-13,-9,-6
1537918622987414,9,5,-3,-3,1,-5,9,5
1537918623008357,-13,-11,-5,-1,-7,-28,-20,-3
1537918623008357,-13,5,34,11,1,45,-7,-3
1537918623010353,-21,-15,-41,-14,5,-9,-2,3
1537918623010353,-18,-6,-20,-5,0,-3,42,0
1537918623022317,19,40,37,0,-6,7,3,-3
1537918623022317,13,-11,-41,-16,-3,-27,-5,7
1537918623037277,-15,5,8,4,7,24,-35,-7
1537918623037277,-15,-18,14,-1,-6,4,-22,-10
1537918623046254,-3,2,-7,-1,2,6,18,-48
1537918623046254,6,-2,8,6,0,5,62,104
1537918623047251,15,10,14,6,-3,-39,-44,-15
1537918623047251,19,16,0,2,-3,-17,6,26
1537918623068195,-5,-9,-8,2,17,-9,-50,-28
1537918623068195,1,3,4,8,25,67,-23,-42
1537918623070190,-8,-12,-3,-25,-76,-71,37,0
1537918623070190,2,7,1,3,10,44,27,64
1537918623082158,10,-6,-3,-8,-42,-60,36,88
1537918623082158,-6,-2,-2,8,18,-48,-36,-16
1537918623091134,8,1,-1,1,23,105,9,-5
1537918623091134,-15,-7,-2,-6,-19,-76,-50,-82
1537918623106093,4,0,-4,2,27,57,38,5
1537918623106093,-3,-2,-2,-1,3,20,14,4
1537918623107091,-6,-1,8,6,7,-19,-17,-42
1537918623107091,8,1,0,-2,-2,-16,-14,16
1537918623128035,-1,-5,-7,-5,3,23,16,-3
1537918623128035,-1,1,0,1,8,7,6,2
1537918623130030,-6,-6,7,7,13,-14,-32,-18
1537918623130030,5,2,-2,-1,-1,35,50,-13
1537918623141997,2,4,-6,3,7,-2,-22,41
1537918623141997,-15,-15,-1,-2,-16,-17,19,-17
1537918623156957,8,0,2,0,2,-15,14,24
1537918623156957,-8,-19,-4,-2,-2,7,-8,-14
1537918623165933,15,61,8,2,-4,-12,-20,-24
1537918623165933,-1,-13,3,-5,-9,2,7,-8
1537918623166931,-4,4,-9,-6,0,17,36,29
1537918623166931,5,-1,-7,1,5,-6,-11,-13
1537918623188872,-26,-35,-6,-1,-3,8,-6,-34
1537918623188872,14,1,-13,-13,-15,-11,-19,4
1537918623189870,6,3,5,2,7,3,12,10
1537918623189870,-2,4,4,1,2,-9,-25,8
1537918623203832,0,-11,-3,-4,-10,-8,-21,4
1537918623203832,-1,7,1,-1,-6,5,-15,-11
1537918623210814,-5,-12,-2,1,8,-19,11,-1
1537918623210814,5,9,5,4,10,51,11,-2
1537918623225775,-1,-7,-2,-3,-9,10,13,-4
1537918623225775,-9,-1,-2,-5,-9,-20,-45,-16
1537918623227770,3,3,4,2,-6,-21,3,-8
1537918623227770,2,2,3,3,1,-7,3,13
1537918623248713,-1,-4,-2,-1,6,10,-1,-8
1537918623248713,-9,-2,-3,-2,-5,17,31,-12
1537918623249710,-6,-1,0,2,0,-5,0,-1
1537918623249710,1,2,-1,-2,-1,0,1,7
1537918623261679,0,-9,-2,1,4,-11,-31,2
1537918623261679,-2,2,-2,-2,-2,-30,5,-3
1537918623270654,-6,0,3,2,1,-1,-22,-41
1537918623270654,4,11,1,1,6,33,19,17
1537918623285615,-7,-17,-2,0,0,6,4,-14
1537918623285615,2,-1,1,0,-7,-14,-14,14
1537918623287609,6,-1,-3,-1,2,0,4,3
1537918623287609,-2,-2,-1,-4,-12,-46,-29,-3
1537918623308553,4,3,-1,1,-3,12,13,3
1537918623308553,-1,-1,-3,-2,-3,-3,3,-5
1537918623314537,2,-4,-2,-1,5,18,17,16
1537918623314537,2,-1,0,-1,-3,-26,-19,-3
1537918623322516,2,0,-2,-3,-2,3,16,11
1537918623322516,1,-1,2,2,0,3,2,-4
1537918623331492,3,1,-2,-2,-2,-32,-33,7
1537918623331492,-8,-4,-1,0,4,54,32,-9
1537918623346452,2,2,0,0,-2,-9,16,1
1537918623346452,1,0,-1,-1,3,12,-2,-9
1537918623347450,3,0,0,3,2,-4,-18,8
1537918623347450,-2,-2,-2,-3,-4,-17,-2,-6
1537918623368394,0,-1,-4,-3,-4,-15,7,10
1537918623368394,-7,-1,-1,-1,-2,6,-25,-21
1537918623370389,3,-2,1,-1,2,6,31,20
1537918623370389,2,1,1,4,6,0,-15,-22
1537918623382358,-1,0,0,2,3,-7,4,3
1537918623382358,0,-1,-2,-1,0,-13,-8,-5
1537918623391333,-2,0,-1,-2,-1,11,9,-3
1537918623391333,1,0,-4,-3,-3,-8,0,11
1537918623406293,-2,-2,-3,-2,0,2,13,-1
1537918623406293,1,1,1,-3,0,8,-3,5
1537918623407291,-2,-3,-2,-2,-4,-38,-6,-2
1537918623407291,0,-1,1,0,5,83,6,8
1537918623428234,-1,0,0,1,1,2,5,-6
1537918623428234,1,0,-1,0,0,-13,-5,8
1537918623430228,5,-1,-2,-3,-1,3,2,5
1537918623430228,0,-1,0,-1,-7,-43,-10,9
1537918623442196,-2,2,-1,0,-2,5,1,4
1537918623442196,3,0,-1,-3,-1,7,-8,8
1537918623451172,-4,-2,-1,-1,-3,14,18,-14
1537918623451172,2,0,-2,-3,-4,-22,-9,9
1537918623466131,2,-2,-2,-1,-3,2,1,13
1537918623466131,0,0,0,0,2,7,0,-11
1537918623467129,4,-3,-3,0,-2,14,-5,2
1537918623467129,-2,-2,-2,-2,1,-22,-28,21
1537918623488073,-1,0,-2,-2,0,-5,38,-4
1537918623488073,-1,0,-2,-2,-2,-4,-7,3
1537918623490068,-2,-1,0,-2,-2,10,9,-4
1537918623490068,-1,-5,0,0,-1,-9,4,-11
1537918623502036,0,0,1,0,1,-30,-4,4
1537918623502036,-2,-3,-2,-3,-5,13,3,-5
1537918623511013,-2,-1,0,2,8,24,-6,-3
1537918623511013,-3,0,0,-1,-3,16,2,-7
1537918623525972,-1,0,-1,-2,0,-2,-16,-10
1537918623525972,0,-2,-1,-1,0,-16,-16,16
1537918623526970,0,1,1,0,-1,1,45,4
1537918623526970,-1,1,-1,-2,-2,-19,-3,-12
1537918623548912,2,0,-2,-1,-2,7,-8,-2
1537918623548912,-2,-3,1,0,0,4,4,-5
1537918623549910,0,1,-1,-1,0,-3,-15,26
1537918623549910,10,1,-3,-3,-4,-15,-16,13
1537918623570852,-6,-1,1,2,0,11,-10,-30
1537918623570852,10,0,-2,-3,-2,-25,4,29
1537918623572846,-5,-2,0,0,-1,23,18,-9
1537918623572846,-7,-2,0,0,-1,-5,28,-33
1537918623585811,3,1,0,-1,6,2,-19,58
1537918623585811,0,-1,-3,-3,-11,-16,-43,-10
1537918623591795,3,1,0,0,-8,-5,16,2
1537918623591795,0,1,0,1,1,26,1,-6
1537918623608750,-3,-1,-1,-1,-1,-23,4,-12
1537918623608750,0,0,-2,0,4,15,7,-3
1537918623609747,-2,-1,-1,-2,-2,-7,-25,0
1537918623609747,-4,-2,-2,0,2,-8,-13,-1
1537918623630691,-2,3,-1,1,-4,9,8,-8
1537918623630691,-6,-13,1,2,6,-2,20,-1
1537918623632686,0,1,0,-2,-1,0,-23,-14
1537918623632686,3,-3,-3,-4,-5,-13,-3,11
1537918623645651,-4,-2,-2,-3,-1,7,1,-3
1537918623645651,1,4,-1,-1,-1,-4,4,-8
1537918623647646,-2,0,0,1,0,1,-4,-9
1537918623647646,-6,-3,1,1,1,-2,3,1
1537918623668590,-2,-3,-2,-2,-4,-12,-7,-10
1537918623668590,-3,-1,0,0,0,17,33,15
1537918623669587,4,-2,-2,-3,-6,-27,17,19
1537918623669587,2,3,-1,-1,0,1,1,7
1537918623690532,2,-4,-3,-4,3,12,-5,-9
1537918623690532,-2,1,-2,2,0,-2,2,-2
1537918623692527,-6,-1,-2,-1,1,4,-20,-21
1537918623692527,-4,-3,-1,-4,-8,-26,13,-4
1537918623705493,1,-2,1,-1,-6,0,-2,4
1537918623705493,-3,1,0,0,1,5,-1,-9
1537918623712474,-2,-2,-3,1,4,4,7,8
1537918623712474,-5,-1,1,2,1,-9,-10,-8
1537918623728432,0,-1,0,0,1,13,-15,-4
1537918623728432,2,-1,-2,-5,-3,-3,15,8
1537918623730426,1,0,-3,-2,-7,-7,-28,-12
1537918623730426,2,0,-1,2,3,-11,14,8
1537918623751370,-1,-1,0,-2,3,30,-2,-3
1537918623751370,-4,1,-1,0,-1,0,9,-16
1537918623752368,-3,0,1,0,2,-22,-45,2
1537918623752368,1,0,-2,-1,2,32,21,18
1537918623765333,0,-3,0,0,-2,-24,-1,-16
1537918623765333,2,7,2,1,0,5,-7,4
1537918623772314,4,1,-2,-2,-2,3,16,-10
1537918623772314,-20,-15,-1,0,-1,-4,-4,-17
1537918623788271,-3,0,-3,-2,-7,-24,-20,-7
1537918623788271,1,-3,2,2,3,18,8,10
1537918623790267,-7,-4,-2,-1,5,-3,0,-5
1537918623790267,14,12,2,-1,3,25,1,5
1537918623811210,-2,-2,-2,0,-3,1,14,-4
1537918623811210,-4,1,-3,-3,-5,-31,-45,-22
1537918623812207,2,7,0,1,3,13,38,11
1537918623812207,-1,-21,-3,0,-1,-7,9,6
1537918623825174,-6,-9,2,-1,-1,-1,-8,-2
1537918623825174,-7,11,-8,-1,0,-2,2,-3
1537918623832154,10,-3,7,-1,-1,3,-13,5
1537918623832154,-3,3,0,-1,-2,-15,13,-6
1537918623848111,-5,-2,-7,-2,-4,15,-12,-2
1537918623848111,13,-6,-2,0,3,-13,42,14
1537918623850107,-5,-3,12,3,1,-2,-26,-21
1537918623850107,-19,2,-10,-2,2,-4,-42,-1
1537918623871049,8,-12,5,-1,-1,15,100,23
1537918623871049,0,29,1,3,0,-2,-13,-29
1537918623872047,5,-5,-12,-7,-10,21,18,-1
1537918623872047,-15,-28,1,-1,0,-45,-30,-2
1537918623885011,19,13,-7,-2,4,16,-21,-1
1537918623885011,-2,-39,2,-1,0,2,-3,1
1537918623891992,-3,27,2,-3,-1,14,2,6
1537918623891992,8,4,3,0,-2,9,23,-11
1537918623907950,-2,-4,-1,1,4,-12,-14,11
1537918623907950,-1,2,-2,-6,-6,-14,2,-4
1537918623909945,-2,-7,-4,0,6,-27,-14,1
1537918623909945,0,6,1,-6,-14,28,8,0
1537918623930888,-4,4,5,4,3,-9,2,-9
1537918623930888,0,1,2,3,-2,5,-10,8
1537918623931886,-9,-8,-3,-2,0,-3,24,3
1537918623931886,8,6,1,1,2,-10,-14,-3
1537918623944851,-3,-1,-2,-5,-5,26,37,1
1537918623944851,3,-1,1,5,7,-22,-30,5
1537918623953827,-9,-9,-2,-2,-3,2,16,-9
1537918623953827,8,9,2,2,9,-7,-34,-1
1537918623968787,-10,-2,-1,1,-9,4,-27,-3
1537918623968787,-3,-5,-2,-5,-4,4,25,-1
1537918623969785,6,2,0,5,21,-19,8,14
1537918623969785,13,5,1,7,21,81,0,9
1537918623990729,-4,-4,-7,-17,-49,-35,-34,-1
1537918623990729,-1,4,4,4,-7,5,14,-2
1537918623992723,-4,-4,-1,5,16,7,1,-7
1537918623992723,-11,-4,-6,-11,-10,-42,-5,-22
1537918624004692,2,-2,2,8,14,27,11,2
1537918624004692,-19,-6,-7,-20,-41,-38,10,-16
1537918624013668,8,-2,1,4,19,5,-40,17
1537918624013668,-9,1,1,-1,-3,-37,7,-16
1537918624028629,22,7,2,6,28,-29,27,-4
1537918624028629,8,0,1,-2,-10,40,44,42
1537918624029626,-7,2,4,8,12,4,-54,-15
1537918624029626,2,-3,-3,-7,2,6,-25,3
1537918624050573,-17,-4,-3,-9,-29,-50,-69,-28
1537918624050573,-8,-4,-3,4,21,1,23,-4
1537918624052566,0,-3,-2,-6,-21,-14,30,-12
1537918624052566,7,4,0,5,0,30,-22,-14
1537918624064532,8,6,2,2,13,1,24,21
1537918624064532,1,-3,-3,-3,-5,-62,-9,8
1537918624073508,-5,-4,-3,-4,-17,77,-36,-4
1537918624073508,-5,-2,-2,1,7,-9,53,-7
1537918624088468,-2,-2,0,2,-6,-11,-3,18
1537918624088468,-7,-3,-3,0,12,8,-69,-16
1537918624089465,7,3,0,-2,-17,-42,31,-23
1537918624089465,1,-2,-2,-3,1,-30,32,14
1537918624111408,-4,1,-1,0,10,53,-6,-4
1537918624111408,7,1,1,6,9,24,25,10
1537918624112404,-7,-6,-3,-3,-5,6,2,-1
1537918624112404,1,2,0,-1,-11,4,-53,-4
1537918624124372,-3,0,0,2,5,-19,90,10
1537918624124372,-2,-2,-1,-2,-4,-1,-45,-12
1537918624133348,1,-2,0,-1,0,22,-9,-1
1537918624133348,5,0,-1,-1,-5,9,-3,9
1537918624163269,-5,-1,0,0,-2,-27,-34,29
1537918624163269,-1,0,1,3,10,14,-21,-33
1537918624165265,1,-2,-3,-2,1,2,21,49
1537918624165265,4,1,1,-1,-6,-36,7,30
1537918624171248,-3,1,0,1,15,30,-43,-51
1537918624171248,-4,-6,-2,-3,-12,29,-17,-11
1537918624172246,-9,-4,-4,-7,-10,-24,29,7
1537918624172246,1,0,0,-2,-18,-24,43,-10
1537918624184213,2,-2,1,4,26,27,16,10
1537918624184213,2,1,2,2,3,6,-31,-2
1537918624193189,2,0,-2,-5,-26,-32,33,-35
1537918624193189,-3,0,-1,-1,5,0,-1,18
1537918624208149,-4,-2,-3,-2,2,7,0,-11
1537918624208149,-2,0,-2,-1,6,-3,-20,11
1537918624210144,2,-1,-1,0,8,35,3,2
1537918624210144,-1,1,0,0,-7,-6,-4,-10
1537918624231088,-3,-3,-3,-2,-5,-2,2,-6
1537918624231088,-4,-2,-2,-1,2,-4,18,-8
1537918624232085,2,3,2,4,2,-20,-35,-3
1537918624232085,1,1,0,0,2,8,52,10
1537918624245050,0,1,-1,-3,-11,11,-25,5
1537918624245050,-5,-1,1,2,7,24,71,-2
1537918624254028,3,0,-2,-3,4,14,-61,8
1537918624254028,4,2,2,1,-7,-2,19,-1
1537918624267989,-5,-2,-2,1,14,-35,-56,-15
1537918624267989,12,-1,-3,-10,-38,-45,54,13
1537918624274969,-7,-2,0,-1,-8,10,14,-9
1537918624274969,-8,-3,-2,0,10,16,-18,-11
1537918624290926,5,-1,-2,-4,-24,5,-9,8
1537918624290926,-12,-2,0,1,12,4,-32,-12
1537918624291924,-4,-2,-2,2,16,45,-13,-8
1537918624291924,5,-1,0,0,-10,7,-30,-8
1537918624304889,3,1,2,4,3,-17,60,18
1537918624304889,-3,1,0,2,6,-9,-52,-19
1537918624313865,2,-1,-3,-6,-14,-22,34,6
1537918624313865,-4,-1,1,2,6,-8,-18,-4
1537918624327828,-1,-1,-2,-4,-6,4,-1,-7
1537918624327828,-2,-1,-2,-3,-1,26,46,6
1537918624334809,2,2,1,0,2,-33,33,8
1537918624334809,6,-1,-2,0,1,13,-63,-3
1537918624350766,-1,-2,0,1,2,-31,-33,-10
1537918624350766,-2,-1,-3,0,-2,-16,36,12
1537918624352761,1,0,1,1,12,26,-14,-8
1537918624352761,-2,-3,-3,-6,-17,-33,-1,-11
1537918624364729,-1,-1,-1,-1,-8,19,11,1
1537918624364729,-2,1,-1,3,15,0,-9,-3
1537918624373705,-1,-1,-2,-3,-12,6,9,7
1537918624373705,-1,-1,0,-1,-16,-29,-22,-3
1537918624387668,-2,-1,-2,-2,7,24,18,-6
1537918624387668,-1,-1,-1,2,-1,1,-16,3
1537918624394650,0,-4,-2,-1,-2,1,-27,5
1537918624394650,-2,0,1,-1,-5,-7,19,21
1537918624410608,0,-1,3,0,-9,-3,52,-29
1537918624410608,7,2,0,-2,3,-9,-14,18
1537918624412604,-2,-1,1,3,17,-7,2,-1
1537918624412604,-6,0,-2,-1,2,45,-4,-13
1537918624424570,1,0,-3,-2,-5,10,4,7
1537918624424570,-2,-2,-1,1,6,-4,1,-2
1537918624433547,2,2,0,-1,-4,-48,-27,3
1537918624433547,-3,-4,-3,-4,1,34,14,9
1537918624447510,-2,0,-2,-3,-9,-8,-6,-6
1537918624447510,3,1,1,1,7,-20,-2,11
1537918624454491,3,-1,-3,-3,-10,27,5,-4
1537918624454491,-1,-1,-2,0,1,3,4,1
1537918624470447,-2,0,0,3,10,0,-16,5
1537918624470447,0,0,1,-2,-6,2,-35,-4
1537918624472442,-5,-2,-3,-2,-4,-24,49,-2
1537918624472442,4,2,1,-1,1,-24,18,-2
1537918624493385,-3,0,-4,-4,-14,-21,-28,4
1537918624493385,0,0,1,4,16,51,-6,-8
1537918624494383,-3,0,0,0,12,-9,-7,-5
1537918624494383,-2,-2,-2,-3,-10,22,-3,-9
1537918624507348,-3,-4,-2,-3,0,-9,-9,4
1537918624507348,5,-1,-2,-4,-14,2,4,5
1537918624514329,-1,-1,-1,-2,-4,-7,2,-3
1537918624514329,-6,-4,-1,0,10,1,-1,-16
1537918624531284,-3,2,2,2,0,-15,-22,3
1537918624531284,7,0,2,-1,-4,6,9,-2
1537918624532282,5,1,0,1,-3,-7,-4,20
1537918624532282,-2,-2,-2,-1,-5,-2,7,-5
1537918624553225,0,-1,-1,1,8,20,-5,1
1537918624553225,-4,-2,-2,-4,-6,-16,11,-8
1537918624555220,-5,-2,-1,0,-3,-13,-10,-9
1537918624555220,1,-1,-2,2,9,-12,-18,4
1537918624568185,-2,0,-1,-1,-7,1,30,-5
1537918624568185,-5,-2,-4,-2,14,24,28,1
1537918624574169,2,2,2,-2,-28,-33,-44,-3
1537918624574169,-1,-1,-1,-5,-15,-25,-17,18
1537918624591124,-3,-4,0,2,15,40,11,-17
1537918624591124,-6,-2,-3,-6,-14,-28,-4,4
1537918624592121,1,0,0,3,8,22,7,-9
1537918624592121,1,-2,-1,-1,3,11,11,1
1537918624613065,0,2,1,-1,-1,-20,-33,1
1537918624613065,5,1,-1,-2,-1,-6,16,10
1537918624615060,-11,-9,-6,-10,-6,-2,22,0
1537918624615060,8,10,9,11,14,49,-20,-6
1537918624627028,0,-1,0,-2,-3,-33,0,4
1537918624627028,-3,-3,-3,0,-4,16,-12,-10
1537918624636005,-3,-4,-4,-5,-1,15,24,4
1537918624636005,-1,-1,0,3,12,2,10,-3
1537918624650966,-1,-1,-1,-4,-13,10,7,2
1537918624650966,0,4,4,5,9,16,-21,-9
1537918624651963,2,1,1,2,1,-20,-1,3
1537918624651963,0,-2,0,0,8,-5,10,0
1537918624673903,2,1,1,1,7,-14,5,5
1537918624673903,0,0,-4,-4,-16,-21,-11,-1
1537918624674902,2,0,-1,1,1,28,-6,-1
1537918624674902,-5,-3,-3,-3,-5,-6,11,-8
1537918624686869,-1,-3,-2,0,9,10,-29,-3
1537918624686869,-2,-1,0,-3,-12,-12,12,3
1537918624695845,1,2,1,-1,-8,-8,-11,-4
1537918624695845,0,-1,-2,-2,-3,-9,-23,8
1537918624710805,0,0,-1,0,-1,3,25,6
1537918624710805,-1,-2,1,2,4,5,-14,-1
1537918624712799,0,-1,1,3,6,4,9,-3
1537918624712799,-1,-1,-3,-3,-2,-13,-2,-5
1537918624733742,0,-2,-3,-2,-1,14,12,3
1537918624733742,-2,0,-1,-1,2,-13,-32,-5
1537918624734740,-9,-2,-2,-1,0,10,18,-8
1537918624734740,8,0,-4,-4,-4,-20,6,-1
1537918624746708,-11,-10,0,-1,-1,2,-61,-2
1537918624746708,17,17,0,0,3,-1,104,13
1537918624755684,-14,-5,-2,-1,-1,9,-15,-3
1537918624755684,-9,-4,-7,-3,-4,15,-18,-7
1537918624770644,7,5,0,3,1,15,52,-5
1537918624770644,-4,-6,-1,-2,-9,-30,-78,-8
1537918624772639,0,-2,-2,-3,-3,-6,-5,-24
1537918624772639,1,1,2,2,12,8,18,12
1537918624793583,-3,-2,-2,-3,-9,-22,2,2
1537918624793583,-4,-5,1,2,5,46,-10,2
1537918624794581,2,3,-3,-2,-3,-29,-28,-25
1537918624794581,-8,-6,-2,-4,-11,5,23,-1
1537918624807546,-2,-2,-3,-6,-8,-17,-14,10
1537918624807546,2,2,0,3,10,7,52,-20
1537918624815525,3,0,1,1,7,-10,-36,34
1537918624815525,4,-1,0,0,0,9,32,7
1537918624830486,-3,0,-1,-2,-1,-7,-13,-16
1537918624830486,-4,-3,-5,-5,-12,-6,-1,23
1537918624832482,1,-3,-2,-1,-2,-12,-9,4
1537918624832482,0,0,0,1,-1,11,-5,-4
1537918624853425,0,0,-1,2,16,-10,9,3
1537918624853425,1,-2,-1,-4,-15,-8,-4,2
1537918624854422,4,-1,0,2,0,-6,21,3
1537918624854422,-3,-2,0,-1,-1,18,5,5
1537918624867386,1,0,0,3,3,15,-14,-16
1537918624867386,-4,-3,0,1,6,-1,-14,-4
1537918624876364,1,0,0,-2,2,11,-3,-9
1537918624876364,2,0,0,0,0,-20,21,13
1537918624891323,2,1,0,-2,-5,1,-14,-4
1537918624891323,-6,-2,-1,-3,0,4,5,-29
1537918624892322,5,3,1,1,0,6,14,30
1537918624892322,-6,-3,0,-1,0,-15,-33,-17
1537918624913263,-2,-2,0,-2,-7,-10,22,-9
1537918624913263,9,2,1,4,5,8,-15,8
1537918624915258,-3,-3,-2,-3,-5,-12,15,-28
1537918624915258,2,0,0,0,6,28,-1,29
1537918624927227,3,0,-2,-2,-6,0,1,26
1537918624927227,-9,-3,-1,-1,0,-19,-5,-19
1537918624936201,-1,0,-2,-1,-3,-7,-6,6
1537918624936201,-2,1,-2,-1,-3,-1,-18,-15
1537918624951161,-1,0,1,1,-5,0,31,5
1537918624951161,1,-2,-1,-1,0,9,18,14
1537918624952159,0,0,0,-2,0,0,8,21
1537918624952159,-5,2,-1,-2,-3,-16,15,3
1537918624972106,-5,-8,1,0,0,10,-25,-39
1537918624972106,9,12,-1,1,-1,-15,-38,3
1537918624981083,-1,-5,1,3,4,11,11,-11
1537918624981083,-6,-13,-4,-3,-4,-14,-10,-7
1537918624987067,1,1,-2,-2,-2,7,-8,0
1537918624987067,-5,-5,-2,-5,-1,6,20,49
1537918624996044,-2,4,-1,-1,-1,2,-34,-33
1537918624996044,-3,-16,0,-1,2,-8,9,-14
1537918625011003,9,24,-2,-1,-3,-7,-1,-30
1537918625011003,-2,-12,-5,0,-1,-5,0,0
1537918625012001,16,7,3,2,1,-4,1,44
1537918625012001,-6,-10,-4,-3,-4,13,34,-13
1537918625032944,-3,-2,1,0,4,33,-28,-20
1537918625032944,4,3,-5,0,1,-4,25,2
1537918625034939,-2,-7,2,-4,-3,7,-12,-12
1537918625034939,4,16,4,4,-1,-30,-9,8
1537918625046907,-14,-32,0,0,-2,-6,-5,17
1537918625046907,16,24,-1,-1,-2,-8,1,-11
1537918625061868,3,-11,-8,-2,1,12,13,-3
1537918625061868,3,1,-3,0,-1,2,2,5
1537918625070844,-5,-5,-9,-4,-3,-11,5,18
1537918625070844,-3,-4,10,-2,-2,3,-20,-27
1537918625072837,2,11,10,1,-3,-4,8,6
1537918625072837,4,2,-13,-3,0,5,-5,0
1537918625093783,-1,-2,3,-1,-3,-8,9,8
1537918625093783,-11,-6,-5,0,-2,-9,-27,-9
1537918625094779,-7,-3,-5,-2,0,8,-1,-8
1537918625094779,-4,8,9,3,4,-3,-14,-1
1537918625106746,6,2,-1,-1,3,-7,8,9
1537918625106746,-3,3,0,-2,1,-12,-11,3
1537918625115721,6,0,0,3,3,28,5,2
1537918625115721,-7,-7,1,2,15,1,-20,-16
1537918625130682,-7,-5,-4,-5,-17,0,10,2
1537918625130682,7,4,1,0,0,-3,-22,-1
1537918625132677,-11,-6,-5,-4,-4,-11,25,4
1537918625132677,-6,-34,-12,-2,-8,-8,9,-14
1537918625153620,7,27,8,0,7,4,-5,1
1537918625153620,-6,11,6,1,-2,-22,-15,10
1537918625154618,-1,8,2,3,3,38,5,-6
1537918625154618,-4,14,2,0,2,1,-3,-5
1537918625166586,15,-25,-7,0,0,-15,2,27
1537918625166586,-4,-7,-3,-3,-9,12,12,-7
1537918625175562,-7,-5,-6,-3,-3,-21,-8,-6
1537918625175562,2,-9,-5,-6,-7,5,3,6
1537918625190524,-3,0,2,2,1,-9,-42,-24
1537918625190524,-6,-5,1,1,9,11,42,4
1537918625192518,-4,-13,-5,1,7,-8,-32,1
1537918625192518,-1,28,14,4,0,27,68,17
1537918625213462,11,2,-7,-8,-17,-43,-31,-24
1537918625213462,4,-8,-4,-7,-27,6,9,0
1537918625214460,1,17,12,1,2,-1,-11,-9
1537918625214460,0,3,-1,-4,-10,-13,-28,22
1537918625227425,-8,1,0,7,12,18,22,14
1537918625227425,-6,-17,-4,4,18,12,-1,-17
1537918625236401,5,-10,-8,-3,-9,-8,-3,-1
1537918625236401,-13,0,-5,-8,-15,-28,-33,19
1537918625251360,22,4,5,2,0,24,59,-10
1537918625251360,-8,-7,-4,-3,0,2,-27,-16
1537918625252358,-8,2,1,1,9,0,4,10
1537918625252358,0,2,2,3,10,-3,-23,-41
1537918625273302,-6,-2,-4,-2,-8,-3,-20,9
1537918625273302,-4,-4,-1,-2,-3,-31,54,21
1537918625275297,-3,1,-3,-1,5,68,2,-18
1537918625275297,12,0,1,3,5,-14,-26,-7
1537918625287264,-8,-1,2,1,-2,20,-13,4
1537918625287264,7,3,0,0,1,-36,-24,0
1537918625296240,-7,-2,-4,-4,-7,-16,37,-5
1537918625296240,4,0,1,6,12,75,31,-1
1537918625311200,-4,1,-1,0,-1,-44,-4,15
1537918625311200,-11,-3,-4,-3,3,18,-56,-32
1537918625312198,2,-5,-2,0,-3,-43,25,2
1537918625312198,7,8,1,-3,-9,-1,-5,0
1537918625333140,-1,6,3,2,11,-17,14,-2
1537918625333140,-3,-1,-2,1,3,20,4,9
1537918625335135,2,-4,0,1,5,-11,-9,-15
1537918625335135,-5,-8,-4,-7,-21,-29,-26,-33
1537918625347103,-2,-2,-1,-2,-1,9,50,30
1537918625347103,-4,2,-1,1,19,9,-63,-17
1537918625356079,-3,-4,-3,-4,-17,18,77,17
1537918625356079,14,3,-1,-1,-6,-16,-9,5
1537918625378020,-3,-2,-3,1,12,-19,-91,-15
1537918625378020,3,-2,1,-1,-7,32,90,21
1537918625380015,-4,-1,-2,-2,9,-22,-71,-8
1537918625380015,-12,-3,-3,-6,-24,-18,65,5
1537918625392980,2,-1,-3,-4,-10,28,3,-3
1537918625392980,3,0,3,5,18,0,-22,-5
1537918625394975,1,2,-2,1,-9,-11,34,11
1537918625394975,2,-2,-2,0,9,-13,-26,2
1537918625415919,-6,-1,0,2,15,22,-23,0
1537918625415919,-4,0,0,0,-3,-13,19,0
1537918625416917,2,-3,-2,-5,-10,11,-11,9
1537918625416917,1,-1,1,2,8,-31,-16,-7
1537918625430879,-4,1,1,-2,-2,38,16,5
1537918625430879,2,-3,-1,-4,-9,9,28,0
1537918625431877,-8,-1,0,1,1,-11,-3,-5
1537918625431877,22,2,0,1,-3,18,-8,14
1537918625453824,-4,2,-1,-2,2,-42,16,-1
1537918625453824,-2,-2,-2,-4,-20,47,17,5
1537918625454817,-2,-2,0,-1,7,-6,-29,-3
1537918625454817,-12,-6,-3,-1,5,20,0,-5
1537918625475760,-1,-1,-2,-3,-5,-28,-23,-8
1537918625475760,5,3,0,0,2,-40,-25,-3
1537918625477757,2,3,2,-2,-19,26,13,4
1537918625477757,-3,-1,1,1,13,6,1,0
1537918625490720,-2,-6,-3,-4,-23,-6,-17,-4
1537918625490720,-5,-6,-2,-1,5,-7,9,-3
1537918625492716,3,4,0,-1,4,-16,-53,-5
1537918625492716,-3,-2,-1,0,0,-7,0,-1
1537918625513661,-8,-2,-2,-2,4,28,51,2
1537918625513661,7,4,2,-2,-3,-10,-47,-11
1537918625514659,-14,-5,9,3,2,-11,5,-1
1537918625514659,11,-5,-17,-1,-2,9,29,5
1537918625535600,1,5,4,0,5,-2,0,4
1537918625535600,2,-6,-2,-1,-13,-16,-33,6
1537918625537595,-8,0,0,-2,0,-5,-54,-9
1537918625537595,-7,6,8,3,8,8,67,7
1537918625550559,0,-6,-5,-4,1,-7,3,-9
1537918625550559,-5,0,-3,-1,0,24,23,7
1537918625556543,6,1,-3,-2,-4,-6,-31,-2
1537918625556543,-4,-3,2,0,8,-9,-31,-4
1537918625573498,-3,-4,-7,-13,-82,-10,-3,-6
1537918625573498,-3,-4,1,0,-4,-24,27,5
1537918625574495,6,5,-2,2,36,61,21,-3
1537918625574495,-15,0,0,-2,-5,-33,-46,2
1537918625595439,11,4,3,5,7,0,63,6
1537918625595439,-6,-2,-4,-5,-9,1,-24,-11
1537918625597434,2,-7,-3,-1,-10,-18,14,1
1537918625597434,-6,6,3,0,12,-2,-26,-10
1537918625610400,-2,-3,-2,2,21,14,-7,2
1537918625610400,0,-2,-2,0,-5,-14,21,-10
1537918625617382,4,-11,-5,-2,3,-23,22,27
1537918625617382,-4,10,3,-2,-5,23,-25,-12
1537918625633340,1,3,0,4,18,4,-27,-5
1537918625633340,6,0,-1,-4,-18,-15,1,0
1537918625635334,0,-1,-1,0,-1,-8,36,1
1537918625635334,3,-14,-6,-1,-9,-13,-13,1
1537918625656277,-6,0,1,-1,4,9,8,-6
1537918625656277,-16,8,12,4,22,11,13,8
1537918625657275,22,2,-11,-2,-15,-30,-7,1
1537918625657275,3,-3,3,-1,-5,28,-3,3
1537918625670240,-3,-2,-3,0,-1,-29,-13,2
