timestamp,emg1,emg2,emg3,emg4,emg5,emg6,emg7,emg8
1537918733416720,-2,2,0,3,3,-3,5,-7
1537918733416720,0,0,-2,1,4,-7,-2,-2
1537918733417717,2,0,0,0,2,-19,-4,4
1537918733417717,-2,1,-1,2,10,6,5,0
1537918733418715,-1,0,1,3,10,-1,15,5
1537918733418715,0,-1,0,-2,-2,4,10,0
1537918733419712,1,0,-2,-4,-15,-3,-2,-3
1537918733419712,-1,-2,-2,-5,-27,-13,-23,3
1537918733420709,1,-3,-2,-6,-4,1,1,-3
1537918733420709,0,0,3,4,6,1,-3,0
1537918733434672,-3,-2,-3,-3,5,-5,-8,-4
1537918733434672,1,-1,2,3,6,-10,6,0
1537918733444646,-2,-2,-2,4,-2,20,-5,-1
1537918733444646,1,-2,-3,-4,0,8,7,3
1537918733450630,1,0,1,5,4,-7,-6,-4
1537918733450630,-1,-2,-2,-3,2,-12,-14,-5
1537918733465591,0,-2,0,-3,-8,-2,-2,0
1537918733465591,0,1,0,0,-2,-11,8,2
1537918733480550,-2,-1,0,0,11,27,-2,-4
1537918733480550,-1,-1,2,0,-2,-13,10,-1
1537918733480550,0,-2,-4,-4,-15,-11,-19,2
1537918733480550,-1,-1,1,1,1,19,14,0
1537918733527425,0,0,-1,3,4,-7,-2,-2
1537918733527425,-1,-1,-1,1,2,-3,-1,0
1537918733528422,-1,-2,0,-1,-4,-7,-2,-1
1537918733528422,-1,-1,1,1,2,1,-2,-1
1537918733540390,-1,-2,-1,-1,2,5,3,1
1537918733540390,-2,-1,-2,-3,-2,-6,-4,-1
1537918733541387,0,0,1,1,0,0,3,1
1537918733541387,-2,-1,0,-2,-1,-2,0,0
1537918733542386,-1,-2,1,0,5,1,-3,-1
1537918733542386,-1,-1,0,3,14,3,-1,-2
1537918733548369,-2,-1,-2,-6,-32,-13,-2,-2
1537918733548369,0,-1,-2,1,1,8,-1,-3
1537918733562331,-2,-1,-1,3,3,-19,-1,-1
1537918733562331,0,-4,-3,-8,-10,17,4,4
1537918733571308,2,1,-3,-1,9,-8,-16,-3
1537918733571308,-1,-1,-1,3,1,-2,-1,-2
1537918733577291,-1,0,1,-2,-9,-7,-2,-2
1537918733577291,1,2,1,3,8,3,2,-3
1537918733600230,-1,-2,-2,0,-2,1,2,0
1537918733600230,0,-2,-4,-5,-3,1,0,0
1537918733601227,-1,0,1,9,45,36,-3,-1
1537918733601227,-6,-2,-2,-4,-24,-31,1,13
1537918733615189,-16,0,3,11,36,-42,-26,-41
1537918733615189,13,-2,-7,-21,-71,40,34,20
1537918733616187,2,0,-4,-17,-50,-29,-48,33
1537918733616187,-1,0,3,20,41,-69,41,-25
1537918733637130,-6,-7,-9,-16,33,1,-73,-48
1537918733637130,-10,-3,3,1,-55,-60,41,39
1537918733638128,-21,-6,1,18,65,56,-52,-93
1537918733638128,4,-6,-16,-43,-40,102,35,32
1537918733660070,12,7,-4,-25,-123,-98,-42,-71
1537918733660070,-6,3,17,57,114,127,-35,-19
1537918733661068,-4,-6,-14,-38,-127,84,25,34
1537918733661068,-15,0,5,19,78,-104,40,-41
1537918733675029,-18,-14,-14,-53,-74,-11,-13,-12
1537918733675029,0,4,18,59,104,61,0,29
1537918733676028,22,5,-3,-10,-96,-128,-66,-6
1537918733676028,-22,3,29,91,120,127,4,-31
1537918733697968,9,-5,-13,-56,-127,-81,88,64
1537918733697968,5,-6,-12,-19,54,-97,-124,-32
1537918733697968,6,7,21,48,102,12,95,25
1537918733697968,3,-11,-35,-115,-128,43,-43,52
1537918733719909,-2,1,7,26,127,29,26,1
1537918733719909,-15,4,3,1,29,30,-48,-3
1537918733720907,6,9,21,78,127,-22,58,-11
1537918733720907,-7,-6,-12,-23,25,96,-55,-2
1537918733734869,0,10,20,51,-18,97,-15,-3
1537918733734869,37,-2,-22,-26,2,-76,60,52
1537918733735867,-18,-17,-23,-61,-73,76,-44,-61
1537918733735867,8,7,17,36,52,22,63,61
1537918733757808,14,1,0,-5,-15,79,-19,7
1537918733757808,-13,-5,-4,-25,-85,-3,-47,-73
1537918733757808,-3,0,-3,4,31,-32,51,23
1537918733757808,2,-2,5,15,13,17,24,-13
1537918733779749,-18,-9,-9,-11,-6,23,16,-9
1537918733779749,-7,0,-4,-8,-78,-79,23,16
1537918733780747,12,1,1,8,49,31,-44,29
1537918733780747,0,-8,-18,-51,-128,-12,-86,-52
1537918733794709,5,2,4,20,31,-85,-17,11
1537918733794709,-15,-2,-5,-34,-43,4,30,-47
1537918733795707,7,-1,0,-16,-30,28,17,44
1537918733795707,18,5,2,12,-44,15,2,9
1537918733817648,7,2,-3,10,65,12,18,-7
1537918733817648,-4,-3,1,8,66,37,-23,-25
1537918733818645,1,0,-5,-19,10,29,-27,-3
1537918733818645,3,8,13,36,90,-102,-71,-27
1537918733839589,10,-5,-9,-23,-101,-59,36,52
1537918733839589,-4,3,11,35,68,127,-13,-53
1537918733840587,6,5,8,22,32,-56,22,16
1537918733840587,-23,-1,4,17,-37,6,-8,-21
1537918733864523,7,-3,0,8,110,127,1,-14
1537918733864523,-3,0,-7,-34,-56,-128,-12,-5
1537918733865520,4,-2,-7,-19,0,13,-52,-5
1537918733865520,-2,-11,-19,-43,-82,-15,15,29
1537918733877488,9,10,19,39,64,-59,18,26
1537918733877488,-2,-3,-11,-29,-101,127,40,9
1537918733878485,-7,-2,-1,-1,-15,-19,-21,10
1537918733878485,9,5,3,2,12,-25,39,-2
1537918733900427,-12,-2,7,28,65,34,-84,-60
1537918733900427,-18,2,19,62,107,38,60,8
1537918733900427,2,-7,-17,-43,-86,-52,-13,18
1537918733900427,-1,-2,3,12,79,23,-18,3
1537918733914389,-8,-4,-10,-19,-32,74,16,-2
1537918733914389,-1,2,5,6,-4,-7,13,-8
1537918733922368,-6,-3,-3,3,-7,-27,-11,-19
1537918733922368,17,0,-4,0,27,-41,-1,11
1537918733937328,-3,-1,1,5,6,-12,-24,18
1537918733937328,7,-1,-6,-18,-31,-33,-6,20
1537918733938325,-6,-2,1,16,39,72,-10,-40
1537918733938325,10,3,0,-10,-80,41,79,28
1537918733960267,-4,3,2,10,33,24,15,19
1537918733960267,8,-3,-6,-22,-49,-70,-14,4
1537918733960267,-9,-3,-4,-10,-29,31,41,-12
1537918733960267,-8,1,2,4,16,8,-30,-42
1537918733974229,-6,-1,0,3,-1,6,34,0
1537918733974229,4,-1,1,2,1,-33,-24,21
1537918733982208,-4,0,4,12,35,-5,6,-6
1537918733982208,-2,-2,-4,-4,0,-26,-17,-9
1537918733997168,-2,-2,-3,-5,-17,-18,19,13
1537918733997168,4,0,-5,-8,-2,2,-1,3
1537918733998165,-1,0,-1,-3,-18,-22,14,1
1537918733998165,0,1,2,10,23,-14,-5,2
1537918734020107,-2,1,-2,-3,-23,17,-2,1
1537918734020107,2,-2,-1,-3,5,-11,15,11
1537918734021105,-1,0,2,0,-2,9,6,0
1537918734021105,0,0,-1,1,-4,-30,-3,0
1537918734034070,-3,-2,-1,-1,-2,-8,1,6
1537918734034070,0,-2,-3,-5,-4,11,-17,4
1537918734043046,-1,3,1,0,-10,-5,53,4
1537918734043046,-5,-2,-1,-1,-1,-28,-15,-13
1537918734058006,3,0,-1,-6,-2,11,-4,5
1537918734058006,3,0,0,-1,6,3,8,3
1537918734058006,-3,-1,1,1,-8,-29,-16,-13
1537918734058006,-3,0,2,4,14,18,5,-1
1537918734079948,3,2,-4,-8,-9,-16,0,1
1537918734079948,-1,-3,-1,-1,-1,5,11,5
1537918734080946,-13,-6,0,-3,-4,-18,-12,-12
1537918734080946,9,6,1,-1,-2,-17,-3,0
1537918734094908,-20,-15,-1,1,0,17,3,24
1537918734094908,22,11,1,-1,1,-8,-10,0
1537918734102887,-20,2,-1,-2,-7,1,1,18
1537918734102887,12,-8,-2,-1,-1,-25,-5,-8
1537918734117848,-5,12,1,0,-1,22,12,-1
1537918734117848,-14,-17,-6,-3,0,-2,1,1
1537918734117848,10,7,1,0,-1,5,-12,-6
1537918734117848,-13,-17,0,0,2,0,12,14
1537918734139789,11,4,-2,-3,-5,-39,-25,-1
1537918734139789,-14,-18,-2,1,0,35,44,-7
1537918734140787,12,11,1,1,-2,-2,-44,-6
1537918734140787,4,8,-1,-2,-2,-4,2,-1
1537918734155746,-4,0,0,0,-2,-21,36,0
1537918734155746,-1,2,0,1,3,7,-25,-5
1537918734162727,-1,-11,-9,-2,-4,-4,7,0
1537918734162727,-5,-2,10,-1,0,10,-2,-6
1537918734177687,-5,1,0,0,0,-13,-23,-19
1537918734177687,7,4,-2,-4,0,15,14,15
1537918734178686,0,-1,-2,-3,-4,-7,-19,-4
1537918734178686,-2,3,-2,3,1,5,2,-5
1537918734201624,11,-1,-2,-2,-7,-4,-9,13
1537918734201624,-4,-1,3,2,4,-13,-8,-4
1537918734202621,1,-1,-1,-2,-2,-7,32,8
1537918734202621,-2,0,-4,-3,-2,-38,-22,-7
1537918734214588,-5,-6,0,1,6,76,-9,0
1537918734214588,-2,7,-2,0,-6,-15,-23,-12
1537918734222567,3,-5,1,3,1,15,97,14
1537918734222567,-8,-1,-1,2,0,13,-16,6
1537918734237528,3,-2,-4,0,-2,-36,0,8
1537918734237528,-2,2,-2,-1,2,8,20,-3
1537918734238526,-1,0,3,0,-2,-11,-22,-8
1537918734238526,-1,1,-7,0,-1,-18,-4,6
1537918734260465,-3,-3,-7,-2,-1,37,-1,-8
1537918734260465,-2,1,-7,-2,0,1,13,6
1537918734260465,11,1,3,0,-2,-19,-28,-3
1537918734260465,4,3,-3,-2,0,3,-4,3
1537918734283405,3,3,3,-2,-4,-12,-33,7
1537918734283405,9,-4,-1,3,1,-8,24,1
1537918734284402,-13,-7,-4,-3,-2,33,15,-1
1537918734284402,13,4,2,-1,5,-7,-29,6
1537918734297366,0,1,0,3,7,-1,20,-8
1537918734297366,-2,2,1,-2,-10,-11,-8,-4
1537918734298364,2,1,-3,-8,-1,25,-22,1
1537918734298364,-14,-6,7,2,-1,1,21,-3
1537918734322299,1,1,-5,1,-4,-31,13,-2
1537918734322299,-1,0,2,-1,-5,-14,7,10
1537918734323297,-6,-4,-1,1,6,17,-20,-21
1537918734323297,6,4,-4,0,10,-24,-22,23
1537918734328283,1,-2,3,-1,4,22,15,0
1537918734328283,1,1,1,-1,2,-16,-24,10
1537918734342246,-1,-1,-2,-1,-5,-14,18,-2
1537918734342246,-1,-1,1,1,3,38,5,4
1537918734349227,2,-3,-6,-4,-3,-11,5,5
1537918734349227,-2,-2,0,1,1,-13,-16,0
1537918734357206,-10,-2,1,-1,-1,-8,-13,-8
1537918734357206,-5,-4,-2,-1,-5,-7,9,-19
1537918734372165,-6,-4,2,1,0,4,18,0
1537918734372165,-2,2,1,2,1,-27,-4,-6
1537918734379147,2,2,1,8,34,70,10,3
1537918734379147,-4,-5,-6,-6,-19,-18,-11,-6
1537918734388123,-4,-5,-5,-9,-20,-7,-10,-8
1537918734388123,0,2,0,-9,-35,-16,0,-3
1537918734402086,-1,-2,1,1,-6,-25,-5,-3
1537918734402086,-6,-1,-1,6,15,12,4,-10
1537918734409067,3,-1,1,-1,5,-23,-2,-4
1537918734409067,5,-2,-3,-6,6,49,-9,6
1537918734417045,19,3,-1,0,-5,-9,-4,18
1537918734417045,-4,0,-3,-3,1,15,10,-7
1537918734432006,-4,1,2,6,9,-16,-6,-9
1537918734432006,-6,-1,0,1,10,0,-9,-14
1537918734438987,-6,0,-1,-2,-12,-13,4,-4
1537918734438987,2,-1,-3,-2,4,11,0,8
1537918734453947,3,1,2,0,-19,-40,3,11
1537918734453947,-4,-3,0,0,0,36,2,-5
1537918734462923,0,-1,0,4,15,4,-1,-1
1537918734462923,5,-1,-2,-7,-17,-45,7,6
1537918734477883,-2,-1,-1,0,2,-6,-1,-1
1537918734477883,-12,-3,-1,0,10,26,1,-21
1537918734477883,-10,-4,-2,0,-1,-19,6,4
1537918734477883,0,-3,-5,-3,10,7,-5,-5
1537918734491846,2,2,-1,-2,-8,23,-18,-19
1537918734491846,18,5,5,7,10,-40,26,32
1537918734499825,-5,-1,-1,-4,-7,16,7,15
1537918734499825,3,1,5,3,-5,-13,2,-54
1537918734514785,11,-3,-3,-5,8,39,-16,48
1537918734514785,-10,-1,0,5,17,9,22,9
1537918734522765,-7,-2,-6,-7,-28,-21,-58,-4
1537918734522765,-1,-1,0,-4,-10,-6,-15,-24
1537918734537725,7,6,2,0,1,-2,-5,-22
1537918734537725,3,1,-2,-2,-3,12,22,-1
1537918734538722,4,-5,-3,1,5,-21,-30,-4
1537918734538722,-38,-4,-3,-6,-11,-27,-2,-67
1537918734551688,-21,-7,-4,-2,7,36,14,-61
1537918734551688,3,-3,3,5,11,-3,-26,-3
1537918734559668,64,20,3,-2,-5,-5,-54,7
1537918734559668,-1,4,4,4,3,38,111,34
1537918734574626,-4,-3,2,2,4,-7,24,56
1537918734574626,-17,-2,-4,-5,-13,-23,-42,-26
1537918734582605,-28,-15,-5,-5,-8,-13,1,-65
1537918734582605,13,3,0,3,9,21,-39,23
1537918734597565,-5,-3,-4,-5,-4,-17,-32,8
1537918734597565,-9,-7,-2,-7,-9,-6,94,1
1537918734598563,-5,1,1,2,8,14,-23,-4
1537918734598563,8,0,-1,-1,3,16,14,45
1537918734611526,-8,-2,-3,-3,-5,-2,42,-3
1537918734611526,0,2,0,3,-3,-24,-69,-33
1537918734619505,1,1,0,1,6,23,117,15
1537918734619505,-4,-1,-3,0,-5,-15,-65,12
1537918734634465,-1,0,1,3,8,-1,27,-17
1537918734634465,13,1,4,1,2,5,-46,40
1537918734642443,-9,1,2,-3,-24,-15,22,25
1537918734642443,2,-5,-4,-7,-10,3,0,18
1537918734657403,-5,1,1,1,1,-20,-32,-19
1537918734657403,-3,-4,-4,-4,-2,15,10,-21
1537918734658401,-2,0,1,-1,6,-4,-16,3
1537918734658401,2,0,2,2,6,23,17,43
1537918734671366,8,3,-1,0,-3,-6,14,-35
1537918734671366,-9,6,2,1,4,-1,-12,-9
1537918734679345,-5,-10,-4,-1,0,-2,42,3
1537918734679345,3,-1,-2,-2,-3,-9,-65,-19
1537918734694304,6,-1,-1,1,-3,-7,11,24
1537918734694304,-9,-3,-4,-2,-6,7,12,-8
1537918734702284,1,-1,1,1,2,-22,-57,-13
1537918734702284,4,5,-2,1,4,3,22,13
1537918734719239,-4,-3,-6,-2,-4,0,-10,-6
1537918734719239,0,0,-5,-7,-9,-14,-54,-16
1537918734719239,-13,-4,1,3,9,27,33,24
1537918734719239,-3,-2,4,2,0,-12,33,-9
1537918734732204,-1,4,-1,-2,-2,1,-12,-12
1537918734732204,8,-2,0,0,-3,9,9,49
1537918734740183,16,1,-12,-8,-4,-8,-42,13
1537918734740183,-1,0,1,3,1,6,7,-23
1537918734754146,1,-2,1,-4,-4,1,-16,-3
1537918734754146,-1,-2,1,-1,-3,-9,3,-2
1537918734762124,-5,3,3,2,1,-1,-12,2
1537918734762124,-3,-7,-2,-2,-2,4,-10,7
1537918734777084,3,-3,0,0,-2,-24,-5,3
1537918734777084,-1,0,-1,-1,-3,-34,2,-7
1537918734778081,-3,-2,-1,1,4,62,26,1
1537918734778081,10,4,-2,1,3,-3,-14,-5
1537918734792044,-6,-2,10,0,4,-17,-3,7
1537918734792044,8,1,-13,-1,-9,12,5,8
1537918734799025,-2,2,3,-2,-5,-19,-5,-17
1537918734799025,0,-3,1,0,-2,-11,2,-8
1537918734813986,-9,-3,-4,0,4,10,-5,4
1537918734813986,0,-2,1,-4,0,13,27,-3
1537918734822961,-2,0,-3,2,3,-24,-12,-6
1537918734822961,-6,-1,-2,-2,-3,8,2,-33
1537918734836924,3,-1,-2,-2,-6,-17,13,36
1537918734836924,2,1,2,0,5,-11,-10,-8
1537918734844903,-4,8,4,-3,-4,23,7,0
1537918734844903,-3,-7,-4,-3,-2,-14,-4,-4
1537918734851884,2,0,-2,3,4,14,18,-11
1537918734851884,-5,-4,3,-2,-4,21,8,-3
1537918734859862,2,-2,-2,2,6,20,14,-7
1537918734859862,2,2,-2,0,-4,-40,-5,12
1537918734873824,-3,-3,0,-2,-4,19,-4,0
1537918734873824,9,0,0,-1,0,-8,-20,3
1537918734882800,-2,-4,-5,-1,-4,-22,-18,0
1537918734882800,-4,-2,-1,-2,1,16,27,14
1537918734896763,2,-1,-1,1,4,2,-20,-7
1537918734896763,-1,2,-1,1,2,5,11,-5
1537918734904742,3,-2,2,-3,1,-5,-12,6
1537918734904742,2,-1,-2,-2,-10,-5,11,11
1537918734911723,0,1,-1,-2,-6,-1,-19,-13
1537918734911723,3,1,0,-1,0,3,15,11
1537918734919702,-2,-2,-2,0,2,-2,-1,-9
1537918734919702,1,-2,0,-1,0,11,-15,1
1537918734934662,1,1,1,-2,0,-9,11,4
1537918734934662,-5,-2,-1,0,1,5,-9,-11
1537918734949622,-3,-3,-2,-4,-5,-8,15,4
1537918734949622,-1,-1,-1,-1,1,-13,-4,2
1537918734956603,1,0,1,2,6,50,-3,-2
1537918734956603,1,-2,-2,-4,-8,-18,-4,6
1537918734964582,0,-1,-2,-2,-1,-7,8,-7
1537918734964582,0,0,2,0,0,4,8,0
1537918734971563,1,0,-3,0,0,-11,-5,2
1537918734971563,-4,0,-3,1,3,-3,-2,1
1537918734979542,-4,0,0,0,-4,-2,4,-9
1537918734979542,-3,-1,-1,-4,-5,10,0,-7
1537918734994502,-1,0,-2,-2,3,-12,-18,-6
1537918734994502,0,1,0,1,3,3,-3,7
1537918735002481,1,-1,-1,-3,-9,-15,17,9
1537918735002481,-1,-1,-1,1,3,-14,-12,1
1537918735016443,-3,-1,-1,0,2,26,10,3
1537918735016443,-3,-2,1,-3,-7,-39,-1,-11
1537918735025419,-2,-1,0,3,11,63,12,2
1537918735025419,3,0,-3,-3,-5,11,7,0
1537918735040379,1,1,-1,0,-1,-4,-27,-8
1537918735040379,-2,-2,-2,-2,-1,5,4,-3
1537918735041377,-2,0,1,0,-3,-38,-23,-7
1537918735041377,-5,0,0,2,2,6,7,-4
1537918735054342,-1,-1,-1,0,-3,9,-3,0
1537918735054342,5,-3,-3,-2,-1,-15,-1,16
1537918735062321,-2,-2,-1,-2,-2,14,1,-9
1537918735062321,-1,0,0,0,3,5,-21,-3
1537918735077281,3,0,-1,-3,-9,-21,31,8
1537918735077281,-4,-1,-1,-2,3,9,-6,6
1537918735085260,2,-1,-1,-1,-6,-41,-7,-3
1537918735085260,2,-1,-2,0,7,43,-11,-4
1537918735101217,-3,-2,-1,1,-2,-2,9,4
1537918735101217,-11,-1,1,3,1,4,8,-21
1537918735101217,7,0,0,0,0,-10,-1,-4
1537918735101217,-4,-2,-1,0,0,-9,-2,2
1537918735114182,-3,-2,-2,0,0,-4,-1,-5
1537918735114182,-1,0,-1,-1,0,16,7,5
1537918735122161,1,4,0,-1,-1,-8,-5,-20
1537918735122161,8,0,-2,-3,-2,-3,-8,10
1537918735137122,-10,8,1,0,1,-1,9,32
1537918735137122,9,-2,1,1,-1,-12,-12,-15
1537918735145100,7,1,-11,-2,1,12,7,9
1537918735145100,-2,-11,5,2,-4,-12,-11,-8
1537918735160060,-11,-1,-12,-3,0,-8,15,6
1537918735160060,-9,5,-1,0,1,5,-6,-22
1537918735167041,0,1,-3,-3,-6,-20,-2,10
1537918735167041,-2,-2,-2,0,2,-2,0,-1
1537918735174022,3,-7,2,-2,-4,29,0,-4
1537918735174022,-3,-5,-3,-2,0,-28,-6,-4
1537918735182999,-6,-3,2,-1,1,44,9,9
1537918735182999,0,6,0,-4,-11,-50,4,-1
1537918735196961,7,0,5,3,6,34,-17,-10
1537918735196961,2,0,-2,-2,-3,-16,11,8
1537918735205938,-7,-3,3,2,0,-18,-9,1
1537918735205938,-4,1,1,3,9,22,8,-15
1537918735227878,1,-3,-2,-1,-3,10,4,13
1537918735227878,4,-4,-1,-3,-5,-10,3,-5
1537918735229873,-4,-1,2,3,1,-12,-3,-30
1537918735229873,-5,-4,-3,-3,-6,-21,0,9
1537918735242838,0,-3,-1,-2,-3,-18,-4,-21
1537918735242838,1,2,1,2,1,17,-11,-7
1537918735249819,0,-2,3,-2,0,-6,13,14
1537918735249819,1,-1,-2,0,4,14,-2,3
1537918735265777,1,-2,-1,-3,-5,-6,-6,-13
1537918735265777,2,0,0,1,3,11,-1,10
1537918735266774,-5,-4,-3,-2,-1,-4,-1,5
1537918735266774,-1,-2,-1,-1,-1,15,-11,-9
1537918735287718,3,1,1,-2,-1,-27,2,3
1537918735287718,-9,-4,-1,2,1,18,10,-2
1537918735289713,1,1,-1,-2,-1,1,-2,1
1537918735289713,6,1,-1,0,-2,1,-2,3
1537918735301681,-1,-1,2,0,-3,-13,-2,-13
1537918735301681,5,-2,0,-1,-1,6,1,25
1537918735310657,3,-2,0,-2,-2,-4,0,1
1537918735310657,-3,0,0,-1,1,20,2,-3
1537918735325617,1,0,-1,3,0,-37,-24,-4
1537918735325617,-1,-1,1,-1,1,15,2,0
1537918735326615,-4,-3,-2,-1,0,-1,-5,-15
1537918735326615,-1,-1,-1,0,1,-6,6,9
1537918735348557,0,-1,-2,-2,-1,10,9,4
1537918735348557,-2,1,-2,-2,-3,-22,6,7
1537918735349554,-7,-3,-2,-2,-1,27,-6,-22
1537918735349554,4,2,1,2,4,-9,-14,10
1537918735361522,2,-1,1,1,3,-6,10,4
1537918735361522,-1,-2,-1,0,-1,1,-8,-3
1537918735370499,-4,0,-1,-1,0,-6,13,2
1537918735370499,-5,-3,-2,-1,0,1,1,-6
1537918735385459,-3,-1,-1,0,-1,9,-5,-1
1537918735385459,-4,-1,-2,-1,1,-5,3,-7
1537918735387454,0,-1,-1,0,0,0,-3,6
1537918735387454,-9,-1,0,0,1,10,-2,-3
1537918735408395,2,-1,2,0,2,-10,4,-5
1537918735408395,-2,-2,-1,0,-6,2,-2,-11
1537918735409393,1,2,1,1,6,35,-19,2
1537918735409393,-2,-1,-2,-1,-3,-5,0,-1
1537918735421361,-2,-2,-1,-2,-2,-3,-5,-1
1537918735421361,3,0,-2,-2,0,4,1,4
1537918735430337,-1,-4,-1,0,-3,-14,4,0
1537918735430337,-1,0,-2,-1,-4,-4,-1,-2
1537918735445297,0,0,-2,-1,0,1,3,2
1537918735445297,-1,0,2,0,1,2,-2,-4
1537918735447292,3,0,-2,0,-1,-14,2,9
1537918735447292,-3,-2,-1,0,1,0,3,-6
1537918735468236,-6,-1,0,-1,-3,0,6,-3
1537918735468236,2,-1,-2,-3,-2,-9,-3,6
1537918735469233,1,0,0,0,-1,-26,-16,-6
1537918735469233,2,1,0,0,3,55,3,-6
1537918735482198,0,0,-1,0,-3,-6,-15,-1
1537918735482198,-5,-2,-2,0,1,2,2,-1
1537918735491174,3,-2,-3,-1,-4,-14,4,6
1537918735491174,2,-2,-1,-1,-3,-21,1,1
1537918735506134,2,-1,-1,-1,0,6,-2,10
1537918735506134,-2,-1,-1,-1,-1,7,0,-4
1537918735507132,2,0,-2,-3,0,-3,-1,5
1537918735507132,1,1,-1,-4,-7,-28,2,5
1537918735528076,0,0,-1,-2,-1,34,7,1
1537918735528076,-2,-2,-3,0,0,-9,-14,-7
1537918735530070,1,1,1,2,2,8,-2,7
1537918735530070,-1,-1,0,-1,1,-11,-3,-2
1537918735542038,0,-1,0,-2,-3,-22,-1,-3
1537918735542038,-3,-2,0,-1,-1,19,2,-7
1537918735557996,-6,0,0,-1,-2,3,3,-4
1537918735557996,-3,-1,-1,0,0,-10,7,-1
1537918735565974,4,1,-3,-2,-5,-27,-5,1
1537918735565974,-1,0,-2,-1,1,21,6,0
1537918735566972,-3,-2,-1,-1,-1,5,-8,-2
1537918735566972,-2,-1,0,0,-2,-15,1,3
1537918735588913,-1,-2,-1,-1,0,12,5,0
1537918735588913,1,0,1,2,0,4,-10,-1
1537918735589910,-6,-2,-2,1,0,-4,1,2
1537918735589910,0,-1,-2,-1,-1,2,5,-6
1537918735601878,-2,0,-1,-2,-1,-8,-7,-1
1537918735601878,2,0,0,-1,-2,-21,4,-11
1537918735610866,-5,-2,1,-2,-1,32,15,4
1537918735610866,1,-2,-2,-1,-1,-6,-17,10
1537918735625815,-3,0,1,2,0,8,13,-6
1537918735625815,1,0,0,-1,-2,-6,-4,16
1537918735626812,3,0,-2,-3,-2,-11,3,2
1537918735626812,-5,-1,-1,-1,0,2,-7,-8
1537918735647757,8,-1,-2,-3,-1,3,1,6
1537918735647757,-2,-2,1,0,0,-2,-2,-4
1537918735649752,-2,0,-2,-4,-4,-13,0,-11
1537918735649752,-1,-2,-1,-1,-5,-5,-27,6
1537918735661720,-1,0,0,1,4,-2,19,3
1537918735661720,-1,-3,-1,1,3,25,1,-4
1537918735678676,2,0,1,0,0,-10,-7,5
1537918735678676,-1,0,0,-3,-2,6,0,-5
1537918735685658,-6,-5,-1,-2,-6,-26,-27,-10
1537918735685658,-5,-2,-1,-2,-1,27,-4,-8
1537918735687651,-1,1,-3,-2,-4,12,-95,-13
1537918735687651,8,0,-2,-1,0,-5,107,13
1537918735715576,11,4,3,6,9,9,15,44
1537918735715576,-4,-1,-2,-2,-6,-37,-39,-40
1537918735717571,-3,-3,-2,-3,1,16,32,7
1537918735717571,-6,-2,-4,-2,-3,10,-11,-27
1537918735721560,9,1,0,-1,1,-15,12,21
1537918735721560,3,1,-1,-2,-3,0,-2,19
1537918735730536,1,1,0,0,-5,-26,7,-1
1537918735730536,-6,-2,-2,-7,-19,11,-79,-26
1537918735745496,-3,0,-2,-1,0,-14,37,3
1537918735745496,3,1,-1,1,3,17,-15,-3
1537918735747490,-4,-2,0,-1,1,-5,15,0
1537918735747490,5,0,-1,3,6,-12,-3,8
1537918735768433,-7,-2,0,-1,-2,5,-31,-22
1537918735768433,0,-1,-1,-1,-4,-9,12,4
1537918735769431,0,0,1,1,4,22,19,12
1537918735769431,1,1,2,2,3,-20,-16,1
1537918735798353,-5,-1,-3,-2,-5,13,-39,-17
1537918735798353,0,-1,-1,-1,2,-8,58,11
1537918735799350,-2,0,-2,0,-2,-7,8,1
1537918735799350,-4,-2,1,1,5,10,-12,0
1537918735805334,-1,-1,1,-1,0,-7,-9,-3
1537918735805334,1,-1,-1,0,-3,-6,4,12
1537918735807329,0,-2,-1,-1,-2,-1,0,7
1537918735807329,-4,-2,-2,0,0,9,-6,3
1537918735828273,-4,-3,-2,-3,-1,6,-4,-17
1537918735828273,-4,-1,-1,1,1,0,5,6
1537918735829270,2,-1,0,2,3,-33,9,-14
1537918735829270,0,0,0,-1,2,32,16,12
1537918735851212,-2,-1,-1,-2,-3,12,15,-5
1537918735851212,-3,0,-2,-1,-6,-5,-4,-4
1537918735852210,5,0,-1,-2,-3,-20,-16,5
1537918735852210,1,-2,-1,-1,1,-6,31,4
1537918735865175,-3,-1,-1,0,6,11,-39,-10
1537918735865175,0,-1,2,2,2,16,63,-10
1537918735872157,4,0,-1,-1,-7,-6,16,3
1537918735872157,2,-1,-1,-1,-2,-10,-9,0
1537918735888115,-1,-1,-1,-1,-2,-10,4,0
1537918735888115,-2,-3,-1,-1,3,4,-34,-1
1537918735890111,-4,-2,-1,0,2,14,-6,-9
1537918735890111,-1,0,-1,0,1,9,16,0
1537918735912053,0,0,-2,-3,-2,-31,-11,8
1537918735912053,-3,-1,-1,-2,1,31,2,0
1537918735913049,-2,-1,-2,-1,2,9,14,-5
1537918735913049,2,-1,-1,0,-4,-10,-9,4
1537918735925016,-3,-3,0,0,2,-21,-16,-3
1537918735925016,2,-1,0,-1,-5,-2,-8,1
1537918735931997,-3,-2,-1,-2,-4,19,-39,-6
1537918735931997,0,2,0,-1,0,-4,44,2
1537918735947956,-2,0,0,1,0,8,-1,-9
1537918735947956,4,2,-1,-3,0,-19,-20,10
1537918735949951,-1,-2,1,2,3,3,7,-10
1537918735949951,-3,-2,-1,-2,0,-7,-22,-8
1537918735977873,-2,-2,-2,-2,1,9,21,3
1537918735977873,-2,-1,-1,-2,-1,0,-13,-2
1537918735979868,0,0,-1,1,-3,-18,-3,1
1537918735979868,-7,0,1,1,6,13,-8,-5
1537918735984855,5,0,-2,-1,-4,-3,16,6
1537918735984855,-1,-1,-1,-1,-1,-5,-14,0
1537918735991836,0,1,-1,1,2,15,10,3
1537918735991836,0,-1,-2,-2,-2,2,-3,-1
1537918736007793,-3,-3,-1,-3,-4,19,0,-2
1537918736007793,-2,-1,0,0,0,-32,-17,-3
1537918736009788,1,0,-1,-2,-6,-13,17,3
1537918736009788,0,-2,-1,0,-3,-8,3,-2
1537918736030732,3,-1,-1,2,1,23,-20,-9
1537918736030732,5,-1,-3,-5,-14,-21,-12,5
1537918736031730,-5,-1,-2,-1,1,-7,-14,5
1537918736031730,-4,0,-1,0,0,2,-6,-5
1537918736044695,0,0,-2,-4,-6,-17,7,14
1537918736044695,-4,-1,1,2,11,38,13,-14
1537918736051677,-3,1,-1,0,2,-2,3,7
1537918736051677,-3,-1,-1,-1,-2,-1,-13,0
1537918736068632,-3,-1,-1,0,-1,-2,7,-7
1537918736068632,-1,0,-2,0,-2,-12,0,2
1537918736069631,-7,-3,-1,-2,0,11,12,-8
1537918736069631,2,-1,0,-4,-1,-5,-10,1
1537918736089575,1,-1,-1,0,0,-7,-1,2
1537918736089575,1,-1,-1,1,-4,-6,-4,0
1537918736098553,4,0,0,-1,-2,-12,-30,4
1537918736098553,-4,0,-1,2,1,12,56,-7
1537918736105533,-4,1,-1,0,0,-10,-17,-6
1537918736105533,-1,0,-2,-2,-1,21,-22,-18
1537918736111517,-1,-2,-1,-1,2,-8,20,2
1537918736111517,-1,-1,1,0,-1,-15,-25,-8
1537918736128472,-4,-2,1,-1,-2,25,9,10
1537918736128472,-5,-2,0,1,1,-7,19,8
1537918736129470,0,-1,-1,0,1,0,-20,-16
1537918736129470,5,-1,-3,0,1,-4,-16,5
1537918736150413,-3,-2,0,0,-5,-12,7,-17
1537918736150413,-2,0,-1,-1,-1,-2,8,12
1537918736152409,1,0,-1,0,1,-2,-22,-2
1537918736152409,-2,-2,0,-3,0,15,36,2
1537918736165372,1,-1,-2,-2,-3,1,-20,0
1537918736165372,-5,-3,-3,-4,-3,-23,-16,-2
1537918736171356,0,0,-1,-1,-3,26,43,-5
1537918736171356,2,-2,-2,2,7,-9,-5,5
1537918736188311,-1,-1,0,-2,-1,10,-7,-7
1537918736188311,4,0,0,-3,-4,7,22,11
1537918736189308,-2,-1,-2,-1,-3,-29,-37,-4
1537918736189308,0,1,1,0,8,17,-10,7
1537918736210252,0,0,1,2,6,20,23,8
1537918736210252,-3,-2,-2,-6,-16,-67,-32,-26
1537918736212247,-2,-1,-1,-1,-4,33,27,0
1537918736212247,-1,-1,1,0,2,12,0,-3
1537918736224215,5,1,-2,2,6,-4,2,5
1537918736224215,-5,-1,1,4,11,14,-5,3
1537918736233191,0,-1,-1,-5,-12,-31,15,-4
1537918736233191,-2,-2,-2,-1,-4,-12,-29,-5
1537918736247153,-2,-1,0,0,3,9,6,1
1537918736247153,1,-1,-1,0,-1,7,0,2
1537918736256129,-4,-4,-1,-1,1,6,3,-4
1537918736256129,0,-2,1,1,0,-12,-41,3
1537918736271089,2,2,0,-2,1,-10,28,1
1537918736271089,-2,-1,-3,-5,-9,5,8,-2
1537918736272087,3,2,0,-1,0,-5,-18,6
1537918736272087,2,-1,-2,-4,-8,0,16,-3
1537918736284055,-4,-2,-1,0,-2,-4,-6,-6
1537918736284055,1,0,-1,1,14,11,-15,4
1537918736293031,-2,-1,-1,-4,-9,4,10,-3
1537918736293031,-6,-2,1,-1,0,-17,2,-8
1537918736307991,4,-2,-3,-3,-17,-11,-23,-8
1537918736307991,5,1,0,-1,2,1,3,18
1537918736309985,0,-1,-3,-2,-2,23,-5,-5
1537918736309985,-1,1,-3,-2,1,-5,-10,-2
1537918736330929,-3,0,3,7,33,1,-20,-2
1537918736330929,-3,-2,3,8,33,33,19,6
1537918736331927,3,0,-5,-18,-64,-56,-51,-1
1537918736331927,5,0,-1,-4,-9,21,81,17
1537918736343895,-5,-3,-1,-4,-10,13,2,-1
1537918736343895,-1,0,-1,2,12,-11,3,-2
1537918736352871,-3,-2,2,7,32,32,-5,4
1537918736352871,-7,0,-2,0,-5,-9,-13,-11
1537918736366834,0,0,-2,1,-4,-13,-1,-1
1537918736366834,-2,-2,0,-1,-5,-4,5,-5
1537918736375810,-3,0,1,4,10,-4,0,-7
1537918736375810,0,-2,-1,-1,-8,-3,22,3
1537918736390770,2,-2,-1,-2,1,11,20,8
1537918736390770,-1,-1,-1,-5,-13,-15,-36,-11
1537918736391768,1,-1,-2,-1,6,-1,14,10
1537918736391768,1,2,2,1,7,-2,9,-5
1537918736404732,1,2,1,1,-4,-9,24,7
1537918736404732,0,-4,-3,-4,-13,21,-1,-1
1537918736413708,-2,-1,1,2,9,-17,8,2
1537918736413708,0,-1,-1,2,6,-4,-21,-1
1537918736427671,-5,-5,-3,-6,-15,4,-8,-14
1537918736427671,2,0,-2,-2,-8,-16,1,1
1537918736434653,-2,-1,-1,3,8,10,14,-11
1537918736434653,4,-3,-3,-3,-1,1,-11,19
1537918736458589,-1,-1,-2,0,12,-6,-12,-14
1537918736458589,-1,1,3,7,21,28,-28,-5
1537918736459587,1,-1,-3,-8,-1,15,-25,5
1537918736459587,-13,-4,-7,-17,-72,-29,-37,-40
1537918736464573,11,4,1,0,-19,-57,4,32
1537918736464573,-1,-1,-1,-6,-22,16,-16,-5
1537918736473550,2,0,1,5,18,9,23,5
1537918736473550,-8,-2,0,4,21,21,-28,-4
1537918736488509,-7,-2,0,4,16,-2,-7,-16
1537918736488509,0,2,5,17,40,21,24,12
1537918736494493,-12,-3,-3,-3,-1,7,-29,-24
1537918736494493,1,1,0,-2,5,20,55,23
1537918736510450,10,7,4,-2,-15,-34,-12,-27
1537918736510450,7,1,0,-2,18,62,20,30
1537918736512444,9,9,10,16,10,-16,-9,10
1537918736512444,12,6,4,-5,-29,30,-4,3
1537918736524412,-8,-9,-6,-5,5,-102,-36,-14
1537918736524412,-25,-5,-5,-14,-18,77,81,-21
1537918736533388,16,3,1,0,18,-10,25,-11
1537918736533388,2,1,7,19,66,16,-19,-4
1537918736549346,-9,0,9,28,91,75,-62,4
1537918736549346,-13,-13,-23,-58,-106,-44,44,-33
1537918736554333,-13,3,8,16,23,-57,21,-2
1537918736554333,26,-3,-16,-45,-103,-49,-56,35
1537918736570290,-4,1,12,38,101,109,16,-9
1537918736570290,6,-3,-6,-24,-100,-86,8,39
1537918736572284,-3,-4,-5,-23,-84,-68,-14,5
1537918736572284,13,8,11,50,97,21,7,-45
1537918736584252,-16,-12,-14,-30,-30,56,39,29
1537918736584252,14,8,9,20,98,102,-41,17
1537918736593229,5,-5,-4,-4,34,-102,-5,-15
1537918736593229,-6,-1,-2,-10,-32,-128,-14,61
1537918736607191,5,-1,0,3,21,27,3,40
1537918736607191,2,1,4,21,75,-17,27,-38
1537918736614173,1,-1,7,28,99,-72,-44,24
1537918736614173,-2,-7,-15,-48,-109,21,41,22
1537918736631127,-10,1,1,8,61,-73,37,-61
1537918736631127,0,-4,-1,-2,-18,-45,7,20
1537918736632125,-16,-7,-7,-19,-72,22,15,-50
1537918736632125,5,8,15,47,69,-38,-51,9
1537918736653068,-5,-2,-13,-40,-128,-46,-78,-60
1537918736653068,1,-1,0,-8,-14,-67,-35,49
1537918736655063,6,4,-2,-2,2,21,117,23
1537918736655063,-13,-6,0,4,4,95,4,-69
1537918736667031,-1,-3,5,10,61,-39,-50,29
1537918736667031,-1,2,3,15,-7,44,-37,-62
1537918736674012,-3,-5,-10,-25,-71,9,-10,24
1537918736674012,-12,-6,-7,-15,2,-65,-39,-20
1537918736690967,13,3,-6,-9,-27,36,10,4
1537918736690967,-1,-2,2,5,22,17,-23,-11
1537918736691965,7,2,1,5,5,32,-40,31
1537918736691965,3,7,-2,4,14,2,54,9
1537918736712908,-14,-11,-4,-9,-59,17,25,6
1537918736712908,5,11,0,8,7,-27,0,9
1537918736714903,-18,-11,1,3,-3,3,-31,-15
1537918736714903,-10,1,1,-4,8,30,17,-14
1537918736727868,4,2,-4,2,-3,19,18,17
1537918736727868,-6,0,-3,0,-6,-45,23,-26
1537918736733852,19,44,10,1,11,32,-7,2
1537918736733852,-28,-29,8,4,17,23,-7,8
1537918736750807,-18,0,24,4,-27,-37,31,15
1537918736750807,33,4,-28,-5,0,10,-6,6
1537918736751805,-31,-50,-41,-6,-15,27,-29,-7
1537918736751805,18,36,-16,-4,13,14,7,2
1537918736772749,13,-10,14,1,-21,-13,31,32
1537918736772749,-27,-25,12,5,-4,-39,-38,-28
1537918736774743,-19,-17,21,5,16,49,-28,-21
1537918736774743,17,-6,-4,0,0,-48,40,13
1537918736786712,4,34,7,1,0,64,43,5
1537918736786712,-7,-12,8,2,5,-48,-73,-6
1537918736795687,3,-8,-31,-10,0,46,64,0
1537918736795687,-4,2,5,-1,-4,-18,5,7
1537918736810647,-2,-4,-14,-9,-20,-42,-9,-19
1537918736810647,27,9,15,8,6,46,61,24
1537918736811644,-9,0,15,1,0,-31,-53,-14
1537918736811644,-12,-11,-31,-11,0,12,-3,-8
1537918736833586,-8,-9,-13,-2,-1,14,19,3
1537918736833586,5,7,3,1,0,0,-14,-3
1537918736834584,11,6,-3,1,0,5,13,17
1537918736834584,1,-5,5,5,5,-2,8,4
1537918736855528,4,-7,10,-4,-7,-21,-29,3
1537918736855528,-22,-5,-15,-6,-9,-42,-7,-13
1537918736857523,16,32,12,-1,5,54,10,17
1537918736857523,-3,-24,-1,1,5,4,-5,9
1537918736870489,11,-8,-13,-1,-5,-10,-29,-14
1537918736870489,-5,-1,4,0,0,-8,8,13
1537918736872483,11,9,6,0,0,-13,17,4
1537918736872483,0,0,-6,-1,3,5,-20,-3
1537918736893427,-11,-9,-7,-4,-6,6,-9,-8
1537918736893427,-12,4,-5,-5,-3,13,32,-11
1537918736895423,1,-8,-4,-2,7,-31,-28,10
1537918736895423,0,1,9,6,20,29,16,-4
1537918736906393,-3,2,-7,-8,-25,-19,6,-12
1537918736906393,4,3,4,2,10,8,-27,4
1537918736915369,-2,0,-4,-3,-8,-8,35,-7
1537918736915369,-2,0,8,-2,-27,-7,-16,-6
1537918736930329,-13,4,-3,-4,9,6,12,3
1537918736930329,27,8,-3,4,-1,-41,-18,-3
1537918736932324,1,-7,2,-1,0,33,-3,2
1537918736932324,-4,0,-3,-2,8,-5,-12,-2
1537918736953268,7,-7,-6,-1,-7,-14,-14,7
1537918736953268,-26,-1,-2,-5,-8,-10,5,-24
1537918736954265,-7,-1,1,5,10,26,-26,-15
1537918736954265,42,10,8,2,1,-15,-22,-3
1537918736967229,14,11,6,1,7,27,26,-2
1537918736967229,-2,-9,-11,3,4,-1,20,11
1537918736976205,4,1,2,-2,-2,4,-4,-5
1537918736976205,-25,-8,-1,0,-6,-15,11,5
1537918736990167,0,-5,-3,-5,-7,-44,-34,-2
1537918736990167,5,2,-4,-2,2,50,2,1
1537918736992162,-10,-1,-3,0,0,-11,3,-13
1537918736992162,-3,4,0,-1,-2,2,-12,-8
1537918737013106,5,2,0,2,8,20,32,4
1537918737013106,-9,-3,4,1,2,-1,-31,0
1537918737014104,2,-2,-4,0,2,-26,24,5
1537918737014104,-4,1,2,-2,-7,23,-1,-9
1537918737027068,5,1,-4,-4,-6,-11,-25,1
1537918737027068,-6,2,-2,-2,0,5,17,4
1537918737036045,8,3,5,3,4,-4,-21,8
1537918737036045,-1,-7,-6,1,5,-4,16,-4
1537918737051005,-6,-2,1,1,5,10,2,5
1537918737051005,-2,-2,4,0,-5,2,23,7
1537918737052003,0,2,0,-1,-8,-11,-4,8
1537918737052003,-5,3,2,2,6,-19,-14,-16
1537918737072948,2,0,-4,0,-3,6,-6,2
1537918737072948,-5,-1,-1,-3,-2,-11,-16,-7
1537918737074941,2,-4,0,0,-6,-6,-24,-12
1537918737074941,-3,0,0,-1,6,30,33,8
1537918737087906,1,-4,-3,2,5,-2,-1,9
1537918737087906,2,-1,-1,-5,-5,-3,9,3
1537918737093890,-2,-1,-2,0,-2,-1,5,-9
1537918737093890,-4,-1,0,-2,-1,-34,-64,-13
1537918737110845,-1,3,-2,-1,2,23,48,4
1537918737110845,0,0,0,-3,-4,-1,16,-10
1537918737111842,4,-2,-1,0,-8,-2,9,3
1537918737111842,-3,0,0,1,3,3,3,10
1537918737133783,1,1,-1,0,-1,-3,-30,-11
1537918737133783,-2,0,-2,-3,-5,-5,-13,6
1537918737134781,-4,-4,-1,-2,4,-23,9,-1
1537918737134781,3,0,-2,-1,-3,33,6,3
1537918737155725,-3,0,-1,-1,-1,1,-20,-10
1537918737155725,5,-1,1,0,-6,-3,-6,-13
1537918737156722,7,2,0,3,5,-15,-4,2
1537918737156722,-4,-1,-2,0,-1,34,55,-3
1537918737170685,1,2,0,1,-2,-25,-33,7
1537918737170685,-2,-1,-4,-4,-6,-27,-19,-6
1537918737171682,-5,-5,-1,-2,-5,24,43,8
1537918737171682,-3,-3,0,0,6,-13,-43,-10
1537918737192626,-1,-2,0,2,10,-15,19,-13
1537918737192626,2,0,-2,-6,-20,-10,1,6
1537918737194621,-4,-1,-1,-3,2,33,-30,-1
1537918737194621,-3,-1,2,1,-2,-14,34,-2
1537918737206589,5,0,0,1,4,44,7,7
1537918737206589,-1,-1,0,3,4,-35,-13,2
1537918737215565,-1,-2,0,-1,2,24,-7,-3
1537918737215565,-2,1,-2,-1,0,-7,-8,1
1537918737230525,-7,-1,-2,-2,-5,-18,-18,-11
1537918737230525,3,0,0,1,1,15,16,11
1537918737232519,3,0,-2,-2,-3,-12,-7,2
1537918737232519,-4,-2,0,-1,-1,-2,-6,0
1537918737253463,-2,-1,-2,-3,-9,-4,-2,-7
1537918737253463,5,1,-5,0,3,-7,-9,1
1537918737254461,-10,-3,-3,0,4,-4,-5,4
1537918737254461,1,-1,0,1,-3,2,-3,2
1537918737266429,-1,1,0,-1,-3,-9,5,-2
1537918737266429,-1,-1,-2,0,4,22,18,7
1537918737275405,-5,-1,0,1,0,-17,3,-12
1537918737275405,4,-1,2,-5,-6,-2,-3,14
1537918737290365,1,0,-4,-2,-3,4,-1,5
1537918737290365,-5,-2,-2,0,0,-2,-1,-4
1537918737292360,5,1,0,-2,-1,4,9,4
1537918737292360,2,-1,-2,-3,-3,-16,-7,-4
1537918737313304,3,-2,0,0,-1,0,3,6
1537918737313304,-1,-3,2,-2,1,15,0,1
1537918737314302,-3,-2,-3,-5,-21,-20,-11,-10
1537918737314302,-3,0,-2,-1,-2,-10,-15,-2
1537918737327266,-2,-1,-2,-1,0,3,0,1
1537918737327266,-1,0,1,2,1,-18,30,-2
1537918737336243,7,3,0,5,12,53,31,8
1537918737336243,-18,-2,-6,1,-2,-24,-5,-19
1537918737350205,4,-2,-1,-4,-6,-2,-1,11
1537918737350205,-3,1,1,-1,1,0,-17,-18
1537918737352201,-3,-4,-1,1,4,11,7,3
1537918737352201,-3,-3,-2,-1,-2,-6,9,-11
1537918737373144,3,7,-7,1,1,15,2,2
1537918737373144,0,3,10,1,3,-11,-3,10
1537918737374142,6,7,-4,2,-2,-18,-14,-9
1537918737374142,1,-8,-6,-5,0,8,0,15
1537918737387107,2,-3,0,3,-1,3,-14,4
1537918737387107,-1,-2,2,0,0,-1,-8,-2
1537918737396083,-8,-3,3,-1,0,5,10,-5
1537918737396083,2,2,3,0,-1,4,-1,-1
1537918737411043,-5,-4,1,1,1,-12,3,-5
1537918737411043,-4,-2,-6,-2,-1,23,-3,9
1537918737413038,-6,-4,1,-1,0,-24,-1,-8
1537918737413038,8,3,-1,0,-3,-26,-5,-2
1537918737432984,-4,-3,0,-3,-1,34,-1,-9
1537918737432984,1,0,0,3,3,19,-8,5
1537918737434979,4,2,2,-3,-2,-5,0,5
1537918737434979,2,-3,-7,-2,-1,-1,-7,-4
1537918737446946,3,-1,-8,-1,-2,-18,4,9
1537918737446946,-3,-3,5,-4,-1,9,15,-7
1537918737455923,1,1,5,2,0,-1,-3,-3
1537918737455923,-2,-4,-3,-2,-2,-4,-10,2
1537918737470882,-4,-6,3,2,0,2,0,-7
1537918737470882,-1,-3,-6,-1,-1,-5,-11,-1
1537918737471880,1,-4,-4,-3,-2,-6,6,1
1537918737471880,4,9,10,2,2,13,6,-3
1537918737492824,0,1,13,0,-1,-4,6,-2
1537918737492824,-10,-11,-19,-2,-4,-1,-3,0
1537918737494819,-4,-2,2,-3,-5,-37,-10,-6
1537918737494819,-2,-2,-3,1,4,62,5,2
1537918737506787,-3,1,2,0,3,4,-24,-15
1537918737506787,4,3,4,1,1,-3,7,5
1537918737515763,6,0,-5,-3,-5,-33,13,-5
1537918737515763,2,-2,0,1,4,53,-10,11
1537918737530722,-7,-2,-10,-2,-4,-32,-11,-15
1537918737530722,1,-1,1,-4,-8,-22,28,5
1537918737531720,-3,-5,-5,1,11,60,-31,-12
1537918737531720,2,2,4,-2,-4,-31,13,-7
1537918737552664,-9,-9,-2,0,0,-16,-31,9
1537918737552664,5,4,-4,-1,-4,-27,-2,-6
1537918737554658,3,2,0,-4,-3,38,42,11
1537918737554658,-4,-1,1,-3,-6,-21,-21,-9
1537918737566626,-2,-3,-4,-2,0,21,21,17
1537918737566626,8,-1,1,-1,-2,-21,-26,-3
1537918737575602,-6,-4,2,-1,-1,1,-11,6
1537918737575602,-2,-1,-2,1,2,1,7,-3
1537918737590563,-4,3,0,-1,3,-16,-22,-2
1537918737590563,2,1,2,0,-1,12,31,14
1537918737592557,-1,1,-2,2,-1,2,-28,-15
1537918737592557,-2,-1,-1,-3,-3,-4,17,1
1537918737612504,-1,4,-2,-3,-4,-17,-12,-13
1537918737612504,-5,-6,0,1,4,26,19,3
1537918737613501,-4,-3,1,-1,0,-2,-24,4
1537918737613501,-2,-1,-4,-1,-3,-18,6,2
1537918737634446,2,-2,-2,-1,-1,2,3,-3
1537918737634446,1,0,-1,-2,5,9,5,-3
1537918737635443,-1,1,-3,0,-4,-32,-26,-3
1537918737635443,-1,5,8,2,1,19,24,3
1537918737650403,6,-4,-5,-2,-6,-1,12,1
1537918737650403,-1,-1,-19,-2,1,23,3,1
1537918737650403,-2,2,16,2,-1,-21,12,3
1537918737650403,0,-1,-2,0,2,-3,-4,-1
1537918737672345,-2,-2,-2,-1,0,-1,-2,-5
1537918737672345,0,3,0,2,-4,-10,0,-3
1537918737673343,-5,-1,-7,-4,3,1,18,2
1537918737673343,2,-3,-5,-4,-2,-11,-2,2
1537918737703262,-2,1,2,0,0,3,13,1
1537918737703262,0,-3,1,-2,-2,17,-14,-4
1537918737704260,1,25,27,5,1,-1,-6,0
1537918737704260,4,-23,-20,0,-1,-20,-19,-5
1537918737710243,-2,-7,-18,-5,-4,-17,2,4
1537918737710243,-4,-5,5,1,0,-4,-3,-5
1537918737710243,-3,-3,-6,0,2,21,12,-4
1537918737710243,-7,10,12,-2,-3,1,2,-6
1537918737732184,7,3,-4,-1,0,0,-18,3
1537918737732184,2,-4,1,-1,-4,-7,-2,4
1537918737733181,-1,-3,1,0,-2,-2,4,-2
1537918737733181,-3,1,-1,-1,-1,-16,-16,-1
1537918737755122,-3,-3,2,-1,0,8,8,-1
1537918737755122,-2,5,2,0,1,6,-4,-2
1537918737756120,0,-9,-11,-1,-3,6,31,4
1537918737756120,2,0,-1,-1,-2,-18,-34,5
1537918737770083,7,2,0,-3,-5,13,39,7
1537918737770083,-7,2,7,1,1,-9,-18,-4
1537918737771081,-2,-4,-14,-4,1,-2,1,-6
1537918737771081,-2,-2,7,0,1,2,8,0
1537918737792026,-1,5,13,0,-2,4,-34,-3
1537918737792026,4,-3,-5,0,2,-8,-5,3
1537918737793023,-3,-4,-9,-3,-2,-3,-3,0
1537918737793023,5,3,-6,1,-1,13,26,14
1537918737814962,-2,-3,23,4,0,-12,-36,-5
1537918737814962,-5,-10,-20,-5,-2,-1,18,-8
1537918737815960,6,2,-2,-2,-3,-3,-5,8
1537918737815960,-5,-3,-6,-1,0,-2,-8,-9
1537918737829923,2,8,5,0,0,1,15,1
1537918737829923,-4,1,6,-1,-2,2,-7,-7
1537918737830920,2,-2,-2,-2,-3,-2,-7,-1
1537918737830920,-7,-1,-1,-2,-1,8,2,-8
1537918737852862,0,-1,1,-1,-2,-46,13,5
1537918737852862,-2,-1,2,-2,0,12,-26,1
1537918737852862,8,-2,-5,-3,-1,33,-17,5
1537918737852862,0,2,5,2,3,1,-3,-2
1537918737874803,0,-3,-12,-2,-3,-9,35,3
1537918737874803,-6,0,-1,0,4,29,-27,-7
1537918737875801,0,-1,1,0,-5,-25,5,-1
1537918737875801,1,-1,-3,-5,-8,3,4,-3
1537918737889764,1,-3,-3,2,3,-14,4,11
1537918737889764,6,4,-1,-3,0,6,5,-9
1537918737890761,-6,-4,-1,0,1,5,-30,1
1537918737890761,1,-1,-1,-2,-1,-7,23,0
1537918737912702,-4,-1,-5,-2,-1,6,14,-4
1537918737912702,1,1,5,-1,-1,-12,1,7
1537918737912702,-4,-5,-4,0,2,-17,-11,-8
1537918737912702,-1,1,0,-2,-1,-9,1,3
1537918737934644,-1,0,-2,-2,-2,2,0,8
1537918737934644,0,-1,2,0,0,28,-19,-29
1537918737935641,3,3,10,1,3,-22,7,7
1537918737935641,-3,-4,-10,0,0,4,-13,-5
1537918737949604,2,0,-1,-1,1,34,3,0
1537918737949604,0,0,-2,-1,-5,-46,-16,6
1537918737950602,-4,-2,-1,-1,-2,26,5,-6
1537918737950602,3,4,4,1,4,22,2,6
1537918737972542,-2,-6,-3,0,-2,-7,-24,-9
1537918737972542,-1,-2,-1,-3,-1,-15,25,-3
1537918737973541,-1,-1,-2,-2,-3,-15,-6,-4
1537918737973541,-1,0,2,-1,-2,-3,-8,14
1537918737995482,-3,1,-2,-2,1,12,5,-5
1537918737995482,2,2,3,0,-2,-14,-12,10
1537918737995482,0,-4,-2,-1,-1,14,6,-1
1537918737995482,0,-2,-1,-1,-1,-11,-10,-4
1537918738009443,0,0,-1,0,1,8,-2,-3
1537918738009443,-1,-1,0,-1,0,-13,1,12
1537918738010441,-5,3,-3,0,0,11,9,-8
1537918738010441,1,-7,0,0,-1,-13,-2,0
1537918738032381,0,-1,-1,-2,-3,4,-8,-1
1537918738032381,-3,2,0,0,0,5,10,2
1537918738040360,0,-2,-1,-3,-1,-8,0,2
1537918738040360,-1,1,0,-1,-2,-5,-1,-6
1537918738055320,0,1,0,1,-1,13,5,3
1537918738055320,0,2,3,0,0,0,-1,-7
1537918738055320,1,-6,-16,-2,-1,-6,-2,3
1537918738055320,-2,7,30,2,0,-5,-7,1
1537918738070281,-2,-8,-9,-1,0,9,13,-2
1537918738070281,-6,-3,-6,-2,-3,-4,-9,0
1537918738070281,4,9,18,1,1,-9,-5,-3
1537918738070281,4,-12,-21,-2,-4,-6,-34,-4
1537918738092223,3,-6,-12,-2,2,5,36,0
1537918738092223,-2,-5,1,-1,-2,-2,1,1
1537918738093221,3,11,-5,-1,-2,-1,-4,6
1537918738093221,-1,4,-8,-4,-3,5,27,-5
1537918738115161,0,-1,8,1,0,-6,-14,-7
1537918738115161,-1,4,-3,0,-1,2,-4,4
1537918738115161,0,-2,0,2,-1,-5,8,-4
1537918738115161,0,1,-1,-2,-2,-22,-3,1
1537918738130121,0,0,-10,0,1,38,11,-1
1537918738130121,-2,-8,-1,-1,-2,-2,-4,-8
1537918738131119,-2,-2,1,-2,-3,-23,-16,12
1537918738131119,-2,-2,-1,-1,2,13,23,-8
1537918738152063,0,2,4,1,2,-6,-14,4
1537918738152063,5,3,2,1,4,8,5,-11
1537918738153060,-1,-4,-2,-1,1,-2,0,9
1537918738153060,-6,-2,-4,1,-6,10,-7,-13
1537918738175001,-4,4,5,0,-7,-52,-33,4
1537918738175001,-2,-1,2,-1,-4,52,24,6
1537918738175999,2,-4,-4,-1,-2,-38,12,-4
1537918738175999,1,0,-4,0,-2,9,-3,9
1537918738197941,-5,4,4,-2,-1,-26,-24,-21
1537918738197941,2,-2,-1,-2,0,28,36,4
1537918738198938,-5,-6,0,-1,2,13,-3,-7
1537918738198938,1,1,0,1,1,-4,2,4
1537918738212899,0,0,6,-4,-3,-2,-1,-5
1537918738212899,0,-2,-11,-1,0,-21,-13,3
1537918738212899,-3,-3,0,-1,-2,10,11,-4
1537918738212899,0,4,8,1,2,2,-5,0
1537918738234841,-1,-8,-13,-3,-2,-37,-6,1
1537918738234841,-3,0,4,1,3,40,-8,-3
1537918738235838,-4,-2,-1,-3,-4,17,2,-1
1537918738235838,-2,-1,-2,-2,-3,-13,4,-4
1537918738248803,-1,0,2,-1,-1,18,7,1
1537918738248803,3,0,-2,-2,-6,-31,-12,7
1537918738257779,-2,-3,-4,-2,-1,-1,-11,-7
1537918738257779,-1,-3,-1,1,4,5,-9,-4
1537918738272741,-5,3,3,1,-1,14,6,-5
1537918738272741,3,-1,1,0,0,-19,16,7
1537918738272741,-2,0,-1,0,-4,0,4,-2
1537918738272741,-1,1,-1,-1,0,-3,11,-1
1537918738295679,1,-1,-8,1,1,13,-11,4
1537918738295679,-2,-1,2,-2,-2,-13,-1,-3
1537918738296677,-2,-1,-2,-1,1,3,4,0
1537918738296677,2,1,-3,-2,0,3,-1,2
1537918738309641,-1,-5,0,0,-1,-3,-4,-2
1537918738309641,-3,1,0,0,-1,-13,-6,-3
1537918738317620,2,-2,-2,0,0,3,4,-1
1537918738317620,-1,0,-2,-1,0,7,-13,-2
1537918738332580,2,4,3,-1,0,3,13,2
1537918738332580,-1,0,-2,0,-4,-25,-4,-5
1537918738333579,-2,-1,1,0,3,21,-18,-2
1537918738333579,-3,-2,-3,0,-5,-7,18,3
1537918738355519,0,0,2,-1,0,14,1,1
1537918738355519,-1,-2,-1,3,3,15,-13,-3
1537918738356517,0,-1,-3,-3,-2,0,11,0
1537918738356517,-1,-2,0,-1,0,-8,-6,-1
1537918738369482,-1,-1,0,-1,-2,0,6,4
1537918738369482,0,0,-4,-1,-1,-3,-8,-1
1537918738377460,-6,1,0,-1,-1,2,6,-4
1537918738377460,2,-1,-1,0,-1,-13,-23,-1
1537918738400401,-4,-2,2,0,1,-1,6,-2
1537918738400401,-3,-2,-1,-2,-2,-6,-7,-5
1537918738401398,-2,-2,-2,-2,0,1,17,1
1537918738401398,0,-1,-1,0,-2,-2,4,2
1537918738415359,0,1,-1,-2,-1,8,5,-6
1537918738415359,6,0,1,-1,-5,-9,-15,6
1537918738416357,1,0,1,2,-1,-23,-21,-2
1537918738416357,-2,-2,-3,-2,-2,18,24,2
1537918738429320,-1,-1,0,1,1,-8,-8,1
1537918738429320,-1,-1,0,-1,1,1,10,-1
1537918738437299,0,-1,0,-2,-5,7,4,1
1537918738437299,0,-1,-2,-3,-5,-47,-22,1
1537918738452260,-2,-1,-1,0,0,30,8,-3
1537918738452260,-2,-1,-2,2,6,-4,0,-2
1537918738453257,2,-1,-1,-1,-1,-4,-8,-1
1537918738453257,-3,-2,-2,0,-1,5,-1,-2
1537918738475198,-1,-1,-1,-3,-6,-19,3,0
1537918738475198,0,0,1,-2,-1,-7,-6,-2
1537918738476195,0,-1,-1,-1,0,12,11,0
1537918738476195,-1,-1,0,1,1,1,10,-1
1537918738489161,0,3,2,0,1,-10,-15,0
1537918738489161,2,-4,-3,-2,-2,-10,-3,0
1537918738497140,-2,0,-2,0,3,37,-2,-2
1537918738497140,0,0,4,-3,-1,8,5,-2
1537918738521076,0,0,-8,0,2,8,-2,-1
1537918738521076,-3,0,-8,0,-2,-15,-16,-1
1537918738521076,1,-4,2,0,-3,-22,9,2
1537918738521076,-3,0,0,0,1,1,-19,-3
1537918738536037,3,13,15,1,-1,21,35,-2
1537918738536037,2,-5,2,0,-1,-4,2,2
1537918738536037,-2,-3,0,-2,-1,-5,-10,-2
1537918738536037,2,-7,-13,-3,-1,1,-3,-2
1537918738557978,-2,2,-4,-1,-3,-10,-7,-3
1537918738557978,-3,-6,1,-2,-2,5,-15,0
1537918738558975,2,7,6,1,2,-2,4,-4
1537918738558975,-8,-1,2,-1,1,5,10,-2
1537918738572938,4,-3,-3,-3,-3,-6,0,-4
1537918738572938,9,6,0,0,-2,-3,-22,13
1537918738572938,-4,-3,0,-2,-1,-2,-13,-9
1537918738572938,-3,1,-3,-2,-2,0,6,1
1537918738595876,-2,-3,-3,-1,0,-9,-24,-9
1537918738595876,-3,2,0,0,-2,0,30,1
1537918738596874,-3,-6,-5,-4,-5,6,-13,-6
1537918738596874,1,0,2,0,-2,-10,9,5
1537918738617817,-3,-1,-2,1,-2,-14,0,3
1537918738617817,-3,0,9,1,6,24,-10,-7
1537918738618815,-4,-3,-1,2,-4,-18,2,2
1537918738618815,0,1,-3,1,1,6,9,6
1537918738632777,-1,-3,1,1,2,29,10,0
1537918738632777,-2,-3,-5,-5,-6,-16,11,6
1537918738632777,4,4,-1,1,2,-2,-9,6
1537918738632777,-2,-1,0,1,3,6,-6,-10
1537918738655715,6,-3,-3,-4,-4,-9,-3,5
1537918738655715,-3,0,-1,-1,-1,-2,7,-5
1537918738656712,-2,-1,-3,-4,-3,-9,2,1
1537918738656712,5,-5,-7,-2,-4,14,-18,-4
1537918738677656,0,-1,0,-1,-2,-3,-14,1
1537918738677656,-4,-2,-3,-2,-1,-23,11,5
1537918738684638,0,0,3,1,4,14,9,-12
1537918738684638,-1,5,7,2,3,19,-15,1
1537918738692616,-4,-8,-6,-1,-1,-17,19,1
1537918738692616,-4,-2,2,-5,-4,34,-2,-6
1537918738692616,0,0,-5,1,4,-4,-10,6
1537918738692616,-1,1,1,-3,-3,-9,10,-1
1537918738715555,-1,-1,0,-2,0,-7,-16,-6
1537918738715555,-1,1,0,2,0,-3,4,7
1537918738716552,-1,-1,-4,-3,-1,-4,-8,-2
1537918738716552,-1,-1,1,-1,-1,7,19,1
1537918738738494,-4,-1,2,2,2,-2,-16,1
1537918738738494,0,0,-2,-1,-2,4,20,-6
1537918738738494,-1,0,0,0,0,-8,-24,-2
1537918738738494,-1,-2,0,-3,-4,-32,0,5
1537918738752458,-7,-2,-2,-1,5,49,0,-8
1537918738752458,1,2,0,-1,-3,2,-3,-6
1537918738753455,-1,-1,-1,-3,-5,2,5,2
1537918738753455,0,-2,1,-2,0,-4,6,0
1537918738775396,1,-2,-1,-2,-2,-27,2,3
1537918738775396,0,-1,-1,1,1,-1,-12,-4
1537918738776395,-2,-2,0,0,2,26,14,2
1537918738776395,-3,0,-1,0,-3,-11,-14,-5
1537918738798336,7,0,-2,-2,0,-7,2,6
1537918738798336,0,-2,-1,-3,-5,-8,-4,-2
1537918738798336,-1,-1,-2,-1,-1,-22,5,1
1537918738798336,-1,-1,-2,1,3,20,-11,-7
1537918738812298,-2,0,-2,-1,-2,-4,-3,-3
1537918738812298,-1,-2,-2,1,-1,-10,-12,0
1537918738813296,2,0,-1,0,-3,-5,21,1
1537918738813296,0,-2,-1,0,0,2,0,0
1537918738835235,-1,-2,0,-3,-3,-13,-5,0
1537918738835235,-5,-1,0,-3,-2,9,5,-4
1537918738836232,-2,-1,0,-1,-4,-23,-23,-3
1537918738836232,5,0,1,-2,1,30,-1,4
1537918738858174,2,0,-1,0,-3,-18,1,2
1537918738858174,-5,-2,-1,-1,1,30,-1,-8
1537918738859171,-1,-2,0,-1,-1,9,7,1
1537918738859171,-1,0,1,1,-2,-18,-11,-4
1537918738873134,-6,-3,-2,0,-2,-3,3,-3
1537918738873134,-2,-2,-4,-3,-1,3,7,-3
1537918738873134,1,-1,-1,-1,-2,-12,-6,-1
1537918738873134,-4,-2,-2,-1,1,-6,1,-3
1537918738896073,-2,-1,1,0,1,11,6,-2
1537918738896073,2,1,0,0,0,-15,-15,-3
1537918738896073,-1,-1,-2,-2,-2,14,21,-2
1537918738896073,-2,0,-1,-1,-1,-11,3,-4
1537918738918015,-1,0,-1,-1,1,11,-4,0
1537918738918015,0,-2,1,-1,-1,3,15,0
1537918738919012,-1,-2,-2,-1,-7,-44,-15,3
1537918738919012,-2,0,-1,-1,0,26,-9,-6
1537918738931978,1,0,0,1,3,40,3,0
1537918738931978,-2,-1,0,2,1,-28,-11,0
1537918738932975,-3,-1,-1,0,2,26,12,-4
1537918738932975,0,-1,-2,-3,-5,-28,7,2
1537918738955914,0,0,0,-1,-2,-3,12,0
1537918738955914,-1,0,-2,-2,-2,1,-14,0
1537918738955914,-1,-1,0,1,-2,-7,-13,-4
1537918738955914,0,0,0,1,1,7,2,4
1537918738977855,-1,-2,-1,0,-1,-3,8,1
1537918738977855,6,0,-2,-1,-1,-3,-3,0
1537918738978854,2,-1,-1,-1,1,2,-4,0
1537918738978854,0,0,0,1,-1,2,-8,-1
1537918738991819,1,-1,-1,0,-2,-5,-5,3
1537918738991819,0,1,0,-1,0,-2,-5,-4
1537918738999797,1,0,3,-1,2,11,-5,2
1537918738999797,-4,-4,-6,-1,1,5,-8,1
1537918739015754,-4,0,9,-1,-1,-28,0,-3
1537918739015754,4,-6,-14,-3,-1,4,5,2
1537918739016752,4,8,13,0,-1,11,12,0
1537918739016752,6,-13,-10,-4,-4,-13,-2,2
1537918739037696,1,7,1,-2,-3,20,20,1
1537918739037696,-13,-9,-5,1,1,-18,-41,-4
1537918739038692,2,2,0,-2,-3,-4,1,1
1537918739038692,-4,-1,5,0,0,18,28,1
1537918739052654,4,3,-2,-1,0,-36,-42,-1
1537918739052654,3,4,7,-1,-2,-9,24,5
1537918739052654,-5,-2,-2,-1,2,29,-4,-3
1537918739052654,-1,3,2,1,3,0,-9,-5
1537918739075593,-8,-4,-3,0,-3,-16,9,-4
1537918739075593,0,3,2,0,-1,18,8,-3
1537918739076590,-1,-4,-6,-2,-4,-48,-18,-3
1537918739076590,2,4,1,-1,0,2,3,11
1537918739098531,0,-2,-3,-1,0,-23,6,-4
1537918739098531,-3,1,2,-2,-3,18,-1,-2
1537918739098531,-1,-1,-5,1,5,23,2,-3
1537918739098531,-1,0,0,-2,-6,-7,10,-5
1537918739112494,-1,-4,-3,1,0,-4,-16,1
1537918739112494,-3,-1,0,-1,-3,-7,29,3
1537918739113491,2,1,-5,-1,-1,1,-20,-1
1537918739113491,-2,1,-1,0,-1,-10,-4,-3
1537918739135433,0,-3,-1,-2,-4,4,-4,4
1537918739135433,2,1,-1,0,3,10,-5,-4
1537918739136431,-2,-4,-1,-1,-1,-13,14,3
1537918739136431,-2,2,3,1,3,32,-11,-4
1537918739158373,2,0,-4,-2,-4,2,9,0
1537918739158373,0,0,0,-1,-3,0,-10,0
1537918739158373,-3,0,-1,1,0,-4,-4,-4
1537918739158373,0,-1,-2,0,-2,-28,-3,1
1537918739171338,-6,-3,-3,-2,1,27,-5,-7
1537918739171338,3,0,0,-1,-3,0,-10,4
1537918739180315,-2,-5,-3,-2,-3,15,-1,-2
1537918739180315,-1,1,-1,0,0,-13,0,-3
1537918739195275,1,-2,1,1,0,-11,-18,-1
1537918739195275,-2,0,-1,-1,-2,-10,-6,-3
1537918739197269,0,-1,-2,-1,-3,5,8,0
1537918739197269,-2,-3,-1,-2,-4,-10,-15,-5
1537918739218212,1,0,-1,2,2,5,7,4
1537918739218212,-2,-3,1,0,2,-4,-3,-1
1537918739219209,1,0,-3,1,1,12,8,2
1537918739219209,-2,1,-1,-1,-2,-18,-11,-2
1537918739232174,4,-1,1,-1,-1,0,-6,0
1537918739232174,0,-2,-2,-2,-2,5,12,1
1537918739240153,-4,-2,-1,-1,0,-5,-3,-4
1537918739240153,0,0,-1,-1,-1,5,10,3
1537918739255113,-3,-2,-3,-3,-1,6,-7,-2
1537918739255113,-3,0,1,0,0,-4,-5,-1
1537918739257108,-1,-2,-2,-1,-1,-8,0,2
1537918739257108,-1,3,6,1,0,4,6,0
1537918739278052,-8,-9,-8,-2,-1,4,-6,-2
1537918739278052,11,4,-2,1,0,5,5,-1
1537918739280046,-4,0,0,1,0,-8,0,0
1537918739280046,-1,-1,-1,-2,-3,-9,-19,-1
1537918739292015,2,5,3,0,-1,-4,15,0
1537918739292015,-9,-11,-6,-1,-1,7,-11,-2
1537918739300992,2,-1,0,0,0,-1,7,0
1537918739300992,1,-1,-1,0,-1,11,1,1
1537918739315951,-3,-1,3,0,1,-3,-2,-6
1537918739315951,-2,-2,-4,0,-3,-13,3,0
1537918739316950,1,2,1,-2,-1,-7,5,1
1537918739316950,-3,-4,-1,-2,-4,-16,-1,-2
1537918739337894,-1,-2,-3,-2,0,21,1,1
1537918739337894,1,3,2,0,0,-10,6,-1
1537918739339888,0,-2,-1,0,0,15,-3,-1
1537918739339888,2,0,-2,-2,-2,-8,11,0
1537918739351856,-2,0,-1,0,0,10,-11,-2
1537918739351856,-1,0,1,-1,-2,-2,2,-1
1537918739367813,0,0,0,0,-2,4,0,0
1537918739367813,-2,-3,-3,0,-1,-1,1,-2
1537918739375792,2,0,1,0,-2,-2,-1,0
1537918739375792,-4,-2,1,-1,1,3,0,-2
1537918739376789,-1,-1,-3,0,-3,-17,-13,0
1537918739376789,0,0,0,0,2,4,-4,-1
1537918739397733,-2,-1,-2,-2,-5,-6,5,-2
1537918739397733,1,0,-1,-2,-6,-21,-30,-3
1537918739399728,0,0,0,1,7,33,8,-4
1537918739399728,-1,2,0,0,-1,2,-4,-4
1537918739411697,-2,-5,0,-2,-2,-16,-2,-2
1537918739411697,-1,-2,-6,-4,-1,10,1,-3
1537918739428651,2,1,1,0,-1,-9,-7,10
1537918739428651,-4,-2,-2,0,-1,11,-3,-8
1537918739435633,2,0,0,0,1,-7,13,6
1537918739435633,-1,2,-1,-3,-1,7,2,-2
1537918739436631,5,0,-2,0,1,4,3,4
1537918739436631,-3,-4,-1,-2,0,6,22,-9
1537918739457572,-1,0,-1,1,-2,-17,-13,-6
1537918739457572,-4,-1,1,0,1,7,29,-12
1537918739459566,2,0,-2,-2,2,41,-5,-4
1537918739459566,2,0,-3,-1,-1,-17,-1,15
1537918739471534,-1,0,-3,-1,-3,5,4,-16
1537918739471534,2,-1,0,0,1,-13,-20,8
1537918739480510,-5,-3,1,-3,-6,-43,6,1
1537918739480510,-2,-1,-1,0,-2,28,-21,-14
1537918739494473,-1,0,0,-1,2,13,6,0
1537918739494473,-1,0,0,-3,-3,-3,0,1
1537918739501454,-2,0,-1,-1,-2,-49,-10,0
1537918739501454,0,-1,0,0,5,52,9,7
1537918739518409,-2,0,-2,-1,-1,-4,-5,1
1537918739518409,-1,-1,-1,-1,-1,7,1,-3
1537918739519407,-3,-2,1,-3,-4,-9,11,-4
1537918739519407,0,-2,0,-2,0,-23,-25,-10
1537918739540351,-1,-1,0,1,1,11,17,9
1537918739540351,1,-2,-2,0,-2,-3,6,2
1537918739542347,-1,-2,-2,2,0,-6,-8,3
1537918739542347,-3,1,-1,-1,-3,-6,5,3
1537918739555312,-3,-3,1,-3,-1,8,-10,5
1537918739555312,-3,0,-2,1,3,-5,3,-6
1537918739557308,-1,-1,-4,-1,-3,10,4,-10
1537918739557308,3,0,-2,0,-2,-6,3,9
1537918739577253,-2,-1,-1,-1,-2,-11,-11,-8
1537918739577253,0,-1,0,-1,-2,7,7,11
1537918739585232,-5,-5,-3,-3,-4,-2,1,-15
1537918739585232,2,-11,0,-1,-2,-3,10,30
1537918739600192,1,14,3,-1,-1,-9,-7,-6
1537918739600192,-6,-5,-2,1,2,8,0,-12
1537918739602188,0,1,1,-1,2,5,-10,-2
1537918739602188,-1,5,0,0,-6,-37,1,5
1537918739615151,1,-9,-2,-2,-7,-27,-4,-11
1537918739615151,4,4,0,-1,1,9,6,4
1537918739617148,-3,-5,-2,-1,2,38,0,11
1537918739617148,2,1,0,-3,-12,1,-6,-29
1537918739638090,2,-2,-2,1,3,10,13,33
1537918739638090,-5,-8,-1,0,-2,-28,0,-2
1537918739639089,-1,6,1,0,0,-14,2,3
1537918739639089,-4,-2,-2,0,5,3,-3,-5
1537918739661028,-1,0,0,1,-4,1,3,-11
1537918739661028,2,-2,-2,-4,-2,-32,-7,1
1537918739663022,2,0,1,-2,0,27,1,1
1537918739663022,-3,2,0,1,6,27,-1,1
1537918739673993,-3,-3,-2,-5,-13,-5,-5,-6
1537918739673993,-2,0,-1,-1,5,13,6,6
1537918739682969,-1,-1,0,1,-3,-16,-11,-9
1537918739682969,-1,0,0,2,10,4,0,-10
1537918739697929,1,-5,-1,-1,7,-10,12,20
1537918739697929,0,2,-2,-7,-42,-11,-2,-6
1537918739699924,1,1,0,2,18,21,-14,-1
1537918739699924,-1,-4,-3,-5,-19,-25,-13,-5
1537918739720870,-1,-1,0,1,11,19,21,-2
1537918739720870,-1,-1,-1,-2,1,-6,-12,2
1537918739721865,1,-1,-1,-1,-5,-23,-9,-3
1537918739721865,-1,0,0,1,10,12,23,2
1537918739733833,-2,1,-1,-1,3,17,-8,2
1537918739733833,0,0,0,1,5,-20,-2,-7
1537918739742811,-2,-3,-1,-3,-5,5,-10,-6
1537918739742811,-2,-2,-2,-2,-2,-29,-38,0
1537918739757770,3,1,1,1,2,28,27,4
1537918739757770,-2,-2,0,3,12,46,26,1
1537918739759766,0,-2,-1,-2,-11,-29,-18,-1
1537918739759766,1,1,-2,-1,-10,-5,-1,17
1537918739780709,-1,-2,-4,-5,-4,-13,-10,-11
1537918739780709,1,-1,0,2,8,-4,-29,7
1537918739781707,-2,-1,-1,-1,1,9,14,-9
1537918739781707,-2,0,-1,0,0,-11,5,3
1537918739794672,-3,-2,0,2,4,6,-2,-4
1537918739794672,2,1,1,0,-1,-5,-28,-1
1537918739803648,-1,0,-1,-1,-1,21,4,4
1537918739803648,3,0,1,1,4,3,17,-6
1537918739818608,-2,-1,-5,-3,-3,9,14,3
1537918739818608,-2,-2,-1,-2,0,-3,4,4
1537918739819607,-2,-3,-2,0,-3,-32,9,-9
1537918739819607,0,1,1,-1,2,26,-3,0
1537918739840550,3,1,1,-2,-2,2,0,11
1537918739840550,0,0,-2,-3,-12,-20,-3,1
1537918739842544,-3,-1,1,-3,-7,-7,-1,-4
1537918739842544,-4,-1,-2,0,6,6,8,9
1537918739863489,2,0,2,0,-2,-23,-2,3
1537918739863489,-3,-1,-2,-3,-4,15,-5,-2
1537918739864487,-2,-6,-1,0,-3,0,3,-14
1537918739864487,1,8,0,0,-2,-16,4,8
1537918739878447,-4,-1,-2,-1,3,-1,-25,-11
1537918739878447,0,0,1,-1,7,16,21,1
1537918739879445,1,0,-2,-1,1,-4,-7,-4
1537918739879445,-1,-4,-2,1,1,22,2,-3
1537918739900388,0,-1,0,0,-5,-42,-15,-2
1537918739900388,0,1,0,2,5,40,23,-7
1537918739902383,-2,-2,-1,-2,-1,-13,0,10
1537918739902383,-2,-3,-2,-3,1,-5,-3,-6
1537918739915347,-2,-2,-2,-2,-7,-1,0,-5
1537918739915347,0,-1,-2,-2,-3,-41,-2,13
1537918739921332,2,2,0,2,9,76,-1,-10
1537918739921332,1,-1,0,2,8,-5,0,-7
1537918739938286,0,-1,2,2,5,15,-4,-9
1537918739938286,-1,-1,-2,-5,-23,-30,-4,-2
1537918739939284,0,-1,-2,-3,-6,-32,14,11
1537918739939284,-2,-3,-2,-1,1,15,-13,-12
1537918739960228,2,-1,0,3,11,9,7,0
1537918739960228,-2,-2,-2,1,8,-1,-12,-6
1537918739962224,2,0,-1,0,-5,-10,11,8
1537918739962224,-3,-3,-1,-1,-2,6,1,-12
1537918739974192,-1,1,-1,-1,-1,-23,-18,4
1537918739974192,1,1,-1,-2,-7,15,8,1
1537918739983169,-1,1,0,1,5,-6,-2,-5
1537918739983169,2,-2,0,1,7,28,14,4
1537918739998128,-1,-1,-2,-5,-20,-15,-7,-4
1537918739998128,-3,-1,2,1,11,3,2,-3
1537918739999126,-4,-3,-4,-3,-5,-14,-15,1
1537918739999126,1,-1,-2,-3,-9,-32,-10,2
1537918740021066,-2,-2,-1,-3,-10,18,6,2
1537918740021066,0,0,-1,0,1,-14,-2,-6
1537918740022063,-1,0,-2,-1,-2,11,10,8
1537918740022063,-2,1,-2,0,1,-2,-3,1
1537918740034031,-2,0,-1,0,7,24,-3,-1
1537918740034031,-4,-4,-1,-1,5,-15,6,-6
1537918740043007,-1,-5,-1,-1,0,-1,-2,-3
1537918740043007,1,8,0,0,-5,-15,-6,-7
1537918740057966,-1,0,0,1,-3,13,1,15
1537918740057966,0,-3,0,-1,-3,17,9,9
1537918740059961,-1,-4,-1,0,-1,-28,-14,-6
1537918740059961,-1,0,0,-1,-4,-7,2,-6
1537918740080905,-2,-1,-1,0,15,14,-1,-7
1537918740080905,2,-1,-1,1,-6,7,-8,0
1537918740081903,-2,1,0,-2,5,2,10,4
1537918740081903,-1,-4,-1,0,4,-10,-3,5
1537918740093871,-3,-1,-2,-3,-19,-28,-4,-7
1537918740093871,0,-2,-1,0,11,52,-3,-8
1537918740102846,1,1,-1,-4,-15,-18,13,7
1537918740102846,0,-1,1,5,13,22,-15,-8
1537918740117806,-1,-1,-2,-1,-1,-12,-1,3
1537918740117806,0,1,0,2,0,-28,-7,-6
1537918740119801,-2,-2,-2,3,6,34,2,0
1537918740119801,-3,-2,-1,-5,-2,-4,9,3
1537918740140745,1,0,-2,-4,-3,-4,-3,-8
1537918740140745,2,0,-1,1,1,-7,2,12
1537918740141743,0,-4,0,0,9,10,-3,-5
1537918740141743,-3,-1,0,-2,-18,-37,8,2
1537918740154708,-2,-1,2,3,21,28,-3,-9
1537918740154708,1,-3,-3,-7,-24,-53,-2,-1
1537918740162687,-1,1,-2,0,-3,22,9,10
1537918740162687,-1,-4,-2,-1,1,4,-10,-7
1537918740178645,-3,-11,-5,-3,-11,-21,6,1
1537918740178645,0,9,4,3,15,44,-18,-5
1537918740179642,1,8,1,-1,-13,-19,-1,2
1537918740179642,-2,-3,-2,-3,-2,4,-1,1
1537918740200586,-1,2,-1,3,1,-21,-3,-2
1537918740200586,-4,-10,-3,-2,3,15,8,-2
1537918740202582,0,-2,-1,0,1,-7,-14,0
1537918740202582,0,1,-1,0,-3,9,8,3
1537918740214549,0,-2,0,0,6,-10,12,-2
1537918740214549,-2,-2,-2,0,-2,-8,-23,-4
1537918740223526,-2,0,-1,-3,-12,4,2,4
1537918740223526,1,-1,-2,-1,-4,10,3,6
1537918740238486,0,-2,-1,1,-2,-5,-15,-11
1537918740238486,-3,1,0,-1,0,-9,11,-7
1537918740239484,2,2,1,-1,6,-6,-11,18
1537918740239484,1,-5,-2,-1,8,8,11,-5
1537918740260427,-3,-1,-3,-5,-25,-20,-5,-2
1537918740260427,-2,1,2,1,1,-2,3,-6
1537918740262422,0,-2,0,-1,-1,-2,-9,-15
1537918740262422,0,-2,-1,-2,-3,5,5,12
1537918740274390,1,0,-2,-2,10,14,-11,-1
1537918740274390,-3,-3,-2,0,-3,-12,5,0
1537918740283366,-1,-3,-3,-1,0,-24,21,11
1537918740283366,-1,0,0,-1,-4,2,-9,-21
1537918740298326,-1,2,-1,2,6,49,4,2
1537918740298326,-1,-3,-1,0,1,0,-6,-4
1537918740299324,5,0,0,0,1,-1,4,10
1537918740299324,-3,-2,-1,-1,4,-21,-22,-7
1537918740320266,2,-1,0,-1,-7,-16,1,5
1537918740320266,-1,-2,-3,-3,1,11,4,1
1537918740322260,-11,-1,0,4,4,-5,-2,-17
1537918740322260,1,-1,-1,-4,-7,3,10,4
1537918740334228,-1,-2,0,0,10,14,-11,-3
1537918740334228,1,-1,-1,-3,-8,-21,3,4
1537918740343205,-4,-3,-1,-1,4,3,-13,-14
1537918740343205,-3,-2,-2,-2,-8,-20,0,7
1537918740358165,-4,-4,-4,-6,-12,-1,-16,-2
1537918740358165,-1,1,1,4,19,29,29,-4
1537918740359162,-1,-3,-2,-4,-17,-20,-8,-9
1537918740359162,1,-1,0,4,1,-17,-50,-7
1537918740380106,1,-1,2,-1,1,27,81,13
1537918740380106,-5,-2,-3,-2,-2,-18,-20,-4
1537918740382103,1,1,-2,0,5,-1,-9,-1
1537918740382103,2,-1,-3,-4,-7,-1,3,3
1537918740394070,-3,0,-2,0,-1,-23,-21,-7
1537918740394070,-1,-4,-1,-1,-1,1,-9,-18
1537918740403046,2,-1,-1,-1,1,15,17,15
1537918740403046,-2,-2,0,0,-5,-18,0,2
1537918740418005,0,-1,1,2,3,17,-9,-3
1537918740418005,1,0,0,-1,0,-3,7,1
1537918740420000,-1,0,0,-2,-2,12,2,-1
1537918740420000,-4,-1,1,2,11,-9,10,3
1537918740440944,1,0,-2,-2,-14,2,-16,-8
1537918740440944,-1,-2,-1,-2,-4,5,0,8
1537918740441942,1,0,0,-2,-1,-15,9,2
1537918740441942,1,-1,0,-2,-6,15,10,3
1537918740462886,-2,0,2,1,10,1,4,-1
1537918740462886,-2,1,1,1,3,3,-14,5
1537918740464881,2,0,-2,-1,2,-1,2,-3
1537918740464881,0,0,-2,1,4,-8,6,-1
1537918740477846,4,1,-1,0,-3,-15,-21,11
1537918740477846,-1,-1,-1,-2,-7,23,2,-4
1537918740479841,-2,-1,-1,1,7,10,-7,-3
1537918740479841,-3,-1,0,0,-6,-12,1,0
1537918740500784,-2,-1,-3,0,0,-11,-3,-3
1537918740500784,1,0,0,0,5,23,6,6
1537918740501781,-1,-2,-1,0,0,-13,-2,-5
1537918740501781,0,1,0,-1,-5,17,1,0
1537918740522724,0,-1,-2,-2,-9,-21,7,-3
1537918740522724,-3,-2,-4,-1,-12,-17,-5,2
1537918740524719,-5,-1,-2,2,4,-10,-6,-6
1537918740524719,1,0,0,-1,9,24,-2,-10
1537918740537684,0,-2,-1,-1,-1,-2,7,5
1537918740537684,0,0,-2,-2,3,-31,-6,2
1537918740539679,-6,-2,1,0,-5,39,1,-7
1537918740539679,2,-1,-1,-1,-1,3,5,1
1537918740560623,-2,-1,-2,-1,2,-3,4,10
1537918740560623,-3,-1,0,-3,2,-1,-3,-17
1537918740561621,0,0,-2,-3,-2,-20,0,6
1537918740561621,-1,0,-1,0,0,1,-3,-6
1537918740583562,-2,0,0,1,3,-9,1,2
1537918740583562,1,0,-2,-1,-14,14,-2,1
1537918740584560,0,-1,-1,-1,6,-2,-1,-4
1537918740584560,-1,-2,-2,-2,-12,-15,1,6
1537918740597526,0,0,0,-3,-8,-11,2,-2
