timestamp,emg1,emg2,emg3,emg4,emg5,emg6,emg7,emg8
1537909713333503,1,-8,8,2,2,0,0,2
1537909713333503,-2,-5,2,-1,-1,1,-2,-2
1537909713334500,-7,-19,-32,-13,-4,-2,-1,-3
1537909713334500,3,16,76,37,8,-1,1,3
1537909713334500,-1,-4,-26,-20,-6,-2,0,0
1537909713334500,0,9,20,7,1,-1,1,1
1537909713335498,-5,-36,-41,-8,0,1,-3,-2
1537909713335498,1,25,26,11,1,1,-1,-1
1537909713341482,-5,-20,-30,-11,-1,0,-2,-3
1537909713341482,5,15,-1,0,-3,-2,1,2
1537909713356442,-1,-6,3,3,-2,-3,-1,0
1537909713356442,-2,-9,-60,-13,-2,0,-1,-2
1537909713361428,1,23,105,18,1,-1,-3,-3
1537909713361428,-2,-17,-38,-11,-1,-1,0,0
1537909713372399,2,17,24,9,1,0,0,0
1537909713372399,-2,-13,7,-5,-2,-1,-4,-2
1537909713387359,2,15,7,0,0,0,2,1
1537909713387359,-4,-7,-9,-2,0,0,-1,-2
1537909713400324,2,-2,53,11,0,0,-1,-1
1537909713400324,-4,-4,-37,-13,-1,-1,-1,-2
1537909713440218,-1,-1,-13,-2,-1,0,-1,-1
1537909713440218,-1,2,0,0,0,-1,0,-1
1537909713441215,-1,-6,1,-6,-1,-2,-1,-2
1537909713441215,-2,-3,-9,-4,-4,-2,-3,-3
1537909713445204,-4,-7,2,-3,-3,-1,-3,-3
1537909713445204,0,0,3,3,0,-1,-1,1
1537909713446202,3,11,-6,3,-1,-1,0,1
1537909713446202,-1,-11,26,1,-1,-1,-1,2
1537909713451188,2,9,-17,4,-1,-1,0,0
1537909713451188,0,-9,-1,-5,0,-1,-2,-1
1537909713459167,-2,-11,11,-10,-2,0,-1,0
1537909713459167,1,1,-1,10,2,0,-2,0
1537909713474127,-3,16,1,-9,-1,-2,-1,-1
1537909713474127,-3,-23,-40,3,-3,-1,0,-1
1537909713481108,0,13,50,17,2,-1,-1,-1
1537909713481108,0,-17,-17,-25,-4,2,1,0
1537909713490085,-2,4,20,-5,-2,-1,-2,-4
1537909713490085,-1,13,-2,1,0,1,0,-2
1537909713513023,0,-11,4,3,1,1,1,1
1537909713513023,-3,5,13,12,-1,0,-1,-3
1537909713514021,2,-3,-20,-16,-4,-1,1,1
1537909713514021,1,7,20,6,-1,-2,-2,-2
1537909713534965,-2,-4,-66,-12,-1,-1,-1,-1
1537909713534965,1,13,61,10,3,0,-1,-2
1537909713536959,0,-11,-57,-7,1,0,1,0
1537909713536959,0,2,8,0,-2,1,0,0
1537909713549925,-4,-1,14,4,0,1,-2,-2
1537909713549925,0,5,-29,-7,-1,-1,-1,-2
1537909713555909,0,4,31,11,0,0,0,-2
1537909713555909,0,0,9,-6,2,-1,-1,0
1537909713572863,-3,-1,-16,-8,-5,-3,-1,-3
1537909713572863,0,8,5,-1,3,-2,1,1
1537909713573860,-2,-14,30,0,-8,-4,-1,-2
1537909713573860,-2,-8,-1,22,8,3,0,0
1537909713594805,2,19,4,-24,-13,-4,-3,-2
1537909713594805,-4,-9,-53,-7,2,0,1,0
1537909713596799,-1,4,9,7,2,1,0,0
1537909713596799,0,-5,2,13,18,5,1,0
1537909713609764,1,-8,10,-1,-6,0,-1,0
1537909713609764,-1,7,-3,17,1,-2,-3,-2
1537909713616746,1,-1,8,-7,5,1,-1,-1
1537909713616746,1,19,-11,-14,-15,-6,-2,-1
1537909713640682,-6,-26,-4,7,11,2,-1,-1
1537909713640682,0,5,-16,4,-1,0,-1,-1
1537909713641679,-2,-16,-3,14,2,1,-1,0
1537909713641679,0,20,42,-11,-1,-1,0,-2
1537909713655642,-2,-7,-24,17,4,1,1,1
1537909713655642,4,4,46,1,-4,-2,-2,1
1537909713656640,0,1,1,7,2,-1,-2,0
1537909713656640,-3,-11,-23,-20,-7,-2,-1,-1
1537909713668607,-5,-12,-24,-9,-4,-2,-5,-5
1537909713668607,2,29,43,-20,-6,-1,-1,-1
1537909713677583,0,-9,49,34,17,4,6,3
1537909713677583,6,-1,22,24,0,-2,0,0
1537909713692543,-3,8,-34,-31,-17,-6,-2,-1
1537909713692543,0,-12,-46,-24,-18,-4,-2,-1
1537909713694538,-2,13,34,-2,-2,-2,-4,-3
1537909713694538,-11,-25,-6,-1,-6,-4,-6,-3
1537909713715482,5,30,-11,-32,18,10,3,1
1537909713715482,-2,-33,-71,-2,13,7,10,2
1537909713716479,-4,11,69,5,-17,-9,-7,-6
1537909713716479,2,15,-55,-48,-45,-15,-6,-1
1537909713728448,1,-45,-40,114,43,13,8,3
1537909713728448,7,28,-63,-97,-29,-6,-9,-3
1537909713737423,-31,-71,47,-16,14,2,-9,-16
1537909713737423,30,43,84,70,36,17,24,19
1537909713752384,1,13,7,-28,-51,-22,-1,3
1537909713752384,-5,-18,14,25,24,4,1,2
1537909713754378,7,12,-93,14,20,8,-5,0
1537909713754378,-35,-112,-65,-48,13,14,-1,-13
1537909713775323,32,118,127,-11,-33,-9,7,12
1537909713775323,-7,-23,-15,-14,-33,-32,-6,-7
1537909713776321,6,26,40,69,17,8,7,5
1537909713776321,3,1,-105,-3,17,4,-5,-4
1537909713789286,-9,-16,49,45,65,24,1,-7
1537909713789286,4,-27,-73,38,13,24,8,6
1537909713798263,-6,4,63,-104,-88,-40,-28,-11
1537909713798263,17,45,-43,123,82,26,15,14
1537909713813221,-12,-56,-105,-59,-45,-28,-9,-5
1537909713813221,-5,40,114,40,-7,-19,-16,-11
1537909713814221,7,37,-30,24,20,23,18,8
1537909713814221,-3,-6,-57,-45,-54,-31,-15,-8
1537909713835163,19,112,103,-19,24,19,4,5
1537909713835163,-8,-45,-18,30,43,18,9,5
1537909713837158,-19,-105,-105,-104,-24,-10,-20,-17
1537909713837158,3,-20,127,40,-36,-24,-3,-3
1537909713849125,14,-105,13,-15,-2,3,14,10
1537909713849125,8,15,5,30,25,12,0,1
1537909713858101,-4,-20,-60,44,10,6,3,1
1537909713858101,-8,-4,105,68,32,11,-3,-2
1537909713872064,-25,-8,-86,-34,-24,-27,-28,-19
1537909713872064,10,45,14,36,-7,-6,-1,0
1537909713879045,10,18,-78,77,44,4,16,11
1537909713879045,-11,7,-126,-128,-62,-25,-12,-10
1537909713895003,6,33,46,127,51,25,13,10
1537909713895003,-14,-13,40,-19,0,-3,-9,-10
1537909713896997,15,84,-93,-8,-6,-2,8,9
1537909713896997,2,15,84,42,44,24,8,5
1537909713909962,-5,23,52,-6,-12,6,-5,-4
1537909713909962,-3,-7,-41,-35,-14,-12,-7,0
1537909713917941,6,25,-24,48,11,1,-2,-4
1537909713917941,-6,-24,-27,-92,-35,-9,-1,-1
1537909713939883,-6,-13,-52,-24,8,9,-3,-4
1537909713939883,7,41,127,44,0,3,3,2
1537909713941878,-3,-12,127,10,-4,-5,1,-1
1537909713941878,-10,-36,-116,-40,3,-1,-2,-7
1537909713955840,7,45,14,-24,-2,-4,3,3
1537909713955840,-7,-43,8,-19,-2,1,1,-1
1537909713956838,-1,-16,24,-33,-30,-10,-3,0
1537909713956838,-2,3,40,-24,-4,0,-4,-3
1537909713968806,-7,-39,87,-21,-9,-4,-5,-3
1537909713968806,3,5,4,-19,-5,-1,2,2
1537909713977782,-1,-8,2,-24,5,4,2,1
1537909713977782,3,16,-6,11,-7,-1,-1,-1
1537909713991744,-8,-23,-61,8,-5,-8,-3,-5
1537909713991744,-8,-17,-11,-40,-13,-3,-4,-5
1537909713998726,6,21,27,-3,-3,-3,1,1
1537909713998726,-3,13,4,10,-1,1,-1,0
1537909714015680,-2,5,-11,1,-6,-4,-1,-4
1537909714015680,-1,20,5,15,5,4,1,0
1537909714016678,-2,24,-12,-31,-2,1,0,1
1537909714016678,1,20,23,15,-2,0,2,2
1537909714028646,-3,-19,-10,1,0,0,-2,-4
1537909714028646,1,-17,-17,-9,-6,0,1,1
1537909714037621,-1,-33,-3,-2,3,2,3,-1
1537909714037621,0,-17,23,21,-2,-2,-2,-11
1537909714051584,-3,-20,9,7,-4,-3,-4,-2
1537909714051584,3,-7,-7,-5,0,3,2,10
1537909714058565,3,1,5,-5,1,3,1,13
1537909714058565,2,11,23,18,6,25,9,-4
1537909714075519,-5,-15,-12,-8,-3,-29,8,-15
1537909714075519,-5,10,-6,-8,-7,-2,-20,-17
1537909714076517,1,6,7,-4,2,-3,-7,-2
1537909714076517,0,9,5,0,-6,-7,-5,0
1537909714088485,-1,-5,-7,2,0,14,6,8
1537909714088485,0,4,-3,9,3,0,5,-1
1537909714097461,1,13,9,0,1,-3,3,-3
1537909714097461,-2,10,3,5,0,1,1,7
1537909714112421,0,4,0,-10,5,5,-3,1
1537909714112421,-3,-7,9,-7,-11,-9,-1,0
1537909714118405,1,5,-19,9,9,5,1,1
1537909714118405,2,-6,-2,9,-4,-8,0,4
1537909714135360,-3,-21,19,0,-6,-4,-7,-2
1537909714135360,-7,-22,13,-12,1,5,1,-1
1537909714136357,-5,-14,-58,-15,-6,1,-2,-5
1537909714136357,-9,-6,73,0,-3,-7,-6,-4
1537909714149322,14,20,-30,-15,-10,-6,0,5
1537909714149322,-4,-52,-8,27,3,4,4,1
1537909714157301,13,73,23,1,3,2,5,3
1537909714157301,-3,-30,-1,14,3,-3,-5,-1
1537909714172261,-11,-18,14,-9,-1,3,-6,-4
1537909714172261,1,14,18,-13,-1,-4,1,-1
1537909714179242,-7,-40,5,5,-3,-3,-3,-5
1537909714179242,5,22,-52,-9,0,-2,-2,-1
1537909714195200,0,14,92,16,4,4,4,3
1537909714195200,4,1,-35,4,2,-1,1,1
1537909714196197,-5,-31,-1,9,0,-1,-2,-2
1537909714196197,1,6,-2,-6,-2,-3,1,3
1537909714218139,-4,-15,-19,-7,-2,-2,-4,-2
1537909714218139,-3,6,46,10,4,2,-1,-2
1537909714219136,-5,-24,-10,13,-1,0,-1,-2
1537909714219136,6,6,-39,-27,-2,-2,2,-6
1537909714232101,-3,-12,-45,3,-3,0,-3,19
1537909714232101,8,15,46,8,4,5,3,7
1537909714239083,-3,-2,23,-7,-7,-4,-1,-1
1537909714239083,-3,-7,4,0,-3,-2,-4,-2
1537909714255039,-4,1,-38,-3,-2,-2,-4,-11
1537909714255039,4,36,13,-17,-5,-3,-4,-5
1537909714257034,2,-39,-29,11,4,2,3,5
1537909714257034,0,17,-6,-8,-3,-1,-2,-2
1537909714284960,-2,0,-8,9,2,1,2,-2
1537909714284960,-3,5,-6,2,-2,-2,-3,-2
1537909714286954,-1,-3,-1,-8,-2,-2,-2,-5
1537909714286954,-3,3,9,-5,-2,-2,-3,-1
1537909714290944,1,-7,-18,8,-1,-2,-1,-2
1537909714290944,-4,-3,-32,-2,0,-1,1,0
1537909714299920,1,3,10,-10,1,-1,0,-1
1537909714299920,-2,-17,-3,4,1,-2,0,1
1537909714314880,-1,0,17,-2,0,1,-3,-1
1537909714314880,-2,-9,-39,-4,-1,-1,1,-1
1537909714316875,-3,5,14,-10,-6,-2,-4,-2
1537909714316875,-2,-8,4,5,1,-1,0,1
1537909714337819,4,14,-1,2,0,-1,0,-4
1537909714337819,0,0,-6,0,-2,-1,-1,-9
1537909714338818,-1,9,7,-1,1,0,-2,12
1537909714338818,4,-5,10,6,4,3,6,9
1537909714351783,10,2,-7,-1,-2,7,27,90
1537909714351783,-30,-13,-16,-5,0,14,-34,-102
1537909714360759,-3,2,14,-2,-2,-11,51,102
1537909714360759,8,1,-10,2,1,13,-17,38
1537909714374721,21,-9,1,1,0,17,-8,50
1537909714374721,-12,4,-2,1,-9,-95,-37,-42
1537909714375720,-25,-9,-7,-20,-5,47,-89,-93
1537909714375720,-2,-1,4,7,6,48,100,43
1537909714398657,32,12,4,5,0,-46,-45,7
1537909714398657,21,1,5,-5,-6,-37,54,127
1537909714398657,-19,4,-14,-19,-14,-39,-109,-94
1537909714398657,12,5,1,9,11,54,75,88
1537909714419602,-62,6,3,8,6,104,-42,-78
1537909714419602,27,-2,-5,0,-8,-79,72,86
1537909714420600,-2,-2,6,2,6,47,-86,-59
1537909714420600,22,-3,-14,-15,-17,-88,84,79
1537909714441542,4,36,5,1,0,17,-78,-101
1537909714441542,-51,-20,-6,4,0,26,-31,54
1537909714442539,18,12,0,-5,2,-3,54,-30
1537909714442539,9,-5,5,6,7,31,-79,-79
1537909714457499,32,-13,1,11,21,86,119,84
1537909714457499,39,7,-2,2,0,-10,13,71
1537909714457499,-37,-4,-15,-10,-7,113,17,-85
1537909714457499,-43,-27,14,11,0,-28,-34,36
1537909714479440,4,18,-2,-14,-10,-83,42,-25
1537909714479440,0,34,6,6,26,121,15,-3
1537909714480438,23,-38,10,12,-5,-83,51,73
1537909714480438,-14,31,1,-20,-13,-57,-56,-35
1537909714502379,-20,-22,-17,-10,2,66,-16,-109
1537909714502379,17,-25,-10,2,-7,7,47,86
1537909714502379,-8,27,10,2,0,-76,-38,-9
1537909714502379,-35,-16,-9,-7,-4,22,-46,-77
1537909714517339,32,-25,2,2,1,-27,-12,73
1537909714517339,-30,-2,-2,5,6,103,73,-91
1537909714517339,32,2,2,4,2,-32,30,4
1537909714517339,0,0,1,6,8,27,-3,21
1537909714539283,-18,-20,-10,-9,-25,-128,3,41
1537909714539283,8,1,-2,-3,-3,-10,-26,-99
1537909714540279,6,-6,-8,-5,-5,18,34,58
1537909714540279,-9,4,1,-2,-6,15,-66,37
1537909714562220,-16,15,4,4,2,-1,-15,-18
1537909714562220,5,3,-2,1,-4,-31,-26,-5
1537909714563217,7,1,4,3,3,-15,23,17
1537909714563217,28,6,-2,2,2,13,2,9
1537909714577180,-15,-2,1,-3,1,13,27,34
1537909714577180,1,-9,-2,-3,0,14,-37,-3
1537909714578178,0,-7,0,2,-4,-18,-17,32
1537909714578178,-3,2,3,6,-1,21,29,-18
1537909714599121,-12,-3,3,-1,-8,-6,-6,-11
1537909714599121,-1,-1,-4,-8,-6,-19,-15,-29
1537909714600119,7,10,4,3,5,50,28,27
1537909714600119,-4,-2,0,-3,-6,-21,4,-32
1537909714622060,-4,-6,-3,-6,-1,-8,-4,-14
1537909714622060,7,1,-1,6,5,8,-31,-9
1537909714623059,-9,4,1,6,7,6,18,30
1537909714623059,4,0,-2,-18,-1,-16,-3,-21
1537909714636024,-1,-5,-1,13,1,-3,-4,4
1537909714636024,-4,4,-8,-1,1,15,-1,-2
1537909714644999,-3,0,-11,-5,11,2,6,11
1537909714644999,4,6,22,22,-24,-20,0,-20
1537909714659958,2,-7,-26,20,23,31,10,4
1537909714659958,-8,-6,8,-79,-22,-7,-16,-13
1537909714659958,-6,6,36,84,-1,-15,0,-3
1537909714659958,12,-10,-50,-61,-10,9,-1,-1
1537909714681898,0,11,-25,-48,-27,-16,4,5
1537909714681898,8,25,18,64,16,-2,-2,3
1537909714682896,-1,-20,47,19,9,12,2,17
1537909714682896,-1,19,43,52,27,12,4,-5
1537909714695861,-4,-21,-30,18,10,5,0,-1
1537909714695861,-5,-14,-76,-27,-11,-8,-8,-12
1537909714704837,-4,-7,-7,-86,-20,6,4,4
1537909714704837,-6,-13,53,50,7,-9,-4,-14
1537909714720794,7,-2,16,-32,-4,2,0,0
1537909714720794,-1,13,-10,-4,-7,-2,-10,-5
1537909714721792,5,9,32,10,0,2,7,10
1537909714721792,-3,-35,-14,-3,4,-3,2,-4
1537909714741738,0,39,-11,-7,-6,-2,-6,-2
1537909714741738,0,-22,40,-1,-7,1,0,-1
1537909714742736,-3,-29,-75,6,5,1,3,2
1537909714742736,3,22,23,-16,-5,-2,1,-2
1537909714756699,0,4,16,22,9,4,-1,0
1537909714756699,-3,1,-2,10,1,-1,-6,-5
1537909714757696,1,15,-17,-25,-7,-4,-4,2
1537909714757696,1,1,-9,3,0,-4,-1,-1
1537909714779637,-4,-9,4,-4,-2,-1,-1,-2
1537909714779637,-2,-5,7,3,4,-2,-2,-2
1537909714780635,2,2,3,1,-5,-3,0,1
1537909714780635,-2,6,-28,-12,3,0,2,-1
1537909714801579,-2,-3,18,5,-3,-3,-1,-3
1537909714801579,0,0,-2,-3,2,0,2,0
1537909714802577,0,11,-3,1,3,2,2,0
1537909714802577,-2,-6,-10,-5,-1,-2,-2,-3
1537909714817538,-1,-5,6,-6,-4,-4,-1,-3
1537909714817538,0,-1,8,11,4,0,-1,0
1537909714817538,-2,0,-7,-10,-1,3,0,3
1537909714817538,0,-8,-8,0,1,0,0,-3
1537909714839481,0,4,12,2,1,1,1,-2
1537909714839481,-3,-15,-18,-9,-5,-1,-2,-2
1537909714840478,-3,5,16,-17,-5,-2,-1,-2
1537909714840478,4,12,-19,-7,-5,-4,-1,1
1537909714862417,0,-22,4,15,4,2,1,0
1537909714862417,-2,-9,1,5,7,1,1,0
1537909714862417,7,38,3,-3,-4,-1,0,1
1537909714862417,-2,-11,-4,2,0,1,-1,-3
1537909714877377,-1,-10,1,0,-2,0,1,-1
1537909714877377,0,18,1,2,-3,-3,-1,-2
1537909714877377,-2,-16,-5,3,1,1,1,1
1537909714877377,-2,8,-3,-6,-1,-2,0,-1
1537909714899318,-1,-2,0,6,-3,-1,0,0
1537909714899318,-2,-8,3,-2,1,1,-1,0
1537909714900316,-1,-7,-5,2,0,0,-1,0
1537909714900316,-2,-8,-25,-1,-1,-3,-1,-2
1537909714922258,-3,2,22,-13,-5,-1,-3,-2
1537909714922258,3,10,4,5,0,-2,0,0
1537909714923255,-1,-4,9,3,1,1,0,1
1537909714923255,0,5,-2,-1,-2,1,-1,-1
1537909714937217,-3,-6,-9,1,-1,2,-1,-1
1537909714937217,0,9,-6,-2,-1,-1,-2,-1
1537909714944200,-5,-16,13,18,6,0,-1,-2
1537909714944200,-1,-17,-8,-21,-3,-1,0,-2
1537909714959159,-1,10,-1,38,-5,-5,-1,-1
1537909714959159,-2,-4,-12,-17,15,7,2,0
1537909714960157,-6,2,12,-30,-28,-11,-7,-6
1537909714960157,6,3,36,63,36,9,4,2
1537909714983095,0,3,-103,-87,-51,-16,-8,-3
1537909714983095,-8,-81,-23,-33,4,4,0,-1
1537909714984092,8,60,42,77,-2,-4,3,2
1537909714984092,-2,-20,3,18,-6,-3,4,4
1537909714996060,-8,3,-53,-51,-31,-7,-4,-3
1537909714996060,6,-11,84,102,54,15,2,5
1537909715005036,-9,45,56,-95,-35,-7,-19,-14
1537909715005036,-6,26,-69,41,8,-5,-3,-10
1537909715019995,18,-3,120,101,22,7,15,17
1537909715019995,7,109,47,54,-10,-4,3,0
1537909715019995,-27,-60,45,49,19,1,-1,-2
1537909715019995,14,-56,15,-51,-4,6,2,7
1537909715041939,5,53,-68,-42,25,15,5,4
1537909715041939,-15,-7,59,-44,-24,-16,-20,-18
1537909715042936,25,-36,-118,25,30,11,19,18
1537909715042936,-17,12,-58,-99,-37,-13,-7,-9
1537909715064877,16,-63,-41,76,36,13,12,10
1537909715064877,-15,-29,13,-2,-45,-12,-14,-11
1537909715065874,-9,11,95,-19,-3,-3,1,-6
1537909715065874,13,-11,-66,-5,3,7,9,9
1537909715079835,-1,98,127,83,42,14,-2,-3
1537909715079835,2,-38,-71,-96,-34,-7,-2,1
1537909715079835,-2,-4,-44,-17,-6,-5,-3,-1
1537909715079835,16,29,122,31,29,7,7,8
1537909715101776,-28,-59,-60,-56,-22,-14,-11,-12
1537909715101776,2,9,65,-3,10,3,3,0
1537909715102774,9,-16,-1,54,17,0,8,5
1537909715102774,-7,27,13,-52,-30,-7,2,-1
1537909715116736,0,66,95,47,27,7,-6,-6
1537909715116736,-9,-19,38,-25,-4,-1,2,-2
1537909715117734,8,19,-128,-91,-37,-14,-9,-3
1537909715117734,-6,9,27,64,28,6,-1,0
1537909715139676,2,-110,80,-16,1,9,10,6
1537909715139676,-6,-59,-128,-31,-34,-20,-6,-5
1537909715140673,5,19,72,-5,19,14,-5,-3
1537909715140673,-8,-46,-87,12,-37,-12,-5,-4
1537909715162614,11,40,72,-8,18,3,-1,1
1537909715162614,8,4,-36,32,13,6,2,4
1537909715163612,-10,-62,-81,-60,-2,-1,2,-1
1537909715163612,-1,86,110,35,-4,-1,-11,-5
1537909715176577,-8,-53,-128,-23,-19,-17,-3,-2
1537909715176577,9,98,89,53,28,7,3,5
1537909715177575,-10,-16,-87,23,-1,-7,-5,-5
1537909715177575,13,53,-23,17,20,12,4,4
1537909715200512,-7,30,50,-71,-52,-22,-14,-12
1537909715200512,-11,-20,27,47,27,6,1,-3
1537909715201511,5,24,71,56,14,3,6,2
1537909715201511,-16,-21,-21,-110,-57,-30,-9,-7
1537909715222454,9,30,-45,74,25,14,3,2
1537909715222454,8,24,51,8,-5,-1,8,8
1537909715223452,-4,-65,-55,-5,18,8,-2,-3
1537909715223452,-7,13,123,41,-18,-6,-10,-8
1537909715237414,-27,-67,-92,-57,-2,-7,-8,-13
1537909715237414,23,69,8,37,-8,-6,5,8
1537909715237414,9,73,-9,67,-5,4,5,7
1537909715237414,-11,-62,-110,-74,10,-2,-7,-7
1537909715259357,2,5,17,6,12,4,-3,1
1537909715259357,-11,-7,20,-24,-2,-1,-8,-6
1537909715260354,-8,-61,-41,-70,-14,-10,-2,0
1537909715260354,2,8,99,31,4,4,-4,-2
1537909715282294,1,-26,-86,-29,-18,-7,4,2
1537909715282294,0,-11,-50,-13,9,7,-3,-2
1537909715283291,-5,33,127,26,-42,-22,-10,-12
1537909715283291,8,5,-77,25,22,4,11,11
1537909715296256,7,19,44,18,6,4,6,6
1537909715296256,-7,-38,-13,-47,-8,1,-3,-1
1537909715304235,6,37,22,48,20,14,2,2
1537909715304235,-20,-92,14,-76,-25,-15,-18,-17
1537909715319195,12,26,56,93,31,13,15,11
1537909715319195,6,22,-25,0,-4,-4,1,2
1537909715320192,-1,2,19,-13,7,4,3,3
1537909715320192,3,-3,22,16,10,7,-1,-1
1537909715343131,-6,-8,-35,-36,-9,-4,-9,-5
1537909715343131,-4,-26,-3,-16,-5,-2,0,-3
1537909715343131,-1,-4,-1,3,9,2,0,-2
1537909715343131,2,13,-14,10,5,5,3,0
1537909715356096,-5,-3,11,-18,-19,-7,-4,-6
1537909715356096,4,17,-1,30,8,2,3,2
1537909715364075,1,-5,-2,-22,-5,-1,-1,-1
1537909715364075,3,6,-27,26,8,3,4,3
1537909715379035,-2,10,16,-2,-6,-2,-3,-3
1537909715379035,-1,-17,-6,-4,0,0,1,-10
1537909715380032,1,-4,-16,-5,5,4,4,19
1537909715380032,0,3,19,9,5,0,4,13
1537909715401974,7,2,20,-4,-6,-1,1,25
1537909715401974,-8,-6,-9,-10,-1,-4,-6,-15
1537909715402971,-17,2,8,2,4,5,5,-20
1537909715402971,-6,31,4,16,5,18,-22,-49
1537909715415936,3,35,6,-19,-14,-29,22,34
1537909715415936,-6,25,-15,2,1,-1,-39,14
1537909715424912,13,20,6,-2,-2,-11,-3,3
1537909715424912,4,5,5,6,6,1,4,-2
1537909715439873,-6,-13,-2,-7,0,13,5,-5
1537909715439873,2,-25,7,2,5,4,14,-3
1537909715439873,-5,-24,3,2,4,4,2,2
1537909715439873,-1,-8,-4,-5,-4,-2,2,8
1537909715462812,-1,-1,8,-4,-5,1,-3,-17
1537909715462812,4,0,1,6,1,0,12,11
1537909715463810,-1,-11,8,1,11,7,-8,-9
1537909715463810,-2,13,-19,-46,-23,-13,1,12
1537909715476775,-8,-51,15,71,2,3,-9,-17
1537909715476775,12,15,30,26,8,2,7,0
1537909715484753,1,-15,-2,-5,0,-1,-1,7
1537909715484753,1,-7,15,8,3,-2,2,2
1537909715499713,0,-10,22,-19,-4,0,-10,-7
1537909715499713,-8,-31,25,-10,0,1,-3,-5
1537909715500710,6,10,-20,-22,-4,4,12,5
1537909715500710,4,-38,-33,12,-3,-9,4,8
1537909715522651,6,34,35,6,-4,-2,-7,-7
1537909715522651,-2,-41,39,23,1,-1,0,2
1537909715523648,0,57,78,8,0,-6,-7,-6
1537909715523648,-4,-21,-80,-33,-7,-5,0,-1
1537909715536615,-5,-7,34,-9,-1,-1,-3,-3
1537909715536615,-5,-4,-72,-29,-7,-3,2,-4
1537909715544592,-1,-2,-23,7,-1,0,-1,1
1537909715544592,-1,2,-74,15,8,2,0,0
1537909715559552,1,3,62,16,6,0,0,-3
1537909715559552,5,25,4,-1,0,-1,4,4
1537909715560550,-6,-25,-31,-13,-6,-4,-7,-4
1537909715560550,0,5,39,18,6,1,-1,3
1537909715582491,-4,-4,-34,-27,-5,-2,-5,-5
1537909715582491,-6,-7,-35,-15,-4,-3,-3,-5
1537909715583489,2,-6,51,14,0,0,0,0
1537909715583489,2,-12,12,2,0,1,1,0
1537909715596454,-4,-8,-22,-10,-4,-1,-4,-1
1537909715596454,4,21,14,-5,-2,-2,0,2
1537909715604433,0,-12,-32,-4,-4,-3,0,-2
1537909715604433,1,6,49,14,7,3,1,5
1537909715619392,8,-4,-35,-11,-2,-1,12,85
1537909715619392,-17,-4,-4,5,1,8,7,-89
1537909715620390,11,-4,-14,-5,-2,24,24,46
1537909715620390,12,0,17,-1,-5,-30,0,4
1537909715642331,-6,-10,-8,3,2,-3,-60,1
1537909715642331,-38,-16,-13,-7,-1,7,-5,-72
1537909715643329,9,32,-6,-8,-20,-56,73,52
1537909715643329,4,8,14,-5,2,28,-93,57
1537909715665270,-4,-20,-11,-8,-4,-25,125,-37
1537909715665270,0,8,5,1,-18,-98,-127,16
1537909715666268,-48,-16,-9,-5,8,55,14,-118
1537909715666268,20,1,1,10,11,19,44,105
1537909715679234,17,55,-7,-14,-8,4,-44,-66
1537909715679234,16,-3,-7,-2,5,60,88,79
1537909715680231,2,1,4,7,5,6,31,-14
1537909715680231,-43,-6,14,-3,-16,-26,-74,-118
1537909715704166,-2,15,-6,-3,10,59,46,-78
1537909715704166,4,16,8,13,0,-47,-53,-32
1537909715705164,16,5,-8,-1,-3,-24,-3,90
1537909715705164,38,9,3,0,2,-15,8,-5
1537909715725110,-6,-23,-12,-7,5,28,-1,19
1537909715725110,-10,-35,-4,-14,-4,-17,66,3
1537909715726108,11,9,-2,-5,5,26,-44,-37
1537909715726108,-4,-13,3,9,7,68,42,-34
1537909715739073,-34,-7,1,-11,-15,-46,-84,-40
1537909715739073,11,-6,-11,-7,-3,-29,-10,122
1537909715740070,25,-8,10,6,9,31,-37,23
1537909715740070,-19,-6,13,6,-3,-44,35,-77
1537909715763010,18,-3,-13,-1,0,6,-8,3
1537909715763010,-1,-12,-8,-2,-2,-10,8,24
1537909715763010,0,-9,13,3,-2,19,-17,22
1537909715763010,-19,-1,3,2,4,-40,-1,-91
1537909715784951,27,10,9,9,9,17,38,53
1537909715784951,-15,-18,-15,-6,-6,4,21,48
1537909715785948,-12,-1,-10,-3,-1,-18,-37,-98
1537909715785948,-26,16,7,4,13,98,47,48
1537909715799911,21,-1,-9,-7,-13,-92,-33,4
1537909715799911,15,15,-3,-9,-7,11,-11,-89
1537909715799911,22,18,2,-1,-2,40,21,37
1537909715799911,11,22,3,2,-4,-7,-1,88
1537909715822850,-27,-2,-13,-5,-14,-50,10,-19
1537909715822850,-4,10,0,5,4,40,-13,-1
1537909715823847,26,-13,-6,0,-9,-18,11,-11
1537909715823847,6,-5,5,-1,-7,-23,-18,-8
1537909715845788,-10,-11,1,5,8,38,8,13
1537909715845788,14,11,3,5,7,11,6,-46
1537909715845788,-15,-14,3,7,5,-4,16,-19
1537909715845788,-17,-8,-1,1,-3,-11,1,11
1537909715859751,6,1,-6,-3,-1,6,-3,44
1537909715859751,-10,9,12,4,2,22,4,-30
1537909715860748,-9,-8,1,3,-2,-22,6,36
1537909715860748,6,0,0,-2,-1,-3,-2,-15
1537909715882689,-11,-7,-1,-2,1,12,-6,-28
1537909715882689,6,1,4,2,3,17,13,-2
1537909715883688,-13,-10,-5,3,1,-7,-6,35
1537909715883688,15,7,0,-2,-4,-39,3,7
1537909715905629,-9,-3,-1,0,1,11,-11,-13
1537909715905629,8,4,1,0,3,7,7,14
1537909715906627,-7,-4,-6,-4,-5,-16,-11,-11
1537909715906627,-11,-5,1,0,3,7,-4,-28
1537909715918593,2,-2,-2,-1,2,2,-8,7
1537909715918593,7,5,0,-1,-1,1,6,11
1537909715927569,-14,-2,-1,1,-1,-13,-11,-23
1537909715927569,0,-7,-3,1,2,10,7,13
1537909715942530,3,1,-4,-4,-2,5,7,3
1537909715942530,7,3,1,0,0,3,1,12
1537909715944525,-6,-7,0,1,-2,-10,-14,-12
1537909715944525,4,-1,-2,53,11,4,2,3
1537909715965468,0,-2,-9,-56,-5,5,1,2
1537909715965468,-6,1,8,6,-5,-3,-4,-12
1537909715966467,-1,0,-4,-33,-12,-8,-4,-1
1537909715966467,1,-2,4,-19,-17,-10,1,-3
1537909715978434,-6,0,-5,32,10,6,2,-5
1537909715978434,3,-5,0,19,7,6,5,12
1537909715987410,-6,-11,-31,12,16,1,-3,-4
1537909715987410,2,-5,7,-12,-1,4,0,2
1537909716002371,-2,3,12,-54,-16,-7,-5,-3
1537909716002371,1,8,3,-28,-11,-5,1,3
1537909716004366,3,13,18,45,-2,-13,0,1
1537909716004366,2,-7,-6,19,6,1,0,-3
1537909716025309,-2,-5,2,33,6,9,2,3
1537909716025309,-2,-11,11,16,8,3,-2,1
1537909716031293,-8,-12,-21,-11,7,0,-6,-10
1537909716031293,-2,11,-97,-14,-22,-8,1,-1
1537909716039271,2,11,97,62,-2,-4,2,-1
1537909716039271,-1,-10,-3,-47,0,-1,-1,1
1537909716055230,3,42,4,44,-9,-6,-4,-1
1537909716055230,2,-4,-10,-107,-20,-5,0,2
1537909716063209,2,-4,-56,-11,-2,-4,2,1
1537909716063209,-1,0,4,27,0,-2,-3,-2
1537909716064206,-4,-15,21,2,-2,-2,-2,-3
1537909716064206,0,3,17,21,14,6,1,0
1537909716085150,-5,-11,-16,24,11,3,-1,-5
1537909716085150,-5,-8,70,-25,1,5,-2,-2
1537909716086147,2,10,-102,-51,-8,-6,0,-4
1537909716086147,4,5,40,42,12,2,4,4
1537909716108088,5,-14,-21,10,-4,-1,3,3
1537909716108088,0,-2,-7,8,4,2,0,1
1537909716110083,-5,-6,61,16,3,2,-5,-4
1537909716110083,-2,-2,-3,-31,-8,-4,-4,-5
1537909716123046,-2,2,-1,33,17,4,0,-2
1537909716123046,7,14,-3,-22,-20,-3,-1,3
1537909716124044,-3,-6,-50,-10,-4,-6,-1,-2
1537909716124044,0,-5,7,18,11,4,2,1
1537909716144988,-2,3,-27,-34,-10,0,-1,0
1537909716144988,0,7,2,29,3,0,1,0
1537909716146983,0,-8,41,4,-1,2,1,0
1537909716146983,-4,-6,17,-4,3,-2,-4,-4
1537909716158950,-2,15,43,10,4,4,-1,-4
1537909716158950,0,3,-75,-18,-7,-6,0,0
1537909716167927,6,-3,14,15,9,3,4,4
1537909716167927,-1,-3,8,-9,-1,-1,-1,-1
1537909716181889,-3,-7,-7,-27,-17,-7,-5,-2
1537909716181889,-4,-1,6,26,5,1,0,-1
1537909716189868,-1,-1,-1,-20,-3,0,-1,2
1537909716189868,0,5,11,16,4,1,-1,-2
1537909716204828,-1,0,1,4,2,-1,-1,-1
1537909716204828,0,0,-11,-7,-1,-1,1,1
1537909716206823,0,-5,0,1,-1,0,-1,0
1537909716206823,-2,-1,0,6,-1,1,-1,-2
1537909716218791,-2,-2,-3,-15,2,0,1,-1
1537909716218791,-1,-5,-15,3,-4,-4,-2,0
1537909716227768,-2,-3,11,-29,-16,-6,-4,-2
1537909716227768,0,2,1,18,0,-2,-1,-1
1537909716241729,1,1,-14,-6,1,2,-1,0
1537909716241729,0,-1,4,-2,2,0,1,-1
1537909716248711,-2,-5,1,-9,2,2,-2,-2
1537909716248711,0,1,-6,-9,-5,-3,-2,-1
1537909716266664,-2,-3,-4,6,-1,-1,-3,0
1537909716266664,-3,-3,-5,-7,4,1,1,2
1537909716267661,-2,-3,11,12,3,5,1,-2
1537909716267661,0,6,-3,-9,-8,-6,-2,-1
1537909716278632,0,2,5,2,1,-1,-2,0
1537909716278632,0,-1,3,19,4,2,-1,-1
1537909716287610,1,-1,-6,-12,-3,-2,0,-1
1537909716287610,-1,-2,0,2,1,0,0,-1
1537909716301571,-1,0,-1,3,0,-1,0,-1
1537909716301571,-2,-4,-4,1,-1,-1,-1,-2
1537909716308551,1,2,1,3,4,2,1,2
1537909716308551,-2,-3,0,0,0,0,0,-2
1537909716324508,-6,-8,-6,-9,-6,-6,-2,-1
1537909716324508,-1,-6,-6,-4,-1,1,-1,0
1537909716332487,-13,-14,-3,-1,2,20,21,-34
1537909716332487,20,25,13,12,4,4,35,4
1537909716338471,8,0,1,2,7,77,18,75
1537909716338471,-5,13,4,0,-1,-23,37,-24
1537909716347446,0,-17,-4,3,-12,-11,36,41
1537909716347446,3,-4,-18,-16,-7,-72,-89,-2
1537909716362406,-28,-14,-5,-7,-13,-42,35,-6
1537909716362406,-15,7,9,5,18,112,-58,-57
1537909716370385,43,5,-2,-4,-4,-64,85,-82
1537909716370385,9,4,4,-2,-6,-31,-30,101
1537909716385345,-4,1,-14,-5,-2,-16,-1,-3
1537909716385345,-52,-29,-18,-17,-15,-55,-50,-3
1537909716386342,3,21,13,7,7,74,-3,-88
1537909716386342,16,9,8,12,20,49,42,-128
1537909716399307,14,0,1,-2,4,16,23,86
1537909716399307,47,5,2,4,4,35,44,74
1537909716407286,-18,-4,-1,1,1,-21,-30,-9
1537909716407286,-49,-24,-6,-3,0,30,17,-18
1537909716422246,-9,-1,-5,-11,-10,-39,-35,-56
1537909716422246,14,3,2,1,-2,-24,12,33
1537909716429228,1,-2,7,1,1,-12,-27,46
1537909716429228,-10,-3,-5,-4,-8,8,-10,-10
1537909716444188,-6,6,6,1,4,4,0,-25
1537909716444188,11,-1,3,2,-3,-32,-2,2
1537909716453164,-11,-1,-1,-3,-2,5,-35,19
1537909716453164,-1,-8,-4,2,7,30,24,34
1537909716468124,8,7,4,2,-2,-22,-27,-29
1537909716468124,0,1,0,-3,0,-4,2,-18
1537909716469122,-10,-2,-3,-3,-2,-1,-17,9
1537909716469122,2,2,2,4,3,33,51,38
1537909716481090,-10,-10,-5,-10,-11,-30,-63,-112
1537909716481090,6,6,-1,-3,-9,9,-13,-11
1537909716490066,-12,-4,-1,-1,0,-1,-10,21
1537909716490066,8,-2,-6,-2,-5,-13,1,0
1537909716505028,7,2,0,2,0,14,15,21
1537909716505028,-3,1,3,3,0,-2,6,-10
1537909716507021,2,3,-5,-4,-9,-19,-19,15
1537909716507021,1,-2,1,1,-5,-8,-9,1
1537909716518990,1,1,4,3,3,3,7,-6
1537909716518990,-2,0,0,0,3,-1,-1,-5
1537909716527966,6,0,0,-1,0,6,7,23
1537909716527966,-4,-3,-1,-2,-3,-9,-11,-13
1537909716541928,2,-4,0,0,3,11,6,7
1537909716541928,3,3,-3,0,1,-4,9,2
1537909716548908,-1,0,1,-1,-1,1,-6,5
1537909716548908,-3,-4,-2,-2,-1,-7,-8,-8
1537909716564865,2,3,2,-1,0,4,2,7
1537909716564865,-3,-6,-2,-1,1,-3,3,3
1537909716566860,-1,3,-1,-4,-7,-7,-5,-4
1537909716566860,-3,-3,-1,-1,-1,-2,-8,-6
1537909716587804,4,0,1,1,0,4,10,12
1537909716587804,-5,-5,-3,-3,-2,-6,1,-6
1537909716588801,-1,3,6,6,6,6,-3,4
1537909716588801,3,1,0,5,0,-3,1,1
1537909716601768,1,1,1,9,4,3,2,3
1537909716601768,-4,-3,-10,-32,-8,-6,-1,-4
1537909716608749,-1,-2,3,7,-2,1,-2,2
1537909716608749,-2,-2,-5,-29,-4,-3,-4,-2
1537909716624706,0,2,-5,12,0,1,1,-2
1537909716624706,-1,-2,-5,28,4,-3,-1,0
1537909716626702,1,2,13,-18,2,5,4,5
1537909716626702,-2,2,1,15,3,-4,-4,-3
1537909716647645,1,0,1,-5,0,2,0,1
1537909716647645,0,-4,-1,4,-4,-4,-1,0
1537909716649641,-1,-2,-8,7,3,2,-1,3
1537909716649641,-1,-1,4,3,4,1,-2,-4
1537909716661608,2,2,3,13,4,1,2,2
1537909716661608,2,1,-2,6,3,-2,1,0
1537909716670585,-4,-2,-9,-22,-8,-21,-2,-5
1537909716670585,-1,0,-1,-4,1,-21,-1,-2
1537909716685543,-1,-2,-7,-19,-7,-17,-2,1
1537909716685543,-3,-1,-5,4,-1,3,1,-3
1537909716686541,-3,-2,4,-15,-9,3,-7,-3
1537909716686541,-1,-1,-4,6,-7,2,0,-2
1537909716707484,0,1,-1,19,7,11,2,2
1537909716707484,1,3,-4,-28,-7,6,-2,1
1537909716709479,0,-1,-5,-9,3,10,-1,-2
1537909716709479,-1,-5,0,-18,-6,5,-3,-2
1537909716721446,-2,1,1,-6,-2,1,-1,-2
1537909716721446,-1,-2,3,6,2,2,-1,-1
1537909716730423,0,-2,-5,10,3,4,0,0
1537909716730423,-1,-3,-8,20,4,5,0,-2
1537909716745382,0,-1,-11,-27,-4,4,1,1
1537909716745382,-1,-2,7,-39,-14,-9,-2,-3
1537909716746380,0,0,6,39,3,0,-2,-2
1537909716746380,0,1,-9,-29,-1,1,-4,-1
1537909716767324,0,-2,14,4,-4,-3,-2,-1
1537909716767324,3,-3,-14,21,7,2,0,2
1537909716769319,-4,-2,29,4,4,4,-1,-2
1537909716769319,1,1,-7,-56,-9,0,-1,-2
1537909716781286,2,14,29,48,13,4,1,2
1537909716781286,-16,-25,-84,-42,-26,-17,-7,-13
1537909716790263,7,-1,56,-43,2,0,4,5
1537909716790263,-8,0,-6,33,-7,-6,-3,-3
1537909716805222,3,-33,-81,13,-4,1,3,7
1537909716805222,4,50,79,30,6,1,-1,-1
1537909716806220,-4,-14,18,-4,-3,-2,-4,-3
1537909716806220,-4,-2,-10,3,-1,-4,-4,-6
1537909716827164,6,0,-22,-7,0,1,2,2
1537909716827164,-1,-14,15,10,5,3,4,2
1537909716829159,-5,-16,-42,2,-3,-2,0,-2
1537909716829159,7,25,53,4,-1,-3,-2,2
1537909716841126,-5,5,25,-19,-12,-9,-7,-8
1537909716841126,6,-5,-19,1,13,8,7,6
1537909716850103,1,-5,-70,8,6,4,3,3
1537909716850103,-3,-18,4,7,-4,-1,-2,-2
1537909716865062,-4,7,4,-11,2,1,-1,-4
1537909716865062,1,2,25,4,-2,-3,-3,0
1537909716867057,-3,2,-11,0,-2,-1,-2,0
1537909716867057,0,-2,-12,13,5,4,4,-3
1537909716888001,-4,1,13,-16,-2,15,11,65
1537909716888001,17,-1,3,9,13,99,52,5
1537909716888999,-2,-6,-13,6,-15,-79,-43,-1
1537909716888999,17,2,-7,-7,4,115,55,19
1537909716900967,4,16,40,15,10,-37,61,-105
1537909716900967,-13,-4,-28,-29,-46,-93,-104,73
1537909716909943,11,13,4,1,5,33,-41,-109
1537909716909943,-16,-14,-3,-5,-2,45,48,-27
1537909716924904,-2,7,-1,3,1,-49,-26,116
1537909716924904,61,9,5,8,6,10,60,-85
1537909716926898,-17,2,-7,-14,-17,-38,74,-25
1537909716926898,-8,-11,-5,1,6,-7,-108,1
1537909716947843,11,0,5,9,3,24,15,65
1537909716947843,3,2,10,10,10,-19,7,33
1537909716948840,24,10,6,5,2,38,-2,37
1537909716948840,15,-4,-4,13,-6,-34,-2,-28
1537909716961804,-4,-10,-12,-19,-2,31,31,-87
1537909716961804,-11,-10,2,25,5,-14,-33,4
1537909716969782,-1,-2,-13,-11,5,27,33,52
1537909716969782,-22,-8,7,16,-4,-22,7,-1
1537909716984743,7,-2,4,-25,-11,-14,-45,-1
1537909716984743,-27,-11,-9,-11,3,10,7,-16
1537909716986737,-10,4,8,25,6,25,-8,-26
1537909716986737,4,10,6,-6,1,-39,-5,40
1537909717007681,-8,-7,-4,2,-4,10,-16,-6
1537909717007681,-12,-2,3,8,4,12,-14,-75
1537909717008679,-3,2,1,-5,-3,-6,5,44
1537909717008679,7,5,3,0,0,-19,-22,-7
1537909717021644,-3,-3,-3,-7,-1,15,-8,-2
1537909717021644,-6,3,-1,-8,4,10,9,-3
1537909717030620,6,4,8,5,3,-9,-11,20
1537909717030620,-18,-6,-4,-6,0,10,5,-39
1537909717045580,7,-9,-13,-3,-8,-9,-3,52
1537909717045580,-5,5,2,-5,-5,-10,-7,40
1537909717051564,1,0,2,-1,-3,2,-10,-21
1537909717051564,5,0,-5,5,1,-4,-6,28
1537909717067522,-16,0,-3,-2,-3,16,4,-31
1537909717067522,3,-3,-6,-2,2,-18,4,16
1537909717069518,1,-6,0,1,0,13,-1,31
1537909717069518,5,5,-5,-4,-3,1,10,7
1537909717081486,-1,1,2,3,4,6,-15,-25
1537909717081486,-8,1,4,1,-1,3,2,6
1537909717090463,-7,3,1,4,2,5,3,-20
1537909717090463,2,-3,-2,2,5,-6,5,6
1537909717105422,-5,-2,-3,-3,-2,-1,-5,-20
1537909717105422,-2,-2,2,-2,-3,7,5,-1
1537909717106419,0,-3,1,1,3,-1,4,8
1537909717106419,-1,0,-1,-2,-5,-7,-2,-5
1537909717127364,4,-2,0,0,-1,-1,-5,0
1537909717127364,-6,-1,0,4,4,11,3,-7
1537909717129359,2,1,4,-12,-4,-4,-6,-1
1537909717129359,-2,1,-3,-2,-2,-10,-1,2
1537909717141325,-4,-3,0,0,-6,3,-2,-21
1537909717141325,-1,-4,0,-4,4,4,1,5
1537909717150301,-4,-4,-9,6,2,-2,-4,-4
1537909717150301,-2,0,3,-10,-6,-2,3,-1
1537909717165260,-1,1,7,2,-1,-3,-1,-4
1537909717165260,-2,0,1,12,4,5,0,-3
1537909717167255,0,4,3,7,2,1,-2,5
1537909717167255,-2,-2,-3,1,2,-2,1,-4
1537909717187201,-1,-4,-3,1,1,1,-2,-5
1537909717187201,-1,-1,2,-8,-9,-7,-3,1
1537909717189197,-1,0,-2,17,4,3,1,-5
1537909717189197,2,0,1,-3,-4,-5,1,2
1537909717201164,-1,1,0,3,2,2,-3,-4
1537909717201164,-1,-1,-1,-4,-5,0,2,0
1537909717210140,-3,-4,-5,-12,-3,-1,0,1
1537909717210140,2,1,2,15,4,2,0,-1
1537909717226098,-3,-1,-2,18,0,-2,-1,-1
1537909717226098,-2,0,-6,-47,-7,-4,-1,-2
1537909717231084,-4,-2,4,13,-3,-4,-3,0
1537909717231084,1,0,-7,-18,-2,2,1,-2
1537909717248039,-1,3,15,11,-2,-2,-1,-4
1537909717248039,-1,-1,-9,-7,-1,-1,2,-1
1537909717249037,-1,2,6,-9,-4,-1,-2,-3
1537909717249037,2,1,2,20,7,2,3,2
1537909717261005,-2,-2,-15,-31,-7,0,-1,-1
1537909717261005,0,-1,4,10,2,2,0,-3
1537909717269982,-1,0,-4,-10,-1,-1,0,0
1537909717269982,0,-1,-1,17,-1,1,1,-1
1537909717284942,0,-2,-1,-20,-1,0,-3,-3
1537909717284942,-1,0,1,16,1,-2,-1,3
1537909717290926,-4,-3,-5,-2,-6,-3,-2,-5
1537909717290926,-1,-2,-4,-23,-3,-2,-2,-1
1537909717307880,-2,0,-2,4,0,1,-1,-4
1537909717307880,-1,0,0,-2,-2,-2,1,0
1537909717308877,0,0,2,16,7,0,1,1
1537909717308877,0,-1,1,-8,-3,-3,-2,0
1537909717320845,-1,-1,-3,-3,3,2,-1,-1
1537909717320845,-2,-2,0,13,0,0,-1,-1
1537909717329822,0,0,1,-7,-4,-2,-1,1
1537909717329822,-2,0,-3,-4,-1,-3,0,-3
1537909717344781,0,-1,0,1,1,-1,0,-1
1537909717344781,-1,-1,2,9,0,-1,-3,-1
1537909717351762,-1,-1,-5,-7,-2,1,-1,-3
1537909717351762,-1,0,3,-6,-6,-5,-3,-1
1537909717367721,1,-1,2,9,2,-2,0,0
1537909717367721,0,-2,2,-1,0,0,-2,-2
1537909717368719,1,-2,-4,-5,-6,-4,-1,0
1537909717368719,-1,-2,0,6,3,1,0,-2
1537909717381684,-1,-2,-2,0,0,0,-1,0
1537909717381684,-1,0,-2,0,-1,-1,0,2
1537909717390659,-1,0,0,-3,0,-1,-1,0
1537909717390659,-2,-1,-1,6,1,0,0,-1
1537909717405618,1,2,-3,-8,-3,-3,-1,1
1537909717405618,-1,-1,0,1,1,2,0,-2
1537909717406616,-3,-2,2,3,3,2,1,-2
1537909717406616,0,-1,-2,-4,-4,-3,-1,-1
1537909717427559,-2,-2,-1,0,1,0,1,0
1537909717427559,-1,-1,0,1,-1,0,-1,-3
1537909717429554,0,-1,-1,-1,0,0,0,0
1537909717429554,0,2,1,0,0,-1,0,-1
1537909717449500,0,0,-1,-4,-3,-4,-2,-1
1537909717449500,-1,-2,0,3,2,0,0,-1
1537909717457479,-1,-1,1,-1,-2,1,0,-2
1537909717457479,-2,-2,-1,1,1,-2,0,1
1537909717463463,-1,-3,1,2,2,3,0,1
1537909717463463,-2,0,0,1,-2,-2,-2,-2
1537909717472439,1,0,2,28,12,1,2,0
1537909717472439,-3,-3,-13,13,3,1,-2,-1
1537909717487399,-6,-2,7,18,-15,-14,-8,-7
1537909717487399,4,1,-22,35,23,12,10,9
1537909717489394,-8,-5,11,-61,-48,-21,-16,-11
1537909717489394,0,-6,-22,123,38,10,5,3
1537909717510338,1,10,-6,-119,-61,-3,-1,-2
1537909717510338,0,-5,21,115,7,-8,-1,-2
1537909717511335,2,-1,-5,111,17,10,5,4
1537909717511335,-5,6,-21,-124,-54,-9,-7,-6
1537909717523304,1,-22,92,127,37,3,2,1
1537909717523304,1,-22,-41,2,15,6,1,0
1537909717532280,-1,1,-72,-77,-24,-4,2,5
1537909717532280,-8,-13,59,107,48,6,0,0
1537909717547241,1,-82,-62,-105,-52,-7,1,3
1537909717547241,-7,18,-37,-11,11,17,14,7
1537909717549238,3,22,106,-8,-23,-12,-12,-1
1537909717549238,12,-7,-128,47,26,-4,-4,-3
1537909717570179,-1,24,118,-46,18,7,-2,0
1537909717570179,-7,-64,120,-36,-19,-2,-8,-10
1537909717571177,-5,-76,-60,-35,18,13,8,1
1537909717571177,-4,51,94,-122,-102,-38,-18,-13
1537909717584143,-2,-70,-108,83,83,22,17,8
1537909717584143,-4,22,-128,-96,-45,-10,-5,-4
1537909717593118,22,80,97,124,83,23,15,17
1537909717593118,-6,19,-51,-72,-55,-13,-4,-3
1537909717608078,9,83,24,-21,5,3,7,7
1537909717608078,-7,18,67,-7,28,9,-6,-5
1537909717609074,-13,-49,-114,-51,-40,-16,-11,-10
1537909717609074,-3,-34,4,12,31,10,8,5
1537909717630018,-7,21,36,54,20,-2,-8,-8
1537909717630018,-19,20,49,-70,-41,-28,-18,-19
1537909717632013,13,77,-39,82,37,18,21,11
1537909717632013,14,23,15,-19,57,27,19,16
1537909717643981,-11,-96,-57,-64,-48,-17,-13,-12
1537909717643981,4,-111,92,100,22,-4,-6,2
1537909717652957,8,-128,-23,28,28,4,3,2
1537909717652957,-4,-85,-22,-33,-23,-1,-7,-8
1537909717667917,15,76,53,47,38,11,8,7
1537909717667917,11,-16,-78,43,26,4,6,2
1537909717668915,1,52,-21,-62,-41,-16,-4,-6
1537909717668915,4,75,-46,60,47,13,9,8
1537909717689858,-10,79,21,-71,-73,-20,-16,-11
1537909717689858,-2,45,-18,35,6,3,3,3
1537909717691854,-5,76,66,-39,-6,1,-2,-2
1537909717691854,-7,7,11,-15,-11,-3,-5,-4
1537909717703821,-8,-66,-63,29,18,3,-2,-4
1537909717703821,1,21,-59,-19,-8,-5,1,3
1537909717712797,-6,-23,24,-14,-3,-1,-4,-5
1537909717712797,0,-43,70,-7,-20,-10,-6,-2
1537909717728754,4,42,-88,23,10,4,3,3
1537909717728754,5,-7,15,-17,-11,-1,0,3
1537909717730749,-6,-8,11,10,-8,-4,-6,-5
1537909717730749,1,0,15,45,13,5,2,-1
1537909717749698,1,18,23,3,-1,0,-1,-1
1537909717749698,3,21,-13,-10,-2,-1,0,1
1537909717751693,-6,21,-4,-17,-9,-8,-8,-8
1537909717751693,-4,33,3,3,1,1,2,-2
1537909717763661,0,-22,-19,-7,-2,-1,-1,0
1537909717763661,-1,20,-1,-18,-10,-2,0,1
1537909717772637,-2,-4,24,6,2,1,-1,1
1537909717772637,-1,-19,3,-9,-4,-3,-2,-1
1537909717787596,-1,-20,0,11,-2,1,-2,-2
1537909717787596,3,30,6,3,-3,-1,1,-1
1537909717788594,5,-4,2,-5,1,24,15,12
1537909717788594,3,-36,1,3,1,6,26,-8
1537909717810535,-5,65,-18,-6,-5,-15,-11,-36
1537909717810535,17,110,16,-21,-14,-40,-17,-14
1537909717811532,13,124,-13,5,1,-2,-18,32
1537909717811532,1,72,5,8,7,61,-5,21
1537909717823500,12,15,22,12,10,-18,11,-14
1537909717823500,-1,105,-3,-15,-3,-17,17,25
1537909717832477,-36,23,-12,-15,-11,-25,-38,-38
1537909717832477,-1,28,3,5,0,3,-21,-38
1537909717847436,5,17,4,6,7,29,23,51
1537909717847436,6,-101,-3,2,3,32,19,-6
1537909717849432,4,-116,-7,7,6,5,7,26
1537909717849432,-8,-68,14,3,16,2,4,-6
1537909717870376,-8,-4,59,48,-4,10,8,-1
1537909717870376,-9,-87,-72,-67,-45,-26,-19,0
1537909717871373,-1,-55,34,30,20,8,8,-18
1537909717871373,-5,-110,-56,-24,-28,-31,-6,-5
1537909717885337,5,-73,-43,5,0,-11,-16,0
1537909717885337,-7,-77,126,41,13,9,-2,1
1537909717893315,3,-54,-106,-5,-14,-6,12,-7
1537909717893315,3,-79,-44,3,9,-5,2,10
1537909717907278,-7,-54,27,12,-6,-8,-3,6
1537909717907278,6,-1,-62,14,6,14,5,-1
1537909717909274,-6,-21,93,4,-4,-4,1,-10
1537909717909274,4,26,47,17,4,-14,-6,9
1537909717930217,-4,-15,2,-24,-4,-1,-7,-9
1537909717930217,-10,-41,-19,-27,0,1,-5,-11
1537909717931215,3,0,-45,7,3,-5,-2,-3
1537909717931215,3,30,-14,-7,-3,-8,5,9
1537909717944179,-4,-1,-2,-18,-4,-1,-7,-7
1537909717944179,-1,47,38,21,9,9,-1,-2
1537909717953156,1,55,54,3,0,-3,0,1
1537909717953156,-5,64,-28,-27,-14,-8,-5,-9
1537909717968115,3,44,-58,1,4,5,5,4
1537909717968115,0,37,28,5,6,1,-2,3
1537909717969113,4,22,13,13,1,4,5,-2
1537909717969113,-5,1,1,-24,-11,-11,-4,-3
1537909717990057,-9,-10,16,-8,-6,-5,-8,-7
1537909717990057,7,10,26,35,9,7,8,9
1537909717996041,-3,-18,-17,-40,-10,-3,-2,-3
1537909717996041,0,-9,54,42,7,-1,-1,2
1537909718004018,-4,10,40,-2,-5,-5,-4,-2
1537909718004018,-5,-35,-65,-38,-8,-2,-4,-5
1537909718012994,-1,-7,5,-5,-2,0,2,-3
1537909718012994,0,11,60,0,1,-2,0,2
1537909718027954,2,-1,-37,0,5,3,2,0
1537909718027954,-8,13,92,3,-10,-5,-7,-7
1537909718028953,2,6,-90,-9,-2,-3,-1,0
1537909718028953,4,17,-23,-5,2,2,6,5
1537909718050893,-2,6,33,8,2,2,-1,0
1537909718050893,2,18,-20,-8,1,-1,0,0
1537909718051891,-5,-7,1,-14,-2,-3,-4,-2
1537909718051891,-2,-6,-4,5,-5,-3,-2,-2
1537909718063859,2,-8,-14,-7,4,2,2,1
1537909718063859,1,-4,-12,-5,-7,-1,2,-3
1537909718072836,-8,-14,3,5,5,35,44,-24
1537909718072836,11,-9,3,10,7,11,26,75
1537909718086799,2,-14,-3,-4,2,27,-35,-47
1537909718086799,-5,-19,-36,-6,-10,-60,-26,107
1537909718094777,9,-5,27,18,4,-6,86,-91
1537909718094777,-12,0,-25,-28,-34,-114,-78,-7
1537909718109738,38,29,-6,-3,23,109,65,68
1537909718109738,3,-15,-7,-3,-7,-94,61,-52
1537909718111732,-19,9,8,-16,-12,-16,45,-17
1537909718111732,-26,14,10,-1,-11,-101,-46,-105
1537909718123700,-51,-3,-28,-21,-14,8,-110,6
1537909718123700,5,18,-12,4,16,127,71,106
1537909718132676,39,22,15,3,6,34,90,88
1537909718132676,-13,-7,-7,-10,2,64,-33,-57
1537909718147636,57,14,11,15,-14,-128,-39,-88
1537909718147636,-38,27,-4,-2,3,43,-77,-99
1537909718148634,3,-7,2,8,3,41,-37,36
1537909718148634,25,6,6,11,13,61,92,92
1537909718170575,14,-26,2,4,11,64,65,42
1537909718170575,-7,-53,-3,5,-9,-29,-4,-31
1537909718171573,1,-40,-10,-7,-11,-15,-46,19
1537909718171573,-16,-21,-10,-4,4,-15,-7,-1
1537909718183540,-34,5,-6,-9,-11,-34,6,-9
1537909718183540,28,-1,-8,-1,2,-16,2,7
1537909718192514,-22,-35,-2,-12,-5,-23,-59,-11
1537909718192514,6,-39,13,5,4,24,12,-11
1537909718207474,-16,-37,-7,-1,-4,-27,9,0
1537909718207474,6,1,-2,0,-4,-2,-5,-17
1537909718213458,0,17,7,5,4,-6,-26,-1
1537909718213458,-6,16,1,4,-1,-2,9,-3
1537909718230413,7,34,1,-5,-3,-9,15,15
1537909718230413,-4,35,0,2,7,15,-10,-9
1537909718231410,-11,26,3,-2,2,-15,-22,-11
1537909718231410,9,22,-6,-7,-2,9,12,9
1537909718254349,-7,6,-3,-7,1,3,3,1
1537909718254349,2,1,4,-3,4,5,1,-11
1537909718255346,-3,4,-3,-5,-4,-18,-14,-3
1537909718255346,11,17,3,-3,-2,16,4,2
1537909718267314,-2,2,0,2,1,6,10,3
1537909718267314,-3,5,-3,0,-1,-9,-3,-5
1537909718273299,5,6,-4,-5,-10,-13,-11,4
1537909718273299,0,-4,2,7,1,15,1,0
1537909718290253,-6,-9,1,5,0,6,6,-1
1537909718290253,-1,-5,-2,5,-2,0,2,2
1537909718291251,-2,-5,1,2,1,-1,-12,-2
1537909718291251,1,-6,0,2,-1,8,5,-1
1537909718304216,-5,-14,-3,0,0,-3,5,0
1537909718304216,-1,-9,0,1,0,2,-1,-2
1537909718313192,-2,-6,-2,0,-1,-2,-6,1
1537909718313192,-4,-8,1,-2,1,-1,0,-2
1537909718327156,1,-5,-1,-1,-1,-7,3,4
1537909718327156,-1,-3,0,-2,1,2,-2,-1
1537909718334138,-2,1,0,4,0,-5,-4,-1
1537909718334138,3,1,-1,0,3,2,4,4
1537909718350094,-3,-3,0,-4,-2,-1,2,-1
1537909718350094,0,0,-1,-9,-1,-2,-1,-4
1537909718352089,-1,-1,-4,31,9,-1,-2,-2
1537909718352089,0,-3,-9,-60,-16,-1,-3,-1
1537909718374031,-3,-2,6,19,-4,-9,-1,-2
1537909718374031,0,3,-3,-4,1,-4,1,1
1537909718376026,-1,2,-2,4,2,0,-2,-1
1537909718376026,-1,-1,-7,25,7,3,-1,0
1537909718385998,-1,-3,-2,2,0,0,-1,-2
1537909718385998,-1,0,-3,-26,-14,-5,0,0
1537909718394974,-2,1,2,-1,0,1,-4,0
1537909718394974,0,-2,1,9,2,1,0,-2
1537909718409936,0,1,-3,-13,-5,-2,2,1
1537909718409936,1,1,2,18,6,2,-1,-1
1537909718411930,0,-1,-2,-2,3,1,-2,1
1537909718411930,-2,0,6,-3,-6,-2,0,0
1537909718432873,2,1,-3,-8,2,1,0,0
1537909718432873,-2,-4,-3,19,2,1,-2,-1
1537909718433870,-1,-1,0,-22,-6,-3,-2,-2
1537909718433870,0,0,3,6,1,-2,-1,1
1537909718445837,-1,-1,-6,-2,1,-2,-1,0
1537909718445837,1,0,-2,6,1,1,0,-2
1537909718454813,-1,2,2,-11,-3,-3,-2,0
1537909718454813,-1,-3,4,48,6,1,-1,-1
1537909718469773,-2,-2,-5,-68,-12,-2,-1,-2
1537909718469773,-1,-1,-3,6,-1,-4,-2,-3
1537909718471768,1,1,-1,-1,-2,-2,-3,0
1537909718471768,0,-2,0,10,3,0,1,2
1537909718492711,-1,-1,0,20,4,1,0,0
1537909718492711,-1,-8,-1,-5,-2,0,0,-1
1537909718493709,-1,-2,0,-2,-4,-1,-1,-2
1537909718493709,-1,-1,-1,-7,-2,-2,0,-1
1537909718506674,-1,1,2,8,1,0,2,-2
1537909718506674,-1,1,-1,-11,-1,0,-1,-1
1537909718515650,-1,-2,0,5,0,-1,-1,-1
1537909718515650,-1,-1,-4,-11,0,0,0,0
1537909718529613,-1,0,0,7,2,-1,-2,2
1537909718529613,-2,2,1,2,-2,2,-2,-1
1537909718531608,-1,-2,-3,-4,-2,-1,-1,-1
1537909718531608,-1,0,0,-6,1,-1,-1,-1
1537909718552552,-3,-2,0,8,0,-1,1,0
1537909718552552,-2,-1,1,1,0,-2,-2,-1
1537909718554546,0,0,-6,0,3,1,1,1
1537909718554546,1,0,5,-11,-6,0,-2,-2
1537909718566515,1,2,8,9,0,-3,-1,-2
1537909718566515,-1,-1,1,0,4,2,1,0
1537909718575491,0,-2,0,7,-2,-4,-3,0
1537909718575491,-1,-1,-10,-13,-2,0,0,0
1537909718590452,-2,-1,-5,4,0,-1,-2,-2
1537909718590452,0,0,2,0,0,0,0,1
1537909718591450,-2,-4,-1,-4,1,-1,0,-1
1537909718591450,-1,-2,-1,-8,-3,-3,1,-2
1537909718612393,0,0,-1,-5,-2,-1,-1,-1
1537909718612393,-2,-1,-3,-2,-1,-1,-2,-1
1537909718614388,-1,0,0,-3,-2,-1,0,-1
1537909718614388,-1,0,0,2,2,0,0,0
1537909718626354,1,-1,-2,-1,-3,-2,-1,-1
1537909718626354,1,2,-3,-1,-1,-1,0,0
1537909718635331,1,-1,0,0,-1,2,0,1
1537909718635331,-1,-2,-1,1,0,-1,0,-2
1537909718650291,-1,-3,0,8,3,1,-1,0
1537909718650291,-1,-4,1,3,2,-1,1,-2
1537909718651288,0,1,-1,13,3,-1,-1,0
1537909718651288,-3,0,5,-9,-3,0,-3,-1
1537909718672232,-1,-2,-1,0,-3,-3,-1,-1
1537909718672232,1,-1,-1,-2,-2,-2,0,-1
1537909718674227,-1,-2,-3,-2,1,1,1,-1
1537909718674227,-1,-1,-2,12,5,0,1,0
1537909718686194,-1,-1,-1,6,1,1,0,-1
1537909718686194,1,-5,-3,10,4,1,-1,1
1537909718695171,-1,21,5,-25,-8,-2,-4,-3
1537909718695171,2,19,-2,28,9,3,1,0
1537909718709134,-8,-52,-5,-30,-4,3,-1,-4
1537909718709134,-3,-6,-15,-45,-9,-10,-4,-5
1537909718716115,2,15,-25,-7,-12,-2,1,1
1537909718716115,-1,-29,17,13,0,-2,-1,0
1537909718733070,8,48,4,49,15,3,0,3
1537909718733070,-9,-43,-3,-40,3,6,-1,-3
1537909718734067,-8,-14,-13,14,-8,-8,-4,-7
1537909718734067,1,5,-18,-5,-2,0,1,0
1537909718746035,0,-9,16,17,3,-3,0,0
1537909718746035,1,13,-4,95,23,7,1,2
1537909718755011,-4,-12,-3,-96,-38,-11,-8,-6
1537909718755011,-2,21,-20,58,5,-7,-3,-5
1537909718769971,-2,-21,-60,-17,9,5,4,1
1537909718769971,2,32,13,-59,-45,-15,-4,-2
1537909718771966,4,-18,-27,33,33,13,7,7
1537909718771966,-8,-16,45,46,2,3,-9,-6
1537909718792910,5,16,-80,-80,-73,-21,-2,-3
1537909718792910,-2,-20,-8,88,30,11,9,4
1537909718793908,3,15,16,10,-17,-6,0,0
1537909718793908,3,-1,64,40,15,6,3,4
1537909718805875,-3,3,28,13,22,8,-3,-1
1537909718805875,-1,21,17,-37,-2,-2,-7,-2
1537909718814851,-8,-34,-7,54,-8,-3,-3,-7
1537909718814851,-4,-4,-121,-54,-1,-4,-1,-1
1537909718830809,5,9,103,-77,-53,-22,-5,-3
1537909718830809,12,7,-8,27,22,3,5,6
1537909718831806,1,28,61,70,32,11,5,7
1537909718831806,-1,-38,43,-95,-30,-3,-16,-7
1537909718852750,-15,23,-128,46,5,-6,-10,-14
1537909718852750,0,-14,-49,-6,-25,-10,5,2
1537909718853747,7,31,55,20,24,9,10,5
1537909718853747,4,-12,-53,13,11,5,-6,2
1537909718866712,-10,-7,63,-58,-71,-26,-16,-8
1537909718866712,-4,6,61,55,7,1,-10,-7
1537909718875688,-13,-26,-105,-8,5,3,2,-2
1537909718875688,6,8,30,20,8,9,8,2
1537909718889651,2,8,12,28,38,14,-3,-1
1537909718889651,-1,38,77,-17,-9,-9,-10,-8
1537909718891646,-5,1,-94,-38,-6,-11,-8,-7
1537909718891646,12,32,25,0,3,3,10,7
1537909718911592,-2,1,-11,36,41,13,15,10
1537909718911592,0,-10,-31,-64,-36,-7,3,1
1537909718920569,-1,37,127,18,51,17,0,-2
1537909718920569,-13,-18,-33,-91,-86,-22,-12,-11
1537909718926553,11,-10,-79,51,25,0,10,5
1537909718926553,1,-55,-34,2,27,10,4,5
1537909718935530,5,-12,60,-14,-32,-13,-2,2
1537909718935530,2,-61,3,15,17,6,4,2
1537909718950489,2,-43,57,-10,4,5,-1,1
1537909718950489,-6,-45,17,-7,-9,-4,-2,-3
1537909718951487,5,-8,-82,-3,7,7,0,2
1537909718951487,-1,10,11,11,8,-1,1,0
1537909718974425,-4,28,-34,10,1,-1,-4,-3
1537909718974425,0,27,27,17,3,-2,-1,-1
1537909718975424,3,60,20,-11,-9,-5,-3,-2
1537909718975424,-5,22,-13,7,8,-1,2,-2
1537909718986393,-1,0,-17,16,15,6,4,3
1537909718986393,-3,5,-17,-9,-20,-1,-2,2
1537909718995370,-2,-4,11,-19,-2,-1,-4,-1
1537909718995370,-5,-3,-19,-5,0,-5,-3,-3
1537909719009332,2,15,40,7,7,7,2,2
1537909719009332,-5,-4,-17,-5,-2,-2,-3,-4
1537909719016313,4,-5,-10,21,-5,-3,-1,-1
1537909719016313,0,17,8,14,7,-1,-1,1
1537909719032271,0,-12,20,13,13,4,2,2
1537909719032271,0,9,-19,-2,8,3,2,-2
1537909719034267,-2,-26,-12,-13,-16,-6,-3,-1
1537909719034267,0,11,6,4,9,2,3,0
1537909719046233,-1,-7,22,-2,-2,0,-2,-1
1537909719046233,-2,11,-13,3,1,0,1,0
1537909719055210,-2,-5,10,-3,-1,0,-1,-2
1537909719055210,-1,-3,7,-2,-4,-2,0,1
1537909719070169,-3,5,-4,-1,-3,0,0,-1
1537909719070169,1,1,1,5,5,0,-2,-2
1537909719071166,-3,-28,1,4,3,1,-1,0
1537909719071166,1,4,-6,-3,-4,-4,-1,-1
1537909719092109,-1,-11,4,1,-2,-1,-1,-1
1537909719092109,-1,11,0,0,4,0,0,0
1537909719094104,-1,7,0,-2,-3,0,1,0
1537909719094104,-1,34,-3,9,8,2,1,-2
1537909719106072,2,34,12,-12,-1,0,1,2
1537909719106072,-1,18,4,10,-3,-3,0,0
1537909719115048,-3,-2,-12,-9,-2,-4,-3,-2
1537909719115048,-1,-8,5,6,1,-3,-1,-1
1537909719129011,-1,-24,2,3,3,1,-1,-3
1537909719129011,2,-5,-5,-5,-1,1,0,-1
1537909719135992,-2,-19,-4,-11,-1,2,0,1
1537909719135992,2,0,4,-4,-9,-1,0,-1
1537909719152948,-1,-22,6,2,0,-1,0,-2
1537909719152948,-1,-32,-7,-2,-4,-2,0,1
1537909719153947,-1,-8,-2,-6,-4,-4,-3,-1
1537909719153947,-4,-18,5,10,8,3,0,-1
1537909719165914,1,1,3,-2,-8,-5,-3,-1
1537909719165914,1,-6,-8,-18,-8,-2,0,0
1537909719174890,-2,-21,11,-3,-6,-3,-1,-2
1537909719174890,0,2,-29,-7,2,1,2,1
1537909719188852,-3,-1,0,-11,-6,-3,-1,-1
1537909719188852,1,-1,6,51,14,4,2,1
1537909719196832,0,1,-3,-39,-20,-7,0,0
1537909719196832,-5,-1,8,5,0,-1,-2,-2
1537909719211791,0,-13,-12,0,0,1,-1,0
1537909719211791,-1,8,15,8,10,3,0,-2
1537909719212794,1,4,-5,-20,-19,-5,-3,-1
1537909719212794,1,6,-17,6,0,-1,1,0
1537909719234728,-1,-5,3,2,1,1,1,0
1537909719234728,-3,-9,-6,-6,0,-2,-1,-1
1537909719234728,-2,-2,10,21,8,0,0,-2
1537909719234728,0,3,8,-13,-3,-3,-2,-2
1537909719248691,0,3,-2,3,0,-1,0,0
1537909719248691,0,9,-5,-13,-5,-1,-1,-2
1537909719256670,0,0,-1,9,3,-1,-2,-1
1537909719256670,0,-4,1,-4,-1,-2,-2,-1
1537909719271629,-1,6,0,5,0,0,-2,-3
1537909719271629,1,4,0,-9,-6,-1,-1,-1
1537909719272627,-1,-5,-6,9,6,1,-1,-2
1537909719272627,-3,0,3,2,-2,1,1,-2
1537909719294568,-2,1,5,4,0,-1,-2,-1
1537909719294568,2,5,-8,-17,0,2,1,1
1537909719295566,-4,-1,-2,16,-7,-5,-3,-3
1537909719295566,0,-2,2,-2,-1,-2,-1,0
1537909719308531,2,2,4,-1,-4,-4,-1,0
1537909719308531,-2,0,-6,0,3,2,-2,-3
1537909719324489,1,7,-2,4,1,0,-1,0
1537909719324489,-2,-4,4,-3,-1,-2,1,-2
1537909719331471,-1,2,-3,3,-2,-1,0,-1
1537909719331471,0,-3,1,-4,-2,-1,-2,1
1537909719332469,0,-6,-2,3,4,4,2,0
1537909719332469,-2,3,2,-3,-2,-1,-2,-2
1537909719354410,0,-2,-2,-2,0,2,-2,1
1537909719354410,1,-1,-8,-10,3,0,-1,-2
1537909719355408,-3,4,9,5,-5,-1,0,-1
1537909719355408,4,29,-3,32,13,4,2,3
1537909719369369,-6,-57,-3,-64,-15,-4,-2,-5
1537909719369369,1,26,22,36,8,0,2,1
1537909719370368,1,-9,-8,-37,-24,-6,-1,0
1537909719370368,6,28,-16,39,25,3,0,-2
1537909719393306,-1,6,7,-37,-12,-4,-2,0
1537909719393306,-5,-46,-8,80,-1,-5,-2,-2
1537909719394304,1,19,30,-29,17,2,0,0
1537909719394304,-2,6,56,4,-9,3,2,4
1537909719414252,5,0,-80,74,34,11,5,3
1537909719414252,-9,-42,-31,-20,24,9,0,-6
1537909719415248,15,53,96,79,30,13,3,5
1537909719415248,-12,-4,72,31,-16,-21,-13,-11
1537909719429210,-6,-43,-76,-49,-22,-6,-2,-6
1537909719429210,-6,24,-28,-65,-48,-30,-8,-5
1537909719437189,9,-42,-128,45,70,30,16,12
1537909719437189,9,82,79,26,54,23,5,5
1537909719452149,3,-20,20,-50,-71,-30,-9,-3
1537909719452149,-1,12,10,67,64,20,1,-1
1537909719453146,-12,-2,-26,-126,-111,-30,-14,-11
1537909719453146,-1,-51,-62,48,63,20,7,2
1537909719474091,4,87,127,-17,21,12,-2,1
1537909719474091,-7,-6,-90,-41,-100,-41,-11,-10
1537909719475089,1,6,47,28,48,12,3,2
1537909719475089,-8,-51,-23,12,-26,-4,-3,-3
1537909719489049,3,16,16,21,51,20,9,4
1537909719489049,3,-13,61,-9,-23,0,-1,1
1537909719490048,5,-28,-48,5,-10,-6,-2,1
1537909719490048,-4,-66,-50,-1,-3,-7,-1,-2
1537909719511987,-1,-27,38,56,26,3,-2,-2
1537909719511987,8,57,-80,-33,11,10,2,2
1537909719512985,-4,13,87,65,14,1,2,-2
1537909719512985,-1,-6,-2,-128,-61,-16,-7,-4
1537909719533928,-1,66,-44,1,0,0,0,0
1537909719533928,-7,-16,40,-3,25,9,1,0
1537909719534926,-5,5,-15,-8,-36,-17,-7,-7
1537909719534926,0,4,-54,-6,-6,-6,1,0
1537909719548888,-6,-18,13,26,-11,-6,-1,-1
1537909719548888,2,3,30,5,13,1,2,4
1537909719549886,-4,6,-1,-7,12,4,-3,-1
1537909719549886,-1,5,-1,-17,-21,-6,-2,-2
1537909719571827,-1,-1,-27,13,-1,-3,-1,0
1537909719571827,2,5,34,3,1,2,-1,1
1537909719572824,-3,-5,-25,4,5,0,0,-3
1537909719572824,0,-7,-10,-12,-9,-4,-1,0
1537909719594765,-1,-10,12,14,5,2,0,0
1537909719594765,4,-2,3,-15,-1,-1,-1,-1
1537909719594765,-4,-15,-13,-8,-6,-6,-2,0
1537909719594765,2,7,4,-1,3,1,-1,-1
1537909719609725,-2,18,-4,-4,-3,-4,-2,1
1537909719609725,-1,4,8,-2,-1,3,0,-1
1537909719616707,-2,-5,-14,1,5,3,0,-3
1537909719616707,0,4,8,-8,-10,-6,-2,-1
1537909719631667,-1,-7,-10,3,-2,-2,0,-1
1537909719631667,0,-4,1,-1,4,2,1,0
1537909719632664,-2,13,3,3,3,1,0,-2
1537909719632664,-2,16,-3,-9,-1,0,0,-1
1537909719654605,-2,7,-3,0,-5,-3,-4,-2
1537909719654605,1,13,5,4,4,0,0,0
1537909719661587,1,-4,-2,-4,-2,-2,-1,0
1537909719661587,-1,-11,-1,-2,-3,0,-1,-2
1537909719669566,-2,-20,-6,4,-4,-1,-1,-2
1537909719669566,1,-18,4,2,2,3,0,1
1537909719670564,-2,-14,-5,-4,-2,-2,-2,-2
1537909719670564,-2,-3,2,0,-3,-3,-2,-1
1537909719691508,0,-7,-2,0,0,0,0,-1
1537909719691508,-1,-4,-1,-4,-1,0,0,-2
1537909719692505,1,-4,-2,-2,-4,-4,0,-1
1537909719692505,2,4,-1,0,2,2,1,-1
1537909719714446,-2,-3,1,3,2,-1,0,-2
1537909719714446,0,0,0,2,-4,0,0,-1
1537909719715444,-2,-1,-8,-2,7,4,-1,-2
1537909719715444,1,7,3,-2,-11,-3,0,0
1537909719728409,-1,3,-3,16,-4,-3,-2,-2
1537909719728409,-2,-2,0,-1,3,1,0,1
1537909719737384,-1,-4,0,0,0,2,-2,-1
1537909719737384,0,-9,0,18,12,5,1,0
1537909719752345,-1,-5,-5,-25,-4,-1,0,-1
1537909719752345,-5,-9,3,1,-3,-3,-2,-3
1537909719752345,-1,-5,-3,-4,-5,-3,0,1
1537909719752345,-2,-5,-1,7,3,3,-1,0
1537909719774286,0,-2,-1,2,-3,-1,-1,-1
1537909719774286,0,0,3,0,2,2,-1,-1
1537909719782265,-1,-3,0,1,-1,0,0,0
1537909719782265,-2,-4,-2,-7,-4,2,0,0
1537909719790246,-1,1,0,-4,-3,0,-1,0
1537909719790246,-2,-4,-3,4,3,1,0,0
1537909719797226,-2,-1,-3,-9,-14,-9,-4,-2
1537909719797226,-2,1,-2,-8,-4,-2,-1,0
1537909719812186,1,0,0,6,6,2,0,1
1537909719812186,-1,0,0,1,6,0,0,1
1537909719813183,0,-2,1,7,4,1,0,-1
1537909719813183,-2,-1,1,1,0,-2,-1,-2
1537909719834126,-1,-2,-2,0,1,-2,0,0
1537909719834126,0,2,-3,-8,-9,-5,-3,-2
1537909719835124,-1,1,-2,-1,1,1,0,0
1537909719835124,1,0,-3,-11,-3,-4,-2,1
1537909719849086,-1,-1,1,3,1,-1,-1,-2
1537909719849086,-1,1,-1,-3,-4,-3,-1,-3
1537909719850084,-2,2,-2,-5,-2,-2,-1,1
1537909719850084,1,-2,-2,0,3,0,1,0
1537909719872024,-1,-1,-1,1,-1,-2,-1,-1
1537909719872024,0,2,1,0,-3,-1,1,0
1537909719873022,-3,-1,-1,-1,3,0,-1,-2
1537909719873022,-2,-1,0,-1,-2,-1,0,1
1537909719893966,-1,1,-1,-1,-1,-1,-1,1
1537909719893966,1,-1,0,1,-1,-1,-2,-1
1537909719894964,3,-2,0,-1,1,0,-1,0
1537909719894964,1,-2,-3,1,-1,-1,-1,-2
1537909719909923,-5,-3,2,-9,0,1,-1,-2
1537909719909923,0,-3,-4,4,3,3,-1,1
1537909719916904,-1,-2,4,11,-8,-5,-2,-4
1537909719916904,1,2,-3,-3,1,2,-1,-1
1537909719931864,1,-3,1,2,3,2,0,0
1537909719931864,0,0,-5,-16,-13,-6,-2,0
1537909719932862,1,0,-3,-4,1,0,-1,-2
1537909719932862,-1,-1,17,1,-5,-2,-1,0
1537909719954803,-2,-1,-19,-1,-2,-3,-1,-1
1537909719954803,2,-2,16,1,4,-1,-2,-5
1537909719954803,0,2,1,11,3,0,1,3
1537909719954803,-7,-3,-21,-30,-10,-5,-3,-4
1537909719968766,-1,-4,-20,7,3,0,1,-1
1537909719968766,-3,-1,14,-3,-1,-3,-2,-2
1537909719976744,0,-5,-2,-8,1,0,-2,1
1537909719976744,5,-3,-10,8,4,3,-1,5
1537909719991705,-2,5,50,8,-6,-4,-2,-1
1537909719991705,-1,4,16,0,-1,-3,-4,-6
1537909719999683,-15,3,-15,-1,-1,-4,-2,-10
1537909719999683,10,5,32,9,5,5,5,7
1537909720014644,6,-10,-34,-13,-5,0,4,8
1537909720014644,2,1,18,23,4,3,1,3
1537909720015642,-1,9,41,-1,-4,0,-4,-3
1537909720015642,1,3,-18,-2,-2,-3,-5,-1
1537909720028607,-22,-6,24,2,1,-1,-9,-22
1537909720028607,0,-2,-18,-11,0,-1,1,3
1537909720036586,20,0,-42,-9,-2,1,9,18
1537909720036586,-9,0,-16,-13,0,-3,1,-4
1537909720051546,-3,-4,35,11,-3,-7,-11,-12
1537909720051546,-2,0,-13,-4,3,2,6,8
1537909720052543,-4,2,24,6,-1,-2,-4,-5
1537909720052543,9,6,7,-2,1,3,6,12
1537909720074484,2,-13,-88,-29,-2,2,7,8
1537909720074484,-3,-6,35,9,-2,-2,0,-1
1537909720075481,-21,-5,-4,-1,0,-2,-18,-27
1537909720075481,-2,14,61,17,1,2,-7,-13
1537909720088446,-13,6,29,11,0,4,-3,-7
1537909720088446,11,-5,-25,-1,0,4,12,20
1537909720096424,30,-5,-80,-11,4,6,28,35
1537909720096424,0,-14,58,15,6,-7,-14,11
1537909720111384,-8,3,-37,-22,-19,-12,-26,-28
1537909720111384,-11,-3,-27,-9,-4,-3,-18,-19
1537909720112382,3,10,71,-7,3,-4,-5,-6
1537909720112382,-24,-9,-56,21,10,4,14,8
1537909720134323,49,6,11,-24,-8,-10,1,22
1537909720134323,12,5,41,26,7,6,11,6
1537909720135321,3,-6,-90,-15,-15,-11,-4,-10
1537909720135321,2,13,58,6,11,9,14,8
1537909720157262,8,6,30,7,10,9,36,50
1537909720157262,35,7,-78,0,41,29,44,52
1537909720158259,-84,-17,96,-43,-87,-63,-92,-86
1537909720158259,-17,-19,-128,-62,-16,-13,-56,-39
1537909720172222,-11,8,95,19,-1,1,-21,-2
1537909720172222,26,6,-82,26,6,4,74,33
1537909720172222,38,24,114,30,73,49,72,71
1537909720172222,-31,-14,81,57,-38,-30,-69,-83
1537909720194163,-10,-5,-96,-37,-21,-14,14,33
1537909720194163,-4,27,119,-5,-9,2,-13,-2
1537909720195161,-15,-45,-15,63,28,2,-21,-43
1537909720195161,3,14,38,-32,29,19,50,22
1537909720209123,61,42,93,50,7,14,25,6
1537909720209123,-20,-3,-53,5,2,2,-10,-18
1537909720217102,-39,-69,-128,-43,-3,-10,-44,-39
1537909720217102,7,42,38,-6,-4,-2,-31,27
1537909720232064,-13,-40,-118,16,3,6,48,-10
1537909720232064,65,26,77,-49,-4,-2,13,42
1537909720233061,-47,-21,68,38,20,26,-3,-13
1537909720233061,30,15,-64,42,20,-3,15,78
1537909720255001,-86,7,-11,-74,-65,-19,-61,-84
1537909720255001,40,5,-13,36,14,-14,-28,11
1537909720256000,20,65,-68,-24,-36,-7,-6,-70
1537909720256000,-6,-36,90,-31,-10,-13,-5,-13
1537909720277940,35,-2,-69,126,62,21,32,92
1537909720277940,-77,-33,14,-108,-95,-34,-27,-93
1537909720277940,59,19,54,53,29,20,42,85
1537909720277940,-18,-1,-41,13,21,5,32,16
1537909720291904,-45,-17,32,48,27,0,50,38
1537909720291904,51,-40,-70,4,-14,-19,-95,-70
1537909720292902,39,30,-1,-66,6,-3,-33,43
1537909720292902,-29,-31,-54,-27,-35,-1,51,-56
1537909720314841,27,20,61,20,19,10,-44,-18
1537909720314841,-37,8,-25,-64,-21,-15,-28,-29
1537909720315839,-74,-20,-8,16,6,2,69,34
1537909720315839,66,-5,-26,39,4,2,20,-16
1537909720337780,29,19,-45,-48,6,4,-17,-17
1537909720337780,-5,34,93,32,-2,-1,-15,11
1537909720338778,56,50,-24,24,-5,-13,-61,25
1537909720338778,-49,-99,13,-21,-3,4,67,2
1537909720351743,-21,-31,-33,36,21,5,4,-20
1537909720351743,-11,-7,-33,-19,-10,-5,-4,-10
1537909720352740,5,8,58,8,22,21,37,20
1537909720352740,40,34,-41,11,3,1,-20,24
1537909720374681,-3,-2,12,-25,-19,-11,-33,-33
1537909720374681,-25,-5,-17,26,30,12,11,18
1537909720375678,7,-3,-10,-8,-16,-8,10,8
1537909720375678,-8,9,-21,-18,-7,-5,-26,-24
1537909720397619,-9,-3,19,-23,-11,-4,-12,-12
1537909720397619,-4,-2,0,12,11,7,15,17
1537909720398617,-4,-21,-13,-14,-13,-10,7,-18
1537909720398617,-3,13,2,5,-7,-1,-27,-10
1537909720411582,13,4,12,-17,2,0,5,5
1537909720411582,-18,-10,-5,23,8,2,13,8
1537909720412580,-1,-5,-16,-3,-8,-3,-9,-20
1537909720412580,0,11,-13,-4,7,5,-12,6
1537909720435519,5,5,11,-11,-8,-5,1,7
1537909720435519,-13,-11,-7,11,7,2,4,-8
1537909720435519,-4,-5,-10,-1,-6,-2,0,-6
1537909720435519,7,12,-5,-7,-3,3,-4,11
1537909720457462,-3,-4,5,-16,-8,-3,1,-8
1537909720457462,-10,1,5,15,4,1,-1,-2
1537909720458460,5,0,-3,-1,1,2,5,4
1537909720458460,-2,6,-5,0,-1,-2,-4,3
1537909720472420,-1,-1,-1,-5,-1,-2,-6,-9
1537909720472420,-6,1,-4,6,6,3,2,3
1537909720472420,1,0,-3,-4,-4,-2,3,2
1537909720472420,-1,0,-5,-4,-2,0,-5,-5
1537909720495360,-5,-2,4,-5,-4,-3,-4,-4
1537909720495360,-2,-2,0,2,2,2,4,4
1537909720495360,-1,-2,-2,-2,-4,-3,1,-4
1537909720495360,0,9,-3,-7,-5,-3,-5,-2
1537909720517302,2,3,5,6,1,-3,-1,1
1537909720517302,-6,-1,-2,3,2,1,4,3
1537909720518299,0,0,-3,0,-3,0,-2,-4
1537909720518299,1,6,-3,1,7,1,-3,0
1537909720532260,-1,2,3,-16,-18,-5,-2,-3
1537909720532260,-4,2,-7,1,1,0,1,-1
1537909720532260,0,-1,1,-1,-1,0,-2,0
1537909720532260,1,-2,-6,4,1,0,-2,4
1537909720555198,-3,-9,5,-1,1,1,-1,-4
1537909720555198,-2,-9,-13,6,-4,-4,-2,0
1537909720556196,2,-6,16,-7,-6,-1,0,-1
1537909720556196,0,-4,2,-1,3,1,0,-1
1537909720577139,-1,2,-10,4,2,-1,-2,-2
1537909720577139,-3,-16,12,1,0,0,1,1
1537909720578137,0,-4,-20,1,3,0,-1,0
1537909720578137,-1,-4,-6,-3,-3,-1,-1,0
1537909720592099,0,4,-15,-8,2,0,-1,0
1537909720592099,0,-4,32,1,-7,-5,-1,-2
1537909720592099,0,0,3,0,1,-2,1,-3
1537909720592099,-3,0,-22,3,-3,-3,-2,-2
1537909720615038,1,-1,23,1,4,1,1,1
1537909720615038,-1,-3,-1,-3,3,2,0,-1
1537909720616036,0,1,-2,-11,-6,-2,-1,-1
1537909720616036,-4,-2,-21,-5,-1,-2,0,-3
1537909720637977,2,0,-9,2,-3,-2,-1,1
1537909720637977,6,4,-10,-2,0,2,3,3
1537909720637977,1,-3,11,3,-3,0,1,3
1537909720637977,2,5,3,1,1,3,-1,3
1537909720651940,-16,-11,39,-1,-4,-4,-8,-15
1537909720651940,2,0,-57,-10,-4,0,0,3
1537909720652937,1,3,2,-3,-3,-2,0,-1
1537909720652937,7,0,13,6,0,0,2,9
1537909720674878,-5,-1,1,-3,1,-2,-2,-4
1537909720674878,-3,9,41,11,4,0,-2,-3
1537909720680863,-2,-7,-44,-10,0,-2,-2,-5
1537909720680863,12,5,29,1,-1,0,3,11
1537909720697820,10,-3,-16,-4,3,4,6,10
1537909720697820,-12,-1,-20,-5,-3,-2,-3,-10
1537909720698817,-20,-4,-9,15,2,-2,-4,-10
1537909720698817,10,-1,19,-9,1,0,4,6
1537909720711780,14,3,19,7,0,1,8,19
1537909720711780,-9,5,39,1,-8,-8,-4,-6
1537909720720757,-34,-14,-21,-9,5,-1,-18,-33
1537909720720757,11,2,5,15,-6,-8,11,19
1537909720734718,3,2,30,20,16,11,5,17
1537909720734718,-33,-25,-47,-54,-27,-14,-22,-55
1537909720741700,40,24,-44,15,26,12,11,49
1537909720741700,-8,-39,14,13,-37,-17,32,-3
1537909720757657,-33,-4,4,-5,-1,-3,-42,-34
1537909720757657,-47,15,-61,65,33,-2,-2,-44
1537909720758654,71,50,108,-1,-16,11,16,61
1537909720758654,-40,-57,-17,-16,21,-10,-65,-60
1537909720771619,24,4,-75,-83,-80,-15,11,41
1537909720771619,4,15,41,54,31,13,25,20
1537909720779598,-8,2,-1,85,64,9,-9,62
1537909720779598,7,13,-57,-77,-79,-32,16,-32
1537909720793561,-9,15,90,-35,-3,2,-38,-23
1537909720793561,43,-9,-5,49,16,27,93,97
1537909720802537,-91,-61,-67,-99,-78,-50,-79,-117
1537909720802537,25,13,2,88,72,43,45,127
1537909720817497,41,47,14,-3,35,34,86,35
1537909720817497,-17,12,-59,-71,-67,-26,-87,-67
1537909720819492,35,5,127,21,14,15,14,59
1537909720819492,21,-7,-19,73,16,21,5,-23
1537909720831461,-76,-41,-39,-64,-42,-36,-83,-66
1537909720831461,40,20,-45,13,44,16,15,116
1537909720840437,2,1,-125,-59,-35,-13,-31,-46
1537909720840437,-2,28,21,-11,28,-2,-8,-59
1537909720855396,7,-17,-13,100,25,4,79,49
1537909720855396,22,6,34,20,18,-1,-79,8
1537909720856395,-91,-24,-22,-52,-20,-9,58,-80
1537909720856395,-3,11,-1,-9,-15,-9,-76,-7
1537909720877338,33,22,0,16,23,8,-28,-29
1537909720877338,-19,-31,45,-17,-23,-14,-10,-30
1537909720879333,28,10,7,22,21,15,26,47
1537909720879333,32,22,9,2,13,4,26,36
1537909720891301,-12,-32,-21,7,-3,-12,-30,-13
1537909720891301,-9,-2,-3,-48,-8,2,3,-20
1537909720900277,31,1,35,46,11,2,18,19
1537909720900277,-45,-1,-41,-33,-8,1,-9,-31
1537909720915238,15,-2,16,-4,-2,-6,-28,1
1537909720915238,14,-4,-1,6,-2,1,26,9
1537909720916235,7,8,14,8,5,2,1,0
1537909720916235,-28,-7,11,-16,-15,-12,-19,-17
1537909720937178,-4,-1,-33,9,16,7,14,9
1537909720937178,3,-1,9,3,0,-1,9,-3
1537909720939173,-4,-8,22,13,1,-5,-14,-20
1537909720939173,1,8,-9,-10,1,3,0,11
1537909720951141,0,-3,2,18,1,1,14,6
1537909720951141,6,6,14,-2,-3,1,0,-10
1537909720960118,0,-1,-28,-4,-6,-7,-17,-1
1537909720960118,-5,-4,5,-14,-7,-8,3,5
1537909720974080,-2,6,-46,-8,-1,-3,2,-2
1537909720974080,-9,-5,62,8,-5,-7,-9,-13
1537909720981061,7,14,10,14,8,9,9,9
1537909720981061,1,9,-4,-1,2,2,5,6
1537909720998015,0,2,-23,0,-4,-7,-2,-3
1537909720998015,-9,3,17,1,-4,0,-5,-10
1537909720999014,4,-5,-1,3,0,2,1,2
1537909720999014,-2,-3,17,-6,-5,-1,-3,-6
1537909721010981,-8,-13,-45,-5,-1,-3,-16,-29
1537909721010981,4,-9,28,-6,-1,0,2,10
1537909721019957,6,0,-34,4,-3,-4,11,48
1537909721019957,-11,-3,62,-4,-1,5,-6,-50
1537909721034917,-2,-3,45,12,1,3,3,9
1537909721034917,-2,-8,-13,-3,-2,-3,-2,-5
1537909721040901,2,-2,-50,0,3,1,-9,-12
1537909721040901,10,7,-88,-5,3,11,16,32
1537909721057856,7,-3,11,-6,-2,-2,7,26
1537909721057856,-13,8,51,1,-5,-13,0,-26
1537909721058854,-1,-9,-30,2,1,8,-3,-12
1537909721058854,-12,-6,-25,2,-2,-14,-5,-11
1537909721070821,-1,6,56,1,-5,-3,-5,-21
1537909721070821,3,-13,-37,-7,-2,-5,0,15
1537909721079797,-3,3,-10,-17,-4,1,-15,-17
1537909721079797,9,8,44,15,5,5,7,25
1537909721094757,-3,-13,-49,-6,0,6,0,-9
1537909721094757,4,4,47,5,0,2,-6,-19
1537909721101738,0,2,18,16,4,0,23,37
1537909721101738,-4,-6,-23,-4,-4,2,-4,0
1537909721117696,3,10,41,0,3,-4,-2,19
1537909721117696,6,3,-6,6,0,6,32,17
1537909721118694,-1,-8,2,-2,-3,-5,-27,-29
1537909721118694,-16,-14,-12,-8,-4,0,-2,-16
1537909721131658,5,0,-12,-1,-2,-9,0,10
1537909721131658,-1,4,-31,-1,-1,8,0,-8
1537909721139638,-16,-3,46,4,0,2,12,-9
1537909721139638,1,2,26,-8,-7,-4,3,3
1537909721154596,-12,-5,-38,-2,2,-5,-32,-30
1537909721154596,5,-2,-25,-5,-1,-1,-2,14
1537909721168559,8,1,8,3,-4,-3,7,8
1537909721168559,0,1,30,0,-1,4,2,4
1537909721178532,-1,-1,6,9,1,5,10,1
1537909721178532,3,2,-26,-4,2,0,-2,6
1537909721180527,-1,-5,-2,-9,0,-1,-5,-3
1537909721180527,-1,0,13,4,1,0,-3,-5
1537909721191498,2,2,4,1,-1,1,3,7
1537909721191498,-4,-6,-19,-4,-2,-3,-8,-4
1537909721200474,0,0,11,0,-2,-1,-1,-13
1537909721200474,5,1,-3,-2,0,-2,-5,8
1537909721215434,2,0,-9,2,-2,0,6,4
1537909721215434,6,8,-8,-5,-3,2,0,7
1537909721216432,-25,-8,3,-1,-3,-6,-13,-26
1537909721216432,5,11,5,-1,0,-2,0,6
1537909721237376,-12,-10,-12,0,1,0,0,-7
1537909721237376,0,-2,-9,-6,-7,-4,-2,-1
1537909721239373,4,2,3,-2,1,-1,-3,4
1537909721239373,13,-5,-2,0,0,-2,-3,5
1537909721251339,-6,9,-20,0,-3,-1,2,-7
1537909721251339,-7,-12,9,-3,2,0,-5,-3
1537909721260314,8,8,-7,2,0,0,6,12
1537909721260314,-1,14,60,24,12,8,3,-3
1537909721274276,11,-13,-78,-27,-12,-4,7,15
1537909721274276,11,17,1,23,4,-4,-8,-3
1537909721281258,-6,-22,-3,-11,-12,-6,1,2
1537909721281258,65,30,-58,-13,20,12,24,54
1537909721297215,-78,-46,29,-22,-45,-29,-38,-65
1537909721297215,-4,2,-15,24,37,23,39,68
1537909721299210,-28,-3,28,-12,-37,-20,-63,-97
1537909721299210,2,-31,-46,-40,-11,-13,3,18
1537909721327135,109,56,25,70,46,28,88,83
1537909721327135,-58,-17,34,-35,-42,-30,-107,-110
1537909721329130,51,29,19,14,26,13,46,127
1537909721329130,3,-36,41,-12,-8,3,-65,-5
1537909721334117,24,19,-17,28,40,25,72,4
1537909721334117,33,-37,8,15,7,10,9,6
1537909721343092,-40,-42,-64,-64,-67,-54,-110,-128
1537909721343092,2,-37,-3,29,12,-1,88,96
1537909721358052,7,45,38,19,13,22,-50,0
1537909721358052,19,-16,-50,-52,-2,-10,28,23
1537909721359049,-1,6,27,112,48,30,36,44
1537909721359049,-88,-7,-73,-51,-60,-30,-93,-128
1537909721379993,-5,-26,9,37,49,10,-36,123
1537909721379993,-21,-25,-42,-105,-79,-36,-38,-80
1537909721381988,0,14,43,-9,7,18,77,41
1537909721381988,9,52,59,115,73,37,32,-50
1537909721393956,-27,-8,-12,-26,-83,-44,67,35
1537909721393956,-17,-11,11,64,39,21,-96,-37
1537909721402932,-59,-34,-21,-3,3,7,67,-24
1537909721402932,39,11,5,22,4,4,-21,-11
1537909721417892,6,16,20,-22,1,1,11,7
1537909721417892,65,-6,24,32,18,25,127,121
1537909721418890,-14,-5,-20,-16,11,5,-23,-48
1537909721418890,-51,-17,-9,-43,-17,-10,-40,-33
1537909721438837,15,-20,16,0,7,13,-3,18
1537909721438837,-23,-6,-15,-11,-7,-19,7,-1
1537909721447814,0,4,-2,-5,-3,-2,-29,-18
1537909721447814,-19,4,-11,-16,-6,-5,0,13
1537909721454795,-23,-17,-5,-23,-19,-17,-45,-41
1537909721454795,0,29,3,35,19,9,17,10
1537909721461776,24,17,-2,-11,7,2,-10,18
1537909721461776,-16,-14,1,-8,-12,-10,7,1
1537909721477733,5,13,2,0,6,1,8,-21
1537909721477733,-6,21,4,4,3,3,-3,-14
1537909721478731,20,10,-7,3,-1,-1,-2,8
1537909721478731,18,15,5,-1,-1,-2,15,42
1537909721499676,-17,-8,-2,-7,-3,-2,-31,-84
1537909721499676,-7,14,-4,-2,-5,-3,3,61
1537909721501671,17,5,-4,-7,-2,-3,-11,-18
1537909721501671,-4,6,0,5,-4,-2,10,-14
1537909721513638,-11,12,3,-10,0,-1,-18,-22
1537909721513638,-2,54,11,10,3,0,-3,-12
1537909721522615,15,99,-5,9,6,3,16,48
1537909721522615,-1,46,-16,-18,-5,-2,3,6
1537909721537572,-4,-10,-12,-2,0,-1,-9,-22
1537909721537572,4,-27,5,2,-3,-1,1,3
1537909721538570,9,-30,5,3,5,1,-4,9
1537909721538570,-2,-8,8,1,-4,-3,-1,-4
1537909721560511,-8,-20,12,-8,-7,-7,-13,-3
1537909721560511,1,-31,-21,2,2,0,2,-11
1537909721561508,2,-36,0,-2,0,-3,-4,4
1537909721561508,-3,-16,-13,0,-1,-3,-1,3
1537909721573476,1,-8,-11,-2,1,0,5,1
1537909721573476,-2,0,1,0,1,1,0,-10
1537909721582452,2,-8,-1,2,-1,-1,-1,1
1537909721582452,5,-14,9,-1,-1,-1,5,11
1537909721597412,-3,-12,5,3,-1,1,-4,-9
1537909721597412,-2,8,-2,0,-2,-1,-5,-13
1537909721599407,-2,-5,10,-3,0,-3,-4,6
1537909721599407,0,-12,-4,0,0,1,1,4
1537909721620351,-4,-4,-6,-3,1,1,-4,-6
1537909721620351,-3,0,-10,-7,-4,-2,-2,-6
1537909721621349,4,-9,2,2,0,-2,3,7
1537909721621349,0,-6,6,2,0,0,0,0
1537909721633316,-4,-2,-5,-3,-2,-3,-2,-7
1537909721633316,1,8,14,3,1,1,0,-1
1537909721642292,-1,-9,-3,0,1,-1,-1,1
1537909721642292,-2,1,28,-1,-3,-5,-2,-4
1537909721657252,-5,-11,-46,-8,-2,-2,-3,-3
1537909721657252,3,15,15,3,-3,-3,-1,0
1537909721659247,2,-10,-8,-2,-2,-1,-1,0
1537909721659247,-1,4,-9,2,2,1,1,0
1537909721680191,1,1,11,3,-2,-1,-1,1
1537909721680191,-3,-1,10,-3,-1,2,-3,-6
1537909721681188,2,8,0,1,1,1,0,1
1537909721681188,-5,-9,-12,-3,-1,-1,-1,0
1537909721694153,-1,5,19,4,-1,-2,-1,-2
1537909721694153,0,0,2,2,-1,1,-2,-2
1537909721702132,1,-1,-5,-4,-3,-2,-2,3
1537909721702132,2,-5,-19,-8,0,0,0,2
1537909721717092,-2,7,34,2,0,-1,-1,-3
1537909721717092,-3,-5,-38,-6,0,0,-3,-3
1537909721725071,2,5,71,13,0,1,-1,-1
1537909721725071,0,-5,-94,-17,-2,0,-2,1
1537909721740033,-1,-2,11,-2,-1,0,-1,0
1537909721740033,-3,0,0,4,-1,-2,-1,-2
1537909721741030,1,1,-16,6,1,1,1,0
1537909721741030,5,6,62,17,0,-1,-2,1
1537909721753995,-6,1,-14,-18,-4,0,-3,-8
1537909721753995,-3,-4,-22,-9,13,7,5,2
1537909721762970,4,-3,-24,-17,-24,-12,-5,1
1537909721762970,2,-2,28,19,13,5,1,0
1537909721777930,-1,2,11,12,-11,-6,-3,-1
1537909721777930,-4,3,10,-19,-5,0,2,3
1537909721778928,11,1,-14,18,7,0,-3,-5
1537909721778928,1,0,-17,-3,3,5,5,5
1537909721799871,-2,1,3,-18,2,1,3,7
1537909721799871,-11,-7,-12,-27,-3,-3,-4,-5
1537909721801866,-17,-8,14,-38,-33,-8,15,-11
1537909721801866,-33,-15,4,48,2,-9,-58,-35
1537909721813834,44,23,3,21,2,8,46,42
1537909721813834,4,-1,-3,-32,-16,-7,-31,-28
1537909721822810,40,6,-6,18,31,20,77,78
1537909721822810,-60,-28,1,-74,-29,-11,-12,-48
1537909721837770,-4,16,16,3,-3,-10,-70,-28
1537909721837770,0,2,16,42,13,-3,-46,-21
1537909721838768,-13,-31,-21,-5,9,-16,-37,-20
1537909721838768,69,14,1,8,25,-2,97,119
1537909721859711,75,31,6,16,7,-17,-42,-76
1537909721859711,-22,-15,4,38,27,3,85,15
1537909721861706,-79,-16,-10,-66,-41,2,-1,36
1537909721861706,4,10,15,14,-14,19,-1,-69
1537909721873674,120,78,-3,68,48,27,74,127
1537909721873674,-87,-51,-25,-43,-4,-12,-88,-109
1537909721882651,102,7,-14,-24,-64,-33,-121,-71
1537909721882651,49,-22,4,50,63,44,96,102
1537909721897611,-127,-55,-16,-112,-62,-10,-3,-43
1537909721897611,76,78,17,36,13,13,32,15
1537909721898609,-128,18,6,52,36,7,-96,-66
1537909721898609,102,-6,-17,-79,-47,-20,-8,-2
1537909721920549,-33,-67,-6,2,28,16,4,51
1537909721920549,22,-2,10,27,-14,2,44,82
1537909721921548,-55,-12,-6,-15,3,-4,20,-27
1537909721921548,62,67,17,31,-3,-3,-28,-2
1537909721933515,-115,-50,-14,-2,3,0,2,-49
1537909721933515,51,3,0,-25,-15,-3,16,32
1537909721942492,29,14,1,14,9,6,41,8
1537909721942492,-72,-16,2,15,7,-10,-45,-27
1537909721956454,-12,-6,-9,-7,-6,-6,-7,-6
1537909721956454,-6,8,2,1,-12,-6,-21,-16
1537909721963434,38,11,-2,26,17,5,5,19
1537909721963434,-50,-14,-2,-10,-3,-8,-10,-14
1537909721980389,32,13,-3,8,-5,-5,-5,-14
1537909721980389,-3,3,-2,0,-8,0,2,7
1537909721981386,11,-14,0,-1,16,7,32,11
1537909721981386,-11,-2,-1,-10,-9,-5,-4,-4
1537909721993354,5,9,-1,8,-2,0,2,-15
1537909721993354,-11,-7,2,10,7,2,-9,4
1537909722002330,8,2,1,-5,0,1,18,14
1537909722002330,-16,14,0,-6,-8,3,-21,-15
1537909722017290,8,12,-2,15,3,-10,-8,-3
1537909722017290,-13,-4,14,-2,0,-1,2,3
1537909722023275,24,11,-9,2,4,2,12,6
1537909722023275,-13,7,-20,-4,-6,-6,-7,-5
1537909722040230,-3,-7,-21,-7,0,2,2,-4
1537909722040230,5,-1,-2,-2,-1,1,5,6
1537909722041227,9,3,13,6,3,1,9,2
1537909722041227,-15,-6,25,11,2,0,-9,-6
1537909722053196,-4,-9,-7,-4,-3,-2,-4,-3
1537909722053196,-1,-9,-21,-3,-2,-2,-2,0
1537909722062171,7,-5,5,4,1,4,1,5
1537909722062171,-13,-9,10,-4,-2,-5,-1,-4
1537909722077131,7,-4,-23,-5,-4,-1,-2,-5
1537909722077131,0,-4,5,1,-1,-1,-2,1
1537909722084113,2,-6,-1,9,2,2,5,0
1537909722084113,-4,-1,5,2,-1,-4,0,-2
1537909722100070,1,0,8,2,1,0,-1,-2
1537909722100070,-4,-4,0,2,-4,-3,-3,0
1537909722101068,1,-1,0,-13,-1,-1,3,2
1537909722101068,-2,1,-17,-7,-6,-5,-4,-3
1537909722114032,0,1,13,9,4,1,-4,-3
1537909722114032,-2,-4,-8,-7,-1,-1,1,2
1537909722123010,0,-2,-6,-1,1,-4,0,-2
1537909722123010,-2,-1,2,2,-2,-2,-2,-1
1537909722136973,-1,-1,-2,-5,-2,-1,-1,0
1537909722136973,-2,-1,8,6,4,0,-1,-2
1537909722143953,5,0,2,-11,-7,-2,1,-2
1537909722143953,-8,0,-3,-1,1,-1,-2,-3
1537909722159909,0,0,0,1,-3,-2,0,2
1537909722159909,-5,-1,11,1,-2,0,-2,-2
1537909722161905,2,-1,-8,2,4,1,0,2
1537909722161905,-3,-3,-17,-4,1,1,0,-1
1537909722182847,1,2,18,8,-4,-1,-4,-2
1537909722182847,0,1,-3,0,-4,-3,-1,-1
1537909722183845,-1,-2,-11,-2,4,0,1,-1
1537909722183845,-1,0,-6,-4,-1,0,1,2
1537909722196810,-2,-3,5,3,1,1,1,-1
1537909722196810,-1,-1,12,0,3,2,-2,-2
1537909722203791,0,0,-22,0,-2,-3,0,1
1537909722203791,1,-1,-13,-3,-3,0,0,-2
1537909722219749,0,5,29,5,3,0,-3,0
1537909722219749,2,-3,-30,-9,0,0,1,0
1537909722221744,5,2,29,5,-1,0,-1,2
1537909722221744,-7,-6,-10,-4,-2,-4,-4,-5
1537909722242688,1,-3,-13,-4,0,1,1,-2
1537909722242688,-1,3,13,2,-2,-2,0,-1
1537909722243686,1,-1,3,-5,-2,-1,0,1
1537909722243686,5,2,-7,1,-3,-3,-2,2
1537909722257649,-3,2,23,0,-2,-2,-2,-2
1537909722257649,-2,-1,-25,-2,1,0,-1,0
1537909722258647,-3,-3,-24,1,3,0,0,-2
1537909722258647,-6,-2,12,1,-3,-1,-2,-2
1537909722279590,-1,-2,-22,-6,-2,-1,-2,-2
1537909722279590,3,1,20,5,-1,-2,1,2
1537909722281585,0,-1,6,0,1,1,0,0
1537909722281585,2,1,11,2,0,0,0,0
1537909722302527,8,0,-16,1,0,1,1,4
1537909722302527,-1,-6,-2,-12,-5,-2,0,4
1537909722303525,-2,2,-5,6,-1,-1,1,2
1537909722303525,26,10,20,0,10,4,5,11
1537909722317487,-77,-24,-30,-14,-21,-12,-14,-40
1537909722317487,37,11,25,8,2,0,3,7
1537909722318485,-5,1,-28,-9,-3,0,1,5
1537909722318485,1,-3,12,22,7,-2,9,9
1537909722340427,35,6,5,-37,-5,-5,-37,20
1537909722340427,-8,-16,0,19,15,7,68,-3
1537909722341424,-7,-3,6,25,13,4,-17,-5
1537909722341424,-40,1,-6,-52,-41,-14,-24,-60
1537909722362368,24,27,7,51,10,2,1,23
1537909722362368,-31,-7,-8,9,13,0,-20,39
1537909722364363,-18,-46,-9,-5,-31,1,-15,-64
1537909722364363,42,17,-4,-34,-12,-9,-72,67
1537909722377328,-37,1,10,56,31,8,77,-69
1537909722377328,36,49,-5,-80,-34,8,-2,81
1537909722383312,37,-18,12,9,5,-14,-27,-17
1537909722383312,-27,-41,25,-7,-5,8,88,-15
1537909722400266,16,16,-55,-7,-13,-21,-87,48
1537909722400266,-90,51,49,7,-14,-16,-62,-55
1537909722401264,127,-27,-6,-37,1,4,-10,-64
1537909722401264,-48,-26,-27,19,22,12,48,-34
1537909722422208,-43,-56,16,14,34,6,-1,4
1537909722422208,2,65,-12,-1,-11,1,13,47
1537909722424204,-85,-17,10,-14,15,-3,20,70
1537909722424204,37,8,2,9,4,-2,-5,24
1537909722436171,36,1,3,26,18,19,18,45
1537909722436171,-23,-43,-24,-10,-4,-22,-54,-82
1537909722451131,-37,20,19,25,0,9,66,36
1537909722451131,-10,10,-3,6,10,7,40,3
1537909722460107,-26,-12,-9,-42,-26,-2,-7,-66
1537909722460107,57,-30,-14,0,1,0,-12,-23
1537909722461105,-1,25,3,-18,-11,-7,1,15
1537909722461105,-19,-2,-4,25,6,-3,-10,14
1537909722483046,4,10,5,-27,-20,-7,-7,12
1537909722483046,14,-20,1,20,3,3,15,-14
1537909722484045,-30,10,5,17,5,2,3,8
1537909722484045,23,7,-3,-1,-6,-3,-22,6
1537909722496011,22,9,24,2,-4,3,5,-5
1537909722496011,-14,-18,3,1,5,-2,12,-3
1537909722504989,7,11,-26,-14,-3,5,-1,12
1537909722504989,-4,-3,-7,-3,-8,-15,-37,-14
1537909722519947,6,4,-30,-21,-6,7,10,-2
1537909722519947,-8,-13,17,15,2,-29,6,0
1537909722521942,-3,12,-15,6,-3,-12,-15,2
1537909722521942,6,7,25,10,-1,22,-8,-7
1537909722542887,-7,5,-4,-3,-1,-40,4,6
1537909722542887,12,-2,-21,2,1,30,13,4
1537909722543885,1,20,25,-1,-5,-4,-7,-3
1537909722543885,-6,17,11,1,6,9,-4,-4
1537909722556850,9,6,4,-7,-4,9,11,8
1537909722556850,-3,-11,-8,1,1,1,-1,-6
1537909722564827,-3,-4,7,-7,-8,-2,-6,-3
1537909722564827,-3,-9,-28,6,8,11,15,6
1537909722579786,-3,-3,42,-10,-9,-18,-14,-3
1537909722579786,6,-11,-43,7,2,-8,1,-3
1537909722581781,-8,-9,11,2,6,17,1,4
1537909722581781,-2,-3,9,1,-3,3,-7,-4
1537909722602725,0,-2,-23,-4,-2,-25,0,-2
1537909722602725,-8,-21,7,1,3,11,6,-1
1537909722603722,4,2,-11,7,1,-8,-3,1
1537909722603722,2,-3,9,-13,-4,6,-3,-1
1537909722615690,1,-10,5,7,7,19,6,-2
1537909722615690,-2,-1,10,6,-3,-3,-1,0
1537909722624666,-1,1,-8,4,3,8,2,1
1537909722624666,-1,1,-12,0,1,-15,-6,0
1537909722639627,-2,-1,0,-9,-10,5,4,1
1537909722639627,1,2,3,-11,-1,-3,1,0
1537909722641622,-1,-2,-12,4,-5,-1,-2,-2
1537909722641622,-1,-10,1,-3,1,-10,-3,-1
1537909722662567,5,26,14,0,-8,2,4,2
1537909722662567,1,-13,-31,-18,-8,4,2,1
1537909722663564,-6,3,19,-4,-2,-6,-2,-6
1537909722663564,0,5,-17,5,0,-8,-5,-1
1537909722676528,1,-11,2,-1,1,9,2,-2
1537909722676528,0,7,8,2,2,-1,2,0
1537909722683509,-4,2,-3,2,0,-1,-1,0
1537909722683509,-5,-4,-4,-4,-5,-6,-6,-3
1537909722700463,-2,-1,6,3,2,9,3,2
1537909722700463,1,3,16,5,2,-2,-1,-1
1537909722701461,-1,-4,-23,-7,-4,-6,-1,-1
1537909722701461,1,1,6,6,1,0,1,-1
1537909722722405,4,-1,-3,5,3,3,1,3
1537909722722405,-8,-5,5,-6,-6,-3,-2,-3
1537909722724400,1,0,12,-3,-3,1,2,1
1537909722724400,1,4,-3,5,-6,-5,-6,-4
1537909722736367,1,-8,-55,-3,-1,1,2,2
1537909722736367,1,4,58,7,3,4,0,-1
1537909722745343,3,2,2,3,-2,-1,0,1
1537909722745343,1,0,-10,-2,0,-4,-1,0
1537909722760304,-8,-5,11,-5,-2,1,-1,-2
1537909722760304,1,-5,-23,-6,-3,0,-2,0
1537909722761301,-2,4,-3,-10,1,-2,-3,-3
1537909722761301,-1,-2,9,8,-1,-3,-3,2
1537909722782245,-1,-2,-3,-1,-2,0,1,-1
1537909722782245,2,1,8,5,1,0,-1,0
1537909722784240,-8,-4,-4,-5,0,1,-1,-6
1537909722784240,0,-3,-18,-4,1,-1,-1,0
1537909722796207,3,0,4,-1,-2,0,1,3
1537909722796207,7,1,-13,-2,1,1,3,7
1537909722805184,-2,-3,2,6,-2,-2,-3,-4
1537909722805184,-4,0,-2,-3,0,0,-2,-4
1537909722820143,-7,1,28,3,2,2,2,2
1537909722820143,3,3,12,2,2,0,-1,-1
1537909722821141,14,-7,-37,-11,-2,0,-1,4
1537909722821141,10,9,41,1,-5,-1,2,15
1537909722842085,-30,-7,-19,1,0,-4,-6,-12
1537909722842085,-4,-9,-18,-4,-2,-3,-2,-13
1537909722844080,-10,0,-1,-4,0,1,9,21
1537909722844080,-55,-26,-4,-4,-6,-2,-11,-43
1537909722856048,54,19,-10,-1,-5,1,-13,18
1537909722856048,-72,-10,21,11,10,-22,-42,11
1537909722865024,125,15,-12,-4,3,12,90,22
1537909722865024,-63,-24,-45,-40,-22,-4,12,-3
1537909722878986,-49,55,40,70,16,2,-41,-3
1537909722878986,-52,-25,-31,-22,-5,-1,-51,-66
1537909722885968,60,6,18,15,33,16,11,41
1537909722885968,-54,19,17,14,-38,0,28,7
1537909722902923,20,14,74,-14,2,20,7,-13
1537909722902923,-70,-33,-79,-8,16,-19,-75,-52
1537909722903921,15,86,70,62,-16,-19,46,79
1537909722903921,97,25,-24,10,34,16,-12,-38
1537909722915888,-58,-10,-38,-48,-35,0,-37,-90
1537909722915888,-26,-13,-16,14,22,-8,3,-3
1537909722924864,-128,-128,-47,-57,-32,15,-51,-62
1537909722924864,-95,54,-40,65,36,-9,-95,-15
1537909722939826,126,-25,27,7,22,6,85,84
1537909722939826,-51,73,36,18,-28,-10,-11,8
1537909722945810,-14,27,95,19,26,6,11,42
1537909722945810,-68,-77,-64,-17,0,-3,107,96
1537909722961766,64,-19,-39,2,13,-12,-108,-80
1537909722961766,-112,-17,-53,-10,-1,15,127,50
1537909722969745,72,59,-5,24,15,16,3,6
1537909722969745,66,8,59,17,-26,-22,-53,-26
1537909722976725,-23,2,3,-10,0,-6,74,105
1537909722976725,109,-8,28,1,-4,22,13,-43
1537909722984704,-37,-11,-34,-21,-11,-11,-119,-91
1537909722984704,1,-24,16,-34,4,1,-29,-41
1537909722999663,-34,15,-42,7,-10,-2,44,7
1537909722999663,109,20,46,14,5,1,52,83
1537909723006645,-51,-28,-6,-7,-2,-2,5,0
1537909723006645,12,12,-4,-14,-5,-15,-22,-9
1537909723022603,-29,-21,-3,2,0,4,-14,5
1537909723022603,13,2,-1,7,-4,-10,-9,8
1537909723023600,-29,0,-15,-7,-6,5,-15,-35
1537909723023600,4,2,17,-7,-1,4,-2,13
1537909723036565,-13,-1,-1,1,2,-9,9,2
1537909723036565,16,-1,-9,-14,-8,17,-7,-11
1537909723045541,-24,-5,-9,-7,-6,-17,-16,-15
1537909723045541,40,13,9,1,8,10,24,23
1537909723059504,-37,-13,4,0,0,0,-16,-13
1537909723059504,10,6,-5,-9,-10,-3,-18,-10
1537909723066486,-3,-4,-14,7,-1,-1,-2,2
1537909723066486,-2,1,34,1,0,-5,-4,5
1537909723081446,-18,8,0,-7,-5,-11,-2,-13
1537909723081446,4,1,6,-1,-4,2,-8,4
1537909723090424,-2,2,-50,-8,1,4,8,2
1537909723090424,5,7,-4,-8,2,2,8,0
1537909723096407,-17,1,3,-2,-3,-5,-10,-6
1537909723096407,21,7,14,11,4,6,4,8
1537909723105383,-15,-12,37,-3,-7,-13,-7,-8
1537909723105383,-1,-13,-77,-28,-5,-2,-7,-8
1537909723119345,-5,-9,-4,3,2,2,-2,2
1537909723119345,2,-4,-6,9,6,8,1,4
1537909723126327,-7,-5,23,14,3,-6,-5,-5
1537909723126327,12,-5,13,-9,-10,-4,-1,5
1537909723142284,-25,-9,-3,-5,-2,4,1,-11
1537909723142284,2,-2,-23,-10,-5,-3,-4,-1
1537909723144280,-3,8,38,0,-4,-6,-6,-5
1537909723144280,8,7,4,13,8,5,7,5
1537909723165225,-3,-10,9,-8,-5,0,-2,-1
1537909723165225,2,-10,-21,4,-1,-4,-7,-5
1537909723166221,-4,4,10,-3,-4,-4,-3,-2
1537909723166221,-2,-12,-15,5,3,6,5,3
1537909723180181,1,0,-7,-3,-3,-1,-3,-1
1537909723180181,-4,-8,1,-9,-5,-6,-5,-6
1537909723181179,3,4,-16,-3,-1,-1,1,3
1537909723181179,-1,-1,32,-3,0,0,0,-1
1537909723202122,-2,-6,-27,-7,-4,-2,-2,1
1537909723202122,5,12,78,15,4,2,1,-1
1537909723204117,-5,-6,-25,-4,-1,0,0,1
1537909723204117,0,2,8,0,-1,0,-3,-3
1537909723225061,0,-3,10,5,3,0,-1,3
1537909723225061,0,-1,-12,-7,-2,0,-1,1
1537909723226059,0,0,-16,-7,-1,-3,0,1
1537909723226059,-5,-2,0,6,0,0,0,-1
1537909723239024,0,-3,-59,-7,-4,-2,-1,-2
1537909723239024,-7,8,87,1,-5,-3,-2,-5
1537909723246005,0,1,-6,-1,1,-1,0,-2
1537909723246005,1,-4,3,4,2,1,1,-1
1537909723261963,-1,-4,-45,-10,-1,-1,-2,-4
1537909723261963,2,2,45,3,2,0,-3,2
1537909723263958,0,-8,-35,-8,-5,-3,-2,-2
1537909723263958,0,6,16,7,4,2,2,2
1537909723284903,3,3,17,0,0,-2,1,2
1537909723284903,-12,-12,-14,-7,-4,-2,-2,-1
1537909723286898,4,4,-1,3,1,-2,-3,-6
1537909723286898,0,-2,-62,-8,-1,0,1,-1
1537909723299863,2,0,42,5,-2,0,-3,2
1537909723299863,-6,-1,-43,-7,-4,-4,-3,-4
1537909723305846,-1,0,4,2,-1,-2,-2,-1
1537909723305846,-4,-3,-27,-4,-1,-2,-3,-1
1537909723322800,-3,-4,39,-3,0,-2,-1,0
1537909723322800,9,9,15,13,2,1,2,6
1537909723323798,-6,-6,-28,-14,-2,-4,-3,-3
1537909723323798,4,4,35,2,2,4,3,3
1537909723344741,2,0,-22,2,-2,1,-1,-2
1537909723344741,8,0,-45,-13,-5,-2,1,7
1537909723346736,-14,-9,37,23,7,1,4,2
1537909723346736,4,-7,-28,-51,-38,-16,-8,16
1537909723358704,9,12,5,25,32,13,31,28
1537909723358704,-10,21,35,9,-21,-4,26,-32
1537909723367681,13,-17,-14,21,30,11,3,37
1537909723367681,-41,-24,-37,-8,-3,-12,-88,-58
1537909723389622,-34,-59,48,-8,-23,-3,-2,-55
1537909723389622,75,39,-54,40,33,14,72,84
1537909723391616,-81,-22,127,-35,-27,4,40,-70
1537909723391616,-44,16,-85,7,9,-10,-103,-84
1537909723404581,-107,29,74,86,57,18,61,36
1537909723404581,66,-35,28,-88,-91,-37,4,-59
1537909723406577,-69,8,-20,3,15,-5,13,127
1537909723406577,100,-56,-15,-28,13,27,112,-16
1537909723418545,-16,-49,-21,-19,-1,-11,-123,-47
1537909723418545,-77,-20,-6,62,19,-14,-12,-67
1537909723427522,19,27,-43,-11,-16,-15,-44,-17
1537909723427522,-21,9,30,6,-9,-15,-1,-40
1537909723442482,83,40,-23,-28,6,15,12,28
1537909723442482,86,4,13,55,38,21,-18,64
1537909723443480,-63,-31,-24,-35,-7,-1,-17,-42
1537909723443480,-71,-2,-17,37,24,4,44,119
1537909723465420,-35,-5,23,-39,-38,-4,21,-98
1537909723465420,56,39,-19,-31,25,4,-38,57
1537909723466419,16,4,-29,30,-22,-15,-1,-46
1537909723466419,-99,-5,87,18,7,9,34,2
1537909723478385,-56,-7,-3,2,-7,-9,6,52
1537909723478385,-57,-36,-48,-18,0,8,71,9
1537909723487361,76,0,-9,-34,-8,-2,-11,-29
1537909723487361,19,4,28,42,8,10,11,21
1537909723502322,59,7,-35,-80,-23,-11,-21,5
1537909723502322,-19,2,-6,7,5,1,-26,-22
1537909723504317,19,4,10,29,11,16,13,9
1537909723504317,25,17,22,-4,-11,-16,-21,-1
1537909723525262,29,17,-20,23,-1,5,2,4
1537909723525262,-37,0,6,-11,0,-13,-24,-18
1537909723526263,2,5,-10,-6,2,3,-10,9
1537909723526263,27,10,13,-12,-5,7,-8,4
1537909723538225,17,8,-21,3,-1,-3,6,2
1537909723538225,-31,-6,-4,-16,1,14,-2,-2
1537909723547202,8,9,6,3,0,-1,-9,-3
1537909723547202,24,25,13,3,3,1,6,4
1537909723562163,0,16,3,16,-3,-2,7,-5
1537909723562163,-22,6,13,-4,-6,-15,-29,-9
1537909723564158,14,13,-16,1,3,-6,-12,-3
1537909723564158,6,5,-28,-7,0,5,9,-2
1537909723585099,-3,0,10,2,-2,-6,-9,8
1537909723585099,-11,-6,-9,-1,3,10,-12,-8
1537909723586097,12,3,61,3,0,-1,-2,4
1537909723586097,7,-19,-88,-18,-3,-1,6,9
1537909723599061,3,-8,22,7,-2,-1,-2,3
1537909723599061,-5,-10,-3,-2,1,0,-6,-4
1537909723607040,2,-3,24,12,8,4,7,0
1537909723607040,3,5,46,5,-7,-5,-10,-6
1537909723622000,7,-15,-46,-9,-5,-8,8,5
1537909723622000,-15,-16,-21,3,4,3,-16,-8
1537909723629979,1,-1,10,-13,-16,-5,-2,0
1537909723629979,5,0,28,-2,-1,-1,-4,1
1537909723644939,9,4,-15,1,1,-2,-2,4
1537909723644939,-14,-4,21,-1,2,5,4,1
1537909723646934,-6,-11,-14,-5,-1,-3,-4,-6
1537909723646934,6,6,-21,-10,3,-1,0,4
1537909723658902,-3,2,1,19,-2,-2,-2,-2
1537909723658902,-1,-3,34,-7,-2,2,-5,0
1537909723667879,8,9,2,8,1,1,3,2
1537909723667879,-8,2,35,0,-6,-6,-3,-7
1537909723682838,-1,-6,-66,-9,5,4,-3,3
1537909723682838,-1,6,65,14,2,-1,-4,-3
1537909723683838,-2,-9,-59,-11,-4,-4,-4,-6
1537909723683838,-3,-4,-20,-5,0,-1,5,5
1537909723704780,10,7,2,19,6,-2,-1,2
1537909723704780,6,-4,-49,-40,-9,0,-4,-4
1537909723706777,-3,2,55,17,-7,-3,2,0
1537909723706777,-13,-8,-16,-4,2,-1,-7,-6
1537909723718743,1,3,39,4,2,1,-2,0
1537909723718743,-5,-4,-64,-6,-1,-4,2,0
1537909723727720,10,7,-8,1,9,5,4,9
1537909723727720,11,5,27,5,-3,1,-4,2
1537909723742678,-19,-3,15,-4,-5,-3,-4,-10
1537909723742678,0,-4,-11,-2,-2,-1,0,2
1537909723743675,-3,-6,-27,-5,1,-1,1,-4
1537909723743675,1,1,20,8,-1,-4,-2,-4
1537909723764619,6,4,14,3,1,0,4,5
1537909723764619,-2,0,16,6,-1,0,-2,-4
1537909723766614,4,-1,-28,-3,2,0,1,3
1537909723766614,5,4,72,5,-2,0,0,-1
1537909723778581,-4,-1,-54,-8,0,0,0,2
1537909723778581,-9,-1,-1,0,-5,-5,-5,-9
1537909723787558,11,-2,-13,-8,-2,-1,1,6
1537909723787558,8,-3,6,1,0,-2,1,6
1537909723802517,-9,4,-5,-2,-6,-5,-1,-1
1537909723802517,6,-3,-6,2,-2,-1,-2,-3
1537909723803515,-40,-5,6,-3,10,3,-3,-11
1537909723803515,34,1,-17,7,-8,-3,3,12
1537909723824459,-22,-7,35,-6,-8,-8,-13,-29
1537909723824459,10,6,-9,4,6,3,25,25
1537909723826453,-4,2,5,-9,-4,-5,-44,19
1537909723826453,-3,2,-14,41,22,11,51,-8
1537909723838421,35,-5,4,-71,-66,-15,32,19
1537909723838421,-48,-23,-11,2,1,-10,-76,-39
1537909723847397,-34,4,5,6,22,11,35,0
1537909723847397,-9,-26,-6,-15,-31,-27,-111,-73
1537909723861361,36,14,15,32,38,12,92,82
1537909723861361,63,35,7,-2,-3,15,28,-4
1537909723868342,21,-31,-24,-7,7,-26,-50,-36
1537909723868342,-46,1,21,-35,-41,6,51,-6
1537909723885296,25,24,-26,-12,12,-11,-51,-75
1537909723885296,-11,7,-19,-20,10,18,73,67
1537909723886294,-82,36,39,-31,-26,-25,-69,-117
1537909723886294,22,-54,-23,41,49,23,37,73
1537909723898262,64,25,31,103,83,26,4,87
1537909723898262,-69,-49,-30,-77,-92,-74,-46,-96
1537909723907238,127,34,-11,32,53,18,-2,57
1537909723907238,-60,-21,20,-37,-25,-13,-4,-4
1537909723922198,47,-18,-6,32,11,19,79,107
1537909723922198,-65,-53,-2,18,27,13,-42,-13
1537909723928182,57,-9,-5,36,-25,-8,7,-26
1537909723928182,-10,8,-4,-52,-23,-19,-47,-14
1537909723945137,-81,-6,-8,-20,0,8,-14,-54
1537909723945137,-8,31,14,20,3,4,10,10
1537909723947133,-75,-51,-12,-29,-29,-7,13,-6
1537909723947133,32,23,-7,26,32,18,19,22
1537909723959101,-5,-3,12,-17,-23,-9,-6,-29
1537909723959101,-15,-45,-8,4,5,2,2,-14
1537909723968076,17,-13,6,21,8,10,14,33
1537909723968076,33,23,1,3,7,1,-3,8
1537909723982039,-61,-14,-5,-15,-17,-7,-33,-38
1537909723982039,38,26,8,13,4,-6,-11,7
1537909723989020,3,15,0,3,7,11,36,23
1537909723989020,-11,33,0,9,-1,-2,-2,-7
1537909724003981,-26,-9,-5,-17,-17,-10,-28,-32
1537909724003981,24,32,3,19,18,1,19,20
1537909724004978,-3,29,20,2,-6,6,10,14
1537909724004978,-20,12,6,1,-5,-25,-10,-18
1537909724026918,1,6,-24,0,2,5,-22,-10
1537909724026918,23,33,-10,5,6,1,0,15
1537909724027916,-27,14,43,5,-3,-1,9,2
1537909724027916,6,-9,-63,-17,-4,1,-9,-6
1537909724040881,0,-10,-2,3,0,6,-6,-6
1537909724040881,3,16,12,9,3,15,5,5
1537909724048859,-12,2,-9,-3,-6,5,3,-3
1537909724048859,4,10,31,19,8,10,6,3
1537909724063819,-2,-12,-12,-6,-6,-8,-15,-7
1537909724063819,-2,-23,-16,-2,4,2,5,0
1537909724064817,1,-12,2,-5,0,-7,2,6
1537909724064817,6,-5,4,9,4,-5,2,2
1537909724086758,-18,-12,-4,-14,-9,-14,-9,-10
1537909724086758,7,1,26,22,7,-2,-4,2
1537909724087756,0,-9,-16,-14,-5,-2,7,7
1537909724087756,-2,-11,-12,3,4,3,2,1
1537909724100721,2,3,22,15,0,-4,-7,-3
1537909724100721,9,1,4,-5,-3,1,0,3
1537909724109698,-10,1,-13,2,1,-1,0,-3
1537909724109698,-7,-42,-3,-6,1,1,0,-5
1537909724124659,2,1,8,5,3,-1,-7,-3
1537909724124659,8,13,-7,7,5,0,1,6
1537909724124659,-3,-22,-10,-3,-6,-4,2,2
1537909724124659,0,13,6,5,-1,-1,-1,0
1537909724146599,2,-11,10,-2,-2,-2,-5,-9
1537909724146599,-5,14,-7,-5,0,2,-1,-2
1537909724147597,-3,15,-11,3,-3,-2,0,-1
1537909724147597,3,1,-7,-3,2,3,-1,1
1537909724161559,-4,10,4,-2,-2,0,-4,-2
1537909724161559,-3,-14,4,-6,-1,-1,-2,-3
1537909724169538,5,-5,3,9,0,-2,2,4
1537909724169538,0,4,-3,-1,-5,-2,0,-2
1537909724184499,-7,-3,-4,-5,1,-1,-1,-2
1537909724184499,4,-4,8,-5,-9,-4,-5,0
1537909724185497,-4,6,-1,2,4,5,1,-1
1537909724185497,8,-6,0,12,8,3,1,2
1537909724206438,-15,-6,-3,-24,-14,-5,-4,-6
1537909724206438,3,2,5,6,4,1,2,3
1537909724207436,6,-10,-12,-3,-4,-2,1,3
1537909724207436,-3,7,-3,-1,2,0,0,-3
1537909724221398,0,-2,-2,9,4,1,-2,0
1537909724221398,-2,-1,0,2,-1,-1,0,-1
1537909724229376,-1,-5,-9,-3,1,0,-2,-2
1537909724229376,3,8,26,-5,-5,-2,0,-2
1537909724244336,-1,-2,-9,2,-3,-2,0,1
1537909724244336,-4,-7,-3,-3,1,2,-2,0
1537909724245334,-1,-3,0,-1,0,-1,0,-1
1537909724245334,-2,4,-1,-2,0,-1,-2,1
1537909724267275,2,2,1,-3,1,0,-3,-1
1537909724267275,0,8,3,0,2,1,0,0
1537909724267275,-7,-15,9,-2,-5,-4,-2,-3
1537909724267275,2,1,-21,-4,-4,-3,-3,-2
1537909724282235,-3,4,-6,-3,-1,-1,-2,-4
1537909724282235,2,-2,-13,4,1,-2,0,2
1537909724282235,-2,0,1,-2,1,1,2,0
1537909724282235,-4,-2,6,3,-5,-3,-2,-2
1537909724304177,-2,7,6,8,0,0,-2,-1
1537909724304177,0,-8,1,-6,1,1,2,-1
1537909724305174,2,-3,-8,4,0,-1,0,0
1537909724305174,-2,-3,5,-16,-5,-2,1,-1
1537909724327116,3,23,-1,5,0,0,0,-1
1537909724327116,-1,-17,-1,2,1,-1,-1,-2
1537909724327116,-3,-3,3,2,-2,0,-1,0
1537909724327116,0,9,-2,3,6,0,0,-1
1537909724342075,-1,-20,3,2,-3,-2,-2,-1
1537909724342075,0,5,-1,-4,-4,-3,-1,0
1537909724342075,0,1,-3,3,2,0,0,-1
1537909724342075,-2,-3,0,-2,0,-2,-2,-1
1537909724364017,0,-2,0,-5,0,1,1,1
1537909724364017,-2,0,9,8,-9,-4,-1,-2
1537909724365014,0,-4,-17,-5,-1,1,-1,0
1537909724365014,-3,4,18,-3,3,2,0,-2
1537909724386956,2,1,20,9,-7,-4,1,2
1537909724386956,0,0,-26,-9,1,0,-1,-1
1537909724387954,-3,-4,-6,1,0,-3,-1,0
1537909724387954,0,12,26,3,-1,-1,0,-1
1537909724401916,1,-8,-48,-10,1,1,-3,0
1537909724401916,1,0,1,-2,-2,1,1,0
1537909724402913,2,5,4,-2,-1,-2,-1,0
1537909724402913,-2,-8,-18,1,-2,0,-1,-2
1537909724423858,-2,-1,39,0,-2,-2,-1,-1
1537909724423858,-1,11,6,0,-1,0,-2,-1
1537909724424855,0,-5,-18,-4,1,0,0,0
1537909724424855,-1,4,11,8,-3,0,-1,-2
1537909724446795,-2,-5,-15,-8,1,0,-2,-1
1537909724446795,-1,-3,9,-2,-3,-2,-2,-2
1537909724447793,0,8,9,-3,-3,0,-1,1
1537909724447793,-2,-9,-8,-8,1,1,-1,0
1537909724461755,-2,2,13,7,1,0,0,-2
1537909724461755,0,-2,-5,5,1,-1,-1,-1
1537909724462753,-1,0,4,1,0,1,0,-1
1537909724462753,-2,6,6,-1,-3,-1,-1,-1
1537909724484694,-2,-5,-30,3,0,-1,0,0
1537909724484694,-3,-6,19,-15,-6,-3,-2,-2
1537909724484694,3,12,27,4,3,2,1,-2
1537909724484694,2,-8,-56,0,-2,-3,-1,0
1537909724506637,-4,-12,-51,-12,1,0,2,1
1537909724506637,-7,0,14,5,0,1,0,-2
1537909724507635,2,7,25,7,0,0,1,5
1537909724507635,-1,-2,31,4,-1,0,0,0
1537909724521597,1,10,10,-3,-3,-4,-2,-5
1537909724521597,2,-3,-21,1,6,1,1,3
1537909724522594,7,-5,-12,-6,-5,-2,3,11
1537909724522594,-4,1,5,-9,-2,-2,1,6
1537909724544535,7,2,-2,-1,3,1,17,29
1537909724544535,-22,-7,3,11,-1,1,-3,-32
1537909724544535,-12,-11,3,4,5,4,9,-2
1537909724544535,-38,2,-2,-5,-3,-10,-39,-54
1537909724567475,50,7,9,19,-4,-14,-29,51
1537909724567475,-20,-4,7,-13,0,16,23,-12
1537909724568472,2,16,26,19,7,-13,10,34
1537909724568472,-51,-20,-10,17,1,6,-61,-104
1537909724581438,-34,-1,-80,-66,-2,10,-13,-4
1537909724581438,-25,2,-1,7,-26,-12,-29,-25
1537909724582435,34,-2,11,15,10,-10,-36,67
1537909724582435,38,99,97,49,17,6,73,27
1537909724604376,-42,-94,-37,-82,-50,-36,-98,-128
1537909724604376,-28,32,62,11,-8,-16,-67,-16
1537909724605374,-19,-47,-57,-53,-17,15,59,-47
1537909724605374,83,-1,-91,20,56,32,84,112
1537909724626315,20,26,116,51,-13,-6,5,4
1537909724626315,19,-4,-94,12,15,8,7,37
1537909724627313,12,1,-14,-9,-15,-2,-3,54
1537909724627313,-54,-60,38,-48,-34,-42,-54,-58
1537909724641275,34,35,-12,7,10,11,8,39
1537909724641275,-40,-41,-11,-19,-14,-21,-48,-68
1537909724649254,-25,8,31,24,12,13,-19,4
1537909724649254,-6,-22,-64,-14,-9,1,7,4
1537909724664214,17,23,14,8,7,-16,-38,10
1537909724664214,7,10,36,18,13,13,74,1
1537909724672193,-9,-7,-36,-16,-4,-5,-4,-27
1537909724672193,16,7,9,-4,-12,-12,-77,58
1537909724687153,-11,-6,28,28,10,8,51,-53
1537909724687153,27,7,-27,0,15,0,1,22
1537909724687153,-8,-4,0,-16,-5,4,-6,-32
1537909724687153,14,-1,8,-5,-10,4,16,25
1537909724701116,-12,6,-20,19,18,12,33,27
1537909724701116,19,-9,-7,-7,3,3,14,26
1537909724709094,2,9,1,-3,-7,-12,-13,-21
1537909724709094,-3,1,19,6,-1,-2,31,-6
1537909724724054,-12,-2,-2,-5,5,7,5,3
1537909724724054,9,2,3,-7,-3,-3,-2,4
1537909724725052,6,8,11,5,-5,-7,-17,-10
1537909724725052,-3,2,-15,-5,-1,6,2,-6
1537909724746993,-8,0,-4,3,3,6,13,7
1537909724746993,17,-1,3,-3,-2,1,11,19
1537909724746993,-4,4,14,11,4,1,-1,-13
1537909724746993,-5,-7,-4,-3,0,0,0,-8
1537909724760957,-7,-3,-40,-17,-4,0,10,5
1537909724760957,5,0,-16,-2,2,0,-6,10
1537909724776913,1,-1,11,2,0,-4,-8,-13
1537909724776913,-1,0,0,4,-3,-6,-4,-7
1537909724783895,0,4,29,9,3,6,5,12
1537909724783895,7,-2,3,-8,-3,0,2,7
1537909724784893,0,0,8,8,3,1,1,-8
1537909724784893,-1,-1,-16,-4,-4,3,0,-1
1537909724806833,-6,-6,-33,-7,1,1,3,0
1537909724806833,3,0,3,0,0,1,3,5
1537909724813814,-1,-1,4,-3,-3,-1,1,-3
1537909724813814,-1,-4,29,5,0,0,-5,0
1537909724820795,-3,-2,-2,0,0,0,-2,-1
1537909724820795,1,1,26,-1,-5,-3,-2,-1
1537909724828774,1,-1,-11,-5,1,1,1,-2
1537909724828774,1,-4,-28,-1,0,1,2,-1
1537909724844731,2,-4,-6,1,-2,-2,2,4
1537909724844731,3,-2,21,0,1,0,0,3
1537909724844731,0,0,1,-4,0,0,-3,-6
1537909724844731,-12,-3,11,6,-2,-1,-2,-6
1537909724867670,-2,2,19,3,0,3,1,-1
1537909724867670,1,-3,-8,-9,1,-1,-2,3
1537909724868667,0,-3,-26,13,1,-3,-3,-3
1537909724868667,1,3,7,-18,-4,2,0,1
1537909724880635,-4,3,12,12,3,0,-2,-2
1537909724880635,-1,1,-6,-5,-3,-2,-2,0
1537909724889611,1,1,-19,-2,0,0,3,1
1537909724889611,-1,-6,-14,2,2,0,-1,-2
1537909724904571,-3,0,11,2,-2,-2,-2,0
1537909724904571,1,-1,13,-2,-4,-2,-1,2
1537909724904571,1,-2,-14,-1,-1,0,0,0
1537909724904571,1,-1,3,-1,-3,-3,-2,2
1537909724928508,-1,0,6,-1,0,2,-2,0
1537909724928508,1,2,-10,1,-2,-3,-2,-1
1537909724928508,-4,0,39,2,-2,-3,-2,-3
1537909724928508,0,-2,-13,-10,-5,-2,-1,-1
1537909724941473,2,-3,-26,-1,1,1,2,3
1537909724941473,1,1,12,6,1,0,1,1
1537909724949452,-4,-3,-11,-5,-2,0,-1,-2
1537909724949452,0,1,15,-2,1,-2,-1,0
1537909724964413,2,-3,-20,-20,-5,-1,-2,-1
1537909724964413,-2,-5,-24,0,0,-1,0,-2
1537909724965410,-5,1,30,30,4,1,1,-3
1537909724965410,4,5,-1,2,1,1,0,0
1537909724987351,-3,-10,16,-4,-5,-4,-2,1
1537909724987351,1,-4,-35,-10,0,2,0,1
1537909724988349,3,2,-14,-13,-5,-2,-1,1
1537909724988349,-2,0,31,9,2,-1,-2,-1
1537909725001314,-5,-2,-18,-4,-3,-3,-3,-4
1537909725001314,0,5,-6,-2,-1,1,-1,1
1537909725009294,-2,-16,-26,2,1,-1,1,0
1537909725009294,8,14,56,10,0,1,1,3
1537909725024255,-8,-4,-22,-10,0,-1,-2,-7
1537909725024255,-1,-9,2,12,0,-2,-1,2
1537909725025252,6,23,-25,-24,-3,0,2,5
1537909725025252,-16,-18,-22,3,-5,-4,-4,-10
1537909725047190,18,27,74,35,8,5,7,15
1537909725047190,19,4,-56,-13,-1,0,3,8
1537909725048188,30,22,10,7,0,1,8,22
1537909725048188,-46,-18,14,-14,-1,-1,-14,-43
1537909725070129,-13,34,32,10,1,1,8,13
1537909725070129,14,-1,7,1,4,4,2,-8
1537909725071126,-15,-38,-13,-17,-1,-5,12,9
1537909725071126,24,-18,-25,-8,-28,-19,-31,10
1537909725084092,-50,-2,-16,-17,-1,-3,-27,-55
1537909725084092,-35,1,34,6,0,7,44,10
1537909725085089,43,26,-32,13,4,-6,-70,-32
1537909725085089,46,58,-45,-2,36,28,106,110
1537909725107031,-45,-52,15,-43,-23,-11,-66,-89
1537909725107031,0,-12,30,19,-35,-26,-57,60
1537909725107031,15,-17,21,29,18,22,56,-33
1537909725107031,8,42,-16,-50,-38,-14,-34,-15
1537909725129972,102,-26,-13,23,10,-9,40,119
1537909725129972,-99,-26,9,-23,21,24,22,-93
1537909725130969,-14,28,-19,-2,0,-9,-45,4
1537909725130969,17,-30,-1,30,7,-2,17,3
1537909725143933,10,20,-7,1,-1,-14,-85,-64
1537909725143933,-36,-41,0,-7,-22,-12,27,-41
1537909725151912,40,56,-17,-42,-5,-1,55,64
1537909725151912,-31,3,30,-3,5,-6,-3,-30
1537909725166872,-26,-2,-4,44,21,7,22,39
1537909725166872,24,14,5,-25,10,-12,-54,-24
1537909725167870,-57,-43,-5,18,-1,1,5,-4
1537909725167870,56,2,-12,-13,-7,-6,-22,-7
1537909725189811,26,-19,0,17,12,20,30,44
1537909725189811,30,2,-4,5,3,-2,5,61
1537909725190809,-31,-23,19,-17,-6,15,67,-32
1537909725190809,-37,-15,-23,3,-3,-8,-68,-65
1537909725204771,-6,-3,8,-4,-5,1,-18,-19
1537909725204771,33,19,-17,-4,3,3,11,11
1537909725204771,-13,4,13,8,-4,-12,-23,27
1537909725204771,10,-19,2,26,15,9,12,18
1537909725226712,-5,7,-13,-19,-10,1,33,-9
1537909725226712,-3,15,-4,2,-2,-2,-4,4
1537909725227710,15,-9,28,6,0,-2,-6,6
1537909725227710,-23,-6,-4,-1,0,4,-4,-11
1537909725249649,-4,16,4,-18,-10,-4,7,-1
1537909725249649,16,6,-39,8,2,0,2,13
1537909725250647,-12,-11,8,-11,-3,-4,-38,-20
1537909725250647,-4,7,-60,-11,1,2,7,2
1537909725264609,-4,22,15,0,0,-1,12,11
1537909725264609,15,19,3,21,6,4,-7,-6
1537909725264609,-4,16,0,7,-3,-3,-3,-9
1537909725264609,-12,14,10,-4,-5,-3,4,9
1537909725287548,7,9,-10,-13,-3,3,13,5
1537909725287548,1,6,-25,-5,-2,-1,-6,-8
1537909725288546,-6,-4,35,-3,-1,-1,-12,-5
1537909725288546,1,-11,14,11,0,-1,5,13
1537909725309490,-1,-11,8,3,0,0,-6,-9
1537909725309490,4,-13,2,-4,-1,0,-2,-1
1537909725310488,-8,-23,-29,-4,-2,-5,-8,-1
1537909725310488,4,-13,26,7,3,1,2,3
1537909725332428,-4,-13,-1,-2,-2,-1,5,-3
1537909725332428,-2,-4,21,-8,-4,-3,-2,0
1537909725333427,4,-7,-5,8,-1,-2,-1,1
1537909725333427,-6,-7,-17,-11,-1,1,-2,-2
1537909725347393,-2,-6,7,-1,0,0,2,0
1537909725347393,5,-1,13,11,3,2,3,5
1537909725348386,-6,-4,-14,-7,-2,-1,-10,-6
1537909725348386,0,3,5,0,1,1,2,-1
1537909725370326,-5,0,-1,7,-2,-5,0,-1
1537909725370326,1,-4,-4,-6,-1,-2,-2,-4
1537909725370326,6,4,9,2,-4,-1,-2,-1
1537909725370326,-9,-4,-10,-4,-2,-3,0,-2
1537909725384289,1,-1,-23,3,4,3,3,3
1537909725384289,0,-2,21,-1,-5,-2,-2,-2
1537909725385287,2,1,-22,-6,-1,-1,-3,-2
1537909725385287,1,-2,20,17,1,-1,0,4
1537909725407228,-3,1,28,-9,-3,1,-3,-4
1537909725407228,0,1,-24,-1,0,0,-2,0
1537909725408226,-2,-3,-2,-2,-1,-1,-2,0
1537909725408226,-2,-3,-25,-5,2,0,0,-1
1537909725430167,-1,1,7,-3,-6,-2,0,-1
1537909725430167,6,2,16,3,2,0,0,3
1537909725431164,-6,-2,3,0,-1,-1,-4,-5
1537909725431164,-5,-1,6,-2,0,-1,-2,-3
1537909725444129,-4,-4,-33,-4,1,-1,-1,-5
1537909725444129,0,2,23,4,0,1,0,0
1537909725445127,3,0,-13,0,0,0,-2,1
1537909725445127,0,-6,-13,-3,0,-1,2,1
1537909725467068,2,6,41,5,-2,-1,1,2
1537909725467068,0,-6,-50,-7,1,2,-1,-1
1537909725468066,-1,-1,-15,2,0,-3,-1,0
1537909725468066,-2,-2,3,-3,-2,0,-2,-1
1537909725490008,5,4,-2,1,0,-2,2,3
1537909725490008,-2,0,14,3,1,0,0,-2
1537909725491005,-2,1,22,-2,-3,-3,-1,-1
1537909725491005,0,-3,-10,0,-2,0,0,3
1537909725503970,6,-1,-10,1,0,-3,-2,2
1537909725503970,0,0,8,2,1,-1,2,4
1537909725504968,7,1,-2,-3,2,3,5,8
1537909725504968,15,7,5,0,-1,2,13,7
1537909725527906,15,1,-7,9,5,-1,26,30
1537909725527906,-63,-9,0,-13,-8,-4,-16,-27
1537909725527906,43,20,-10,1,-3,1,-23,-11
1537909725527906,-31,-37,2,-5,-3,1,18,-17
1537909725549849,52,60,-2,18,18,24,89,88
1537909725549849,-30,-20,17,25,23,12,-63,-73
1537909725550846,-46,-62,-40,-54,-59,-40,-83,-72
1537909725550846,7,51,15,22,17,14,11,25
1537909725563811,17,-27,-2,-18,-2,-5,-2,12
1537909725563811,78,-42,6,52,21,6,63,76
1537909725572788,-24,41,39,52,21,17,22,23
1537909725572788,-49,-50,-29,-83,-47,1,-3,-74
1537909725585753,-63,-3,-15,12,14,-6,-56,-14
1537909725585753,89,70,1,19,4,17,10,5
1537909725594728,7,-36,9,71,30,22,75,41
1537909725594728,-14,12,2,-76,-36,-9,-66,-10
1537909725609688,-54,-30,0,56,3,4,67,-16
1537909725609688,12,17,-1,-96,-31,-23,25,69
1537909725611684,0,0,7,36,17,1,-27,-64
1537909725611684,-27,24,-1,-8,-1,-1,7,15
1537909725624649,13,-21,-3,-8,0,7,-31,-27
1537909725624649,-40,-12,-7,12,0,-11,-24,-5
1537909725632627,20,8,4,2,14,8,57,71
1537909725632627,34,-4,7,32,16,0,21,29
1537909725646589,-22,-15,-13,-21,-17,-17,-35,-44
1537909725646589,8,12,-6,1,-7,2,5,-6
1537909725653570,-13,5,3,-38,-9,-8,-17,-8
1537909725653570,4,-4,1,35,7,-5,-33,-31
1537909725669527,23,16,0,-15,-11,-3,1,16
1537909725669527,-22,-6,0,3,2,1,4,-5
1537909725671521,-5,1,-2,-18,-7,-5,-19,-12
1537909725671521,8,-4,-1,16,6,-8,4,13
1537909725683489,8,7,0,-3,-1,5,2,3
1537909725683489,-13,-3,-2,-8,-6,-7,-5,-14
1537909725692465,-12,-7,-6,-14,-6,-4,-8,-13
1537909725692465,24,8,4,20,10,0,23,25
1537909725706428,-7,3,0,-14,-7,-8,-21,-15
1537909725706428,-15,1,-10,2,-2,-2,-16,-26
1537909725713409,11,18,2,-13,-8,-1,11,22
1537909725713409,3,6,6,15,8,2,5,8
1537909725730364,-2,12,1,-6,-4,-2,-20,-17
1537909725730364,-8,8,-2,-2,-1,-3,2,-2
1537909725731362,3,13,-4,-6,2,2,10,11
1537909725731362,5,5,0,6,1,-2,-2,1
1537909725743330,-5,-7,-2,-5,-4,-4,-14,-14
1537909725743330,0,-3,1,-1,-1,-2,11,5
1537909725752306,-3,-16,-5,-9,-1,-2,-2,-1
1537909725752306,0,-14,-1,10,3,-2,-8,-6
1537909725767266,5,-7,-2,-4,-6,-2,2,3
1537909725767266,-4,-11,-1,0,0,2,0,-2
1537909725774248,-1,-2,12,-1,-2,1,-6,-5
1537909725774248,-2,-12,-2,1,0,-2,-2,-1
1537909725789208,0,-6,-24,-6,0,1,0,1
1537909725789208,-1,-2,7,4,-1,0,-2,-1
1537909725797187,-5,-10,2,-4,-4,-3,-5,-6
1537909725797187,5,-4,-6,4,3,1,7,7
1537909725803171,0,4,11,6,6,0,-2,-4
1537909725803171,-7,-8,-14,-24,-19,-7,-6,-6
1537909725812146,4,10,6,-3,5,2,5,4
1537909725812146,-2,-2,6,4,0,-1,0,1
1537909725827106,-2,-8,-2,6,-1,-1,-6,-7
1537909725827106,-3,-1,2,8,4,1,1,-1
1537909725833089,3,-2,-4,-1,-1,0,3,3
1537909725833089,1,8,5,0,1,0,-1,-1
1537909725850044,-2,0,-6,-9,1,1,-3,-3
1537909725850044,0,-4,-3,8,-1,-1,2,0
1537909725851042,-5,0,-10,-7,-2,-2,-2,0
1537909725851042,0,-2,-6,3,1,1,-1,0
1537909725864007,-1,2,8,-3,-5,-1,-3,0
1537909725864007,-2,-1,6,0,0,0,-2,-1
1537909725872983,-1,0,-7,3,-1,-2,-1,0
1537909725872983,0,2,1,-1,0,-1,0,1
1537909725886946,-1,-2,3,-1,-1,-1,-2,-2
1537909725886946,-1,8,-3,-4,4,1,0,-3
1537909725893927,-5,-17,-8,-2,-2,-2,-1,-2
1537909725893927,2,-2,2,1,-3,-3,-1,1
1537909725909884,7,3,0,-3,-2,-2,8,7
1537909725909884,-7,-2,-3,2,2,1,-9,-8
1537909725910882,-4,4,2,-1,-3,-3,1,-1
1537909725910882,1,-3,-2,-6,-1,0,0,-2
1537909725932823,4,-2,1,5,-1,-2,-2,1
1537909725932823,1,0,-1,-1,0,-1,0,0
1537909725933820,-2,1,-2,-1,0,0,0,1
1537909725933820,0,-1,-2,0,-2,-2,-1,-4
1537909725946785,-2,1,-2,-1,0,-1,0,-1
1537909725946785,-2,-5,2,-5,-2,-3,2,2
1537909725953767,5,5,1,1,0,-2,-1,1
1537909725953767,7,0,-3,14,3,1,4,7
1537909725969725,-2,-1,-1,-40,-12,-3,-7,-8
1537909725969725,-5,-2,-1,2,-3,-1,1,8
1537909725971720,7,-1,-4,-3,5,2,4,-7
1537909725971720,7,1,0,-11,-6,-2,6,17
1537909725992664,-10,4,5,20,3,-2,7,22
1537909725992664,-15,2,-3,3,-7,-3,-26,-43
1537909725993662,-9,-23,2,9,6,7,11,3
1537909725993662,39,-18,-12,-24,-5,-11,15,43
1537909726005629,-55,4,3,12,6,8,-15,-78
1537909726005629,-31,3,-13,-25,-10,-12,-86,23
1537909726014606,31,29,15,26,6,14,24,-85
1537909726014606,-2,12,-4,-23,-16,-17,-11,38
1537909726029566,62,-20,12,37,27,30,35,-22
1537909726029566,-108,-28,-30,-29,-30,-17,-46,-110
1537909726031562,24,8,4,12,6,-13,86,96
1537909726031562,-5,22,-10,-2,7,10,7,55
1537909726059487,47,-28,-1,-27,-23,-29,2,-48
1537909726059487,101,42,20,70,28,13,-60,49
1537909726061481,-46,-35,-8,-5,-13,3,26,28
1537909726061481,-6,14,5,32,3,-11,-4,13
1537909726066468,-16,-27,-29,-18,8,24,-92,-52
1537909726066468,-16,-7,11,-81,-53,-8,45,-33
1537909726075442,72,41,0,11,11,-1,-2,45
1537909726075442,-11,-20,5,41,24,5,59,91
1537909726090402,-11,19,8,14,4,-2,-7,-18
1537909726090402,-20,-31,-1,7,7,-2,-26,-48
1537909726091399,-29,4,-5,-17,-10,-4,-20,-5
1537909726091399,-8,6,4,-10,-9,-1,-28,-75
1537909726115335,-7,-1,-4,5,3,-14,-14,47
1537909726115335,28,3,1,3,12,10,65,44
1537909726116332,-25,-6,2,-5,-7,-5,-53,-20
1537909726116332,5,-17,0,2,1,7,1,-41
1537909726127303,-4,4,-2,-9,-10,-5,9,25
1537909726127303,0,5,3,14,10,3,28,21
1537909726128300,0,-6,-4,-12,-6,1,-4,-5
1537909726128300,-12,-7,-3,-12,-4,-1,-34,-54
1537909726141266,-11,17,0,-4,-4,-4,18,24
1537909726141266,16,6,3,8,8,2,19,25
1537909726149245,-8,-10,-6,-3,4,-4,-29,-18
1537909726149245,-4,4,-1,-10,-5,3,-1,-25
1537909726156226,-9,7,2,2,-3,-3,2,24
1537909726156226,18,1,2,13,13,6,29,21
1537909726163208,-7,-4,-4,-7,-4,-2,-17,-15
1537909726163208,-14,5,2,0,-3,1,-9,-22
1537909726178168,3,2,0,-3,-1,-2,20,24
1537909726178168,5,-4,-2,2,7,0,5,4
1537909726187145,-8,0,0,-7,-5,0,-9,-10
1537909726187145,-3,-2,1,-3,1,3,-9,-13
1537909726201107,-2,-1,3,-2,-3,-4,0,10
1537909726201107,5,-1,5,0,0,-1,13,8
1537909726209085,-7,-6,-28,-7,-4,-4,-12,-4
1537909726209085,2,-7,1,-3,1,4,0,-8
1537909726224044,-1,0,-5,4,-2,0,3,8
1537909726224044,2,1,28,4,2,-1,7,6
1537909726225042,-3,-2,12,6,-3,0,-4,-4
1537909726225042,-3,-3,-21,-17,-4,-1,-6,-10
1537909726239004,-1,3,-7,-4,2,0,3,5
1537909726239004,5,1,-5,2,-1,-1,5,6
1537909726246983,-2,-3,6,3,7,2,-8,-5
1537909726246983,-4,0,6,-6,-2,1,-2,-6
1537909726260946,-2,1,3,1,-6,-6,-1,2
1537909726260946,4,-1,-5,0,0,1,7,3
1537909726268924,-1,-1,-2,-2,0,-1,-6,-5
1537909726268924,-2,-1,1,4,4,1,-3,-5
1537909726284882,1,3,0,-4,-3,-1,4,5
1537909726284882,2,-3,-9,6,3,0,-1,2
1537909726285879,-1,1,2,-8,-5,-4,-1,-2
1537909726285879,-1,2,3,9,1,2,-1,-5
1537909726298845,0,1,0,-2,-2,-1,1,3
1537909726298845,-1,-3,-6,-5,-2,0,2,0
1537909726306823,-2,-2,-2,-2,0,1,-2,1
1537909726306823,0,-1,6,2,-6,-2,-1,-4
1537909726320786,-1,1,-4,-5,0,-2,0,1
1537909726320786,-2,-3,0,4,-2,1,1,1
1537909726329762,0,0,26,0,2,0,-1,0
1537909726329762,0,-4,-31,-4,-4,-3,-2,-3
1537909726344724,-2,-2,-13,6,1,-2,-1,2
1537909726344724,2,0,-5,-10,0,-1,1,1
1537909726345721,-3,-1,14,0,-6,-1,-3,-4
1537909726345721,1,4,6,0,0,0,-2,-1
1537909726358687,-4,-4,-2,5,0,2,-1,-3
1537909726358687,-2,0,-8,1,-2,-1,2,0
1537909726366664,-1,-2,-11,-5,-1,0,-1,-2
1537909726366664,0,0,21,1,-1,0,-3,-1
1537909726380626,1,1,2,0,-3,-2,1,1
1537909726380626,-1,0,-1,1,0,-2,-1,-1
1537909726389602,0,2,-1,-4,-4,-1,-2,-1
1537909726389602,-2,-2,-1,3,-1,0,-2,0
1537909726403564,-1,0,0,-2,0,0,-2,0
1537909726403564,-2,-1,1,-2,-1,-1,0,0
1537909726412541,0,-2,-7,0,2,1,-1,-1
1537909726412541,1,-1,-5,-3,-3,-5,-2,1
1537909726418525,1,1,3,-2,-2,-3,0,1
1537909726418525,0,-4,-4,-2,-2,-4,1,0
1537909726427501,-2,-1,-10,-3,0,0,1,-1
1537909726427501,-2,-3,4,5,-2,0,-1,-4
1537909726441464,1,-1,4,-6,-1,-1,-1,-1
1537909726441464,-1,-3,-1,5,5,1,-1,0
1537909726457422,-2,-1,-5,-2,-10,-4,-2,-1
1537909726457422,-2,0,6,13,1,-1,0,-1
1537909726463406,3,-1,1,-7,1,3,0,2
1537909726463406,-6,-5,-11,-20,-2,-1,0,-4
1537909726472382,-3,-5,1,15,-3,-6,7,2
1537909726472382,-5,-2,0,-5,-1,0,-9,-6
1537909726478365,5,-2,2,7,0,-1,1,2
1537909726478365,2,-3,-7,7,4,1,-2,-1
1537909726487341,4,4,1,-11,-4,-2,0,1
1537909726487341,-8,-14,-2,3,-1,-1,1,-4
1537909726502301,1,11,-6,-13,-1,-1,-1,0
1537909726502301,-1,-17,1,3,-5,-3,0,0
1537909726510280,0,-2,-5,-5,1,-1,-3,-1
1537909726510280,1,3,-1,2,-1,0,2,1
1537909726523247,-2,0,1,-3,-2,0,-2,-1
1537909726523247,0,4,1,-1,-2,0,0,-1
1537909726532221,-1,2,-2,4,3,1,-2,0
1537909726532221,-3,-3,-2,-15,-6,-2,-1,-5
1537909726538206,-1,0,1,13,1,0,1,1
1537909726538206,-5,4,3,-2,-7,-2,-2,-5
1537909726547181,2,-4,-3,3,3,-1,-3,-1
1537909726547181,6,4,-1,-5,2,1,2,4
1537909726561144,2,-5,2,14,3,1,0,2
1537909726561144,-9,2,-3,7,6,1,1,-4
1537909726570121,-7,0,2,-27,-13,-3,-2,-4
1537909726570121,6,1,-2,8,5,1,2,-1
1537909726584084,11,0,0,9,2,1,11,16
1537909726584084,12,3,-3,-19,-3,-1,-3,24
1537909726591065,-20,-6,-1,-7,3,3,-7,-36
1537909726591065,5,8,-7,21,7,1,21,37
1537909726599042,-18,-14,19,8,5,2,-3,-30
1537909726599042,-14,8,-11,9,-3,-4,-31,-44
1537909726608019,10,3,4,7,5,-7,3,28
1537909726608019,34,-18,-9,-7,-12,-8,15,21
1537909726620984,44,-32,11,31,-1,10,29,21
1537909726620984,-35,50,-1,-10,10,6,43,28
1537909726629961,3,-67,-5,22,-20,-23,-107,-87
1537909726629961,-44,48,-11,-50,4,-1,1,9
1537909726643923,-32,-32,0,58,5,0,-39,-41
1537909726643923,102,68,-8,-97,-21,-5,-3,6
1537909726652900,-50,-74,-3,-17,-32,-16,-68,41
1537909726652900,-39,-3,-6,14,-9,-15,-128,-128
1537909726658884,-66,-13,-20,-90,2,26,97,58
1537909726658884,22,3,6,-18,-1,-20,14,47
1537909726667860,4,17,2,23,16,-4,47,43
1537909726667860,22,-58,0,25,12,8,-76,-33
1537909726681821,-110,31,-5,-7,-11,2,-33,-70
1537909726681821,66,-17,-10,70,50,25,61,4
1537909726689800,38,38,35,-22,-24,-19,102,60
1537909726689800,18,-7,-12,-58,-3,13,46,39
1537909726703762,12,21,3,25,10,-2,-19,21
1537909726703762,-13,-8,6,36,14,20,86,101
1537909726719719,-26,-24,-17,24,15,6,-66,-83
1537909726719719,8,12,5,15,-9,-16,-33,-18
1537909726719719,34,22,-1,-33,-7,-10,6,14
1537909726719719,-33,-38,9,5,-19,-15,-93,-29
1537909726727698,13,20,-3,-4,17,36,69,8
1537909726727698,-3,16,17,22,1,-8,59,38
1537909726740664,30,-8,-7,-10,-7,-12,-54,-12
1537909726740664,-23,-13,0,12,-6,-9,-29,-21
1537909726749641,2,34,-1,-5,2,6,16,-1
1537909726749641,0,-8,-3,-6,0,6,22,11
1537909726763603,16,10,-6,-3,-4,-19,0,14
1537909726763603,-20,-6,5,3,-8,8,8,-35
1537909726772579,-4,1,-15,-14,0,3,-13,-19
1537909726772579,10,10,6,-1,0,1,28,10
1537909726778562,25,1,3,-2,-1,-1,2,7
1537909726778562,-23,-12,4,4,-8,-1,-18,-27
1537909726787539,1,10,-3,1,4,1,35,22
1537909726787539,0,0,3,10,2,0,-22,4
1537909726801502,11,6,-2,-5,-2,2,1,-5
1537909726801502,-35,-14,-6,-12,-8,-5,-20,-19
1537909726810478,32,20,-4,1,8,2,2,7
1537909726810478,-9,3,0,-3,-10,-1,12,3
1537909726823444,3,13,-3,-3,-3,-4,-12,-1
1537909726823444,-4,6,-1,0,-4,-4,3,1
1537909726832419,-8,7,-4,-7,2,2,-7,-9
1537909726832419,-3,-1,3,4,2,6,10,-1
1537909726838402,1,-5,-3,-2,-2,-4,-1,-2
1537909726838402,2,-7,0,3,0,-5,-6,-4
1537909726847378,-2,3,1,8,5,5,-5,0
1537909726847378,-4,-12,-5,-14,-2,0,5,1
1537909726861341,4,-7,-2,-3,-3,-5,-4,1
1537909726861341,-3,-9,-1,5,-1,-1,-9,-9
1537909726876300,-2,-6,1,-13,-5,-2,-9,1
1537909726876300,-4,0,-3,-6,-1,-3,6,2
1537909726883282,4,-4,1,1,-1,0,1,0
1537909726883282,-1,-10,7,4,0,1,-8,-8
1537909726892258,-3,2,14,5,-2,-3,-4,2
1537909726892258,-2,-1,-55,-1,2,2,10,4
1537909726898242,0,-13,2,-1,1,1,0,-1
1537909726898242,-4,-10,-28,-21,-13,-4,-10,-8
1537909726907218,0,8,42,2,4,1,-3,4
1537909726907218,-1,4,7,7,0,0,2,-3
1537909726921181,0,-10,-71,-7,0,-2,-4,-2
1537909726921181,-3,-1,46,5,0,0,-4,-4
1537909726930157,0,-1,-33,-5,-2,-1,-1,2
1537909726930157,4,3,17,8,2,0,5,5
1537909726944119,-3,-4,12,-2,-1,0,-3,-3
1537909726944119,2,-1,-16,-3,-1,-1,-1,0
1537909726951100,4,6,10,2,-2,-1,0,3
1537909726951100,-12,-5,3,-1,-1,0,-3,-6
1537909726958082,2,8,31,4,-1,-1,-1,1
1537909726958082,-4,0,18,0,0,-1,-2,-4
1537909726967058,2,-5,-43,-10,-1,-2,-4,1
1537909726967058,4,1,-5,1,1,2,3,4
1537909726981021,-2,-2,-22,-3,-5,-1,-1,-3
1537909726981021,0,4,42,5,0,-1,-3,-1
1537909726995981,-4,-4,-44,-1,-1,-1,-1,-1
1537909726995981,-2,-6,-5,-3,0,1,2,0
1537909727012937,1,2,15,1,-2,-1,-1,-2
1537909727012937,1,0,-9,6,2,1,-2,-1
1537909727013934,-2,1,19,-4,-2,-2,-1,-1
1537909727013934,-2,-4,-2,-1,2,1,-1,-1
1537909727034878,-1,2,8,-4,-2,-2,-1,-1
1537909727034878,3,1,-14,8,1,-1,0,1
1537909727036872,-2,-3,9,3,1,-1,-2,0
1537909727036872,3,1,2,-3,-3,-1,1,1
1537909727048841,-1,0,-1,1,4,1,0,-2
1537909727048841,-1,-4,-12,-8,-6,0,0,-2
1537909727055823,-3,0,1,-2,-3,-1,0,-2
1537909727055823,-3,0,12,1,0,-1,-1,-3
1537909727072776,2,0,6,5,0,-1,0,3
1537909727072776,1,-3,-15,0,3,0,8,5
1537909727073774,0,-1,4,3,3,1,13,11
1537909727073774,3,3,17,3,-3,-11,-65,-1
1537909727094717,16,2,0,5,3,8,58,14
1537909727094717,-6,-8,-20,18,5,4,-18,-33
1537909727096712,-46,-11,-9,-65,-22,-15,-20,-13
1537909727096712,20,28,6,-33,-30,-15,3,53
1537909727108679,-14,-34,9,101,37,21,42,-17
1537909727108679,31,-50,-45,-90,-68,-32,-92,-53
1537909727117656,29,90,39,114,39,14,93,62
1537909727117656,-68,-62,-5,-21,-28,1,-46,-87
1537909727132615,-66,31,-11,-47,1,-11,-123,-77
1537909727132615,-39,17,-2,-1,0,-14,110,66
1537909727133613,96,-21,17,48,16,8,-1,50
1537909727133613,23,53,-4,-16,26,21,-20,-57
1537909727154557,-103,-93,-19,-52,-33,-19,-11,0
1537909727154557,75,101,13,-41,0,18,-48,-76
1537909727156552,-14,-60,5,90,29,9,49,28
1537909727156552,94,53,3,-59,16,3,46,65
1537909727168519,62,-2,6,45,-9,-3,76,80
1537909727168519,-77,10,1,29,23,14,6,6
1537909727177496,117,-32,-6,-73,-32,-18,-2,84
1537909727177496,-79,-64,-2,-7,-22,-6,-70,-106
1537909727192456,-79,33,4,39,17,19,16,0
1537909727192456,16,-11,9,19,-14,-27,38,56
1537909727193454,34,48,-2,36,19,27,-13,-20
1537909727193454,79,-12,-3,8,-7,6,37,-6
1537909727214397,7,-8,14,9,12,-2,84,110
1537909727214397,-8,-21,8,26,5,6,-68,-72
1537909727216392,-128,-46,-22,-47,-28,-18,-22,-33
1537909727216392,47,2,2,24,20,-2,1,11
1537909727228360,-43,1,-4,-41,-28,-25,-14,-65
1537909727228360,122,14,11,2,19,18,43,65
1537909727237336,1,-43,-11,-27,-8,6,4,-39
1537909727237336,-40,12,10,39,4,-2,5,43
1537909727252296,38,21,-4,-17,3,1,-16,1
1537909727252296,-65,-50,-5,1,2,2,-3,-8
1537909727254292,-45,19,-4,-11,-7,-11,-46,-52
1537909727254292,-16,4,-2,20,-1,-8,24,13
1537909727275235,102,16,5,-16,-6,4,-27,-5
1537909727275235,-20,-1,-5,8,12,4,4,0
1537909727276233,16,25,3,0,-8,-5,-33,-17
1537909727276233,-28,-9,-4,6,9,2,29,16
1537909727288200,15,-1,-3,-10,-7,-4,-25,-16
1537909727288200,-5,3,3,8,2,-1,-13,4
1537909727297177,-4,9,-5,-20,-3,-1,-5,-11
1537909727297177,-24,-15,1,14,3,1,11,6
1537909727312136,5,15,1,-7,-1,-3,-25,-18
1537909727312136,1,6,-2,3,3,-1,9,15
1537909727314131,-26,-5,-3,-10,-3,5,-3,-19
1537909727314131,-6,20,-1,6,-2,-6,10,9
1537909727335074,21,50,-1,-6,-2,-6,-23,-6
1537909727335074,-12,24,-2,-4,-4,-3,9,4
1537909727336072,-2,29,-1,-5,-1,0,-3,-11
1537909727336072,-2,-3,2,5,-2,-2,-5,6
1537909727348040,6,-11,10,-4,3,2,-4,-6
1537909727348040,-14,-20,-22,-1,0,-1,0,0
1537909727363997,-9,-10,-5,-9,-3,-4,-9,-9
1537909727363997,0,-15,-4,3,0,0,7,11
1537909727371976,-5,-31,2,0,0,1,-4,-7
1537909727371976,-8,-16,15,7,2,-1,-1,1
1537909727373971,4,-15,-5,-8,-1,0,-8,-3
1537909727373971,-4,-11,-22,8,0,1,6,3
1537909727394915,3,-11,2,-11,-5,-2,-5,-4
1537909727394915,0,-6,-2,4,1,1,-4,0
1537909727395912,-2,-8,-7,-1,1,-3,-2,-2
1537909727395912,-8,1,21,17,4,0,1,-1
1537909727408877,1,-2,-25,-41,-10,-1,-8,-4
1537909727408877,2,7,0,-5,-2,0,4,4
1537909727417853,-13,-16,6,0,-3,-2,-4,-10
1537909727417853,-2,-1,-2,7,1,-2,1,0
1537909727432813,7,8,9,5,-2,-1,-6,0
1537909727432813,-7,-5,6,-3,3,2,0,-1
1537909727433811,0,9,-8,-4,0,-2,-1,-4
1537909727433811,1,-1,0,-7,-6,-4,-1,0
1537909727454755,-2,1,-2,7,5,0,-1,-1
1537909727454755,0,-4,-5,-3,-2,-2,-1,1
1537909727456752,-6,0,0,4,-1,-1,-3,-4
1537909727456752,1,-1,1,-5,0,1,2,1
1537909727468719,0,-5,-2,4,3,1,-1,-1
1537909727468719,-2,-5,-22,2,-3,-4,0,1
1537909727477695,4,9,35,-4,-1,0,-2,1
1537909727477695,-1,4,-8,-7,-3,-2,2,1
1537909727492654,2,-4,14,7,0,0,-1,0
1537909727492654,-6,-10,-12,0,-2,-4,-2,-3
1537909727493651,0,-6,-41,-5,1,0,0,-1
1537909727493651,-5,3,-1,-9,-5,-1,1,-1
1537909727514595,4,3,26,12,-2,0,-4,-4
1537909727514595,1,9,43,11,3,0,0,1
1537909727516590,-3,-5,-16,-17,-6,-2,-2,-1
1537909727516590,-2,-6,-20,-1,1,0,2,2
1537909727528558,1,1,41,3,1,-1,-1,5
1537909727528558,-2,-5,-44,-2,-2,-1,-2,-5
1537909727537534,0,2,-2,3,0,-2,0,-2
1537909727537534,-3,-4,-4,-3,-2,-1,0,-1
1537909727552494,-4,-1,-15,2,0,-2,-3,-3
1537909727552494,0,1,36,-3,-1,-1,0,0
1537909727553491,2,6,22,6,3,0,-2,0
1537909727553491,-2,-5,-37,-10,-4,-2,-5,-1
1537909727574436,6,3,-25,3,2,0,6,3
1537909727574436,-6,-3,6,-1,-1,-1,-2,-5
1537909727576430,3,-3,-6,1,-1,0,-1,-1
1537909727576430,-4,-1,15,0,1,-1,-2,-1
1537909727588398,-2,-2,5,-2,-1,-2,-2,-1
1537909727588398,7,2,41,1,-1,0,1,9
1537909727597374,10,3,-48,-2,-1,0,1,5
1537909727597374,-34,-17,-13,-2,0,-1,-9,-26
1537909727612334,-6,-1,-13,-2,-1,-1,1,0
1537909727612334,8,-4,9,4,2,2,2,2
1537909727614328,-17,-4,13,-6,-3,1,17,13
1537909727614328,-9,-6,9,-4,-3,-5,-5,-15
1537909727635272,54,0,-1,28,2,-5,4,53
1537909727635272,-37,12,-7,26,22,21,17,-46
1537909727636270,-42,-27,3,-67,-47,-17,-20,-24
1537909727636270,6,14,-8,-3,3,-7,-10,18
1537909727659209,-5,-9,-10,24,20,9,5,-11
1537909727659209,-12,2,-15,-82,-59,-20,-54,-47
1537909727660206,39,14,32,43,31,6,42,50
1537909727660206,59,-7,13,41,10,16,-13,60
1537909727664195,-75,4,-17,-49,-34,-31,-69,-69
1537909727664195,98,-83,-22,-31,12,-30,-47,36
1537909727671176,-127,67,1,45,13,-7,-118,-122
1537909727671176,120,-30,20,-25,-20,6,-39,-62
1537909727687135,-32,-4,-5,4,18,25,29,81
1537909727687135,3,1,-21,30,10,-9,17,1
1537909727689128,93,29,11,2,-6,3,107,102
1537909727689128,-97,-54,-23,-15,-24,-36,-81,-57
1537909727701096,36,47,-12,40,25,20,78,50
1537909727701096,-102,-76,-6,20,-5,1,-42,-83
1537909727710073,67,59,21,-25,-26,7,108,97
1537909727710073,-63,-2,4,82,20,25,-1,-33
1537909727724035,-35,-7,-9,3,-14,-6,-16,-42
1537909727724035,21,27,3,-7,-8,7,85,83
1537909727731017,11,-17,-16,30,52,13,-73,-22
1537909727731017,-40,-21,8,-29,-33,-12,23,3
1537909727746973,57,-24,12,-24,-8,-3,40,28
1537909727746973,25,7,0,51,40,22,-65,-5
1537909727748969,-100,-27,-15,-24,-20,-28,-95,-101
1537909727748969,3,43,11,-32,-1,2,37,29
1537909727760936,43,-6,4,14,5,1,16,7
1537909727760936,19,33,0,-12,-12,3,48,43
1537909727769912,45,-40,-4,-5,-8,3,7,1
1537909727769912,9,4,6,3,12,-1,-7,4
1537909727783875,-22,10,2,-6,-8,-7,-4,-20
1537909727783875,-10,14,-8,0,-4,-5,-7,-3
1537909727790857,-12,-16,4,-6,-3,0,-12,-16
1537909727790857,14,30,6,12,15,4,35,19
1537909727807812,9,6,-5,-8,-7,-1,-28,-16
1537909727807812,-17,9,3,-11,-6,-2,1,-8
1537909727808810,20,-6,5,11,4,6,6,0
1537909727808810,20,24,-4,-5,4,0,29,25
1537909727820778,-14,-10,6,-6,-8,-7,-20,-24
1537909727820778,0,6,-23,-1,0,-2,2,0
1537909727829753,0,6,-2,6,4,3,17,9
1537909727829753,1,23,0,-2,3,2,4,8
1537909727844712,-11,14,2,-11,-5,-4,-20,-17
1537909727844712,2,30,11,10,3,-1,15,6
1537909727850697,11,9,2,0,-2,2,-1,4
1537909727850697,-4,8,-13,-7,1,-1,3,0
1537909727866654,4,6,26,3,2,-4,-10,-10
1537909727866654,5,9,-17,-6,-2,2,11,9
1537909727873636,-3,-24,-19,-4,-3,-4,1,0
1537909727873636,3,-19,2,1,3,0,3,5
1537909727880616,-5,-20,-3,0,1,2,1,-4
1537909727880616,-3,-17,8,0,-2,0,-4,0
1537909727889592,-4,-19,8,-2,1,-1,-3,-5
1537909727889592,4,-2,10,9,3,-1,7,3
1537909727904552,2,-11,-15,-13,-3,-1,-8,-4
1537909727904552,-5,-6,6,11,-1,-2,-1,-4
1537909727911535,4,-3,-10,-24,0,1,0,0
1537909727911535,6,2,7,2,-8,-4,3,6
1537909727926493,-4,-7,-9,6,4,-1,-3,-5
1537909727926493,0,5,2,-5,-4,-3,1,1
1537909727933475,-1,-3,6,9,4,2,5,0
1537909727933475,2,0,-7,-6,-1,-2,3,3
1537909727941454,-5,0,-1,-2,-1,1,-4,-4
1537909727941454,0,4,-1,2,-1,-2,3,0
1537909727950429,3,0,0,3,-1,-1,-2,2
1537909727950429,-1,-1,-1,-6,1,0,-1,-2
1537909727964392,-2,-3,-1,10,0,-1,-2,-5
1537909727964392,2,4,-1,-7,-2,-2,0,3
1537909727971373,-3,-3,-2,3,-2,-3,-2,-1
1537909727971373,0,0,-2,0,2,0,-2,1
1537909727986333,-1,0,2,0,2,1,-1,-1
1537909727986333,-2,1,-4,1,1,1,-2,0
1537909727993315,0,-3,-9,-2,-3,-4,-2,0
1537909727993315,-1,0,2,2,2,0,0,0
1537909728001293,-1,0,-4,-4,-2,-1,-2,0
1537909728001293,-1,1,10,-3,-5,-1,0,-5
1537909728010269,2,0,-1,1,-1,-1,-1,0
1537909728010269,1,0,-5,-2,1,0,1,0
1537909728024232,-2,-5,-9,-4,-2,-1,-1,-1
1537909728024232,-1,-3,1,1,2,1,-1,0
1537909728031213,0,1,4,2,-5,-3,-1,-2
1537909728031213,-1,-1,1,3,2,1,1,0
1537909728048169,-2,4,1,-7,-4,-2,-2,-1
1537909728048169,2,-5,5,1,0,-1,0,-2
1537909728053155,-2,-2,1,-5,-1,1,1,-2
1537909728053155,-1,-1,0,3,-2,0,0,0
1537909728070111,-1,-3,-24,1,-1,0,-1,-1
1537909728070111,0,10,5,-5,-1,-1,0,0
1537909728071107,1,-5,15,2,-1,-1,-1,0
1537909728071107,0,-3,-9,-1,-3,-2,0,-3
1537909728084072,-1,4,-11,-2,0,-1,-2,-2
1537909728084072,-1,4,26,-2,-2,-1,-1,0
1537909728091054,-4,-5,-28,0,-3,0,-2,-2
1537909728091054,2,2,17,2,0,-1,1,0
1537909728107011,0,-6,10,2,-3,-1,-1,0
1537909728107011,-2,2,-33,-6,-1,1,0,-1
1537909728113992,1,5,-8,-4,0,0,1,2
1537909728113992,-1,-9,-8,0,-2,1,-2,-1
1537909728129950,-1,5,-3,-1,-3,-2,-1,-2
1537909728129950,-2,-12,37,2,-1,0,0,-2
1537909728130947,0,15,-9,-3,-1,-2,-2,-3
1537909728130947,-3,-8,-9,-10,0,1,0,0
1537909728143912,2,1,12,7,1,10,1,8
1537909728143912,-8,3,-13,-8,-1,-12,5,-9
1537909728152889,0,-10,-11,-2,-4,0,1,22
1537909728152889,6,11,17,16,4,3,-2,3
1537909728166851,-3,7,-8,-8,-1,-5,-1,3
1537909728166851,7,-13,-28,5,1,6,3,3
1537909728173833,-9,1,3,-4,-5,-5,-11,-14
1537909728173833,-2,9,44,-5,1,-3,4,2
1537909728190788,0,-10,-14,-2,-1,3,3,13
1537909728190788,-3,4,-21,-10,-5,-3,-10,-33
1537909728192782,1,22,4,5,1,-2,1,-3
1537909728192782,-5,-9,-25,-14,-1,0,-3,-10
1537909728203753,1,-18,19,9,1,-3,0,-3
1537909728203753,0,13,-9,7,0,0,-2,13
1537909728212729,9,-7,-22,2,1,4,3,-3
1537909728212729,-3,20,26,-9,-3,-3,-3,-1
1537909728226694,2,7,-51,-5,1,0,-1,5
1537909728226694,5,1,39,1,1,1,0,8
1537909728233675,-6,-30,55,7,3,1,-1,-6
1537909728233675,8,32,-51,-3,-3,-2,1,8
1537909728249631,3,-4,50,1,-2,-2,-2,-10
1537909728249631,-10,-35,-26,-3,-4,0,-5,-3
1537909728251627,0,2,1,2,1,-1,-2,-2
1537909728251627,-5,-12,1,-2,-2,-5,-5,-6
1537909728263594,3,26,-21,-10,-2,-2,-1,-7
1537909728263594,1,44,7,8,1,0,0,5
1537909728272571,4,-19,-15,4,4,3,3,6
1537909728272571,0,-5,56,9,-3,2,0,0
1537909728286532,-6,-12,-14,-8,-2,-5,-6,-6
1537909728286532,2,22,-4,0,0,-2,-3,5
1537909728293514,-4,28,73,7,-3,-5,-4,-4
1537909728293514,-4,-15,-36,-1,0,-2,-2,-3
1537909728308472,0,14,30,-14,-4,-2,0,-3
1537909728308472,1,-29,-81,-13,-3,7,4,7
1537909728317448,-5,3,-2,5,-1,-10,-5,-5
1537909728317448,0,3,13,13,3,-5,-9,-9
1537909728323432,-2,5,0,-8,-2,-3,8,41
1537909728323432,-11,-26,56,15,-4,-4,-19,-71
1537909728332409,3,28,10,-7,-2,2,6,49
1537909728332409,-5,-25,-17,-3,-3,1,-2,-8
1537909728346371,0,6,2,-1,0,-2,-5,-12
1537909728346371,1,1,-43,-6,-1,-1,4,13
1537909728353353,-2,-12,-5,-1,-4,1,-4,-20
1537909728353353,-3,5,-11,-11,-4,-4,0,9
1537909728370308,-1,-24,-29,6,6,7,5,1
1537909728370308,-2,18,85,24,6,1,3,10
1537909728371305,0,-2,-11,-6,-3,0,1,-10
1537909728371305,-2,7,-39,-7,-7,-2,5,11
1537909728383273,-3,0,2,-9,-10,-2,-7,-20
1537909728383273,-1,-12,1,9,5,0,0,7
1537909728392249,0,7,16,-6,-1,1,1,-2
1537909728392249,-1,15,51,17,5,2,-2,-8
1537909728407209,3,-4,-28,-11,-1,-4,-2,-6
1537909728407209,-4,-51,-57,-12,-3,-3,1,11
1537909728413194,1,17,28,8,-4,-2,0,-3
1537909728413194,-1,-26,-68,-15,-2,1,1,-1
1537909728430147,-6,13,46,16,-1,-5,-3,-5
1537909728430147,0,-7,-33,-8,1,0,2,9
1537909728431145,-5,-22,-6,-6,-4,0,-3,-12
1537909728431145,0,9,6,6,1,-1,2,-3
1537909728443112,-3,-19,2,-4,0,1,0,1
1537909728443112,4,16,29,1,-2,0,2,4
