timestamp,emg1,emg2,emg3,emg4,emg5,emg6,emg7,emg8
1537918787382459,-1,-1,-2,-2,-15,-23,0,-2
1537918787382459,-1,-1,-5,-9,-15,14,8,-1
1537918787383457,0,0,0,0,2,-4,-22,-2
1537918787383457,-1,-2,-2,0,-9,22,29,3
1537918787384454,-2,-1,0,5,8,-31,-12,-7
1537918787384454,1,1,2,5,19,49,19,4
1537918787384454,0,1,-1,-4,-14,2,-10,-3
1537918787384454,-1,-2,-1,-2,-23,-33,-13,-3
1537918787392433,1,1,0,-1,-2,-2,-3,0
1537918787392433,-1,-3,-4,-1,-2,-17,-4,-1
1537918787395425,-1,-3,1,1,10,5,10,1
1537918787395425,-1,1,-1,-4,10,1,-16,-1
1537918787412379,-2,-2,-1,-1,-4,11,53,2
1537918787412379,1,0,1,2,2,-1,1,-1
1537918787420358,-1,-2,-1,5,9,8,-13,-2
1537918787420358,0,-2,-5,-3,-12,-31,-27,3
1537918787427339,1,1,2,3,18,42,30,3
1537918787427339,1,0,1,0,4,-42,-9,2
1537918787450278,-3,-2,-4,-11,-28,-14,14,-2
1537918787450278,-1,-1,2,2,0,32,-2,0
1537918787488177,0,-1,0,3,8,-5,-3,1
1537918787488177,0,0,0,-4,-15,-19,3,-1
1537918787489174,-1,-1,-3,-3,-3,8,-4,-1
1537918787489174,0,0,-1,-1,1,-1,-1,1
1537918787489174,-1,-1,1,0,0,2,2,-2
1537918787489174,-1,-1,-2,-2,5,7,-1,-3
1537918787493163,3,0,0,-2,0,-8,1,1
1537918787493163,0,-2,-2,-5,-8,-2,-2,-1
1537918787500144,-1,-1,-1,1,4,0,-1,-2
1537918787500144,0,0,-1,1,2,5,2,-1
1537918787509121,-1,-1,-1,-1,-1,0,-1,-2
1537918787509121,-1,0,0,-1,1,0,-2,-4
1537918787515104,-1,1,-1,-3,-5,-3,0,0
1537918787515104,-7,0,-1,1,3,1,0,-7
1537918787532059,-3,1,-1,-1,0,-3,-1,-2
1537918787532059,-5,-3,2,3,0,-3,5,-5
1537918787538043,6,0,-2,-5,-8,2,-5,4
1537918787538043,3,-4,-2,-2,-2,-4,-4,11
1537918787553004,-2,-2,1,1,-3,-15,-38,-7
1537918787553004,0,0,0,1,2,23,46,3
1537918787560982,-3,-2,0,0,-2,-7,22,-9
1537918787560982,4,0,0,1,1,2,32,6
1537918787575942,-1,0,-1,-1,-2,1,3,0
1537918787575942,3,0,-3,-2,-2,-10,-36,1
1537918787576939,-3,-1,0,0,-1,1,-1,-3
1537918787576939,1,-1,0,2,12,5,-59,-2
1537918787598881,1,-1,0,1,-4,1,78,8
1537918787598881,-4,0,-2,-1,-15,-17,-2,-3
1537918787598881,9,-1,-4,-2,16,23,23,14
1537918787598881,-5,-3,1,6,25,20,-24,-11
1537918787620822,-8,-2,-2,-13,-53,-78,17,-13
1537918787620822,0,1,-2,-8,-30,-9,-86,1
1537918787621820,4,2,2,4,2,12,47,2
1537918787621820,-2,-1,-1,-3,0,19,21,-4
1537918787635782,4,0,-4,1,17,-9,-39,-12
1537918787635782,-1,-3,-1,-1,0,10,19,-1
1537918787636779,-7,-3,-2,-5,-10,-6,-16,-3
1537918787636779,-4,2,1,2,2,12,-11,-13
1537918787658721,1,-2,0,4,11,7,28,9
1537918787658721,1,0,-1,0,-4,-15,-2,3
1537918787659718,-3,-2,-1,-1,4,-5,-48,-15
1537918787659718,-1,-2,-1,1,-1,-12,22,0
1537918787681660,-2,0,2,2,6,11,-24,-6
1537918787681660,5,0,-3,-2,21,18,63,18
1537918787681660,-5,1,0,-1,0,-3,-25,-5
1537918787681660,0,-2,-4,-15,-48,-39,14,6
1537918787703601,-2,0,-2,0,6,9,-29,-3
1537918787703601,-3,0,2,3,13,9,4,-11
1537918787704598,-1,-1,0,2,0,-4,-13,0
1537918787704598,-1,-1,-1,2,4,3,8,1
1537918787718561,2,0,-1,2,17,32,-10,3
1537918787718561,-1,0,0,3,4,-13,-6,-5
1537918787719558,-1,-2,-3,-8,-24,-7,2,0
1537918787719558,0,-1,0,1,2,-7,-12,13
1537918787741499,0,-1,-3,-7,-7,6,-3,-4
1537918787741499,-1,-1,3,7,10,6,2,-1
1537918787741499,0,-1,-1,-2,-2,-6,2,2
1537918787741499,-2,0,1,5,13,3,-37,-15
1537918787756459,3,0,1,13,38,15,29,9
1537918787756459,-7,-1,2,2,1,-58,-15,-41
1537918787756459,-1,-1,-5,-22,-69,41,42,33
1537918787756459,17,3,-3,-14,-28,-20,-43,54
1537918787778401,-5,-3,2,-4,14,17,41,-1
1537918787778401,3,0,3,3,-27,-15,-14,38
1537918787779398,5,3,9,23,43,-16,-53,-7
1537918787779398,-15,-6,-10,-1,20,-34,73,23
1537918787801339,-4,0,-5,-19,-3,86,-3,-19
1537918787801339,0,0,-3,0,-9,-47,-26,12
1537918787802337,-4,-3,-5,-30,-72,84,48,-53
1537918787802337,5,0,11,35,68,-62,-45,-24
1537918787816299,7,4,6,26,29,35,12,-31
1537918787816299,0,-5,-20,-42,16,-8,35,-24
1537918787817297,-5,-3,10,53,127,64,40,17
1537918787817297,-2,6,7,-15,-101,66,10,-51
1537918787838246,-4,-11,-25,-78,-48,-25,-36,-5
1537918787838246,-1,-1,17,72,94,127,-1,7
1537918787839239,20,-3,-11,-42,-128,-128,66,50
1537918787839239,-4,5,14,55,127,-27,-56,-2
1537918787869159,-17,-8,-6,-24,-18,-100,-28,4
1537918787869159,15,-2,-10,-45,-70,112,-16,10
1537918787870156,-13,-3,5,18,80,113,17,-15
1537918787870156,-1,-2,1,20,-29,-18,60,40
1537918787876139,12,4,-5,-16,-71,-88,12,43
1537918787876139,-5,10,20,51,122,-2,-21,-52
1537918787877137,4,-5,-11,-27,-79,-107,-91,5
1537918787877137,-10,-2,2,5,19,68,9,-27
1537918787899079,19,0,-13,-15,5,-42,6,-38
1537918787899079,-20,-8,-1,-5,-8,70,18,48
1537918787899079,9,7,5,9,-34,20,-25,0
1537918787899079,-3,-5,-8,-25,-52,-43,-6,-36
1537918787921019,-8,0,13,30,4,3,-43,2
1537918787921019,-10,5,21,68,68,93,5,-96
1537918787922017,-9,-11,-19,-42,14,-53,-8,28
1537918787922017,17,0,-10,-44,-46,-82,-62,3
1537918787935979,-8,1,9,1,1,90,104,23
1537918787935979,24,10,-3,-8,13,-42,-39,26
1537918787936977,-10,4,14,67,127,3,5,-8
1537918787936977,28,-5,-19,-46,-67,33,21,17
1537918787958918,0,0,5,13,-83,7,-57,7
1537918787958918,-6,-6,-19,-60,-128,-128,-57,4
1537918787958918,-2,-2,0,-6,81,82,50,-24
1537918787958918,-20,1,8,10,-24,-74,44,-21
1537918787982854,4,-1,-6,5,-58,127,58,29
1537918787982854,-16,-11,-11,-17,-25,19,80,28
1537918787982854,-25,-3,7,10,21,36,0,6
1537918787982854,4,2,1,12,67,11,-35,-23
1537918787995820,-25,-5,-1,10,9,-49,-19,-48
1537918787995820,-5,-1,1,-16,-27,-57,-10,-39
1537918787996817,0,3,6,10,15,75,-1,-56
1537918787996817,-15,-7,-11,-43,-58,-25,-6,-21
1537918788018758,11,4,9,31,87,-87,11,29
1537918788018758,21,-3,-7,-8,28,-78,-42,26
1537918788019756,6,3,-2,7,41,71,38,-19
1537918788019756,-5,-5,-10,-24,-33,20,-47,-17
1537918788040700,3,1,1,-1,23,11,23,16
1537918788040700,-13,-4,2,1,20,4,3,-38
1537918788041697,6,6,11,34,-19,-128,-12,20
1537918788041697,-8,-3,-2,-5,-62,-11,-9,18
1537918788056657,3,-7,-11,-41,-11,-42,-70,15
1537918788056657,-7,-1,1,1,30,37,-14,-6
1537918788056657,11,1,-8,-17,-112,-26,-3,-9
1537918788056657,-6,2,9,24,100,57,-7,-13
1537918788086577,0,0,4,15,16,-24,-16,24
1537918788086577,2,1,-3,-5,-48,-19,2,15
1537918788087574,2,0,-4,-4,42,-55,-55,-3
1537918788087574,3,-3,-6,-15,-27,-38,36,48
1537918788101537,-2,4,11,24,43,20,-20,-49
1537918788101537,12,4,0,1,-11,70,53,19
1537918788101537,2,-2,-5,-9,-20,-43,-41,17
1537918788101537,6,2,0,8,25,7,26,34
1537918788116497,-3,4,9,22,41,7,18,-8
1537918788116497,-9,-2,0,13,18,33,-64,-27
1537918788116497,1,1,-9,-24,-24,-7,-28,-22
1537918788116497,0,-2,-2,-4,-9,7,3,10
1537918788138439,2,-1,0,-5,0,-2,3,-3
1537918788138439,-2,-1,-1,-12,3,-27,30,9
1537918788139435,-7,-5,-5,-16,-41,33,-16,23
1537918788139435,-3,-1,3,20,38,68,36,-20
1537918788161377,-4,-1,-5,-2,5,-71,-65,-12
1537918788161377,4,-2,-4,-8,-27,-64,29,37
1537918788161377,-7,-2,-3,-10,-28,-6,-22,-47
1537918788161377,-3,2,4,8,18,22,32,-8
1537918788175340,4,-1,-1,1,11,8,0,6
1537918788175340,-3,-1,0,-2,-3,0,13,-8
1537918788183318,-3,-1,0,3,-3,-17,-4,9
1537918788183318,-2,-1,-4,-1,5,7,-17,6
1537918788207254,5,0,-1,-1,-5,47,15,13
1537918788207254,8,0,0,-5,-6,-39,-32,-2
1537918788207254,4,-2,1,-1,-8,-4,-8,7
1537918788207254,1,0,0,4,12,43,55,2
1537918788221217,-4,0,0,-2,-2,6,-3,-12
1537918788221217,-2,2,-1,1,-2,-6,40,-2
1537918788222215,3,-5,-2,-1,-4,-28,-3,16
1537918788222215,1,-2,-1,-1,-2,2,-14,-5
1537918788235180,-5,-1,0,5,3,-15,-5,-12
1537918788235180,-2,3,-2,-5,-3,27,-1,6
1537918788244156,-5,-3,1,-1,-1,12,4,-8
1537918788244156,5,-4,-2,0,0,-11,-1,1
1537918788259116,0,1,0,0,1,11,-5,-13
1537918788259116,-1,-4,-1,-1,2,-6,-9,-2
1537918788259116,-16,-4,-1,2,-1,-7,30,8
1537918788259116,11,12,-1,0,-2,2,-17,-13
1537918788281058,-3,-2,-1,-3,6,-2,1,-9
1537918788281058,0,0,-2,-6,-9,-23,-36,1
1537918788282055,4,8,0,2,2,17,0,6
1537918788282055,-8,-11,1,3,1,-10,28,4
1537918788295020,0,-1,-3,-3,1,21,16,-2
1537918788295020,2,-8,-2,1,-3,-23,11,6
1537918788303996,-13,6,-1,-2,-2,-6,-8,-11
1537918788303996,1,7,2,2,2,-1,-18,-8
1537918788318956,-7,-3,0,-2,-6,23,20,-1
1537918788318956,-11,-11,-3,-1,2,-13,-46,10
1537918788318956,13,-1,-2,-3,-4,-7,51,9
1537918788318956,-11,5,1,4,5,23,22,15
1537918788340897,4,0,-2,2,-1,-4,4,-12
1537918788340897,-1,-1,0,0,-1,-30,-20,-5
1537918788341894,7,1,-1,-1,0,12,-5,6
1537918788341894,-7,-3,1,0,0,-2,-9,-9
1537918788363836,1,0,-1,-4,-6,-1,8,9
1537918788363836,2,4,-2,-1,-1,25,7,-5
1537918788364833,-3,-3,-1,-2,2,-2,17,8
1537918788364833,-1,-3,0,1,0,1,-4,-5
1537918788379793,-1,-3,1,3,2,-19,-27,-7
1537918788379793,-5,3,0,-3,-1,15,-28,-5
1537918788380791,9,-2,-2,-3,-5,-22,-15,8
1537918788380791,0,-6,-4,-5,0,-13,-34,-8
1537918788400737,5,2,-1,0,0,16,30,34
1537918788400737,-5,-1,0,-4,-2,7,24,-17
1537918788401735,3,-3,-4,-4,-4,22,10,11
1537918788401735,-1,0,0,-2,-1,-32,-63,-13
1537918788415697,-8,-2,0,5,9,5,9,-39
1537918788415697,0,1,1,3,4,7,67,-3
1537918788423676,4,0,-2,-4,-11,-26,-7,7
1537918788423676,8,0,-3,-7,-6,20,-18,-2
1537918788438636,-5,-2,0,3,10,-26,9,-6
1537918788438636,-4,-2,1,2,-3,23,-22,-23
1537918788439634,4,0,0,2,3,0,2,-6
1537918788439634,-1,-3,0,0,-1,-4,9,-3
1537918788461575,2,-3,-4,-5,-12,1,-3,11
1537918788461575,6,2,-1,-4,2,-13,-12,3
1537918788461575,-5,-2,-1,-1,4,-6,-29,-3
1537918788461575,-2,2,1,0,-13,19,11,-19
1537918788484514,6,0,0,-3,-4,8,-10,40
1537918788484514,0,-1,0,-2,-8,-6,68,5
1537918788485512,-7,-2,-1,-1,-4,-17,-53,-20
1537918788485512,2,1,2,5,13,6,72,26
1537918788507455,-5,7,-1,0,4,11,4,3
1537918788507455,7,-4,-1,1,-2,-11,-33,9
1537918788508452,-6,-34,-3,-1,3,14,1,9
1537918788508452,19,40,1,0,0,-27,-15,4
1537918788521418,2,17,2,0,-7,28,-12,1
1537918788521418,-15,3,1,1,5,-15,-1,1
1537918788522415,2,4,0,4,-1,-9,1,-12
1537918788522415,-9,-12,-3,-5,-1,25,-8,3
1537918788544355,9,-4,-3,-2,-4,-19,-1,4
1537918788544355,4,5,-2,-1,2,12,18,-2
1537918788552335,1,4,2,1,-2,7,28,-20
1537918788552335,-5,-15,-3,0,-2,-6,-8,-2
1537918788560313,-2,-3,-2,-1,2,-14,-50,-14
1537918788560313,-3,-8,-3,-3,-1,17,65,8
1537918788562307,2,4,0,-1,-5,-57,-30,4
1537918788562307,-4,-2,1,1,3,44,20,-4
1537918788573278,-5,-8,-1,-1,0,0,-9,3
1537918788573278,-4,-3,-5,-3,-6,-18,-38,0
1537918788580260,4,8,3,1,6,25,38,-6
1537918788580260,-11,-2,3,3,1,-36,-38,-54
1537918788595219,-2,-2,1,-1,1,34,70,15
1537918788595219,4,-2,-1,-3,-6,-10,6,-2
1537918788604195,-1,3,-3,-2,-3,-1,-20,13
1537918788604195,-8,-12,-2,-1,-1,-1,-15,-6
1537918788619155,-2,-6,-4,-2,-3,-6,5,0
1537918788619155,-7,-1,-1,2,5,1,-3,-38
1537918788619155,-1,2,3,-1,-9,-1,6,19
1537918788619155,2,-1,-1,-2,5,-2,6,17
1537918788633117,0,-4,-2,1,4,-8,-7,8
1537918788633117,-3,0,0,0,-18,-8,-27,-1
1537918788640098,-8,-3,-3,-3,-3,6,-16,-20
1537918788640098,-5,-5,-1,-2,-5,1,20,12
1537918788655058,-1,-3,0,1,3,-2,-10,-20
1537918788655058,6,4,-1,0,8,1,-14,14
1537918788664034,-8,-8,-2,-1,-2,3,27,-16
1537918788664034,-2,-4,-3,-4,-6,-20,-16,7
1537918788678994,-6,-2,-2,2,7,46,-12,-11
1537918788678994,-5,1,-1,1,-8,-9,32,14
1537918788678994,-4,2,-3,-2,-3,-17,-21,-35
1537918788678994,6,0,-3,-2,-2,12,0,51
1537918788692958,-5,-3,-1,-2,-6,-28,-9,6
1537918788692958,0,-4,-2,1,2,4,-6,10
1537918788700936,4,0,-1,-1,3,7,5,20
1537918788700936,1,2,1,0,-2,-12,8,-17
1537918788715898,1,-1,0,1,-4,-3,-8,13
1537918788715898,6,-1,-2,-2,0,-16,-15,-6
1537918788723875,-15,-5,-1,1,2,23,29,-18
1537918788723875,4,3,1,2,4,0,-5,2
1537918788738835,-1,-1,-1,-3,-7,-6,-31,-13
1537918788738835,1,-1,-2,-1,3,-2,6,9
1537918788739833,4,1,-2,1,1,7,-8,15
1537918788739833,-4,-2,-2,-1,-2,7,6,-6
1537918788752797,-3,-1,-1,-1,-3,1,21,-14
1537918788752797,1,-2,1,-2,0,-12,-19,2
1537918788760776,-8,-4,0,1,1,8,-7,-4
1537918788760776,-7,-11,-4,-1,-2,-3,1,-7
1537918788775736,2,-2,-1,-2,-3,-18,0,18
1537918788775736,2,4,1,1,2,10,-3,-7
1537918788783717,-3,-5,1,0,0,3,0,-35
1537918788783717,7,1,0,-2,-2,-5,-9,1
1537918788798675,-1,-2,-1,-4,-2,-5,21,-1
1537918788798675,-4,-2,-2,0,-1,12,12,-3
1537918788799672,12,1,-2,-2,-3,-16,-25,-4
1537918788799672,-4,-1,0,-1,-3,-5,1,-6
1537918788812638,-1,1,1,0,0,-18,-5,-12
1537918788812638,7,-2,-3,-3,0,2,7,5
1537918788820617,-8,-3,-1,-1,7,52,-17,-7
1537918788820617,4,5,2,4,0,-23,12,7
1537918788835577,1,3,-1,-2,-2,24,55,-1
1537918788835577,1,-2,0,-1,-9,-90,26,14
1537918788843555,-6,-2,-3,-2,-1,49,-17,1
1537918788843555,-2,1,-1,1,4,15,44,10
1537918788858515,-6,-4,-3,-3,3,-2,-67,-38
1537918788858515,-9,-4,0,-1,1,-3,-23,-15
1537918788859513,6,6,3,1,-1,-43,-34,24
1537918788859513,-2,-5,-2,-1,-1,14,31,1
1537918788873476,-2,0,1,0,-5,-28,-30,-29
1537918788873476,-7,-4,-1,-1,1,31,-11,1
1537918788880456,3,2,0,0,-3,-32,28,4
1537918788880456,-1,-1,-1,-2,-2,14,-14,7
1537918788895416,4,-1,-1,-2,-2,3,-22,8
1537918788895416,1,1,1,0,-1,-1,23,-4
1537918788903393,4,1,-1,-3,-1,5,25,0
1537918788903393,-4,-1,-1,-1,-1,-5,-19,-24
1537918788918354,0,-3,-3,-1,-5,-3,14,22
1537918788918354,0,1,-1,0,3,14,-21,-11
1537918788919351,2,1,-2,0,-2,-4,12,16
1537918788919351,-1,-2,-1,-4,-4,-36,-15,-4
1537918788934311,-1,-1,0,0,1,15,9,6
1537918788934311,2,-2,0,-1,3,28,4,1
1537918788940295,-1,0,0,-1,0,-25,19,-7
1537918788940295,0,0,1,-2,3,13,-22,-13
1537918788952263,-8,-4,0,1,1,8,-7,-4
1537918788952263,-7,-11,-4,-1,-2,-3,1,-7
1537918788957250,2,-2,-1,-2,-3,-18,0,18
1537918788957250,2,4,1,1,2,10,-3,-7
1537918788958247,-3,-5,1,0,0,3,0,-35
1537918788958247,7,1,0,-2,-2,-5,-9,1
1537918788959244,-3,1,1,1,1,-4,21,8
1537918788959244,-4,0,-1,-3,-4,6,8,-14
1537918788964231,1,-2,-2,-2,-1,-2,-4,4
1537918788964231,2,3,1,4,-1,-3,-48,-2
1537918788978194,-3,0,-1,1,4,20,24,-4
1537918788978194,-3,-4,-5,-8,-16,-15,-14,-31
1537918788979191,5,0,0,-1,2,-25,-2,51
1537918788979191,0,-1,1,-1,1,23,27,7
1537918788993155,-10,-2,0,1,-1,-24,-17,-12
1537918788993155,8,2,-1,3,1,9,5,15
1537918789000136,-4,-2,0,2,3,17,-15,-19
1537918789000136,-2,-3,-5,-8,-12,-17,-4,-6
1537918789017090,-1,-1,0,-1,-3,10,39,16
1537918789017090,-3,-2,1,3,7,-2,-40,16
1537918789024071,-3,3,5,8,-1,-14,-63,-31
1537918789024071,4,1,-3,13,26,38,12,33
1537918789039031,4,1,-3,-13,0,-20,21,-7
1537918789039031,-4,-3,-5,-18,-29,4,-32,-7
1537918789039031,-3,-6,-6,-19,-31,-5,-24,-13
1537918789039031,-6,-2,1,-2,-12,0,-4,-19
1537918789052994,2,-2,1,10,10,-29,-9,5
1537918789052994,1,0,2,5,30,30,12,10
1537918789060972,-5,-1,-1,-4,-6,-4,5,-8
1537918789060972,1,1,1,-2,-2,-6,-3,3
1537918789075932,3,2,-1,1,4,10,0,1
1537918789075932,0,1,4,8,4,-13,-3,-7
1537918789083911,0,0,-1,3,10,16,25,11
1537918789083911,0,-2,-2,-6,-11,-7,7,-1
1537918789097874,1,0,-1,-4,-4,-1,-17,-2
1537918789097874,-2,0,1,1,2,2,3,-10
1537918789105852,-2,-1,-2,0,4,10,10,-5
1537918789105852,-2,-1,1,5,3,-26,2,-1
1537918789112834,0,1,-1,1,-7,13,-14,0
1537918789112834,-2,-2,-1,-7,-8,-42,3,2
1537918789120812,-6,-1,-1,-3,5,28,9,-7
1537918789120812,2,-1,-2,-10,-6,18,9,0
1537918789135773,5,-1,-4,-7,-12,-9,-14,1
1537918789135773,0,-1,1,2,1,4,10,-1
1537918789143752,-3,-2,1,5,7,-4,36,2
1537918789143752,1,2,4,12,30,-35,-55,-16
1537918789157715,1,-2,-3,-5,-21,24,-34,1
1537918789157715,-1,-2,-5,-13,-48,-24,78,1
1537918789165694,3,2,-2,-7,-13,5,-1,0
1537918789165694,-7,-3,-1,-2,-2,20,-1,-6
1537918789172674,-2,0,1,9,22,9,1,-1
1537918789172674,-1,-1,-1,4,16,-3,-20,0
1537918789188631,0,0,-1,2,-1,-3,-3,0
1537918789188631,0,0,-1,-1,-1,7,16,1
1537918789195612,-2,1,2,1,3,-19,-18,-7
1537918789195612,-1,-1,-1,0,3,21,-2,2
1537918789203591,-1,-2,-1,2,2,-5,4,-3
1537918789203591,0,-2,-2,0,-2,-9,-4,-1
1537918789217554,-1,-3,-1,-4,-7,0,13,1
1537918789217554,-3,-2,1,3,5,10,-8,0
1537918789225532,1,-2,-2,-1,3,-1,2,4
1537918789225532,-1,-1,-1,-5,-10,-10,7,-5
1537918789235506,3,-1,-2,-3,-6,-4,7,4
1537918789235506,-3,-2,-2,4,17,51,-9,-5
1537918789240492,1,-1,-1,-1,-1,-11,-6,-3
1537918789240492,1,0,-2,-2,-3,-3,2,2
1537918789255452,-3,0,1,1,1,-8,8,-3
1537918789255452,-3,0,-1,-1,0,-16,-8,-3
1537918789263431,1,-1,0,0,0,10,4,-1
1537918789263431,-1,-1,1,-3,-5,2,-1,2
1537918789278391,1,0,-1,-2,1,5,3,-1
1537918789278391,1,0,0,0,4,-5,-4,3
1537918789286370,-4,0,2,2,2,-4,0,0
1537918789286370,0,1,2,0,1,-4,4,0
1537918789301330,0,1,2,0,3,2,-6,-2
1537918789301330,4,0,0,-5,-3,0,0,0
1537918789302327,1,0,1,2,14,2,-1,-2
1537918789302327,2,0,0,1,-5,-7,-7,3
1537918789315293,-2,-2,-3,-7,-18,-2,9,-1
1537918789315293,2,1,1,-1,-2,-4,-5,3
1537918789324269,0,-1,-2,-4,-6,-1,5,-1
1537918789324269,0,1,1,4,15,15,-19,-3
1537918789338232,1,2,0,1,5,14,25,0
1537918789338232,0,1,1,2,-2,-14,-7,-1
1537918789346210,-1,0,2,0,4,-15,-17,-4
1537918789346210,0,0,-4,-5,-8,14,44,2
1537918789361170,0,-2,-2,-3,-4,2,-15,-1
1537918789361170,-1,-4,0,1,1,1,-4,1
1537918789362167,-1,-2,-2,1,-3,-5,1,-2
1537918789362167,-3,-2,-3,-3,-7,-16,-6,-1
1537918789375132,-2,0,0,3,5,9,-7,-2
1537918789375132,-2,-2,-3,-3,-2,-2,5,1
1537918789384108,0,-1,-1,-1,-2,11,2,-2
1537918789384108,-2,-2,-1,-3,-7,-22,-20,-3
1537918789398071,-2,-2,-1,3,2,-13,-7,-2
1537918789398071,-1,-1,-1,3,7,-9,-5,-2
1537918789406050,1,-2,-1,0,-6,29,41,8
1537918789406050,-3,-5,-3,-5,-1,7,-1,0
1537918789420012,-4,-2,0,3,13,0,-24,-2
1537918789420012,0,1,-2,-5,-15,2,4,-1
1537918789428989,-2,-3,-2,-2,-6,-50,-18,-1
1537918789428989,1,0,1,3,-7,44,17,1
1537918789442951,1,0,0,-2,5,-16,-13,0
1537918789442951,0,1,0,1,13,20,-3,2
1537918789451927,-3,-4,-2,-1,0,-9,-9,-2
1537918789451927,-2,-1,-1,-2,0,-10,-2,-2
1537918789466887,-2,-1,0,-1,-1,0,4,-4
1537918789466887,0,0,0,2,0,0,0,0
1537918789467885,-1,-1,-2,-2,0,14,-21,-4
1537918789467885,0,1,0,1,-14,-40,10,2
1537918789489827,-1,0,-2,-2,-4,5,-4,-2
1537918789489827,-1,-1,-1,-3,1,28,13,0
1537918789490825,0,1,-1,-2,-3,3,-1,-1
1537918789490825,-2,-2,-2,-1,6,-1,-11,-3
1537918789502792,0,-1,-1,0,-3,-17,3,0
1537918789502792,0,-1,-1,-2,-5,-8,-1,1
1537918789511768,-1,-1,-1,0,-2,-22,-8,0
1537918789511768,-3,-3,-1,-2,5,44,11,1
1537918789525730,-2,-1,-2,1,2,-14,-41,-5
1537918789525730,0,-1,0,0,-9,-22,36,5
1537918789534706,1,1,-1,-5,-6,31,-1,-1
1537918789534706,0,-2,-3,0,-1,-43,-5,1
1537918789549666,-2,-4,-3,-2,2,32,8,-2
1537918789549666,0,-1,-1,2,9,-6,-50,-4
1537918789550663,-1,-1,0,1,-10,-12,49,-1
1537918789550663,0,-1,1,-3,2,-3,-7,4
1537918789562631,-2,-2,-1,-6,-13,5,-16,0
1537918789562631,0,1,1,2,3,7,40,-2
1537918789571608,-1,0,-2,-2,-4,-12,-13,-3
1537918789571608,-1,-1,-2,0,9,12,-20,-2
1537918789586567,0,-1,0,-2,-10,-20,32,4
1537918789586567,-2,-3,-1,-3,-1,-4,-21,-3
1537918789588564,-2,0,0,1,10,8,-14,-1
1537918789588564,1,-1,-2,0,-2,0,8,-2
1537918789609506,0,0,1,1,2,-5,2,1
1537918789609506,-2,-2,-2,-1,-2,7,-7,-4
1537918789610503,-1,-1,-1,-1,-6,-10,-7,-1
1537918789610503,-2,-1,-1,-3,-3,-8,10,-1
1537918789623469,1,-2,-2,-1,2,31,17,2
1537918789623469,1,-2,-1,-1,1,-6,-12,-2
1537918789638429,-1,0,0,1,1,-3,-1,-2
1537918789638429,-1,-2,-2,-3,-13,-24,-33,0
1537918789647405,-3,-1,-1,0,0,-8,3,-5
1537918789647405,3,1,0,0,-1,22,53,9
1537918789653388,-1,-2,-1,-2,3,-2,-11,-4
1537918789653388,-1,1,0,-2,-2,-3,4,-2
1537918789669346,0,-2,-2,-2,1,6,-6,-2
1537918789669346,-1,-1,-2,-1,-1,-5,-19,-2
1537918789670343,-1,0,0,-1,0,-1,1,1
1537918789670343,-2,-1,-1,0,2,8,7,1
1537918789683308,0,-2,-1,-2,-2,-4,1,-1
1537918789683308,-2,-2,0,0,-3,-11,-11,-5
1537918789692285,0,-1,-1,-1,2,2,-1,-2
1537918789692285,0,0,-1,-2,-4,11,5,5
1537918789707245,-2,0,-1,2,6,-16,-5,0
1537918789707245,-1,1,-2,-2,-5,-12,-16,-3
1537918789708242,-1,-1,-1,-1,1,16,15,5
1537918789708242,0,-1,0,1,5,-1,-2,-5
1537918789729186,0,-1,0,-2,-7,13,12,2
1537918789729186,-1,0,-2,-2,-6,-16,-12,-2
1537918789731181,0,0,0,1,7,-41,-11,-3
1537918789731181,0,-2,-2,-4,-25,26,-5,6
1537918789743149,-2,-1,0,-2,5,7,-4,-6
1537918789743149,-2,-1,-1,0,1,0,8,-1
1537918789752125,0,0,-1,0,-13,-9,1,1
1537918789752125,1,1,-1,4,11,-19,-3,1
1537918789767085,0,-1,-2,-2,-5,11,0,2
1537918789767085,-1,-1,-1,-2,1,5,-23,0
1537918789768082,-2,-2,-1,0,-4,-4,9,-4
1537918789768082,-2,0,-1,2,9,-4,-1,-4
1537918789789026,2,1,-2,-3,-9,4,5,0
1537918789789026,0,0,0,3,7,-14,7,1
1537918789791021,-1,0,-1,0,2,21,-2,2
1537918789791021,-2,-2,-1,-3,-2,5,10,-2
1537918789802989,-2,-1,-2,-1,0,-10,-2,0
1537918789802989,-1,-3,-3,-2,-5,-9,-19,-5
1537918789811965,0,0,-1,-2,-4,18,28,2
1537918789811965,0,1,-2,0,2,-5,-5,-4
1537918789826925,-2,0,1,0,3,-11,-21,-2
1537918789826925,-2,-1,-1,-1,-6,-5,11,-1
1537918789827923,1,-1,-3,-3,-2,-2,8,5
1537918789827923,0,0,0,0,9,21,6,-1
1537918789848866,0,-2,-1,0,-1,-10,-4,0
1537918789848866,-1,-3,-4,-3,-3,3,-11,-6
1537918789850861,-1,-1,0,2,8,19,-10,-1
1537918789850861,-1,-1,-1,-3,-17,-11,6,-1
1537918789862829,-1,-1,1,0,0,-9,6,-2
1537918789862829,-2,-1,0,2,10,5,-21,7
1537918789871805,0,-2,-1,-2,-2,21,44,-11
1537918789871805,2,0,-1,-2,-4,-44,-28,3
1537918789886765,0,0,-1,1,-1,9,15,4
1537918789886765,1,0,0,0,-1,2,-4,6
1537918789888760,-2,-1,-2,0,4,0,-47,-4
1537918789888760,-2,-2,1,2,3,5,10,-8
1537918789909704,-1,-1,-4,-3,-2,-13,11,-5
1537918789909704,-1,0,-1,-3,1,14,44,16
1537918789910701,0,0,1,-1,-1,7,56,0
1537918789910701,-3,-2,-1,0,0,4,-9,-6
1537918789922669,10,-1,-3,-2,1,-12,-29,22
1537918789922669,-2,0,-1,1,-1,13,-14,-16
1537918789931645,1,-2,-1,-3,-2,-19,-23,10
1537918789931645,1,-1,-1,0,1,-1,1,2
1537918789946605,-4,-2,0,1,-1,-3,-7,-3
1537918789946605,-3,0,0,-2,-3,-5,-15,-15
1537918789948600,-3,-2,-1,0,-2,4,-10,-1
1537918789948600,-2,-2,-2,-2,2,3,-26,8
1537918789969543,-3,-1,-1,1,-2,-3,-23,-11
1537918789969543,1,0,2,-1,-3,1,53,-16
1537918789970541,-6,-2,-3,-4,-5,-14,-51,-37
1537918789970541,8,3,3,3,3,-2,-13,22
1537918789991485,5,2,0,1,3,32,114,6
1537918789991485,15,0,-1,0,-1,-21,-55,30
1537918789993480,-9,0,3,6,3,6,-16,-10
1537918789993480,2,-1,-1,-3,-4,1,-4,0
1537918790006445,-5,-3,-1,-2,-2,-19,-37,-4
1537918790006445,-15,-1,-1,0,-1,9,13,-12
1537918790013426,-1,-1,-3,-2,-3,-2,-8,-3
1537918790013426,-1,-1,-2,-2,1,18,4,-14
1537918790029383,0,6,2,0,1,-21,2,25
1537918790029383,3,-7,-1,0,2,5,-6,-9
1537918790030381,-1,2,9,1,-2,-3,-19,4
1537918790030381,1,-7,-13,-1,-4,-6,-16,16
1537918790052323,-1,-5,1,1,5,17,32,40
1537918790052323,2,3,-3,-5,-7,-7,-17,-26
1537918790053321,4,-2,-2,-3,-1,-15,33,37
1537918790053321,0,2,3,2,1,14,101,-1
1537918790066285,-7,-1,-1,-1,-4,-6,-45,-35
1537918790066285,9,-1,-2,0,-3,-31,-15,17
1537918790073267,7,0,-4,-3,-1,-7,-5,-1
1537918790073267,-13,-2,2,-1,-4,-3,-35,-55
1537918790089224,1,-4,-5,-5,1,15,13,54
1537918790089224,-3,1,3,3,4,26,51,27
1537918790091218,-6,-2,-3,-3,-7,-29,-38,-26
1537918790091218,-5,-1,-1,0,1,-32,25,4
1537918790112162,-1,0,1,2,3,60,-7,-18
1537918790112162,-7,0,-2,-1,-2,-4,1,-15
1537918790113160,5,1,-2,2,8,-6,-13,17
1537918790113160,-5,-4,-1,-1,16,50,13,10
1537918790125128,-9,-1,0,-3,-22,-93,-20,-39
1537918790125128,-5,-3,-4,-7,10,43,-1,-5
1537918790134104,1,-2,-4,-3,-29,-32,4,-3
1537918790134104,21,2,1,-1,-3,35,-1,13
1537918790149063,-11,0,0,5,12,-11,-23,-33
1537918790149063,-1,0,0,2,0,12,13,-5
1537918790151058,6,0,0,6,28,-6,-16,21
1537918790151058,1,0,0,-5,-20,13,23,25
1537918790172002,-5,-3,-3,-4,-6,-14,5,-16
1537918790172002,16,-1,-4,1,2,-16,-28,31
1537918790173000,-2,1,1,6,22,32,15,-22
1537918790173000,-5,0,1,-6,-33,-25,-20,7
1537918790185965,2,-3,-4,-7,-17,21,-13,-12
1537918790185965,-14,-3,-2,-4,-24,-53,13,-25
1537918790193944,0,-2,-2,0,1,30,1,3
1537918790193944,-1,0,1,4,16,-1,-19,-14
1537918790209901,27,1,-1,-1,11,9,19,40
1537918790209901,-1,1,2,2,5,-13,-23,-14
1537918790210898,3,-1,-2,-2,-15,2,-2,6
1537918790210898,-8,-1,0,2,8,-15,-5,-1
1537918790232840,-9,-5,-3,-5,-9,-15,-16,-10
1537918790232840,-2,-1,2,2,4,2,33,12
1537918790234834,-2,0,0,0,-6,15,14,-11
1537918790234834,-3,-3,-1,-1,1,-28,-41,-11
1537918790245805,11,2,7,3,6,9,10,21
1537918790245805,4,11,2,0,0,18,25,10
1537918790254782,-25,-13,-11,-4,-6,-17,-9,-38
1537918790254782,3,0,-4,-2,3,-1,-66,-29
1537918790269741,-2,-5,1,4,7,-5,20,10
1537918790269741,-5,1,0,-2,-6,-18,-23,-19
1537918790270739,8,9,4,-3,0,33,17,29
1537918790270739,-7,-3,-2,-4,2,1,0,-4
1537918790291683,-1,6,-5,-5,-6,-6,-16,-11
1537918790291683,-6,-5,0,-3,-1,11,15,-2
1537918790293677,1,-3,-2,-3,-3,-19,-7,-2
1537918790293677,4,-1,-3,-2,1,6,2,2
1537918790305645,-5,-2,0,0,2,5,8,4
1537918790305645,10,-1,-2,0,0,-17,-38,24
1537918790314621,2,1,2,2,1,14,-3,-6
1537918790314621,-1,4,-1,0,-2,-1,24,11
1537918790329581,-3,-2,-2,1,0,-12,10,-21
1537918790329581,-3,-6,-2,-2,2,30,-12,-6
1537918790330579,3,2,-2,-4,-2,-11,12,10
1537918790330579,-2,0,2,2,3,1,1,-20
1537918790351522,-13,-4,-4,-4,-10,-30,-10,-36
1537918790351522,7,4,2,4,9,45,24,34
1537918790353517,0,0,2,1,-3,-14,43,11
1537918790353517,-3,-2,-3,-1,-1,16,-9,-2
1537918790365485,-9,-4,0,1,-3,-7,-11,-15
1537918790365485,-1,1,-2,-2,-5,-9,-18,-16
1537918790374461,-3,-6,-2,1,2,2,-3,1
1537918790374461,2,0,0,2,3,-3,41,21
1537918790389421,1,-1,-7,-6,0,37,-24,23
1537918790389421,-5,-2,-2,-4,-2,-29,-19,-13
1537918790390419,5,1,0,3,0,-14,-37,25
1537918790390419,-3,-4,-3,-1,0,-12,55,-14
1537918790411363,3,3,1,0,4,4,-7,-1
1537918790411363,-1,-2,-2,0,0,8,-2,-10
1537918790413358,1,1,-3,-6,-7,-22,-23,3
1537918790413358,-19,-17,1,0,-4,-16,10,-26
1537918790425325,5,3,-2,0,5,47,-4,53
1537918790425325,13,21,0,-1,-1,5,-8,14
1537918790434301,1,-2,-1,-2,-1,-37,-49,-27
1537918790434301,5,4,4,4,2,-1,43,26
1537918790449261,-8,-1,1,0,1,-15,-15,-23
1537918790449261,-14,-11,-1,-2,-3,-2,-3,-36
1537918790451256,3,3,0,1,6,50,-12,6
1537918790451256,6,1,-1,-2,-2,-9,-34,4
1537918790472201,-3,-6,0,2,6,8,37,-24
1537918790472201,1,1,2,5,9,0,-13,-21
1537918790473197,-4,-8,-8,-12,-29,-33,-5,-4
1537918790473197,-4,1,0,-1,-1,4,-23,-33
1537918790485165,13,5,3,3,-13,38,90,66
1537918790485165,-4,-8,-3,1,2,-15,15,34
1537918790494141,-5,-6,2,2,19,-58,-18,-8
1537918790494141,2,3,-4,-9,-33,41,-10,8
1537918790509101,2,2,0,-4,-5,-27,-48,-25
1537918790509101,-3,-6,-3,-6,-7,20,5,-7
1537918790511096,5,0,-1,3,12,31,40,23
1537918790511096,6,3,0,3,16,-30,-13,6
1537918790532040,6,-3,-1,4,13,-6,-11,3
1537918790532040,-3,-6,-1,0,0,-1,9,17
1537918790533038,-3,0,-1,-1,-1,11,-11,-25
1537918790533038,-4,3,0,7,39,8,-19,16
1537918790546003,-8,0,3,8,12,22,25,-46
1537918790546003,5,0,2,2,-24,-24,-27,41
1537918790553983,7,0,-7,-12,-16,-43,46,28
1537918790553983,-4,0,3,15,37,-47,16,-18
1537918790568942,-2,-3,-2,-12,6,80,32,-13
1537918790568942,-20,-7,-5,4,22,-117,-2,-48
1537918790570936,8,0,-6,-29,-110,114,-41,10
1537918790570936,8,-2,4,22,88,-70,52,45
1537918790592877,5,1,-1,-27,-102,-6,-51,6
1537918790592877,-1,-13,-31,-68,35,60,65,-6
1537918790594872,-6,4,19,57,72,-100,-36,-1
1537918790594872,-18,-11,-26,-85,-128,127,7,-54
1537918790605843,-7,-2,1,13,16,-54,-12,8
1537918790605843,55,14,15,36,-60,-77,-16,83
1537918790614819,-18,-14,-25,-48,81,126,32,-32
1537918790614819,3,7,17,50,34,-116,-88,-21
1537918790629778,-7,-4,-13,-45,-61,-74,-104,-60
1537918790629778,-34,-7,15,40,108,17,14,-9
1537918790630776,1,3,2,13,-108,-122,0,-40
1537918790630776,18,8,15,48,76,-18,-34,35
1537918790651720,-4,-6,-18,-24,-36,108,5,43
1537918790651720,2,-2,-4,-11,35,105,14,-13
1537918790653715,-4,-1,-5,-20,-17,-38,-63,-90
1537918790653715,9,5,3,-4,7,5,51,35
1537918790665683,-8,-3,-2,-32,-81,-9,-71,-63
1537918790665683,32,16,14,27,13,-56,56,66
1537918790674659,0,5,18,62,117,-34,-52,22
1537918790674659,-14,-12,-24,-53,-102,54,-39,-31
1537918790689618,6,-3,-1,0,-31,-123,75,46
1537918790689618,-9,-1,2,-1,-21,-16,-67,-53
1537918790690616,5,0,7,17,62,-25,65,57
1537918790690616,1,0,6,4,3,-88,-48,18
1537918790711560,5,9,31,101,127,34,69,24
1537918790711560,-31,-20,-24,-42,-52,48,-16,-35
1537918790713554,-8,-4,-13,-42,-128,-25,-19,-41
1537918790713554,1,-3,-5,-5,35,13,66,-34
1537918790725523,6,-1,-1,-4,52,-74,-30,3
1537918790725523,-6,1,8,21,34,-49,-16,-24
1537918790734499,5,6,8,17,28,104,50,51
1537918790734499,-8,-4,-3,13,-71,44,-18,-30
1537918790750456,2,1,4,11,47,-44,30,-9
1537918790750456,2,-4,-16,-33,-81,-67,26,15
1537918790755443,-10,-7,-2,-3,66,1,7,-14
1537918790755443,-9,-4,-9,-29,-36,-64,-45,-54
1537918790771400,-3,-4,-3,6,18,45,68,17
1537918790771400,-8,0,0,-1,-14,48,13,-54
1537918790773395,3,6,26,57,93,97,9,5
1537918790773395,-5,-12,-31,-68,-67,-50,-78,27
1537918790785363,-9,-2,-6,-5,113,30,76,3
1537918790785363,3,9,1,-13,29,6,-20,-16
1537918790794339,-4,-4,-11,-29,-79,-34,-35,-30
1537918790794339,1,6,22,48,79,46,32,43
1537918790808301,11,-4,-9,-23,-100,-17,-42,69
1537918790808301,12,1,2,8,-12,14,-3,-9
1537918790815283,-2,10,1,1,-5,-15,-33,2
1537918790815283,2,2,4,8,-33,101,94,13
1537918790832237,-3,0,3,25,72,35,40,-2
1537918790832237,-3,0,3,0,-23,-84,26,31
1537918790833235,9,1,-9,-2,-10,83,1,44
1537918790833235,0,-2,-6,-9,-37,-18,27,18
1537918790845203,-1,1,-5,-27,36,-42,-77,-30
1537918790845203,-3,-3,5,1,-70,20,-57,-43
1537918790854179,-11,-11,-4,-11,-20,16,86,-8
1537918790854179,22,7,6,16,50,-9,-58,10
1537918790868141,3,0,0,9,-7,-25,1,-15
1537918790868141,-7,-2,-1,-3,-5,43,30,3
1537918790875123,11,1,-5,-10,-21,-7,-19,58
1537918790875123,-16,3,14,28,53,49,98,4
1537918790892077,3,3,-4,-6,-40,-13,-49,2
1537918790892077,-9,-6,-1,5,20,-13,-46,-10
1537918790893075,-3,-3,1,5,-3,1,23,-8
1537918790893075,-2,-1,1,8,22,-36,64,0
1537918790914019,-3,-2,-1,-5,-31,103,-44,-22
1537918790914019,-3,1,0,11,50,30,-30,32
1537918790920003,-5,-2,-4,-9,-17,-63,38,-9
1537918790920003,-4,-9,-7,-15,-16,16,-31,-14
1537918790928979,-7,-2,-4,-14,-62,-33,17,-23
1537918790928979,6,2,-1,5,8,34,2,53
1537918790935960,2,-2,-2,-12,-1,-25,-11,-23
1537918790935960,9,3,1,1,7,-17,-19,19
1537918790951917,-3,6,5,16,4,4,-4,-2
1537918790951917,-7,-7,1,7,1,-7,-1,-27
1537918790952915,4,8,-3,-2,10,-17,62,32
1537918790952915,-5,-12,-5,-5,-21,-21,-72,1
1537918790973860,-11,4,9,10,7,33,58,-23
1537918790973860,4,6,4,13,-1,10,2,2
1537918790975853,0,5,-7,-10,-6,18,-51,-28
1537918790975853,-10,-6,-7,-16,18,34,-3,-18
1537918790989816,-2,-9,-5,-6,-32,-30,-26,-34
1537918790989816,6,2,4,4,3,15,44,18
1537918790995800,-3,-6,-1,8,-15,-61,0,-7
1537918790995800,0,3,-6,5,43,44,36,-40
1537918791011757,11,-2,-6,-20,-38,-19,7,17
1537918791011757,-5,-4,-8,-39,-61,7,-67,-14
1537918791013752,4,0,6,6,-6,39,43,25
1537918791013752,-1,0,6,26,3,-37,-6,21
1537918791033699,-7,3,0,11,53,-10,-27,5
1537918791033699,-9,-4,-2,0,-7,-51,16,-2
1537918791041677,-6,-11,-17,-39,-33,-18,-72,-2
1537918791041677,-3,1,-3,-12,-39,5,2,-20
1537918791047661,1,-4,9,28,18,10,-10,-22
1537918791047661,3,2,-7,4,25,-46,-8,-35
1537918791056637,-11,-3,4,4,51,48,10,-45
1537918791056637,-8,0,-2,-12,-44,-42,14,6
1537918791071598,4,1,-1,-2,-26,16,-16,22
1537918791071598,-9,-5,-3,-6,-16,-20,0,-11
1537918791073592,7,4,5,17,22,-4,39,57
1537918791073592,2,2,1,-2,-9,11,-54,-24
1537918791094536,0,-3,-2,4,39,74,47,29
1537918791094536,15,7,4,4,11,48,-26,-30
1537918791095534,2,-4,-10,-5,-32,-8,-29,-24
1537918791095534,-3,-2,-1,-19,-20,-64,-8,23
1537918791107501,0,-5,-9,-19,-32,-48,-23,14
1537918791107501,1,-2,2,4,17,21,24,-22
1537918791116478,4,3,7,11,23,16,5,-1
1537918791116478,4,-1,5,22,22,-3,-22,-13
1537918791131437,-1,0,-5,2,7,-27,17,12
1537918791131437,-2,-5,-2,0,9,35,-4,-19
1537918791133432,5,0,0,-8,-18,-8,-14,-11
1537918791133432,-2,-3,-6,-9,-16,-12,18,49
1537918791154376,-7,-2,2,-4,-23,-8,-12,-6
1537918791154376,1,6,5,19,8,-3,6,34
1537918791155374,-3,-2,2,28,58,17,-44,-14
1537918791155374,2,-3,-13,-46,-30,-10,-3,32
1537918791179310,5,-3,-5,-6,-7,-39,23,2
1537918791179310,-1,-3,-2,-11,-31,3,-2,22
1537918791181304,-5,-1,-2,-6,0,3,-13,-34
1537918791181304,2,1,8,24,24,17,-4,-21
1537918791184296,-1,0,3,5,14,4,-3,40
1537918791184296,1,4,-4,-2,1,-17,8,23
1537918791208232,14,6,4,-1,3,1,23,14
1537918791208232,-13,-8,-2,6,7,17,-26,-21
1537918791209230,-13,-7,1,0,2,6,8,0
1537918791209230,-5,-6,-3,3,5,3,15,-1
1537918791213219,-6,2,-2,-9,-17,-13,-17,3
1537918791213219,27,7,1,-5,-10,-6,30,-1
1537918791221197,-10,31,-1,5,2,6,-28,-43
1537918791221197,-3,-14,5,3,11,3,7,5
1537918791228179,-9,-16,-8,-5,-19,-39,-20,1
1537918791228179,7,-3,7,9,4,3,-2,11
1537918791243139,12,10,-9,-2,5,14,-23,-18
1537918791243139,-6,-4,-7,-6,-6,-18,-78,-11
1537918791250120,-4,24,13,-3,-6,-8,-3,-21
1537918791250120,-3,7,-11,-4,-1,23,78,58
1537918791267075,-13,-67,-16,-1,5,-9,-28,2
1537918791267075,-8,12,2,3,2,-1,-8,-2
1537918791268072,-8,-30,0,-1,-7,-2,9,10
1537918791268072,-13,5,12,6,8,16,-58,-33
1537918791281038,-3,16,-1,-2,1,-6,-13,-11
1537918791281038,-10,-12,-15,-7,-10,-50,37,14
1537918791288020,10,-4,4,0,0,38,-4,3
1537918791288020,6,23,4,0,5,-2,3,-32
1537918791303977,18,34,-1,-2,-7,-29,-27,11
1537918791303977,3,-12,1,1,7,16,21,-6
1537918791317939,-9,3,-1,-5,-10,6,27,11
1537918791317939,-5,-12,-9,-9,-10,-16,-37,-20
1537918791326915,13,-7,6,1,13,32,45,44
1537918791326915,-8,34,2,1,-11,-18,14,26
1537918791327913,-3,-27,-1,0,-1,-17,-16,8
1537918791327913,-16,-2,-2,1,0,0,-3,-29
1537918791340878,12,31,34,11,2,-6,-13,-8
1537918791340878,-8,-34,-40,-6,6,17,20,8
1537918791348856,29,15,-35,-4,-6,-17,-21,6
1537918791348856,-13,-9,10,-2,4,9,39,-15
1537918791363816,0,4,9,4,-4,1,19,-11
1537918791363816,-8,49,26,0,-1,7,-35,-7
1537918791370798,-2,7,-1,1,-6,-5,42,-12
1537918791370798,-2,-17,-6,1,3,1,5,18
1537918791386755,3,2,5,-1,-1,6,3,-12
1537918791386755,-5,-13,0,-3,-10,-39,-11,8
1537918791388750,3,0,5,-1,11,51,7,6
1537918791388750,-4,6,4,-2,-8,-33,-51,-8
1537918791400717,-16,-18,-9,-4,1,60,74,0
1537918791400717,18,-4,-1,3,2,-12,-52,-21
1537918791409694,-15,0,-3,-6,4,-33,-38,-6
1537918791409694,5,-3,-3,1,-11,-4,27,-23
1537918791423656,1,-8,-10,-7,-11,-18,-27,4
1537918791423656,0,-14,-3,-4,-5,20,20,0
1537918791430638,-3,3,9,2,0,-25,-25,-2
1537918791430638,-7,8,1,6,12,39,-19,-23
1537918791446595,-6,-12,-10,-2,-5,-23,-9,-10
1537918791446595,1,14,8,-1,0,11,18,20
1537918791448590,-2,-3,7,0,-1,10,48,-2
1537918791448590,9,14,-8,3,4,-10,-21,13
1537918791460558,-7,-8,-1,-2,-2,-14,-12,-10
1537918791460558,-4,-25,-1,-1,4,15,0,7
1537918791476516,0,0,-4,-2,-5,-19,-4,-8
1537918791476516,-9,-10,-2,-2,-6,-6,5,21
1537918791483497,35,12,0,1,8,17,-11,0
1537918791483497,6,0,-1,-5,-4,-13,-9,-19
1537918791490478,2,1,-2,1,-3,16,59,33
1537918791490478,-1,-4,-3,0,0,-9,-27,-63
1537918791506435,-15,-7,-2,-5,0,-18,37,53
1537918791506435,-1,-1,2,2,-5,29,-2,-19
1537918791508430,-3,-4,-4,3,4,-48,-39,-13
1537918791508430,7,1,1,-2,11,34,-22,1
1537918791521395,-9,-12,-6,-7,-16,-9,1,-15
1537918791521395,5,3,1,-3,0,8,18,-16
1537918791528376,-6,2,3,-1,-5,-4,-16,1
1537918791528376,-2,-5,-3,1,11,4,23,34
1537918791543337,10,2,-1,-3,-11,-32,-31,3
1537918791543337,1,0,-2,-2,2,12,7,47
1537918791550318,-2,2,0,2,1,37,30,-9
1537918791550318,8,-1,1,2,3,-15,6,55
1537918791568270,-6,-2,-4,-1,-5,-3,25,-13
1537918791568270,6,0,-2,-5,-7,-9,7,-17
1537918791569267,5,2,-4,-5,-3,9,-29,15
1537918791569267,5,-5,3,-2,-3,-15,-67,-12
1537918791581235,-6,-8,-5,2,7,7,4,-6
1537918791581235,-15,4,12,8,6,-5,21,-5
1537918791588217,-11,-4,-17,-6,-2,2,-55,-15
1537918791588217,1,-1,-1,-2,-8,-4,44,6
1537918791603177,-4,-4,-2,-1,-2,-19,-80,-22
1537918791603177,6,-5,-2,-1,3,23,22,-15
1537918791610158,1,0,1,-1,-4,-10,-3,8
1537918791610158,-5,2,-1,-1,-6,-2,-5,-4
1537918791627112,-4,-3,0,1,3,-2,-8,-4
1537918791627112,5,1,-4,-3,-1,-1,-2,17
1537918791628110,-2,1,3,1,-4,-16,23,-4
1537918791628110,3,-3,-4,-1,2,7,-14,-7
1537918791640078,-10,1,3,-1,1,1,26,-13
1537918791640078,1,-3,-4,-2,2,20,-13,-24
1537918791649054,3,-2,3,1,-3,-28,-25,-3
1537918791649054,2,0,0,1,0,20,45,2
1537918791664014,-7,4,-1,3,5,-2,-17,-12
1537918791664014,1,-3,-5,-5,-5,-14,-37,7
1537918791669998,-3,-5,-1,-3,-3,5,-2,-22
1537918791669998,2,1,-1,1,1,-9,26,5
1537918791686952,-3,0,0,1,0,11,-24,-11
1537918791686952,-3,-1,-2,-2,-2,2,16,5
1537918791687950,4,-1,0,-4,-2,4,-2,5
1537918791687950,-1,-2,0,-2,-1,-1,-5,7
1537918791700915,-3,-2,-1,0,-1,3,11,0
1537918791700915,1,4,-2,0,-3,-16,-23,-5
1537918791708894,3,-5,0,-1,1,21,5,2
1537918791708894,-7,-4,-2,-2,-9,-61,-23,-13
1537918791723854,6,-3,-1,-1,3,49,20,16
1537918791723854,-5,1,0,-1,1,-14,-10,-15
1537918791730835,-5,1,-1,-2,-2,24,5,-3
1537918791730835,2,1,-2,-2,-3,0,3,-11
1537918791745795,-4,-1,-2,-1,-2,-17,-7,-5
1537918791745795,-3,-3,-1,-1,0,-5,3,-1
1537918791754771,-7,1,3,0,0,-4,-22,3
1537918791754771,4,2,0,-1,-1,-2,28,-63
1537918791760755,13,3,-2,2,5,18,34,47
1537918791760755,-5,-2,0,2,8,-11,-24,-19
1537918791769732,9,3,4,9,30,30,-14,-38
1537918791769732,-12,-3,-3,-2,9,-3,2,12
1537918791783694,-25,-6,-4,0,-33,-51,-1,-83
1537918791783694,10,-4,-5,-10,-13,42,28,47
1537918791790675,-2,1,9,24,58,-50,74,6
1537918791790675,-12,-6,-5,2,25,-35,-31,-3
1537918791806632,3,2,0,-18,-51,4,-7,18
1537918791806632,-5,-4,0,13,24,-94,-69,-7
1537918791808628,-12,-11,-21,-52,-85,44,-12,11
1537918791808628,7,6,3,-5,15,7,26,57
1537918791820595,1,1,-1,-30,-12,-45,-12,-1
1537918791820595,0,2,10,15,-43,-69,26,-32
1537918791829571,4,-1,4,28,1,60,52,37
1537918791829571,-10,9,4,-6,9,-20,-75,24
1537918791843534,11,17,-8,-4,32,18,-8,-10
1537918791843534,14,10,3,-10,-32,-8,12,30
1537918791850515,-14,-32,5,36,95,-28,-42,-52
1537918791850515,-11,-12,-7,-8,-122,-20,-20,-38
1537918791866473,10,-2,12,33,75,47,-17,9
1537918791866473,10,8,-18,-21,37,-7,3,62
1537918791866473,11,-7,-3,-22,27,10,62,71
1537918791866473,15,20,8,22,33,-40,-23,22
1537918791888415,-3,-13,-9,-24,-122,79,-46,-59
1537918791888415,-3,-7,-2,-12,-4,46,88,23
1537918791889412,-8,4,7,27,61,5,-51,-34
1537918791889412,-6,-10,1,8,33,-47,106,33
1537918791904371,25,13,-3,-7,-5,75,-7,52
1537918791904371,20,1,-9,-30,-71,20,-27,2
1537918791910355,-17,13,-1,-24,-54,-21,-5,-28
1537918791910355,15,-13,-2,11,21,1,-22,-70
1537918791925315,-38,4,2,17,61,-11,71,35
1537918791925315,-4,3,2,5,-1,15,49,14
1537918791933294,3,8,4,24,-3,-51,12,-19
1537918791933294,13,-4,-2,7,-23,70,-78,-30
1537918791948254,3,-27,-6,-14,58,-39,7,-9
1537918791948254,-22,10,-2,-12,-55,33,-23,-57
1537918791949251,-10,-7,-7,-43,-18,-57,35,13
1537918791949251,8,10,6,4,-86,-39,-29,-6
1537918791964211,3,-2,3,3,14,21,-6,20
1537918791964211,0,7,8,28,28,-31,7,-4
1537918791970195,0,-11,2,7,-20,32,-73,-46
1537918791970195,-1,7,5,8,64,30,-3,79
1537918791985155,-12,-1,0,19,8,-52,44,-37
1537918791985155,-4,-11,-9,-26,43,40,-53,-21
1537918791993134,-14,1,-4,-22,-73,3,41,-9
1537918791993134,11,13,-5,-26,-12,65,-15,39
1537918792009091,5,-31,8,24,-16,-33,7,34
1537918792009091,-5,24,4,40,99,19,20,8
1537918792009091,-5,-3,-6,-3,13,3,15,48
1537918792009091,-5,1,-7,-18,-8,11,94,-2
1537918792024051,11,18,0,-4,-39,-27,-22,-46
1537918792024051,3,-14,4,5,-12,4,6,-51
1537918792030036,14,-8,-10,-11,-2,-26,-34,52
1537918792030036,7,5,2,23,35,18,-5,-18
1537918792044995,-6,-22,-6,-22,9,22,-54,24
1537918792044995,-3,14,-4,-23,-42,1,53,17
1537918792052974,3,1,-9,-4,-29,-5,-9,-31
1537918792052974,-5,-2,1,4,39,10,23,23
1537918792075913,0,-4,13,11,0,-23,21,0
1537918792075913,5,-5,8,10,-1,9,-40,-10
1537918792076910,6,23,4,9,-20,0,5,-16
1537918792076910,-8,-11,4,19,43,15,11,-21
1537918792090873,8,21,-1,29,17,14,-27,58
1537918792090873,-17,-24,-10,-26,13,20,-9,-33
1537918792091871,3,2,6,3,-34,-47,-66,-60
1537918792091871,-13,-11,-13,-51,-35,-10,24,-9
1537918792113812,7,5,-7,-12,-35,11,-4,5
1537918792113812,-1,-10,0,5,-20,-6,-7,-26
1537918792113812,6,-4,-2,-6,57,-3,7,85
1537918792113812,-2,0,6,7,-7,72,44,-14
1537918792135753,-7,8,2,25,-9,-31,7,0
1537918792135753,11,-3,3,-3,40,-12,-12,24
1537918792136750,-4,6,3,10,-6,13,29,-21
1537918792136750,21,-2,-6,-14,-12,-19,-18,12
1537918792150713,4,10,1,-4,28,4,19,4
1537918792150713,-32,-8,-1,16,-10,-13,-22,-11
1537918792151710,10,-2,0,-2,3,11,11,-2
1537918792151710,-8,-7,-3,-1,-8,-7,-15,9
1537918792173651,3,-7,-7,-16,-12,-11,-21,-32
1537918792173651,10,4,0,2,2,-18,-20,15
1537918792174649,-3,-4,-2,-3,-14,29,11,4
1537918792174649,-8,-1,-5,-3,-11,-51,-15,-12
1537918792195593,2,-1,-2,-7,5,45,9,-3
1537918792195593,14,1,3,7,1,2,12,11
1537918792203571,-2,14,2,-2,0,-9,-25,0
1537918792203571,-4,-4,-5,1,-9,-1,-2,-16
1537918792211550,-19,-9,7,-7,3,-40,34,-9
1537918792211550,-8,1,6,5,0,7,-6,5
1537918792211550,2,0,0,0,-7,18,-9,-8
1537918792211550,-2,2,0,0,-6,-38,-16,-3
1537918792233491,-5,-4,-6,-5,-1,48,-28,-4
1537918792233491,4,0,-3,0,1,-7,-2,4
1537918792234489,0,1,-1,0,-1,-20,21,3
1537918792234489,-9,-1,-1,0,-3,7,-42,-13
1537918792256430,1,1,0,0,8,-15,21,8
1537918792256430,-3,-4,0,2,-5,3,-8,-7
1537918792256430,-3,0,-1,2,5,12,17,10
1537918792256430,-4,-6,-3,-2,-1,0,10,5
1537918792270393,2,6,-2,-9,-9,-58,-65,-15
1537918792270393,-3,-6,-6,-11,-7,24,0,-7
1537918792278371,1,-1,0,-5,-4,-6,3,0
1537918792278371,2,-1,1,1,3,33,18,13
1537918792293331,-6,0,-2,3,4,6,36,-35
1537918792293331,-2,0,2,6,6,-4,-19,2
1537918792294329,3,-1,-1,1,7,4,39,-6
1537918792294329,0,-1,1,0,-5,15,14,-4
1537918792316270,-7,-5,-4,-4,-7,-25,-29,-8
1537918792316270,-1,-4,-3,-1,-3,-3,49,5
1537918792316270,-2,-1,0,-2,-1,20,9,0
1537918792316270,0,1,1,-1,3,-11,-5,-4
1537918792330233,-4,-2,-1,-3,-3,1,-9,1
1537918792330233,-8,-5,-5,-9,-9,-8,25,-5
1537918792338212,4,2,2,6,4,-19,-52,10
1537918792338212,-3,-5,1,3,2,3,11,4
1537918792353172,7,-4,-2,0,1,-17,-4,8
1537918792353172,2,0,-1,2,-4,16,-5,1
1537918792354169,-6,-5,-3,-4,-5,1,3,-10
1537918792354169,-2,-2,-2,-2,-4,-14,15,-2
1537918792376110,-4,2,0,-1,1,26,2,-6
1537918792376110,5,1,1,1,0,-23,-13,2
1537918792377108,-4,-6,-1,-4,-5,15,-10,-8
1537918792377108,-1,2,0,0,2,-17,-36,-3
1537918792390073,-2,1,0,-1,-1,9,10,2
1537918792390073,-3,0,-1,0,-2,-5,-2,2
1537918792399049,2,2,-1,0,0,-2,-10,3
1537918792399049,-1,-2,-1,-1,0,16,27,-2
1537918792414009,-6,-4,0,-1,-2,-14,-6,3
1537918792414009,14,6,0,0,-1,-19,-24,-2
1537918792414009,-4,-7,-1,0,4,49,14,-1
1537918792414009,4,0,-1,0,-1,-20,-23,1
1537918792435950,-8,-2,-2,-4,-2,-6,38,-5
1537918792435950,2,2,1,1,2,-2,-1,7
1537918792436948,2,14,-1,-2,-2,8,23,-4
1537918792436948,-3,-17,1,2,2,9,26,0
1537918792450910,0,0,-2,-2,-3,6,-26,0
1537918792450910,-8,-6,-3,-2,-5,-14,-36,-5
1537918792458889,8,8,3,2,3,-26,24,-1
1537918792458889,13,9,-1,-2,-3,11,-6,1
1537918792473849,-22,-8,-2,0,-2,-31,0,7
1537918792473849,-4,-18,-3,-3,2,68,20,-8
1537918792473849,0,-3,-2,0,-2,-53,-19,2
1537918792473849,4,5,-1,-3,0,32,-9,4
1537918792495790,2,1,0,-2,1,-4,-19,-4
1537918792495790,-2,2,-3,-1,-2,0,10,-1
1537918792496788,-6,-4,-3,-4,-5,-2,-21,-3
1537918792496788,-4,-1,-2,-1,-2,-15,13,-2
1537918792510750,4,1,0,1,-1,4,8,2
1537918792510750,-3,0,1,1,-1,-9,-7,-2
1537918792518729,2,-1,-1,-3,-4,-12,-48,-5
1537918792518729,-4,1,0,2,6,7,15,-3
1537918792533690,3,1,-1,0,1,8,-12,0
1537918792533690,2,4,1,-2,1,-4,16,3
1537918792534687,-2,-6,-4,-2,-2,-15,-23,1
1537918792534687,-7,-3,-3,-3,-5,12,3,-10
1537918792555631,11,4,3,1,2,-18,-28,9
1537918792555631,-1,-2,0,-2,-4,-40,-54,0
1537918792556628,-3,-3,-2,0,1,48,39,-1
1537918792556628,-6,-2,-2,2,1,-1,2,-8
1537918792570590,5,4,-2,0,2,-2,4,-1
1537918792570590,-5,-2,-2,-1,-2,-5,12,-3
1537918792578569,-2,-3,-2,-5,-8,30,5,-3
1537918792578569,2,0,1,3,7,-22,-45,2
1537918792593529,-1,0,-2,-1,-4,-15,14,-5
1537918792593529,6,3,0,3,3,-8,-3,11
1537918792594527,-3,-4,-1,1,10,16,11,1
1537918792594527,-1,0,2,3,7,-22,0,2
1537918792616468,1,0,-3,-8,-18,10,-2,1
1537918792616468,-2,-2,-2,0,-2,7,51,1
1537918792616468,-4,-3,0,-2,-9,2,-68,-16
1537918792616468,5,3,0,5,12,27,61,17
1537918792630431,3,1,1,2,4,-23,-38,0
1537918792630431,-2,-1,-3,0,6,14,-4,-4
1537918792638410,0,-1,-1,-1,-3,-32,-2,1
1537918792638410,-7,-4,-5,-9,0,18,-23,-12
1537918792653369,-1,-2,-2,-1,-2,2,41,4
1537918792653369,3,2,2,-1,-12,-9,6,-1
1537918792654367,-1,1,1,3,7,-5,-12,2
1537918792654367,-2,-2,-1,-4,-11,-30,-14,-4
1537918792676308,0,-1,0,0,8,43,13,0
1537918792676308,-3,-1,0,1,2,1,-33,-7
1537918792676308,-1,-2,0,-2,4,-15,20,2
1537918792676308,0,-1,-1,-5,-13,2,-6,-2
1537918792690271,0,0,1,-2,1,4,-2,-5
1537918792690271,-2,0,-1,0,1,-2,-10,3
1537918792698249,0,1,3,2,-1,1,24,-1
1537918792698249,1,2,-2,-1,-3,-10,-13,1
1537918792713209,0,-2,1,3,1,6,0,-2
1537918792713209,-1,-2,-2,-4,-3,-6,6,1
1537918792714206,0,-2,-4,-6,-7,-11,5,-4
1537918792714206,-3,-2,-1,-4,-9,-3,-25,-8
1537918792736148,-2,-1,0,1,7,-1,-23,-2
1537918792736148,1,2,6,6,20,-40,15,6
1537918792737145,-4,-3,4,17,70,99,14,-1
1537918792737145,-3,-2,-2,1,-74,-90,2,2
1537918792750111,-5,-3,-10,0,25,109,-26,0
1537918792750111,-2,0,-3,0,57,-108,-13,-14
1537918792758089,2,8,-2,-18,-6,82,-17,-13
1537918792758089,9,2,-6,-34,-61,-80,38,-12
1537918792774046,-14,-10,9,58,79,91,66,-10
1537918792774046,12,5,-8,-29,-27,-92,-86,-7
1537918792774046,-9,-3,-4,-17,-5,43,9,-46
1537918792774046,5,3,-9,-58,-108,-79,36,21
1537918792795988,-13,-8,3,11,73,-128,18,11
1537918792795988,19,12,0,6,-80,127,-63,-11
1537918792796985,0,-3,7,42,69,-67,-14,3
1537918792796985,-1,5,12,40,118,-26,-43,44
1537918792818927,23,-14,-37,-113,-128,-96,-15,23
1537918792818927,-24,-6,18,25,127,114,100,-20
1537918792819924,16,6,13,37,-36,21,40,42
1537918792819924,-14,-12,-12,1,12,33,-49,-34
1537918792833887,-1,12,27,77,122,110,9,-17
1537918792833887,18,6,-14,-44,-128,21,2,26
1537918792833887,-13,-3,12,45,111,29,-32,-24
1537918792833887,-8,-10,-11,-25,-62,12,35,37
1537918792855828,1,5,-13,-37,-96,-55,-31,-49
1537918792855828,-19,-5,15,56,122,52,-3,13
1537918792856825,-1,-4,-17,-43,-97,-27,20,-40
1537918792856825,0,-7,-6,-26,55,127,6,56
1537918792878767,1,10,15,40,64,-107,29,-20
1537918792878767,-3,-13,-18,-61,-78,-71,37,-19
1537918792879764,5,3,17,34,92,-9,-61,12
1537918792879764,-12,-6,-8,-23,-82,-70,-52,-22
1537918792893727,0,2,-4,-20,-78,-75,-8,19
1537918792893727,-2,-3,-2,26,38,-86,29,9
1537918792894725,-3,-6,-10,-29,-32,-98,22,39
1537918792894725,5,13,34,75,123,52,-14,-43
1537918792915668,3,-7,-13,-18,-56,-80,-44,32
1537918792915668,-11,-8,-12,-28,99,-12,34,-15
1537918792916666,6,0,-17,-58,-76,52,-9,3
1537918792916666,-4,-3,0,17,48,-96,-30,-20
1537918792940601,0,-2,-7,-24,70,127,23,-1
1537918792940601,5,7,10,43,-21,70,36,22
1537918792941599,-6,2,-6,1,28,-106,3,-3
1537918792941599,26,6,-1,9,0,84,-24,28
1537918792953567,-3,3,11,34,24,-21,4,-22
1537918792953567,-17,-3,2,17,51,111,13,-27
1537918792954564,4,2,6,-7,66,-5,35,1
1537918792954564,-6,-2,-4,1,-48,96,-3,-15
1537918792975508,-2,-6,-15,-29,-33,-52,-51,4
1537918792975508,0,0,9,-14,-85,-109,-14,-29
1537918792983487,4,-9,-13,11,-31,6,9,24
1537918792983487,-13,-1,-8,-30,0,-6,7,-36
1537918792999444,-8,-9,-12,-61,-72,82,-4,-23
1537918792999444,-4,2,12,22,28,26,-44,57
1537918793000441,-5,-1,-4,-42,-128,-111,83,-4
1537918793000441,17,9,6,37,86,47,14,6
1537918793013407,1,8,22,75,127,-17,-7,-4
1537918793013407,9,-8,-22,-63,-83,60,-5,30
1537918793014404,-13,-6,2,3,-57,-39,-19,-37
1537918793014404,6,5,7,16,51,44,11,-7
1537918793036345,0,0,4,37,33,-35,-16,28
1537918793036345,3,1,-2,-11,89,89,-5,-21
1537918793036345,-7,-13,-30,-79,-65,-70,-80,-1
1537918793036345,-4,-6,-13,-40,18,2,40,-2
1537918793059284,-3,-5,3,1,-46,64,-27,-26
1537918793059284,12,10,14,59,75,-27,26,33
1537918793060281,5,6,3,22,-16,17,-40,9
1537918793060281,1,2,8,18,2,-10,14,-2
1537918793073247,15,8,8,32,69,-32,39,39
1537918793073247,-32,-15,-15,-23,-4,-28,-29,-31
1537918793074244,11,-1,-10,-45,-81,-56,56,20
1537918793074244,0,1,-3,2,58,-56,-18,-9
1537918793096185,10,12,21,70,96,11,-16,1
1537918793096185,23,16,16,53,38,-76,-15,18
1537918793097183,-19,-23,-43,-57,-10,-59,-37,0
1537918793097183,-10,-9,-10,-26,-93,-53,-4,-12
1537918793119124,0,0,0,-21,4,-24,16,-3
1537918793119124,9,8,20,54,70,76,15,8
1537918793120122,3,8,23,52,33,90,-2,-16
1537918793120122,-2,-1,4,29,79,-31,23,3
1537918793142063,-17,-10,-15,-60,-128,-56,-54,-53
1537918793142063,2,0,-3,-8,-32,-123,24,3
1537918793142063,-2,4,4,-8,44,119,34,4
1537918793142063,-18,-11,-17,-44,-128,94,-63,-27
1537918793156025,-10,-1,1,-14,59,98,30,8
1537918793156025,2,-4,-9,-17,-26,20,-25,-3
1537918793157023,9,8,11,26,14,-48,-44,-55
1537918793157023,3,12,35,108,123,44,19,5
1537918793178964,-2,-11,-31,-57,-105,-61,37,8
1537918793178964,-17,-19,-30,-119,-97,95,-51,13
1537918793179961,0,6,15,50,127,108,18,41
1537918793179961,0,0,-2,-11,-90,-26,-22,1
1537918793193924,10,9,13,48,71,-35,4,20
1537918793193924,-11,-3,0,7,4,-11,26,-27
1537918793193924,7,-4,-9,-23,-37,-5,-11,17
1537918793193924,-3,-5,-11,-37,-7,65,73,-8
1537918793216863,0,3,10,29,82,88,-9,9
1537918793216863,-3,-8,-11,-36,-128,45,8,-13
1537918793217861,4,5,6,38,56,78,-92,-2
1537918793217861,3,0,-4,-9,73,-90,9,4
1537918793238805,3,-7,-12,-50,-102,-56,40,30
1537918793238805,-6,3,11,34,54,-24,-27,-35
1537918793239802,7,3,7,20,20,-14,38,16
1537918793239802,-1,0,1,3,1,-3,-10,4
1537918793253764,3,-1,-5,-5,-14,-4,-30,4
1537918793253764,1,1,0,10,25,-5,28,-1
1537918793254761,-8,-1,1,2,-14,-31,11,-1
1537918793254761,11,-2,-6,-12,-11,-54,-24,4
1537918793277700,-6,0,0,-9,-3,53,12,-12
1537918793277700,1,0,-1,6,-8,-41,-5,-6
1537918793284682,-3,-3,1,-2,11,-13,3,-7
1537918793284682,-5,-3,1,5,9,7,3,-4
1537918793292660,6,2,-1,-4,-4,21,4,12
1537918793292660,4,1,-2,1,5,-16,-15,3
1537918793294655,-1,8,4,7,2,-17,4,-8
1537918793294655,-16,-9,-1,-6,1,4,-1,6
1537918793305626,18,-12,-3,-4,-19,6,0,-11
1537918793305626,22,13,-3,1,8,-27,-10,12
1537918793312607,-15,5,3,3,12,10,13,0
1537918793312607,5,11,1,1,-11,-11,-1,2
1537918793327567,-8,4,-1,-7,-5,9,-5,-13
1537918793327567,1,-9,1,5,10,-3,-1,-5
1537918793336543,-23,-22,-4,-2,1,-6,4,5
1537918793336543,34,7,1,2,3,6,2,12
1537918793351503,-12,-11,-2,-3,-3,3,-2,-6
1537918793351503,1,6,0,5,4,-7,-4,-1
1537918793351503,1,-5,-3,-6,-9,-8,2,1
1537918793351503,-15,-10,-3,-5,-3,-9,-3,0
1537918793365466,1,4,2,0,0,11,2,-2
1537918793365466,-3,-6,-1,0,-3,-8,-1,-2
1537918793372447,0,5,0,1,5,1,1,0
1537918793372447,0,1,-1,-1,3,3,2,0
1537918793388404,-1,6,0,0,-3,1,-2,-2
1537918793388404,-8,0,-2,-2,-1,-5,-3,-4
1537918793396383,7,0,2,2,5,-2,2,3
1537918793396383,0,2,2,-1,1,-1,-4,-3
1537918793411343,-8,-6,-3,-2,-6,-1,-1,-3
1537918793411343,-2,0,1,-3,3,-6,2,0
1537918793411343,10,1,1,-1,2,5,14,3
1537918793411343,-5,-3,-1,-2,-3,-3,-1,0
1537918793425306,-8,-1,-1,-2,-2,-4,-40,-8
1537918793425306,-2,-3,-1,-1,2,-1,-30,-7
1537918793433285,8,3,2,3,-1,-3,68,7
1537918793433285,-3,0,0,0,1,15,32,2
1537918793448244,-2,0,-1,-2,-2,5,10,1
1537918793448244,0,1,0,1,1,-7,-21,-3
1537918793456223,-4,-1,-2,0,-3,-19,-83,-13
1537918793456223,-3,-7,-2,-1,0,20,48,6
1537918793471183,2,0,0,0,-2,-9,21,3
1537918793471183,-3,-1,-3,-2,-5,-13,-19,-2
1537918793472181,1,-1,-2,-2,1,21,25,-2
1537918793472181,-1,-2,0,0,-3,-18,-73,-10
1537918793485146,0,0,0,1,4,24,21,3
1537918793485146,4,1,0,1,1,-6,8,15
1537918793493124,1,-2,-4,-2,-3,-12,-8,-1
1537918793493124,-1,1,-2,1,13,-9,-27,-4
1537918793508084,-2,-2,0,0,-3,-13,-24,-1
1537918793508084,-3,-3,-2,-1,0,53,54,-4
1537918793516063,4,2,1,-3,-10,3,-16,3
1537918793516063,-1,-1,1,3,0,-39,-5,-3
1537918793531023,-5,0,-3,-7,-19,13,-12,-10
1537918793531023,0,-3,-2,-4,-6,-80,-48,-1
1537918793532020,-1,1,0,3,19,68,1,0
1537918793532020,-3,1,-4,-5,-7,-59,42,-12
1537918793544986,-2,1,2,4,8,-8,-10,3
1537918793544986,9,2,1,4,10,54,43,5
1537918793552965,-2,-2,-1,-1,-4,-7,-18,-5
1537918793552965,10,1,0,-1,-3,1,-18,13
1537918793567924,-4,-3,-2,-5,-5,19,-17,-2
1537918793567924,-7,-3,-1,-2,-8,-37,-25,-24
1537918793575904,-1,-3,-3,-1,6,-22,20,26
1537918793575904,-2,-5,-4,-3,-8,43,-21,1
1537918793590863,-1,0,1,3,2,-23,49,1
1537918793590863,0,-4,-3,-5,0,40,24,11
1537918793591860,1,1,-1,-1,-5,-39,-68,-6
1537918793591860,-3,-2,-1,-1,-4,26,71,-3
1537918793605823,-22,-3,0,6,23,22,22,-17
1537918793605823,5,4,0,-1,-19,-94,-46,-13
1537918793612804,0,-1,-3,-4,-10,45,71,30
1537918793612804,-9,-1,-1,-3,-31,-58,-73,-76
1537918793627764,5,1,-6,-1,11,38,-13,31
1537918793627764,-7,-3,2,3,9,10,18,-11
1537918793635743,2,-2,-1,0,6,-9,-24,10
1537918793635743,-4,1,3,7,20,29,-6,-2
1537918793650703,8,-1,0,-1,-6,-5,12,0
1537918793650703,-5,-3,-5,-4,0,-34,-47,-2
1537918793651700,3,-1,-1,-4,-6,1,3,-8
1537918793651700,-5,-1,0,-1,4,6,2,-9
1537918793666660,4,-1,-1,-4,-12,-43,-13,13
1537918793666660,5,-1,-2,1,-1,53,11,7
1537918793672644,-11,-2,0,0,-2,-17,-1,-20
1537918793672644,-2,1,-2,-1,-1,-1,6,14
1537918793687604,0,-2,-2,-4,-7,-7,-22,-8
1537918793687604,-10,-2,-2,-2,-4,1,-2,-12
1537918793695583,-4,-2,-1,0,1,-12,6,-34
1537918793695583,13,1,-2,-2,2,8,19,87
1537918793710543,4,2,1,2,14,6,-8,-15
1537918793710543,-3,0,-1,1,-2,30,29,10
1537918793711540,-3,-1,-1,-9,-26,-52,-20,-20
1537918793711540,-2,-5,-2,-7,-12,19,18,-7
1537918793725503,-4,-2,-1,-3,-8,1,-12,0
1537918793725503,3,0,1,4,13,-12,-9,7
1537918793732484,-3,-2,-1,3,13,24,7,-3
1537918793732484,7,0,-1,-1,0,-6,-35,4
1537918793758415,0,0,-1,0,1,3,52,1
1537918793758415,-2,-2,-1,-1,0,4,1,-10
1537918793758415,1,-2,2,1,1,-4,-14,8
1537918793758415,-6,-2,0,-2,-1,-13,7,2
1537918793770383,-3,-5,-2,-1,0,28,-44,-11
1537918793770383,3,-2,0,-1,-2,4,23,8
1537918793778362,1,-1,-2,1,-1,4,6,3
1537918793778362,-1,0,-1,1,2,-10,-16,-3
1537918793785343,3,2,1,-2,-7,-35,-13,-9
1537918793785343,-2,-1,-3,-4,-4,8,-4,-1
1537918793793322,1,2,2,1,5,2,12,5
1537918793793322,-5,-1,-4,1,0,20,9,-8
1537918793808282,2,3,-2,-2,-4,-17,-2,0
1537918793808282,-4,-1,0,-2,-3,0,3,1
1537918793816260,-1,0,0,0,3,2,4,-2
1537918793816260,1,-1,-1,-4,0,7,0,0
1537918793830223,2,-3,0,0,-4,0,-11,-2
1537918793830223,1,-1,0,-1,-2,-11,-2,1
1537918793838202,0,-1,-2,-2,1,9,-1,-1
1537918793838202,-3,-1,1,0,1,-2,1,-4
1537918793845183,2,-1,-3,-3,-5,-32,7,11
1537918793845183,-3,-2,0,0,0,19,-1,-9
1537918793853162,4,-1,-2,2,1,6,-23,13
1537918793853162,0,0,0,1,2,-13,5,9
1537918793868122,1,0,-1,-2,0,9,14,-7
1537918793868122,-1,-2,-4,-1,-2,2,4,-2
1537918793876100,-2,-4,0,-2,0,2,2,-4
1537918793876100,8,3,2,4,4,-20,-11,8
1537918793890063,-4,-1,-4,-1,-6,3,0,-7
1537918793890063,-1,0,1,0,2,-16,-5,3
1537918793907018,-1,-1,-1,0,-3,13,11,-8
1537918793907018,-5,-5,-3,-7,-10,-21,-2,-9
1537918793908015,2,0,-1,-2,4,47,1,2
1537918793908015,0,-1,-2,-2,-5,1,1,3
1537918793913002,-2,0,1,-1,5,-8,-6,-6
1537918793913002,-1,-3,1,0,2,2,1,0
1537918793927962,-3,-1,-1,1,1,-6,0,-3
1537918793927962,-2,1,0,0,2,-18,-4,-1
1537918793935940,-5,1,0,1,1,-12,-3,10
1537918793935940,-1,3,0,1,0,18,-8,-14
1537918793949903,-3,-3,-2,-2,-5,4,9,1
1537918793949903,2,2,2,2,4,4,35,14
1537918793958879,1,-1,0,0,-3,7,33,12
1537918793958879,-7,-1,-1,-1,-1,1,3,-4
1537918793973839,-4,-2,1,0,1,-11,-19,-3
1537918793973839,-3,-2,-1,-2,-2,14,1,-4
1537918793974837,-1,-1,-2,-3,-7,-18,1,1
1537918793974837,1,0,-1,-1,3,13,6,22
1537918793987802,-1,1,-1,-1,1,-10,-31,-6
1537918793987802,-3,-1,-1,0,-4,-12,14,0
1537918793995781,2,-1,0,0,1,9,-5,-8
1537918793995781,-1,-3,-3,-2,-6,8,32,1
1537918794010741,1,0,2,1,4,-15,-12,-25
1537918794010741,1,-3,-3,-3,-5,-6,-19,-4
1537918794018720,-2,-1,-4,-4,-3,10,-15,8
1537918794018720,-2,0,1,1,2,-11,-14,-13
1537918794033680,0,0,0,-1,-3,5,4,-1
1537918794033680,0,0,0,6,16,14,-12,-7
1537918794034678,-2,-1,1,4,13,5,12,2
1537918794034678,-1,-3,-4,-10,-27,-19,-16,-10
1537918794047642,-2,0,2,4,16,26,11,0
1537918794047642,6,1,1,-3,-30,-19,-10,25
1537918794055622,3,0,0,-1,16,-21,11,50
1537918794055622,-4,0,1,4,5,25,1,-26
1537918794070581,-4,-2,-2,-2,-11,-2,19,16
1537918794070581,-4,-4,1,0,10,-2,-21,-22
1537918794078560,3,1,0,1,2,20,-16,-48
1537918794078560,-3,-10,-6,-4,-7,-65,1,-13
1537918794093520,8,15,6,4,11,68,19,18
1537918794093520,-4,-3,-2,-2,1,-4,-23,-57
1537918794094518,2,-4,1,-1,-9,-3,7,63
1537918794094518,4,4,0,-4,-4,-4,-15,3
1537918794107483,-15,-1,-1,1,-2,-16,24,-20
1537918794107483,3,1,-1,-3,-6,0,-13,33
1537918794116459,-3,1,0,-2,-5,-16,-23,-33
1537918794116459,-1,-3,1,3,12,11,-10,1
1537918794130421,-2,-7,-4,-2,-7,-46,19,14
1537918794130421,-3,-2,-3,-4,-2,39,-13,-2
1537918794138401,-4,-3,-2,3,11,-2,20,-17
1537918794138401,-1,0,1,1,2,25,-13,13
1537918794153360,3,-1,-2,-4,-10,-26,-20,2
1537918794153360,-2,-4,-4,-1,-5,-14,15,4
1537918794154358,-1,-2,-2,-1,-2,1,-6,-19
1537918794154358,2,2,4,5,9,11,23,5
1537918794175301,1,-2,-1,-3,0,-20,-40,-7
1537918794175301,3,0,-3,0,1,9,-2,9
1537918794184278,-17,0,-3,-4,-7,-4,4,-7
1537918794184278,11,4,0,1,3,11,16,10
1537918794199237,-2,-5,0,-1,-4,-17,-17,-19
1537918794199237,0,-3,2,-1,-1,-17,5,-7
1537918794200235,1,0,-3,-4,-2,16,-17,40
1537918794200235,-2,0,-3,-2,-2,10,5,14
1537918794222176,0,-2,1,1,-6,14,-5,1
1537918794222176,-2,0,-1,-2,8,15,7,-8
1537918794223174,1,-1,0,0,-10,-13,14,-15
1537918794223174,0,-1,-1,-1,2,-7,8,-7
1537918794235141,1,1,-1,0,-4,-9,-7,12
1537918794235141,-4,1,1,-1,0,-3,4,1
1537918794244117,-1,-3,-1,0,-5,2,-5,-6
1537918794244117,4,1,-3,-2,0,7,1,25
1537918794259078,-5,-3,-2,-1,-2,-1,-15,-11
1537918794259078,-2,0,-1,-2,1,9,-2,-8
1537918794261073,-7,-1,-1,-3,-9,-25,-23,-54
1537918794261073,4,1,0,3,8,23,15,32
1537918794282016,4,0,-1,1,3,-7,9,2
1537918794282016,1,1,-1,-3,-5,-10,14,17
1537918794283014,0,1,-1,0,-2,-7,-10,-12
1537918794283014,-10,-1,-2,-2,-3,4,-12,-20
1537918794294982,0,-4,-3,-3,2,9,8,9
1537918794294982,-1,0,-1,-1,1,-10,0,-4
1537918794303958,1,-1,0,0,2,10,18,8
1537918794303958,-3,-2,-2,-1,-4,-15,-12,-7
1537918794318917,-1,-2,-1,0,1,10,23,9
1537918794318917,-3,-1,1,1,0,1,9,-7
1537918794320913,1,0,-2,0,1,1,-6,0
1537918794320913,0,-1,-1,-2,-2,1,-8,-9
1537918794341856,-1,0,1,-1,-3,1,19,-11
1537918794341856,-1,0,-1,0,-2,-29,-27,0
1537918794342855,4,-1,-2,-1,0,15,4,6
1537918794342855,-7,-2,0,1,4,1,1,-15
1537918794355820,3,-1,-1,-2,-3,4,16,32
1537918794355820,-6,-1,0,1,1,-2,-5,-24
1537918794370780,-1,0,0,-1,2,9,0,-30
1537918794370780,5,-1,0,0,1,-15,-13,13
1537918794378757,1,-1,-1,-1,9,19,12,10
1537918794378757,-3,0,1,1,12,10,0,5
1537918794380752,10,2,-4,-13,-57,-67,15,20
1537918794380752,-3,-2,2,-1,-2,8,-4,-7
1537918794401696,-9,-2,-2,0,-1,-3,-45,-39
1537918794401696,3,-1,0,6,28,28,22,5
1537918794402693,0,-1,1,1,6,5,23,24
1537918794402693,-3,0,-1,-1,-4,19,7,-16
1537918794415658,-1,-3,-3,-4,-5,-22,-10,-10
1537918794415658,0,-1,-1,-2,-5,13,-9,6
1537918794424634,4,1,1,4,11,10,-14,3
1537918794424634,-8,-3,3,1,-5,-11,7,-8
1537918794439594,-4,-2,-2,-3,1,-20,-17,-23
1537918794439594,2,-1,-2,-2,-9,14,17,6
1537918794440592,-1,-1,-1,-2,0,0,-15,-31
1537918794440592,-1,0,-2,2,6,2,-7,-17
1537918794461536,8,3,5,-2,-5,-4,-7,25
1537918794461536,-10,-13,3,-7,-13,-17,7,-5
1537918794463530,25,-4,-8,9,10,16,-7,14
1537918794463530,5,-19,18,-4,-4,-2,-10,6
1537918794475498,-7,4,-49,-18,-7,-5,-5,-3
1537918794475498,1,-12,-8,-4,-6,-4,12,5
1537918794484475,-19,5,-4,-1,8,11,-6,-7
1537918794484475,2,6,2,0,-6,-29,-3,10
1537918794499435,7,2,8,2,-6,-23,6,6
1537918794499435,7,8,-3,-3,-3,-12,3,7
1537918794500433,-11,-10,3,3,11,57,8,2
1537918794500433,0,5,-2,3,3,-31,-7,6
1537918794520379,-2,1,8,4,2,35,-9,-9
1537918794520379,-5,7,-2,2,-7,-41,-12,-23
