timestamp,emg1,emg2,emg3,emg4,emg5,emg6,emg7,emg8
1537917735295779,0,0,-1,0,3,1,5,4
1537917735295779,-2,-1,0,2,8,11,3,2
1537917735300765,-8,-1,0,-1,1,-2,0,-12
1537917735300765,9,1,1,-1,5,-3,-5,8
1537917735303757,-2,-1,-1,-4,-9,-10,-6,-4
1537917735303757,-1,0,-1,1,3,-30,-1,3
1537917735303757,-2,-3,-4,-6,-14,0,1,-1
1537917735303757,-4,0,-1,0,4,14,3,-7
1537917735306750,0,0,-1,2,-1,15,-1,0
1537917735306750,0,-2,-1,-2,1,2,1,-2
1537917735317720,1,0,0,1,3,-14,-8,0
1537917735317720,-2,-1,-1,-2,0,-22,2,0
1537917735321709,0,-1,0,-2,-5,5,-3,2
1537917735321709,-4,-1,-1,-1,0,5,0,-5
1537917735337667,2,1,-1,-1,0,-5,1,1
1537917735337667,-2,0,-1,1,3,5,1,-1
1537917735346643,-1,0,1,0,6,2,1,-4
1537917735346643,-1,0,-1,-3,-5,0,-5,-1
1537917735368584,3,-1,1,0,-2,8,4,6
1537917735368584,-2,-1,-1,3,-4,1,-2,-1
1537917735369582,-1,0,-1,0,16,-3,-3,-1
1537917735369582,0,-2,-2,-5,-8,0,-2,-1
1537917735381550,0,-4,-1,1,11,6,1,0
1537917735381550,0,-2,-2,-5,-17,-7,-4,-2
1537917735423438,2,-1,-2,-7,-13,-6,-1,-2
1537917735423438,-2,-2,-2,-4,-2,7,0,0
1537917735423438,0,0,0,-5,4,2,-2,-1
1537917735423438,-1,1,3,4,14,2,0,-3
1537917735427427,-2,-2,-1,5,11,2,1,2
1537917735427427,0,0,0,2,-13,-38,1,3
1537917735427427,1,0,0,5,7,14,0,6
1537917735427427,1,-3,-6,-11,-4,8,-5,3
1537917735435405,-2,1,-1,1,-18,-6,0,8
1537917735435405,1,1,0,-3,3,14,-2,-2
1537917735441390,-1,0,0,1,3,-10,0,-2
1537917735441390,2,-1,-1,0,-14,-9,-9,0
1537917735458344,0,0,0,1,8,4,4,6
1537917735458344,-2,-3,-2,0,5,10,4,2
1537917735464328,-5,-3,0,1,-1,-1,2,-8
1537917735464328,-1,2,5,12,40,29,-1,-13
1537917735473305,-2,0,4,11,26,-59,-4,-8
1537917735473305,2,0,-1,-3,7,62,-3,0
1537917735495246,3,-3,0,5,45,77,-2,27
1537917735495246,-7,-1,1,-3,-62,-50,-8,-33
1537917735496243,1,0,2,14,69,65,9,0
1537917735496243,0,0,-2,-13,-47,-87,8,-8
1537917735518185,7,1,-9,-30,-101,17,11,39
1537917735518185,-14,-2,2,20,63,72,-2,4
1537917735519182,11,0,-6,-32,-107,-114,28,32
1537917735519182,0,3,7,29,83,-5,-39,-32
1537917735532147,0,-4,-10,-21,-57,42,1,-28
1537917735532147,-1,-2,-4,-24,-5,81,-28,77
1537917735539128,-4,5,10,31,34,-32,26,-25
1537917735539128,0,-4,-15,-46,-78,-5,17,-13
1537917735555086,-20,6,26,69,127,48,8,1
1537917735555086,22,12,7,13,-96,-57,19,-14
1537917735557080,-21,-21,-32,-69,16,-67,-35,-23
1537917735557080,7,-1,3,-1,29,32,9,25
1537917735578024,6,0,3,11,70,-29,-25,-20
1537917735578024,-7,-1,9,31,94,20,9,4
1537917735579022,-3,3,14,27,59,127,3,-27
1537917735579022,13,6,4,23,-43,-128,28,48
1537917735591987,-8,-9,-12,-35,-48,3,-12,-21
1537917735591987,7,-1,-1,3,65,-41,16,29
1537917735598968,10,2,-4,14,62,-17,-25,-6
1537917735598968,-22,-2,9,32,111,37,-9,-31
1537917735615924,-5,-7,-14,-38,-66,-72,-26,-31
1537917735615924,-8,-5,-12,-36,-93,-96,11,-28
1537917735616921,11,7,9,15,6,86,-1,36
1537917735616921,8,9,23,87,79,-110,3,15
1537917735637865,-6,-10,-16,-48,-52,60,-2,1
1537917735637865,2,-1,4,5,87,45,-6,-15
1537917735638862,-13,-5,-7,-28,-60,74,-17,-23
1537917735638862,4,-1,-7,-33,-96,-30,11,14
1537917735651827,15,14,25,70,110,17,26,13
1537917735651827,-7,-8,-16,-26,-36,-15,-52,-13
1537917735660803,-8,-7,-10,-32,-99,27,22,-11
1537917735660803,-6,-7,-7,-30,-35,66,5,-15
1537917735675763,5,4,1,7,20,29,8,17
1537917735675763,-3,-2,-3,-15,-33,-77,1,-32
1537917735676761,4,6,9,32,84,-8,-7,12
1537917735676761,-7,-4,-5,-7,-2,41,-37,-18
1537917735697704,4,3,-1,2,11,-25,70,29
1537917735697704,-1,1,3,25,80,127,16,11
1537917735699699,-4,-4,-2,-10,-35,-1,-20,-30
1537917735699699,-3,-2,-5,-15,-32,127,6,-6
1537917735711667,-5,-3,-5,-10,-73,-107,-29,-13
1537917735711667,5,2,-5,-14,-15,-18,12,14
1537917735720643,-7,-1,9,29,125,44,-3,-15
1537917735720643,-7,-12,-22,-70,-68,42,-16,8
1537917735735603,0,1,7,5,36,-65,-19,-5
1537917735735603,0,-2,-8,-28,-98,-77,0,-4
1537917735736601,-6,4,19,62,82,-60,-17,-17
1537917735736601,-11,-10,-23,-72,-53,5,-44,-19
1537917735757544,14,2,-3,-9,54,-128,34,43
1537917735757544,4,-2,1,16,70,97,-36,-51
1537917735759539,11,8,15,32,101,-47,29,59
1537917735759539,-4,-6,-15,-26,-65,-48,-22,-18
1537917735771507,-18,0,7,15,2,-10,-22,-31
1537917735771507,-1,2,1,1,20,-89,45,23
1537917735780483,21,0,-11,-22,-88,83,-5,19
1537917735780483,-1,7,25,78,127,89,12,-23
1537917735795443,47,-4,-15,-27,-84,23,-59,62
1537917735795443,-10,-7,-9,-24,-54,92,0,6
1537917735796441,-22,-6,-12,-34,-57,-128,12,-37
1537917735796441,17,4,0,2,-6,88,61,50
1537917735817384,-23,-1,8,35,127,35,-29,-22
1537917735817384,12,5,8,16,40,5,42,-7
1537917735819380,31,-2,-14,-33,-63,-94,-27,76
1537917735819380,-31,-7,-4,-35,-72,-13,-54,-30
1537917735831347,4,10,21,56,88,5,96,29
1537917735831347,-11,3,8,19,63,58,-41,-59
1537917735840323,14,2,-4,12,19,-86,-2,31
1537917735840323,9,2,6,30,127,-13,-16,38
1537917735855283,-13,-5,-14,-52,-119,-18,4,-10
1537917735855283,5,-2,-4,-3,13,27,-30,22
1537917735856281,-20,4,9,-9,1,3,-29,-52
1537917735856281,13,8,15,71,99,16,64,13
1537917735878222,-21,-6,2,8,109,49,19,-41
1537917735878222,0,-2,-4,-10,-14,-87,-25,6
1537917735879219,9,-5,-11,-22,-90,112,-6,11
1537917735879219,-17,-9,-14,-41,-92,-99,-29,-50
1537917735891187,-10,1,1,2,-8,24,17,-11
1537917735891187,2,8,17,43,16,-74,42,48
1537917735900163,-13,-10,-11,-17,-78,5,-47,-23
1537917735900163,-10,-1,-3,-7,0,14,39,-28
1537917735915123,-2,-2,3,-6,30,86,-30,-10
1537917735915123,0,-2,-4,-5,-70,-90,20,22
1537917735917118,24,-4,-15,-41,-24,69,-6,37
1537917735917118,8,4,14,50,22,70,5,27
1537917735938062,-11,0,7,23,31,-54,-55,-45
1537917735938062,3,-9,-20,-64,-98,20,4,-23
1537917735939059,-20,-4,0,-9,22,-9,55,-32
1537917735939059,-3,-1,0,-2,48,-8,-32,-31
1537917735951027,17,4,5,19,31,-17,40,52
1537917735951027,-17,-3,-2,-7,-81,-90,-28,-44
1537917735960003,9,2,6,25,111,-24,6,10
1537917735960003,-1,-7,-11,-19,-12,37,6,1
1537917735974963,-6,0,0,-1,-8,-85,-20,-9
1537917735974963,-2,-4,-7,-13,-44,-7,-5,19
1537917735976958,-14,5,15,37,111,25,14,-11
1537917735976958,-9,-3,-6,-15,-49,-98,-19,-38
1537917735997902,-2,-6,-6,-11,-41,12,-4,-1
1537917735997902,-9,-2,8,19,99,105,11,-20
1537917735998899,0,-2,-2,3,-56,-68,-6,-2
1537917735998899,9,2,0,1,26,9,3,3
1537917736011864,2,-3,-9,-22,-58,1,-19,-26
1537917736011864,-4,-2,0,5,54,58,-2,-3
1537917736019844,-8,1,2,11,6,20,11,-17
1537917736019844,5,-1,-1,-7,-30,30,-4,31
1537917736034803,1,-9,-19,-42,-91,-9,-19,3
1537917736034803,8,3,3,11,14,-10,8,58
1537917736036798,-3,0,0,-2,-30,0,2,3
1537917736036798,5,2,4,5,19,-34,-3,22
1537917736058739,5,1,-1,-4,0,37,-2,12
1537917736058739,-4,1,2,11,9,8,9,-5
1537917736059737,-3,-3,-5,-9,-34,9,-10,-20
1537917736059737,-11,0,1,2,12,-13,13,-15
1537917736071705,2,-1,0,-2,-20,17,-5,-14
1537917736071705,-1,-2,-1,-2,1,-19,6,-5
1537917736080681,-3,-4,-2,-3,-4,14,-2,-3
1537917736080681,-4,0,5,5,6,1,2,-4
1537917736095641,1,0,-2,0,-15,0,2,-3
1537917736095641,-2,-4,-1,0,2,6,-5,2
1537917736096638,3,2,2,0,2,18,1,7
1537917736096638,5,1,0,7,19,6,-1,3
1537917736117582,-2,0,-3,-5,-13,-3,-2,-1
1537917736117582,2,-3,-5,-7,1,3,-4,4
1537917736119577,-2,0,-2,-1,-2,14,0,-3
1537917736119577,5,-1,-4,-2,2,-20,9,19
1537917736131545,1,-1,1,2,-5,4,-4,-1
1537917736131545,-2,2,1,5,2,4,-12,-9
1537917736140521,0,1,1,-2,-4,5,4,-1
1537917736140521,5,-1,-5,-7,0,-9,-1,15
1537917736155481,-2,0,0,3,-1,7,2,9
1537917736155481,1,0,2,6,12,15,0,0
1537917736156478,-3,-1,-3,-7,-9,0,7,12
1537917736156478,5,-1,1,1,6,-5,-3,18
1537917736177422,-2,0,-2,-4,-3,3,2,-2
1537917736177422,-4,-1,2,2,-1,-5,-2,6
1537917736179417,1,-2,0,-3,-6,1,-4,3
1537917736179417,0,0,2,3,3,1,-2,-9
1537917736191385,-2,7,-3,-1,-6,-1,2,-18
1537917736191385,6,-8,0,2,4,0,-3,-15
1537917736200361,1,-9,-6,-5,-1,6,1,-10
1537917736200361,-3,-1,1,1,-1,-6,-5,-12
1537917736214324,-3,-4,-2,-4,-2,1,3,-15
1537917736214324,1,6,-2,-1,-1,-1,-5,-5
1537917736221305,-8,-3,0,2,0,1,0,-7
1537917736221305,10,8,-2,1,-3,-6,1,0
1537917736238259,4,1,-1,-3,-1,1,-1,-4
1537917736238259,-14,-19,-4,-3,-1,2,-2,-8
1537917736239257,-5,-1,3,3,-1,-1,1,2
1537917736239257,-3,24,-1,-3,-2,-6,-2,-6
1537917736251225,3,3,1,0,-1,2,2,4
1537917736251225,6,7,1,0,-1,1,2,1
1537917736260201,-1,-6,-4,-4,-3,0,1,3
1537917736260201,-7,-7,-2,-1,4,4,1,9
1537917736274163,-4,-13,0,1,0,2,1,-1
1537917736274163,0,1,-3,-2,-2,0,0,8
1537917736281145,-3,0,-2,-1,-5,0,-2,-7
1537917736281145,5,2,2,2,1,1,1,6
1537917736298099,0,1,-3,-4,-1,2,0,3
1537917736298099,3,24,0,-3,-1,1,0,4
1537917736299097,2,-27,1,0,-2,0,-5,-5
1537917736299097,-4,-6,-2,-2,1,0,-2,4
1537917736311065,-5,-8,0,2,1,0,-1,2
1537917736311065,-2,-1,-1,-2,0,0,-3,-1
1537917736320041,6,18,1,0,0,0,1,5
1537917736320041,-2,-10,-3,-2,-1,-2,-3,-2
1537917736335002,7,20,4,1,0,1,-1,0
1537917736335002,2,3,-2,-4,-3,-3,-2,1
1537917736340986,-10,-23,-5,-2,-2,-1,0,-4
1537917736340986,13,22,4,-1,-1,-2,-1,2
1537917736357940,7,-2,-2,-1,0,-1,1,3
1537917736357940,-17,-7,6,4,1,0,-1,-2
1537917736358937,-3,8,-3,-1,-3,-1,1,-3
1537917736358937,0,-11,0,0,1,0,1,-2
1537917736371902,9,9,0,1,-1,0,0,2
1537917736371902,-13,-57,-5,-1,0,-3,2,2
1537917736379881,8,49,1,-2,-2,-1,0,1
1537917736379881,-8,15,2,2,-1,-1,-1,1
1537917736402820,8,14,-1,1,-1,-4,-2,-3
1537917736402820,7,-4,-4,-3,-2,1,0,0
1537917736403819,2,2,1,2,2,0,0,2
1537917736403819,-10,-21,-5,-3,-3,-2,-2,-7
1537917736416784,-11,-20,-4,0,-1,-2,0,1
1537917736416784,-3,5,1,0,-2,-1,-1,0
1537917736432741,2,4,1,-2,-1,-1,-1,0
1537917736432741,10,0,0,-2,-1,0,1,2
1537917736439722,-11,-25,-4,-2,-4,-2,0,1
1537917736439722,6,12,0,-1,-1,0,-1,-1
1537917736447700,0,5,2,0,0,-1,1,1
1537917736447700,-7,-17,-1,-3,-1,-3,-1,-4
1537917736462660,-1,1,1,0,-1,1,0,1
1537917736462660,1,9,-2,-2,-1,-3,-2,-1
1537917736464655,1,-10,-2,-2,-1,-1,0,-2
1537917736464655,-3,-2,0,1,-2,-2,-1,-2
1537917736476622,-1,4,0,-2,-1,0,-1,-2
1537917736476622,7,6,-1,0,-1,-2,-3,-5
1537917736485599,-6,-14,-3,-1,-1,-1,-8,3
1537917736485599,1,-3,-3,1,2,1,15,15
1537917736507540,-7,4,4,5,4,4,-7,-17
1537917736507540,2,-2,0,2,10,11,3,-15
1537917736509535,-2,-1,7,29,107,-25,-18,26
1537917736509535,15,7,-2,-9,-78,8,54,32
1537917736522500,-6,-6,-7,-9,-4,-27,21,2
1537917736522500,2,4,3,7,12,8,-18,-26
1537917736524495,6,-2,-11,-34,-90,56,-2,1
1537917736524495,9,2,-1,-4,-18,61,20,7
1537917736545438,-15,-6,7,33,90,-15,-26,-54
1537917736545438,7,-1,-13,-36,-106,88,20,92
1537917736546436,-23,-14,-26,-69,-78,-78,-21,-84
1537917736546436,16,-10,-13,-32,58,-2,-2,18
1537917736560399,-2,3,4,-1,53,4,-7,-2
1537917736560399,-5,7,9,25,96,39,1,-10
1537917736561397,0,3,18,61,120,84,-16,-48
1537917736561397,6,13,13,20,-70,55,10,23
1537917736582341,-8,-14,-12,-6,44,58,-27,-5
1537917736582341,5,8,14,37,41,-110,16,-2
1537917736584337,16,-6,-12,-21,-77,2,29,81
1537917736584337,-35,-10,2,20,127,94,-40,-64
1537917736596304,24,5,0,-23,-109,-74,28,82
1537917736596304,-15,-7,-7,-20,1,47,16,-35
1537917736605281,24,10,25,68,84,86,-5,44
1537917736605281,-10,-15,-30,-67,-99,-72,-35,-7
1537917736620239,3,5,2,-6,112,83,-4,-19
1537917736620239,4,9,-5,-25,-1,-73,14,-5
1537917736622235,14,16,16,29,79,59,66,51
1537917736622235,-4,2,11,41,76,20,-33,-31
1537917736643178,-5,-5,-14,-27,-80,-7,-4,16
1537917736643178,42,1,-6,8,28,-108,-10,73
1537917736644175,-30,-5,0,-8,-5,87,-10,-91
1537917736644175,10,5,7,13,20,46,-1,-13
1537917736656142,-7,1,0,4,14,-98,21,-21
1537917736656142,-19,-2,6,14,17,15,-12,-47
1537917736665119,-17,-5,4,11,102,62,-35,45
1537917736665119,8,-8,-14,-34,-118,-89,24,17
1537917736680078,-7,1,11,30,40,11,14,-2
1537917736680078,12,12,16,41,69,-17,-4,23
1537917736682073,-12,-22,-33,-76,-128,-128,1,-45
1537917736682073,-21,-5,2,0,46,-17,-12,-26
1537917736704015,1,12,22,57,88,87,13,3
1537917736704015,0,-5,-7,-19,-55,-10,45,47
1537917736706010,-10,2,1,-2,13,33,26,-16
1537917736706010,-5,3,7,21,63,-34,-16,-15
1537917736715983,13,5,0,2,-49,124,13,26
1537917736715983,-11,-11,-17,-46,-119,-33,-19,-18
1537917736724959,-2,4,12,34,45,-44,-19,-17
1537917736724959,2,4,7,29,81,87,2,-1
1537917736739919,-3,-18,-33,-94,-128,-121,42,24
1537917736739919,-18,-1,-1,-13,54,39,-12,-24
1537917736746900,16,5,1,-1,-14,-33,8,8
1537917736746900,8,-1,0,4,11,-41,-16,9
1537917736762858,0,-1,1,-1,-13,-50,-34,-28
1537917736762858,-9,-2,2,2,-37,10,14,19
1537917736763855,6,3,3,18,46,-34,0,14
1537917736763855,2,2,-1,3,8,26,3,-9
1537917736776820,7,3,-4,-11,-72,14,-13,25
1537917736776820,-5,-1,7,23,74,53,-21,-47
1537917736785796,-20,-2,3,5,-68,-56,-2,-26
1537917736785796,8,7,13,40,54,84,36,24
1537917736799759,3,-5,-19,-40,-58,-128,0,-7
1537917736799759,2,-5,-5,-21,3,127,16,11
1537917736806740,10,3,3,7,47,-20,-27,12
1537917736806740,-4,-4,-8,-19,-35,14,27,-21
1537917736822697,-20,-2,4,4,9,35,24,68
1537917736822697,8,1,5,12,20,-3,-16,-18
1537917736824692,15,4,6,27,72,88,22,47
1537917736824692,0,-14,-31,-93,-128,-128,-5,24
1537917736845635,-10,-3,2,15,71,60,-36,-52
1537917736845635,14,8,9,26,72,72,38,20
1537917736846633,-10,-9,-16,-42,-128,-112,12,-3
1537917736846633,4,5,9,31,72,13,-6,-25
1537917736859598,0,-5,1,24,113,59,-30,29
1537917736859598,-5,-7,-12,-33,-128,-102,-17,-17
1537917736866580,4,-4,-4,-2,36,-5,14,-2
1537917736866580,1,8,15,34,74,58,-3,13
1537917736882537,0,-7,-6,-9,-34,-68,-19,-49
1537917736882537,1,5,4,16,8,75,0,6
1537917736884532,-10,-1,5,13,89,47,-21,-34
1537917736884532,-9,-2,-1,1,-21,28,-2,-8
1537917736905476,9,3,-3,-3,7,40,3,8
1537917736905476,-12,-4,-4,-17,78,29,-35,-22
1537917736906473,9,-4,-16,-64,-128,-100,35,38
1537917736906473,-13,-1,6,9,30,76,-16,-52
1537917736920437,25,6,5,12,-13,33,40,70
1537917736920437,-6,0,1,13,5,-84,2,-27
1537917736921434,3,3,7,22,100,49,-21,-20
1537917736921434,-2,-10,-10,-18,-74,48,-22,11
1537917736942379,6,6,9,28,52,-39,-17,6
1537917736942379,-7,-4,-6,-9,-45,-40,10,4
1537917736944374,-2,-1,2,24,125,77,11,8
1537917736944374,-4,0,-4,-12,-42,-128,-4,-14
1537917736965318,-4,1,4,-4,-29,-49,-15,-40
1537917736965318,-3,-2,0,6,-4,-48,-35,-20
1537917736966316,-11,-3,-6,-15,5,-31,-17,-27
1537917736966316,-8,-8,-14,-30,-78,74,5,-45
1537917736980277,-2,0,-2,-23,-80,-101,24,46
1537917736980277,4,5,10,33,57,84,2,-18
1537917736981275,-2,-8,-18,-50,-128,-128,-11,24
1537917736981275,-1,2,6,9,75,-31,-4,12
1537917737003215,-9,2,12,34,98,127,5,-41
1537917737003215,1,-1,-2,1,-21,0,-25,-43
1537917737004213,2,1,0,5,29,50,7,30
1537917737004213,14,1,-1,8,58,0,-21,37
1537917737025156,-10,-4,-3,0,7,-38,0,-18
1537917737025156,6,2,3,7,-8,-13,8,30
1537917737027152,2,5,11,50,72,97,-11,0
1537917737027152,-18,-9,-14,-35,-70,-96,-6,-18
1537917737048095,9,-6,-9,-28,-23,-57,-13,-42
1537917737048095,3,-5,-11,-32,-45,0,-7,-15
1537917737049092,2,0,4,6,-12,-48,-6,-13
1537917737049092,0,4,18,50,123,-25,-9,17
1537917737056074,-13,-5,-17,-27,-37,127,12,-33
1537917737056074,10,-8,-22,-72,-126,-71,-20,78
1537917737063055,-4,1,1,-16,-39,69,-6,-33
1537917737063055,-21,-2,6,14,-23,-48,-6,-31
1537917737069039,1,2,3,14,-12,-51,39,42
1537917737069039,0,5,9,29,84,5,9,-39
1537917737078015,3,0,6,15,1,16,6,39
1537917737078015,37,2,-4,10,-7,11,-26,70
1537917737091977,-9,-5,-6,-18,-29,-26,-16,-11
1537917737091977,0,-7,-10,-18,-79,24,3,25
1537917737098958,-4,-7,-13,-41,-68,-104,18,7
1537917737098958,7,-3,-3,-27,-65,-15,24,6
1537917737114916,7,6,12,30,17,22,-14,41
1537917737114916,-8,-4,-1,5,103,-4,-20,-35
1537917737120900,-8,-2,-4,-11,-37,-43,-11,-39
1537917737120900,2,-2,-6,-21,-62,20,18,57
1537917737128878,1,1,4,9,-3,21,1,-19
1537917737128878,-12,2,10,22,26,4,5,-20
1537917737137855,-7,-2,1,6,35,29,-2,-24
1537917737137855,6,1,0,4,22,31,-3,37
1537917737151817,-1,-1,-3,-4,-2,-17,-15,-15
1537917737151817,-3,-1,-2,0,-9,-10,4,-5
1537917737158798,-2,-3,-4,-6,-4,37,-6,-2
1537917737158798,-9,-1,2,2,2,-38,5,-22
1537917737174756,7,0,0,-4,-8,-6,-9,-6
1537917737174756,4,0,-4,-5,-2,-11,-4,13
1537917737181737,5,0,-3,-1,-10,-6,-1,1
1537917737181737,6,1,1,2,1,-20,1,-7
1537917737197695,-7,-2,1,3,15,10,-13,-25
1537917737197695,-4,0,0,-4,-3,4,10,-8
1537917737199690,15,-3,-6,0,-2,-2,-16,45
1537917737199690,-9,1,-3,-7,-7,-3,-11,-22
1537917737212656,-4,-4,-3,-7,1,14,15,-4
1537917737212656,-5,-4,0,4,-2,-20,13,0
1537917737218640,-7,6,3,4,-6,4,9,-20
1537917737218640,-2,-3,2,1,8,3,-19,-23
1537917737234598,5,1,-1,2,2,-3,-16,7
1537917737234598,-6,-7,-2,2,-3,-14,-59,12
1537917737241581,16,14,0,-1,0,8,-21,33
1537917737241581,12,5,13,2,7,5,32,-16
1537917737257535,-30,-11,-16,2,5,0,-10,-29
1537917737257535,18,3,4,-1,-1,1,107,-13
1537917737259529,-19,3,0,-1,-1,4,-21,-14
1537917737259529,-12,-13,-2,1,-1,-3,52,24
1537917737272495,19,0,15,-3,-3,-3,-24,-10
1537917737272495,1,-10,-12,0,2,6,51,1
1537917737278479,0,14,5,-2,-4,-2,9,-28
1537917737278479,0,22,0,0,-1,5,27,-7
1537917737294436,4,-8,-24,-5,4,-3,50,29
1537917737294436,-10,-12,-3,-2,-4,-6,-34,7
1537917737301417,-6,-15,8,3,1,-6,-7,-23
1537917737301417,-1,9,3,1,-1,-5,10,-1
1537917737317375,-18,-25,-2,1,4,20,-44,-18
1537917737317375,5,1,-1,-5,-4,-11,-23,14
1537917737319370,-3,-23,-18,-1,-1,-1,-36,4
1537917737319370,-2,12,2,-5,-3,2,-38,-8
1537917737331337,-3,23,4,6,5,-13,-10,5
1537917737331337,8,1,11,1,5,-7,-7,14
1537917737340314,0,-2,2,-5,-5,-9,-35,-1
1537917737340314,-12,-28,-14,2,7,25,36,-25
1537917737354277,41,-2,12,-4,-3,1,75,22
1537917737354277,-8,23,-1,4,3,-13,-36,10
1537917737361258,2,0,-3,-3,1,11,84,14
1537917737361258,-6,-3,0,1,3,25,-73,3
1537917737378212,1,-1,10,4,4,7,46,-5
1537917737378212,-20,2,-10,-1,-1,0,-7,-7
1537917737379210,2,-12,11,-3,-6,8,-12,-6
1537917737379210,-6,-13,-29,4,4,-22,10,-7
1537917737399157,-3,1,1,-1,7,-29,-83,-13
1537917737399157,-3,3,4,-4,-12,-3,-3,-2
1537917737400156,0,-3,-4,-1,-4,6,27,16
1537917737400156,4,10,11,-3,0,-5,-8,-14
1537917737415115,-16,-7,3,4,9,58,9,-17
1537917737415115,-4,-2,-4,-2,2,8,-6,-8
1537917737421100,31,9,-3,-1,-2,-15,-49,-18
1537917737421100,2,2,8,1,-3,-24,60,35
1537917737438054,-3,6,-4,0,-2,-14,-45,4
1537917737438054,3,-10,-4,-3,6,5,9,-7
1537917737439053,-5,1,0,-2,-5,14,33,-13
1537917737439053,-2,-4,3,3,5,-11,-37,-12
1537917737459995,9,9,-4,-4,4,-33,-23,4
1537917737459995,-3,-6,-2,-11,-28,8,-6,-7
1537917737459995,-8,-1,-2,0,13,-9,4,0
1537917737459995,4,0,-3,-5,-14,30,-3,3
1537917737474954,-10,-1,-1,0,-4,11,4,-5
1537917737474954,8,2,4,0,-11,-7,-3,10
1537917737480938,-17,-2,0,2,0,9,22,-1
1537917737480938,20,0,1,0,3,-17,-50,17
1537917737496895,-19,-2,-3,-3,-3,2,35,-12
1537917737496895,20,3,5,6,12,-10,-19,37
1537917737497892,-7,4,1,7,4,4,-18,-13
1537917737497892,-11,-6,-2,-1,7,-10,26,-9
1537917737519833,2,4,-1,-4,-10,-25,6,7
1537917737519833,-4,6,1,2,6,28,-8,-23
1537917737519833,3,-14,-5,-2,2,1,16,7
1537917737519833,-8,-4,2,0,-2,4,-17,-6
1537917737535791,-7,-6,-2,-1,-1,-2,1,-5
1537917737535791,-8,-4,0,-3,1,-22,3,-7
1537917737541775,-1,8,0,-1,-4,12,-2,-7
1537917737541775,2,2,6,1,-3,7,-13,-11
1537917737556735,-2,-5,1,-1,-5,6,0,-11
1537917737556735,-4,-4,-5,3,5,-18,6,-1
1537917737557732,11,2,-2,0,1,-10,-6,35
1537917737557732,16,3,-2,-4,-2,13,-14,4
1537917737572692,7,4,0,-4,-4,13,14,1
1537917737572692,-6,-1,1,0,3,-2,-7,1
1537917737578677,-12,-3,-1,-2,-7,-28,14,-10
1537917737578677,-7,-1,-1,-2,10,28,-13,-13
1537917737595631,0,-2,-1,-2,-12,2,2,9
1537917737595631,-2,-1,1,0,-4,-18,-5,-24
1537917737601615,-4,2,0,3,1,30,5,-13
1537917737601615,-1,-2,0,-3,-5,-56,-2,39
1537917737616576,5,1,-1,-2,4,35,-19,-13
1537917737616576,10,2,-2,-2,-2,-4,16,36
1537917737617574,-5,-7,-2,-3,-4,-6,-20,23
1537917737617574,-5,8,-2,-2,-2,-4,5,-23
1537917737632534,4,1,-3,-1,-2,-19,-3,-1
1537917737632534,-1,-3,0,-2,-3,-1,8,6
1537917737638519,7,8,0,1,3,4,1,-12
1537917737638519,-20,-26,-7,-2,-5,7,2,5
1537917737655473,1,21,4,2,-3,-31,-30,7
1537917737655473,23,10,-3,1,4,20,11,-5
1537917737661457,5,13,10,-1,0,-6,-11,-28
1537917737661457,-13,9,5,-1,-4,-3,-1,-2
1537917737677412,0,-10,-4,-1,-4,4,1,-8
1537917737677412,-16,-10,-14,-5,2,5,0,-17
1537917737677412,0,4,-4,-6,-2,-1,-1,4
1537917737677412,-12,-16,-9,5,1,-3,1,-7
1537917737692372,38,2,9,-1,-3,-21,-1,5
1537917737692372,-14,-15,0,1,-6,-29,3,14
1537917737699354,-6,-6,-4,2,6,27,-7,-23
1537917737699354,-1,0,6,-4,-4,30,6,-9
1537917737715311,-19,-2,-3,0,2,56,-3,8
1537917737715311,3,2,0,-6,-14,-86,-1,-13
1537917737721295,1,-10,5,8,28,102,4,-2
1537917737721295,14,-6,1,0,3,-42,6,-1
1537917737737254,-7,21,-2,1,-6,-10,13,-6
1537917737737254,-2,4,6,8,20,91,15,-14
1537917737737254,-10,-5,-3,-7,-22,-51,-43,2
1537917737737254,14,17,0,3,7,23,77,8
1537917737753211,-9,-10,-9,-5,-4,-73,-23,-37
1537917737753211,-6,-9,10,0,-7,-2,30,39
1537917737759193,-8,9,-5,-2,-9,-13,-31,2
1537917737759193,1,-5,-5,-3,-6,-24,-17,10
1537917737775151,-9,-25,-1,-1,-2,5,7,8
1537917737775151,4,27,1,-1,1,12,-38,-19
1537917737781135,1,-4,-1,1,0,-26,20,7
1537917737781135,-1,-2,0,-2,-5,-17,-20,-10
1537917737797092,-1,-6,-2,-2,0,9,2,8
1537917737797092,1,-3,2,2,7,27,-3,13
1537917737798090,3,-5,-2,-1,-6,-26,10,4
1537917737798090,-4,3,1,2,4,16,7,-1
1537917737813050,-2,-1,-2,-2,-1,6,-13,7
1537917737813050,0,-2,-1,-2,-1,0,34,-17
1537917737819034,1,2,3,1,4,-2,11,-6
1537917737819034,1,-2,-2,-4,-18,0,-13,8
1537917737833994,-9,1,0,0,3,-4,6,-16
1537917737833994,2,-4,-1,-1,-2,-13,3,0
1537917737840975,-1,-5,-4,-2,-5,-19,-49,-1
1537917737840975,1,0,-2,0,11,51,38,0
1537917737856933,3,4,1,4,3,-9,-20,12
1537917737856933,-1,6,0,2,2,-13,40,-11
1537917737857931,-7,-6,1,0,5,19,8,13
1537917737857931,0,-3,-2,-5,-6,-39,-31,-6
1537917737872890,2,2,-1,0,-1,16,9,-12
1537917737872890,-3,-12,-2,0,0,-7,-23,-3
1537917737878874,4,7,-1,-3,-8,-9,2,-3
1537917737878874,0,9,1,1,0,-13,-3,-7
1537917737893833,3,4,-2,-2,-2,1,24,15
1537917737893833,-8,-9,-2,1,1,19,-18,-14
1537917737901812,1,-2,-2,-5,-1,-12,0,-12
1537917737901812,3,-3,0,-1,3,35,-2,32
1537917737916772,4,0,1,0,-3,-8,-37,11
1537917737916772,10,0,0,0,0,-8,20,14
1537917737923754,-7,-7,-4,-2,-5,-11,10,11
1537917737923754,-7,-1,1,3,9,11,8,-24
1537917737955668,-4,-3,-9,-1,-1,-7,-9,-11
1537917737955668,-6,-3,4,-2,-5,8,-26,5
1537917737955668,0,1,5,3,0,-25,23,-4
1537917737955668,-1,-1,-4,-1,0,-14,-15,-9
1537917737961653,-1,-3,-4,-2,0,36,33,1
1537917737961653,2,-2,-3,-1,0,-7,-23,4
1537917737962650,4,6,5,0,1,9,19,-3
1537917737962650,-3,-5,-7,-2,-3,-11,-3,-12
1537917737984591,-3,1,6,-2,-1,-14,2,0
1537917737984591,-1,-3,-6,-2,-2,3,-13,0
1537917737985589,2,0,-1,0,3,3,3,4
1537917737985589,5,6,-2,-2,-6,-23,-6,13
1537917738007530,-1,-11,0,-2,0,10,-16,2
1537917738007530,-5,2,0,-1,-3,-15,9,-1
1537917738008527,2,-2,-3,-1,-1,0,19,-10
1537917738008527,-4,0,-2,-1,0,-4,11,-19
1537917738022490,3,6,8,2,3,16,18,2
1537917738022490,-7,6,12,-2,-7,-17,-33,-9
1537917738022490,1,-10,-3,3,0,6,16,4
1537917738022490,18,24,14,-2,-6,-9,-14,0
1537917738044431,-1,-28,-14,3,7,14,5,-3
1537917738044431,-14,-24,-21,-3,1,-10,-15,1
1537917738045428,-3,2,2,-3,0,-17,-21,-1
1537917738045428,0,-6,-11,-2,0,-6,-26,8
1537917738067370,8,12,2,-2,-14,-9,8,1
1537917738067370,9,11,5,1,1,25,-4,-6
1537917738068367,-2,-4,-5,-2,-4,-25,-4,20
1537917738068367,-2,7,17,4,2,2,0,-13
1537917738082330,0,-2,-2,-2,4,1,8,4
1537917738082330,1,-6,-14,-1,1,0,4,-6
1537917738082330,-7,0,4,-2,1,20,8,-11
1537917738082330,-1,0,3,0,0,-10,17,10
1537917738104271,-7,-10,-8,-2,-10,-17,-6,-4
1537917738104271,-1,10,17,-1,-2,-6,3,-4
1537917738112250,-2,-8,-6,-3,-2,23,-8,-2
1537917738112250,8,-5,-12,-1,1,-1,-15,-3
1537917738128207,0,8,10,2,6,17,9,-2
1537917738128207,0,-6,-4,-3,-3,-8,33,8
1537917738128207,0,-2,-4,0,-2,-11,1,3
1537917738128207,-5,-8,-3,0,-1,-10,-29,5
1537917738142170,-3,2,-9,-2,-1,-19,-28,-13
1537917738142170,9,9,6,-2,1,22,20,3
1537917738143167,6,-1,-1,6,4,-8,-11,-3
1537917738143167,-8,-6,-4,0,0,22,19,1
1537917738164111,4,15,2,0,4,-5,-12,4
1537917738164111,-3,-11,-13,-3,2,-10,-8,2
1537917738165109,-3,3,-3,-4,-7,-10,11,-7
1537917738165109,-12,-14,1,-3,-2,22,-19,-14
1537917738188047,3,8,9,2,-1,-5,4,-12
1537917738188047,-11,-6,5,3,-1,17,3,8
1537917738188047,24,15,-8,-1,1,-31,-17,16
1537917738188047,-4,1,-1,2,4,15,33,-15
1537917738202010,0,-1,0,-3,0,0,-10,10
1537917738202010,-5,-8,-4,-4,-10,-32,-22,-22
1537917738203007,2,-3,-1,-5,-3,34,25,18
1537917738203007,-1,8,11,-2,-2,-1,-4,-9
1537917738224949,-1,-14,-14,-3,5,-4,10,8
1537917738224949,3,3,-2,1,4,2,-38,-4
1537917738224949,3,3,4,-4,-17,-30,17,7
1537917738224949,1,-5,-8,0,-1,12,15,6
1537917738247887,-5,2,-4,0,-3,-6,-8,-15
1537917738247887,22,-1,-2,-1,5,-7,6,27
1537917738248885,-9,-12,9,0,6,14,-4,-4
1537917738248885,-11,-14,-19,-4,-1,-21,3,3
1537917738261851,6,2,4,0,3,32,6,4
1537917738261851,-10,-8,-4,1,0,-2,-6,0
1537917738262848,-6,14,1,2,6,-3,-12,-15
1537917738262848,0,1,4,2,-1,-6,4,-13
1537917738284789,-8,-2,0,1,0,-14,2,2
1537917738284789,15,17,15,1,-2,8,-6,13
1537917738284789,-1,-9,-14,-2,1,0,3,9
1537917738284789,-5,1,-2,-4,-7,-27,-2,-10
1537917738307727,-15,-8,1,-2,-3,19,11,-10
1537917738307727,4,4,0,2,0,-6,8,8
1537917738308725,-8,-4,-9,-4,0,44,-3,-15
1537917738308725,4,5,15,2,3,-10,-18,4
1537917738321690,14,3,0,1,-1,-6,12,3
1537917738321690,-2,0,7,-2,-5,-19,0,-10
1537917738322687,-1,-10,-13,-3,-1,-3,-14,4
1537917738322687,-1,-1,-3,-4,-1,-6,8,-6
1537917738344629,2,-10,-1,-3,-3,-12,-18,8
1537917738344629,-7,0,-9,1,-1,18,8,-6
1537917738345626,4,4,6,-3,1,-23,-29,-29
1537917738345626,1,0,-2,-1,-6,34,21,14
1537917738367567,-11,1,8,0,1,-15,-4,-15
1537917738367567,4,1,-4,-2,-6,10,-5,10
1537917738368565,-7,-3,-2,-1,2,-13,-14,3
1537917738368565,-1,3,2,-1,0,-19,25,12
1537917738390506,-6,-11,-3,-1,-3,40,31,14
1537917738390506,-5,5,11,0,5,-8,-16,-19
1537917738390506,5,-30,-15,1,1,-1,4,12
1537917738390506,5,12,-4,-1,0,-16,-19,6
1537917738404469,0,5,-2,-2,-4,-12,10,2
1537917738404469,-2,-4,-2,1,-3,-12,-5,4
1537917738405466,-7,25,17,3,-1,25,8,-18
1537917738405466,24,-21,-2,1,3,2,-15,-1
1537917738427407,-3,-8,-12,-1,-4,-9,7,-3
1537917738427407,-1,3,-6,-3,-2,15,-12,5
1537917738428404,-4,4,1,0,2,-7,-11,-11
1537917738428404,-10,0,3,1,4,-21,-29,16
1537917738442367,-2,10,13,-6,-17,9,3,4
1537917738442367,-13,-15,-25,-3,2,17,51,-18
1537917738442367,8,7,37,4,0,5,9,7
1537917738442367,-4,2,-19,-3,1,16,-4,-10
1537917738464309,3,-3,0,1,0,-40,-21,1
1537917738464309,-6,2,5,1,4,7,34,-4
1537917738465307,-1,-5,-9,-6,-1,-16,-3,4
1537917738465307,-15,-1,1,-1,-3,9,10,-13
1537917738488246,2,-4,-4,1,3,2,-30,-11
1537917738488246,3,0,5,2,-3,6,-7,-9
1537917738488246,-8,3,-10,-4,4,5,25,-4
1537917738488246,-3,-12,-5,-2,-3,-8,-11,13
1537917738501210,5,16,-3,-2,0,-16,15,-2
1537917738501210,7,-3,0,-2,1,15,-33,17
1537917738509189,-2,-14,5,3,1,-1,1,2
1537917738509189,2,3,-1,-1,-4,5,-5,-9
1537917738524149,-16,1,3,-1,-1,-18,1,-8
1537917738524149,2,-7,11,-1,2,22,-6,16
1537917738525146,-1,7,0,0,-1,21,0,-19
1537917738525146,-3,-6,-16,-4,-2,-10,7,12
1537917738547087,13,2,5,2,4,25,-40,-2
1537917738547087,5,6,6,1,2,-38,14,-1
1537917738554069,-3,2,1,-3,-3,-3,2,9
1537917738554069,0,-4,-6,-1,-1,6,6,-13
1537917738561050,-3,-3,-5,-3,1,1,5,9
1537917738561050,-5,0,1,1,-4,-1,-15,-9
1537917738569029,4,-4,-9,-7,-4,12,-14,6
1537917738569029,-2,10,-3,0,-1,-24,7,-8
1537917738584986,4,-4,11,-1,0,-7,-26,7
1537917738584986,-12,-1,-5,1,4,7,36,-10
1537917738584986,-4,3,0,-2,-6,-7,-11,-5
1537917738584986,-6,0,14,-4,-1,4,-14,-7
1537917738607926,3,-21,-29,0,1,6,-1,8
1537917738607926,1,-2,0,-4,-3,-10,-10,-14
1537917738608924,-3,4,3,4,-4,-22,9,12
1537917738608924,4,-1,6,-3,-3,9,-10,4
1537917738621890,-6,8,8,1,4,20,4,-8
1537917738621890,2,0,3,0,-12,-9,15,0
1537917738629868,6,-7,-29,-13,-1,-12,3,7
1537917738629868,3,1,16,6,-8,12,3,3
1537917738644829,-4,-1,-2,0,5,-17,-6,-3
1537917738644829,-5,-4,-4,1,8,12,-7,-3
1537917738644829,2,-2,6,2,2,3,2,2
1537917738644829,-3,-2,-1,4,5,-14,-16,-6
1537917738667768,-3,0,-2,-3,-3,-11,4,-3
1537917738667768,-2,5,-3,-3,-3,3,-1,-4
1537917738668765,-4,-3,2,3,0,-12,-6,-10
1537917738668765,4,-2,-2,-7,-4,9,-19,1
1537917738681728,0,1,-1,-1,-7,-9,43,2
1537917738681728,4,-3,-1,-8,-4,-15,-12,-7
1537917738689706,1,-6,3,5,0,14,18,20
1537917738689706,0,8,16,6,2,1,2,-10
1537917738704667,-13,3,-4,6,6,-8,2,-7
1537917738704667,1,0,-5,-4,0,-19,-18,-2
1537917738705664,2,6,9,3,4,11,-7,-7
1537917738705664,0,-12,-9,-2,-9,-2,10,1
1537917738727605,-3,1,-3,-3,0,0,-5,-5
1537917738727605,-5,-7,-3,1,1,1,-7,3
1537917738728602,1,3,-1,-3,-4,-6,-2,-3
1537917738728602,-1,1,-1,1,3,10,9,1
1537917738741568,10,2,-1,-4,-2,-7,-3,13
1537917738741568,1,-2,-8,1,-1,-7,-18,-2
1537917738749546,4,4,9,0,-3,0,6,-2
1537917738749546,-5,-2,-3,-3,-2,6,19,0
1537917738764507,-1,-13,-15,-1,1,4,0,-4
1537917738764507,-10,4,5,1,-2,2,-29,-10
1537917738765504,-1,-3,-6,-1,-1,-9,53,5
1537917738765504,1,4,2,2,1,-9,7,4
1537917738787446,-3,3,7,1,-1,19,19,-10
1537917738787446,-1,-3,7,-1,0,2,-10,-2
1537917738788444,-2,-2,-2,-2,-3,-8,-15,-7
1537917738788444,0,-4,-11,-2,0,-7,-10,9
1537917738801408,2,2,5,-4,-4,-5,0,0
1537917738801408,5,-2,-12,-3,-4,12,8,2
1537917738809386,2,-3,-2,-1,-1,-9,-6,6
1537917738809386,-1,7,16,3,5,-11,0,-1
1537917738824346,-2,-10,-7,-5,-3,5,-15,1
1537917738824346,6,0,-4,2,0,-5,2,4
1537917738825344,2,-3,-2,-1,5,14,1,0
1537917738825344,-5,-2,-10,-6,0,-4,3,-1
1537917738847286,11,3,6,-2,-10,3,-32,7
1537917738847286,1,2,-2,-1,0,-20,29,-1
1537917738848283,-7,-1,-4,0,-3,18,-3,0
1537917738848283,2,-3,-3,1,2,-16,-17,-9
1537917738870224,-6,2,7,1,1,-3,1,-2
1537917738870224,3,2,-1,-1,5,10,2,9
1537917738871222,-6,-5,-5,-3,-6,-12,-12,-15
1537917738871222,1,0,-6,-2,0,12,-9,-2
1537917738884187,-3,-2,1,-1,-1,-5,-13,2
1537917738884187,1,-1,-2,0,0,-3,-7,-1
1537917738885184,-2,-1,0,0,2,4,5,2
1537917738885184,1,-1,-4,-1,-1,11,18,-2
1537917738908122,-5,0,-5,0,1,-6,5,-7
1537917738908122,-4,0,12,0,-5,4,-6,-5
1537917738908122,5,-1,-7,-2,-3,-19,-29,10
1537917738908122,-4,1,3,1,0,26,23,7
1537917738930064,8,-5,-6,1,4,-6,-8,-22
1537917738930064,0,5,5,-1,-5,-27,10,24
1537917738931061,0,-6,-11,-6,-9,-5,-2,-5
1537917738931061,-7,1,-1,2,4,11,-1,-4
1537917738944027,-6,2,0,-4,2,-3,10,-1
1537917738944027,-5,-4,-3,-4,-7,5,0,-13
1537917738945025,1,3,2,3,6,-38,-3,8
1537917738945025,-1,-3,1,-1,-1,7,-6,-1
1537917738967962,13,9,3,5,7,89,6,7
1537917738967962,-2,-7,-4,0,1,6,2,13
1537917738968960,-3,0,6,1,-4,-15,-14,-11
1537917738968960,-2,-4,-3,-4,-4,-5,-4,-10
1537917738989904,4,2,3,2,1,-40,-5,17
1537917738989904,3,-4,-5,-3,-4,4,8,4
1537917738991898,2,0,-1,0,-2,28,4,-4
1537917738991898,-1,-2,9,0,-3,-35,4,2
1537917739003866,-5,-2,1,-1,-8,-13,-19,-11
1537917739003866,2,2,-2,1,4,12,-5,-6
1537917739012843,-7,-5,3,0,2,1,0,-1
1537917739012843,3,0,-13,1,-4,-14,-24,-8
1537917739027802,-5,-2,3,-1,-2,0,40,11
1537917739027802,0,1,0,2,0,6,-22,-9
1537917739028800,-5,0,-2,-4,-3,-6,4,3
1537917739028800,-3,1,1,2,1,-40,9,-2
1537917739049744,-6,-2,-2,-1,1,73,7,0
1537917739049744,-2,-1,-6,-1,-2,-13,-7,-12
1537917739051738,2,-1,0,0,-1,11,-2,2
1537917739051738,-7,-2,0,-2,-2,5,2,-5
1537917739063706,1,-1,0,0,-3,-48,-23,6
1537917739063706,7,1,-4,-2,1,1,10,2
1537917739072682,-1,2,3,1,3,6,-11,-4
1537917739072682,3,0,1,-1,-1,15,9,9
1537917739087643,-1,-1,-1,0,-1,-25,-11,-7
1537917739087643,2,-5,-6,-3,-2,24,4,5
1537917739089637,-3,0,-1,0,-2,-4,-8,-7
1537917739089637,5,-2,-3,-1,-3,-2,-37,3
1537917739110582,5,3,1,-1,-1,-14,48,3
1537917739110582,-5,-1,3,2,0,-12,-11,-2
1537917739111579,0,-3,-2,0,-2,16,30,-5
1537917739111579,1,-1,-4,-2,-2,-10,-12,0
1537917739124544,-4,-1,-2,-1,0,26,-6,2
1537917739124544,-3,2,3,0,-1,-15,19,-3
1537917739131526,0,0,17,2,2,-12,-12,1
1537917739131526,1,-1,-10,0,-4,49,9,-1
1537917739147483,-3,-2,0,-2,-5,-34,-11,-4
1537917739147483,-4,-2,0,-2,-3,-5,-3,-2
1537917739149478,-2,0,-4,-3,-2,1,-17,0
1537917739149478,4,0,3,-1,-1,-11,-10,1
1537917739170422,-5,-2,0,-1,-2,-6,5,1
1537917739170422,-3,0,-4,0,2,11,-12,-14
1537917739171419,1,0,-2,-1,-1,-2,11,4
1537917739171419,1,-1,0,1,4,6,45,1
1537917739184384,-1,-1,-4,-1,-1,2,1,0
1537917739184384,-3,-1,1,-2,0,-19,-18,-3
1537917739191366,-2,-1,-6,1,-3,7,-5,9
1537917739191366,1,0,-1,-1,-1,-3,-3,-5
1537917739207323,-2,-1,3,1,1,-7,-7,0
1537917739207323,-5,-1,-4,-1,-1,9,-5,-13
1537917739209318,5,1,-2,0,-4,21,20,11
1537917739209318,0,-1,-2,-2,-6,-18,-11,4
1537917739230263,-3,1,1,2,-2,-4,-11,-20
1537917739230263,0,-1,-1,-1,2,14,-35,-4
1537917739231259,2,-2,-4,0,7,-6,25,23
1537917739231259,-1,-1,2,-2,-13,-12,3,-11
1537917739244225,-1,0,-3,-3,-5,-12,16,22
1537917739244225,-3,-1,1,2,2,-7,19,-4
1537917739251206,-4,-3,0,2,10,44,-16,-20
1537917739251206,-1,-1,1,2,13,17,0,-1
1537917739268160,-7,-4,-4,-5,-11,-5,0,-12
1537917739268160,0,-3,-5,-3,-6,-23,-13,-3
1537917739269157,-2,-1,-2,-1,-3,-8,21,-4
1537917739269157,9,3,1,-1,-2,-34,-20,8
1537917739290101,8,2,0,2,5,20,-1,8
1537917739290101,-3,-1,1,1,0,18,6,3
1537917739292096,-6,-5,-3,-1,-4,-12,-8,-10
1537917739292096,-3,-4,-2,-3,2,9,15,-6
1537917739304064,-5,-2,-3,-3,-1,-9,-12,-11
1537917739304064,5,-1,-2,-1,-4,2,-12,14
1537917739313040,-1,-3,-1,0,-1,-8,22,-12
1537917739313040,0,-1,-1,0,5,2,-8,0
1537917739328000,-3,-1,0,2,-3,-16,-1,13
1537917739328000,-2,-1,-2,2,3,15,9,-11
1537917739328997,-4,-2,-3,-4,-3,-11,-28,-6
1537917739328997,8,0,-2,-3,-7,10,6,6
1537917739349941,-12,-3,-2,-1,3,13,1,5
1537917739349941,5,0,1,-1,5,-14,-10,-2
1537917739351936,11,0,-3,-3,-7,-10,-4,5
1537917739351936,-3,-2,-1,0,1,-15,14,2
1537917739363904,1,-2,-2,-1,5,54,7,-6
1537917739363904,-1,1,0,-1,-4,-2,23,18
1537917739372880,-4,-1,-3,-2,-1,-11,-26,-25
1537917739372880,-3,0,-1,0,0,-2,6,5
1537917739387841,7,-2,-1,-1,-6,-21,9,13
1537917739387841,-5,-4,0,-3,1,6,2,0
1537917739388838,-1,0,3,1,3,10,8,14
1537917739388838,-4,0,-1,-1,-1,-2,-13,-12
1537917739409782,-4,0,1,1,6,0,-3,-8
1537917739409782,9,2,0,2,3,4,13,8
1537917739411778,-14,-2,-3,-6,-12,-11,-17,2
1537917739411778,6,0,0,-2,4,15,-4,2
1537917739423744,4,0,1,-1,-5,-22,-11,-4
1537917739423744,1,0,-1,1,0,6,31,1
1537917739432720,1,1,1,7,25,20,-8,1
1537917739432720,-6,-1,-2,-4,-35,-36,3,8
1537917739447680,2,-2,-1,-5,-11,6,-37,-14
1537917739447680,-1,0,-1,0,-6,-15,43,28
1537917739448677,-1,0,-1,0,-3,-11,3,-17
1537917739448677,2,0,0,5,20,51,11,22
1537917739470620,1,-2,0,1,7,-7,-4,-5
1537917739470620,-2,0,0,-2,-4,-5,-24,-12
1537917739471617,3,0,-1,1,6,-14,-6,3
1537917739471617,-6,-1,-2,-3,-1,-5,-16,-8
1537917739483585,0,1,0,-1,-5,8,65,2
1537917739483585,1,-1,-2,-1,3,-1,1,4
1537917739493559,3,1,-1,-1,-2,0,5,-4
1537917739493559,-6,-2,-1,-4,-5,-42,-32,-3
1537917739507522,1,0,-2,1,5,30,-9,-5
1537917739507522,-6,0,1,1,0,7,-3,-3
1537917739509516,4,0,-2,-3,-8,-2,-2,-6
1537917739509516,1,-2,0,1,0,16,9,5
1537917739530459,0,0,-1,1,2,-39,-17,-9
1537917739530459,9,0,-2,-2,-1,-7,-19,2
1537917739531457,2,1,-11,-2,-5,-10,-9,12
1537917739531457,-12,0,10,0,4,5,6,-11
1537917739543424,3,-3,-6,-2,1,-2,6,6
1537917739543424,0,3,10,1,-4,4,-26,-17
1537917739552400,-3,-1,-4,0,-5,5,19,11
1537917739552400,2,-4,14,9,2,-3,2,-37
1537917739567360,0,4,-18,-12,2,-11,-7,38
1537917739567360,-11,-10,-2,0,-2,14,37,6
1537917739569355,-7,0,0,2,0,-7,7,-3
1537917739569355,-4,-11,-10,-10,-5,-1,-10,11
1537917739590299,-15,-3,6,7,2,10,12,-8
1537917739590299,-7,-2,-5,-3,-2,-12,-12,-9
1537917739591296,3,2,1,1,-2,2,-6,-3
1537917739591296,-5,8,2,0,0,-9,-3,-6
