timestamp,emg1,emg2,emg3,emg4,emg5,emg6,emg7,emg8
1537912257594696,-2,-1,-2,-1,-1,0,1,-1
1537912257594696,-1,2,2,0,1,-2,-1,-1
1537912257594696,-1,1,0,-1,-1,1,-1,0
1537912257594696,-1,-1,-4,-3,-1,0,0,-3
1537912257595694,-1,0,-2,0,-2,0,-1,-1
1537912257595694,-2,-2,-3,-2,-3,-1,0,0
1537912257599682,0,-1,-1,3,0,-2,0,-1
1537912257599682,1,4,7,2,1,2,-3,-1
1537912257605667,-1,-14,-9,-2,-1,-1,0,-3
1537912257605667,0,7,-2,-2,-3,0,-2,0
1537912257614642,-2,-4,0,1,-3,-2,-2,-3
1537912257614642,0,5,8,0,-1,-2,1,0
1537912257622621,0,0,-7,-2,0,-2,-3,1
1537912257622621,-1,-9,-5,-1,0,1,-1,-3
1537912257636585,-2,2,-3,-1,0,-1,-2,-2
1537912257636585,1,5,3,1,0,0,-2,1
1537912257644563,-1,1,8,0,1,-1,1,-2
1537912257644563,0,-3,-5,2,0,0,2,0
1537912257650546,1,0,0,-3,-2,0,0,0
1537912257650546,-2,-10,-24,-4,-2,0,0,-1
1537912257665505,-2,-7,1,-3,-3,1,-2,-2
1537912257665505,1,4,9,-1,-1,-1,-3,-4
1537912257674482,-1,4,12,-1,0,0,-2,1
1537912257674482,-1,3,3,2,-1,-2,-3,2
1537912257714375,-1,-2,-6,-2,1,0,0,-1
1537912257714375,-1,3,6,3,0,-1,1,-1
1537912257714375,0,-3,-1,-2,0,-2,-1,-2
1537912257714375,0,-2,-6,-4,-1,-3,-3,-2
1537912257715373,-1,13,6,2,0,-1,0,1
1537912257715373,-6,-23,-5,-2,0,0,-1,0
1537912257719362,3,-1,-9,-2,-1,-1,-1,1
1537912257719362,2,3,10,-1,-3,1,-1,1
1537912257725346,-3,-5,1,-2,-2,-1,0,-2
1537912257725346,1,8,13,-1,-2,0,-3,-1
1537912257733324,-5,-12,-21,0,3,1,-3,0
1537912257733324,3,-5,-2,-4,-6,-4,-1,0
1537912257742301,4,15,2,0,-2,1,1,-2
1537912257742301,-2,-2,6,0,0,1,-1,-1
1537912257756263,0,6,27,2,1,0,-1,-2
1537912257756263,-7,5,-15,4,5,0,-2,-2
1537912257763245,-3,-17,-20,-4,1,-3,-3,1
1537912257763245,8,3,-17,-10,-8,-4,0,2
1537912257771224,-1,1,7,1,-2,0,-2,0
1537912257771224,-2,-2,9,0,-5,-1,0,0
1537912257787181,-5,0,15,6,0,0,-2,-2
1537912257787181,-5,-1,-8,2,3,-4,-4,-4
1537912257793165,0,-4,-3,-2,-2,0,0,0
1537912257793165,1,-2,1,-1,1,0,0,-1
1537912257802140,0,-7,-12,1,-2,-2,-2,-2
1537912257802140,-1,2,0,1,-3,3,-1,-1
1537912257824081,-1,-1,-2,-4,0,3,-1,-4
1537912257824081,-3,-4,-1,0,0,1,0,1
1537912257826077,1,-1,-2,-5,1,-2,0,0
1537912257826077,0,1,-1,3,-4,-3,0,-1
1537912257831063,-1,0,1,0,-3,2,2,0
1537912257831063,-1,0,-3,0,-9,-8,0,-4
1537912257846023,-2,-4,-5,-4,13,21,-2,1
1537912257846023,-3,1,2,-1,-3,-8,-2,-3
1537912257853004,-1,-2,-3,-3,-2,-5,-2,0
1537912257853004,1,-1,-2,0,3,7,2,1
1537912257861980,1,-2,4,0,-13,-17,-1,-2
1537912257861980,1,0,1,-5,2,-5,-1,-1
1537912257876940,-2,0,-5,-1,-2,7,2,-2
1537912257876940,-2,-3,0,0,0,7,3,0
1537912257890903,-2,-2,2,0,-4,-17,-9,-6
1537912257890903,-2,-4,-5,-3,3,9,0,-2
1537912257891900,3,1,1,3,-2,-8,-2,2
1537912257891900,-1,0,0,0,3,1,-4,0
1537912257905863,-3,-5,-6,-5,-8,12,1,-4
1537912257905863,-3,-2,0,-2,-4,-7,-6,-2
1537912257912844,-3,2,-2,-1,1,-8,-6,-2
1537912257912844,2,0,-1,-1,2,-2,-2,-2
1537912257921820,2,4,1,1,-2,-5,0,2
1537912257921820,-1,1,-3,-2,-1,6,2,0
1537912257935783,-3,4,-1,-1,-1,7,2,-2
1537912257935783,-3,-1,-2,-2,-4,-22,-8,-2
1537912257944759,2,1,2,0,2,6,3,2
1537912257944759,-3,-1,1,1,1,1,-1,0
1537912257950743,-1,-1,-1,-2,0,2,-1,-1
1537912257950743,-3,-2,-2,-3,-5,1,1,-2
1537912257965703,2,-1,1,0,0,-1,-2,-1
1537912257965703,0,-2,1,2,2,-1,1,2
1537912257973682,-2,-2,0,0,-3,-3,0,2
1537912257973682,-3,-1,-1,1,1,5,1,-2
1537912257982658,-2,2,0,-2,2,0,1,-3
1537912257982658,1,-1,-1,1,-2,1,-1,-1
1537912257996620,0,-3,-4,-3,-4,-1,-2,-3
1537912257996620,0,0,1,1,0,1,-3,1
1537912258003601,-3,-1,-2,0,0,-2,-1,0
1537912258003601,0,-1,-3,-2,2,2,0,1
1537912258010583,-2,-2,-2,0,-5,-12,-3,-4
1537912258010583,-2,-4,-1,-2,0,-1,-4,-4
1537912258025544,0,-5,0,0,-2,-2,-1,0
1537912258025544,2,0,0,-1,0,-2,0,0
1537912258033522,1,-2,0,0,-4,6,1,-2
1537912258033522,-1,-4,-6,-6,-2,-8,-3,-3
1537912258042498,-3,-1,0,-2,1,2,0,-2
1537912258042498,-2,-1,2,-1,0,-2,0,2
1537912258056460,-1,-1,1,1,3,0,1,-2
1537912258056460,1,1,0,2,-2,2,0,-1
1537912258063441,-1,-1,-1,0,1,-1,-3,0
1537912258063441,-4,-1,-2,0,2,6,2,-2
1537912258079399,-4,-1,1,2,2,-7,-2,1
1537912258079399,-1,-1,0,-3,3,12,3,-1
1537912258085383,-1,0,0,-1,-4,-2,0,-2
1537912258085383,-2,-2,2,2,-2,-2,-2,-4
1537912258094359,0,0,-2,-2,-7,-9,-1,0
1537912258094359,-3,-1,-2,0,-1,4,2,2
1537912258100343,-3,-1,1,0,0,0,-3,-2
1537912258100343,0,-1,0,1,1,-2,0,0
1537912258116301,-2,-2,0,-1,-3,1,-2,0
1537912258116301,0,-2,-1,0,-1,-3,-1,-2
1537912258123282,0,-1,-1,-3,-2,-1,1,-1
1537912258123282,0,-1,-2,0,-7,4,0,-1
1537912258139240,0,-2,-3,-1,-1,-1,-11,-7
1537912258139240,1,-3,-1,-2,-1,-1,-5,-1
1537912258146221,-1,-1,1,0,2,1,0,-3
1537912258146221,-1,0,-1,-1,-2,-2,-3,-2
1537912258154201,0,0,1,0,2,5,2,1
1537912258154201,-2,0,-2,1,7,2,-6,-1
1537912258168162,-2,-1,-1,-1,-4,-4,-3,-2
1537912258168162,0,0,-3,-2,-1,-3,-5,-2
1537912258176140,0,-1,-1,-1,1,1,1,-1
1537912258176140,-1,-2,0,0,0,0,0,0
1537912258183122,-1,0,-1,0,-3,0,0,-1
1537912258183122,-3,0,-1,-2,0,-2,-2,0
1537912258199079,-3,-1,0,-2,0,0,0,-1
1537912258199079,-1,-1,-1,-1,-2,-2,3,-3
1537912258206060,0,-2,0,-1,0,-2,-1,-2
1537912258206060,0,-2,0,0,-1,1,-1,-1
1537912258214039,-2,0,0,2,1,-7,-1,-1
1537912258214039,-1,-1,-1,-1,-1,8,1,-2
1537912258221020,0,2,0,0,0,-1,1,2
1537912258221020,0,-1,2,-3,1,-4,-3,-1
1537912258235980,-1,-1,2,1,4,1,-2,0
1537912258235980,1,1,3,0,-2,-4,1,0
1537912258242962,1,-2,-1,-2,3,2,-3,0
1537912258242962,-3,-3,-2,2,-2,0,-2,-2
1537912258258919,1,-1,-2,0,-1,2,1,1
1537912258258919,0,0,1,-2,-4,-8,-2,-2
1537912258265900,-1,-1,0,1,8,5,3,1
1537912258265900,1,-1,0,1,1,-4,-1,0
1537912258273879,-1,-3,-2,-3,2,14,4,1
1537912258273879,-3,1,-2,-3,-5,-1,-4,1
1537912258280860,2,1,0,0,-3,2,3,3
1537912258280860,-2,-2,-2,0,0,0,2,-1
1537912258296817,-2,-2,0,0,-2,-7,-1,-2
1537912258296817,0,-1,0,-2,-2,3,-1,-2
1537912258302802,-2,-2,-1,3,-2,-8,-4,0
1537912258302802,0,0,-2,-4,0,4,2,1
1537912258318759,0,-3,0,-2,0,-1,-2,-1
1537912258318759,1,1,0,2,2,-1,-1,1
1537912258325740,-2,-1,1,1,2,-6,-7,-4
1537912258325740,-2,-4,-4,-3,1,3,-1,-3
1537912258333719,-1,0,0,-2,-6,4,3,1
1537912258333719,-1,-3,-2,-2,-2,-8,-1,0
1537912258340700,-1,1,-2,-2,-3,3,-1,-1
1537912258340700,0,0,0,-2,-3,-2,0,0
1537912258356658,-1,2,1,1,0,-2,-2,-2
1537912258356658,1,-1,0,4,1,4,6,2
1537912258363639,-1,-3,-4,-4,0,1,-4,-4
1537912258363639,0,0,1,1,1,-10,-1,1
1537912258387575,0,-2,-5,-3,-8,0,1,2
1537912258387575,1,0,-2,-6,-10,-20,-3,-1
1537912258388573,-7,-3,2,-3,-28,-12,-3,-5
1537912258388573,2,0,-2,1,9,-6,-4,4
1537912258393559,1,3,4,3,-8,-14,-3,-1
1537912258393559,-1,-2,5,10,11,-6,-12,-5
1537912258408519,2,-2,-12,-12,12,20,16,1
1537912258408519,-1,5,9,2,-23,-13,-1,2
1537912258424476,-4,-3,4,8,1,2,-12,-7
1537912258424476,0,2,1,7,5,-9,1,1
1537912258426471,0,-2,1,3,6,2,0,3
1537912258426471,-3,-1,-6,-3,13,29,3,-7
1537912258438439,3,-2,-7,-9,-6,-6,2,1
1537912258438439,-3,-3,-8,-11,-5,12,-3,-3
1537912258447415,-1,-2,-1,-3,2,8,-4,-3
1537912258447415,-4,-3,-4,-8,-8,-16,1,-2
1537912258461378,2,3,9,7,-7,0,5,3
1537912258461378,-4,-7,-9,-3,21,-6,-5,-5
1537912258468359,-4,-3,-9,-9,-13,-29,-11,-1
1537912258468359,-2,0,4,2,-16,-8,-8,-6
1537912258476338,-3,-2,-6,1,24,29,2,-3
1537912258476338,-5,-5,-9,-10,-2,-7,-1,-5
1537912258483319,-5,2,6,6,-19,-15,-11,-6
1537912258483319,-7,-7,-12,-11,9,5,2,-1
1537912258498279,5,-1,-2,3,4,-1,2,-2
1537912258498279,13,14,23,5,-9,16,9,8
1537912258507255,0,2,15,14,-7,3,1,4
1537912258507255,-4,-2,3,18,11,8,-7,-5
1537912258513239,-6,-4,-7,3,25,-3,9,0
1537912258513239,-7,-9,-16,-19,-43,-22,-14,-3
1537912258528199,3,-2,-8,-7,20,39,-2,0
1537912258528199,1,-4,-18,-23,-14,-72,-21,2
1537912258536178,-3,-3,-11,-16,4,25,13,-2
1537912258536178,1,1,9,1,-24,16,6,-3
1537912258543159,1,6,17,16,7,-26,-4,0
1537912258543159,-5,-6,-20,-14,-7,-12,-11,-4
1537912258559116,4,-4,-19,0,21,-8,-9,-4
1537912258559116,-4,8,28,4,-15,7,1,-11
1537912258566098,1,7,40,44,4,24,16,2
1537912258566098,-1,-1,15,13,-27,5,1,1
1537912258573079,-10,-10,-23,-20,-3,-37,-21,-4
1537912258573079,-4,-8,-34,-6,30,12,1,-3
1537912258588039,8,1,-17,-24,17,42,20,3
1537912258588039,-4,2,24,16,34,35,16,49
1537912258596018,15,7,20,12,-39,-46,-23,74
1537912258596018,-4,-5,-12,-1,18,31,0,85
1537912258602999,-10,-16,-45,-50,-35,-79,-31,-40
1537912258602999,7,3,-13,-14,-14,-11,21,-36
1537912258618957,-12,5,21,-3,-7,-8,-2,-101
1537912258618957,6,7,9,14,36,-1,9,-127
1537912258625938,1,-6,-17,2,11,7,9,-66
1537912258625938,5,5,17,13,-11,3,-15,-22
1537912258640898,6,10,35,15,-3,16,6,37
1537912258640898,1,1,20,16,-17,17,4,57
1537912258656856,-13,-9,-9,-14,-10,-34,-6,48
1537912258656856,-5,-4,-15,15,33,28,10,14
1537912258658850,-6,-6,-21,-14,0,37,9,19
1537912258658850,1,-3,-14,-16,-7,-8,-2,5
1537912258662840,12,9,8,14,27,7,13,21
1537912258662840,-4,-8,-12,-25,-16,-9,-17,-3
1537912258679794,-5,1,1,2,-14,-5,-4,-13
1537912258679794,-3,-11,-14,-5,20,44,-2,-9
1537912258685778,-9,-5,-10,-27,-44,-77,-15,1
1537912258685778,5,6,11,14,2,-9,3,-4
1537912258700738,8,10,24,24,6,28,9,-2
1537912258700738,2,6,6,0,-20,-31,1,3
1537912258707719,0,-13,-8,12,17,41,-9,4
1537912258707719,4,8,27,5,6,19,6,0
1537912258723678,-4,-6,-1,1,-8,-15,1,-1
1537912258723678,-1,-5,-8,0,-7,-12,-4,-3
1537912258724676,-2,4,1,8,19,21,4,5
1537912258724676,2,-7,-18,-17,-40,10,6,9
1537912258739636,-3,-6,-16,-10,4,-1,-19,-27
1537912258739636,-5,-1,-6,-13,3,-2,-8,1
1537912258745619,0,-2,-13,-24,-12,-14,13,-8
1537912258745619,-3,-1,0,-3,-4,27,-12,-4
1537912258760580,-1,-1,-1,-4,-2,-29,-8,6
1537912258760580,-4,-3,-5,3,-8,-13,6,-6
1537912258768558,-4,-1,0,-2,10,9,-10,-3
1537912258768558,-1,0,2,-3,21,11,-8,0
1537912258785514,-4,-1,-1,0,-13,8,8,-2
1537912258785514,1,-2,13,24,17,1,-2,1
1537912258786510,12,11,33,31,0,18,8,16
1537912258786510,-3,-5,-4,-5,14,-40,3,1
1537912258799475,-8,-11,-27,-32,-22,-1,-13,-9
1537912258799475,-6,-4,-12,-11,-19,17,2,-7
1537912258805460,2,-2,-9,-23,10,-6,5,18
1537912258805460,1,4,8,14,-16,-1,-2,-19
1537912258820420,-3,0,10,10,21,18,10,6
1537912258820420,6,7,5,8,2,-13,-4,5
1537912258828398,-14,-11,-16,-11,-25,-6,-5,-13
1537912258828398,-2,-2,-17,-25,12,48,4,1
1537912258844356,7,2,-12,-10,9,-6,6,-5
1537912258844356,5,10,26,7,-30,18,14,8
1537912258844356,6,8,32,42,25,4,-3,6
1537912258844356,-1,-8,-14,-4,-1,-5,-8,-1
1537912258859315,0,2,-2,-4,-45,1,8,-7
1537912258859315,-22,-15,-26,-31,-3,-41,-37,-7
1537912258866297,7,0,-4,13,13,30,16,-9
1537912258866297,5,18,40,11,-15,-5,-1,6
1537912258880259,-5,-13,-9,-4,18,5,9,4
1537912258880259,2,-2,-13,-17,27,8,-5,-9
1537912258888237,-5,1,6,7,-30,-74,-6,6
1537912258888237,0,3,11,27,20,6,-1,0
1537912258904194,-8,-6,-7,-1,3,4,7,-2
1537912258904194,5,1,-8,-10,1,33,18,2
1537912258904194,-3,4,2,-5,12,-51,-26,-5
1537912258904194,1,-23,-5,15,-9,-2,18,1
1537912258919154,-12,14,-4,-17,-22,-25,-34,3
1537912258919154,0,-12,-16,-7,27,41,18,-9
1537912258934114,-6,-8,-20,-33,-14,18,-4,-8
1537912258934114,0,2,4,-1,-7,-26,1,-4
1537912258941096,-5,-1,17,25,28,23,5,-1
1537912258941096,0,3,10,15,21,-49,-28,1
1537912258948077,6,7,6,-12,-45,27,9,5
1537912258948077,-5,0,-5,-10,5,-9,-5,0
1537912258964035,3,0,9,12,11,9,-3,3
1537912258964035,-1,4,5,9,-40,-18,11,2
1537912258965032,-8,-14,-17,-10,30,28,-23,-14
1537912258965032,-6,-3,-15,-6,-4,31,13,3
1537912258979992,16,4,9,4,-15,-78,-10,3
1537912258979992,3,6,12,11,0,16,1,-9
1537912258985977,-4,-5,-5,6,10,17,7,0
1537912258985977,-6,-4,-20,-29,-24,-23,-11,-9
1537912259000935,1,1,0,-4,25,55,9,0
1537912259000935,-3,-1,-1,6,38,33,7,0
1537912259007917,-4,-4,-3,-11,-44,-50,-18,3
1537912259007917,9,7,7,16,42,17,5,5
1537912259031853,-2,-4,5,5,-12,-17,7,1
1537912259031853,2,0,-1,-1,-7,3,1,5
1537912259031853,-3,0,1,5,24,9,-1,0
1537912259031853,6,6,12,7,-13,-32,-4,8
1537912259039832,0,-2,3,-4,-8,-4,1,0
1537912259039832,-4,-8,-8,1,-7,-2,1,-5
1537912259045816,2,1,6,1,0,3,-4,0
1537912259045816,-1,-2,0,6,20,1,3,9
1537912259060775,5,-3,-18,-16,6,27,-3,-10
1537912259060775,-7,-4,-8,-15,-31,-6,-4,0
1537912259067757,5,8,18,20,15,19,19,11
1537912259067757,-3,-4,-11,1,15,13,-10,-7
1537912259083714,-1,-6,-5,0,11,3,2,-2
1537912259083714,6,7,15,5,-2,-6,0,11
1537912259084712,-8,-12,-19,-12,-5,22,5,-11
1537912259084712,-3,-1,3,-9,-26,-12,-4,-4
1537912259099672,0,4,14,18,20,30,10,8
1537912259099672,-3,-4,1,2,2,-35,-12,-10
1537912259105656,4,1,0,6,-12,28,8,11
1537912259105656,-5,1,-1,2,47,28,-12,-17
1537912259120616,-8,-12,-18,-23,-38,-91,-26,-4
1537912259120616,5,4,-1,5,-16,15,15,7
1537912259128595,1,3,0,-3,15,32,4,-5
1537912259128595,-1,1,6,-4,-10,-26,-4,4
1537912259143555,0,0,7,16,26,10,7,-1
1537912259143555,-8,-27,-13,-16,-16,-50,-13,-5
1537912259144553,1,13,-15,-16,-10,-19,1,-7
1537912259144553,2,-3,8,20,-4,-6,10,4
1537912259159515,1,8,18,15,4,13,-1,4
1537912259159515,-4,-3,7,5,2,4,2,3
1537912259165497,-9,-11,-14,-10,-16,3,-12,-9
1537912259165497,-1,0,-10,-13,0,-29,4,1
1537912259180457,-3,-3,-9,-20,-26,9,-9,-6
1537912259180457,5,6,1,4,36,60,8,1
1537912259188436,-8,-6,3,0,-19,-83,-31,-8
1537912259188436,-4,0,-7,-5,-3,39,4,-5
1537912259204393,-6,-11,-20,-7,20,31,-6,-12
1537912259204393,0,6,1,0,-4,-11,-1,-1
1537912259204393,6,5,11,4,6,22,11,8
1537912259204393,0,0,10,2,-12,3,-2,0
1537912259219354,-1,0,-1,5,14,6,9,5
1537912259219354,-5,0,3,16,23,9,-6,-4
1537912259225336,-3,-3,14,15,-13,-13,-1,1
1537912259225336,0,-4,-10,-10,-27,-7,-4,1
1537912259240297,1,3,7,7,-3,6,1,-1
1537912259240297,2,4,-1,-13,-5,9,-2,1
1537912259256255,3,-4,-11,-4,24,-5,7,2
1537912259256255,-4,-3,-10,-8,-12,-9,-11,-8
1537912259264233,-7,-3,-2,-3,-13,-21,-3,5
1537912259264233,1,-1,-2,-3,-5,32,2,-3
1537912259264233,4,1,-1,1,5,38,15,6
1537912259264233,-6,-8,-19,-17,1,-5,-2,-5
1537912259279192,3,5,-4,-9,-11,11,2,2
1537912259279192,-1,6,18,21,5,-41,0,4
1537912259294153,1,3,15,14,1,-5,-6,5
1537912259294153,0,0,4,7,-20,12,2,-1
1537912259302132,-4,-8,-11,-11,-4,-3,-2,-3
1537912259302132,-4,-3,-10,-13,-13,-16,-6,-6
1537912259308115,-2,-2,-4,-7,-5,-6,-5,-6
1537912259308115,-1,1,-1,-2,8,-9,-4,-1
1537912259323075,3,-1,1,1,0,3,3,1
1537912259323075,-2,0,0,-1,-7,-16,-6,-2
1537912259331053,1,-2,0,4,6,10,2,-1
1537912259331053,2,-1,2,-2,-6,0,3,0
1537912259340029,1,0,1,-1,-9,-8,-3,1
1537912259340029,2,1,-1,0,5,4,4,-1
1537912259346013,-4,-4,-6,-8,-24,-17,-8,0
1537912259346013,1,1,1,1,5,-2,2,1
1537912259360973,0,0,-2,0,-4,9,0,-2
1537912259360973,-5,-1,-3,-3,-2,-15,-6,-1
1537912259367954,0,1,0,2,4,15,4,-2
1537912259367954,0,-1,0,-3,3,-5,0,1
1537912259382914,1,1,0,2,2,-3,2,-1
1537912259382914,-3,0,1,1,-5,-5,-4,2
1537912259390893,2,0,3,-1,2,6,0,0
1537912259390893,-2,2,0,3,4,6,5,-2
1537912259399869,-3,-1,0,0,1,5,0,-2
1537912259399869,-1,-3,-4,-4,-5,-4,-4,0
1537912259413832,0,0,1,-1,1,7,0,-1
1537912259413832,-1,-4,-1,0,1,-2,-3,1
1537912259420813,3,1,1,-1,-3,-7,0,-2
1537912259420813,-1,-1,-2,0,-3,-1,-1,0
1537912259427795,-1,0,-2,-2,1,-4,-2,-1
1537912259427795,1,-1,-2,-2,1,6,0,-1
1537912259442755,-2,0,-1,0,6,2,0,-2
1537912259442755,-1,1,-1,-2,-4,-1,-4,-3
1537912259450734,-4,0,-2,-1,-1,7,0,-2
1537912259450734,-1,0,-1,-2,-3,-4,-5,-2
1537912259466692,1,-3,-1,0,-1,3,1,-2
1537912259466692,-2,-2,-1,0,-3,-5,-3,-1
1537912259466692,-1,-1,0,-1,2,-1,0,0
1537912259466692,-2,-1,-3,-1,-2,4,-2,-2
1537912259480654,-1,-3,-1,0,-3,-4,-2,-1
1537912259480654,0,-4,-1,-4,0,1,-2,-2
1537912259488632,0,-1,1,-1,0,-1,-1,-1
1537912259488632,0,0,-1,-1,1,0,0,-1
1537912259503592,-1,0,0,-2,-3,-2,-3,0
1537912259503592,1,0,-2,-2,-2,-3,0,0
1537912259510573,-1,-3,-1,2,3,2,-3,-1
1537912259510573,2,-2,2,1,1,2,1,1
1537912259526530,-2,-2,-3,1,-3,-12,-1,-3
1537912259526530,1,0,0,0,-3,3,4,1
1537912259527528,-2,0,0,-2,3,-7,-2,-3
1537912259527528,-1,-2,-3,-2,-5,-9,-1,-3
1537912259540493,0,-1,-1,-3,-1,4,1,0
1537912259540493,0,-2,2,5,8,-1,4,3
1537912259548472,2,1,-1,-4,-11,1,3,-2
1537912259548472,-4,-1,-4,-3,3,-1,-6,0
1537912259564429,-1,2,1,0,3,0,3,3
1537912259564429,-4,-1,-4,-1,7,-7,-6,-6
1537912259570414,2,0,2,0,0,7,1,1
1537912259570414,-1,0,0,1,-1,2,-1,-2
1537912259586371,2,0,1,-2,-11,-14,-2,3
1537912259586371,-5,-2,-2,-1,4,17,-3,1
1537912259587369,-1,-2,-2,0,3,0,-2,-2
1537912259587369,0,0,2,2,-2,0,7,2
1537912259600334,-2,-3,-3,-4,-5,-1,-5,-4
1537912259600334,-2,-2,0,-2,-8,-7,1,-1
1537912259608312,0,-3,-3,1,0,-2,0,-2
1537912259608312,-1,-1,-1,1,3,13,4,1
1537912259623272,-3,-3,-3,0,-2,-10,-6,-3
1537912259623272,0,1,0,-2,-3,0,0,-3
1537912259631250,-3,-1,-1,-1,1,7,-1,0
1537912259631250,0,-3,0,0,-1,-8,-4,0
1537912259646210,0,-1,-1,0,2,2,-1,2
1537912259646210,-1,0,-5,-4,-15,-3,-3,0
1537912259647208,0,-2,-2,1,2,2,5,3
1537912259647208,-2,0,1,2,3,-12,-9,-3
1537912259661170,-4,-3,-2,0,3,9,4,-3
1537912259661170,1,-1,0,1,3,0,1,-1
1537912259668152,-2,1,-1,-2,-3,0,0,-2
1537912259668152,-1,-2,0,0,-3,-3,-5,1
1537912259683112,0,-1,0,0,-3,-7,-2,-3
1537912259683112,1,1,4,1,0,2,2,1
1537912259691090,-1,-3,0,-2,-5,-24,-4,-2
1537912259691090,3,0,-3,1,4,6,6,0
1537912259706051,-1,-1,1,2,1,2,-3,-2
1537912259706051,-1,-2,-1,-2,-3,-3,-3,0
1537912259707048,-2,1,1,-1,-4,0,0,0
1537912259707048,-2,-2,-2,-3,-4,0,-5,-2
1537912259721010,-2,-2,-3,-1,0,9,-2,-3
1537912259721010,-1,-4,0,0,2,-4,0,2
1537912259727992,-3,-2,-4,-2,0,5,-4,-3
1537912259727992,-3,0,-1,-1,0,1,-1,-1
1537912259742952,1,-3,0,1,1,5,3,-1
1537912259742952,-2,-1,0,-1,-7,0,-1,-2
1537912259750931,3,-1,0,1,3,-1,1,1
1537912259750931,-1,-1,0,1,-2,-4,1,-1
1537912259765890,0,2,0,-3,1,0,0,-1
1537912259765890,0,-2,-1,-1,0,-1,-2,-2
1537912259766888,-1,-2,-1,0,4,3,-3,-2
1537912259766888,2,0,0,-2,-7,-13,2,1
1537912259780850,-2,0,0,-1,-4,-4,-5,-1
1537912259780850,-2,-1,-2,-1,5,13,-1,-1
1537912259787832,1,0,-1,0,-6,-20,-9,-6
1537912259787832,0,-1,-1,0,2,0,0,0
1537912259802792,-4,0,-3,-2,0,-1,-2,0
1537912259802792,3,2,0,-1,-2,-5,0,0
1537912259810771,-5,-3,-2,0,-3,-1,0,0
1537912259810771,1,0,-1,0,1,8,-1,2
1537912259826728,3,1,1,1,-4,-1,1,0
1537912259826728,-3,-2,-3,-1,-1,-2,-1,-2
1537912259826728,0,1,-1,-1,-6,0,3,3
1537912259826728,-1,-2,0,1,0,-5,-3,-5
1537912259840691,-2,-3,-4,-3,0,14,-1,-1
1537912259840691,-1,-2,0,-2,-3,-5,-2,-2
1537912259848669,-2,0,0,-1,0,2,-4,-1
1537912259848669,-4,-3,-1,-3,5,7,1,1
1537912259864627,-1,-1,0,0,-1,-17,-1,0
1537912259864627,1,-2,-2,1,1,-1,-1,0
1537912259871608,0,-1,-2,1,2,8,1,0
1537912259871608,-2,-1,0,0,-2,-1,-2,-2
1537912259886568,0,0,1,2,0,4,-1,0
1537912259886568,1,0,-1,-1,-1,-7,0,-1
1537912259886568,-2,-2,0,-1,2,6,-4,-2
1537912259886568,0,0,-2,-3,-5,0,4,0
1537912259900531,0,0,1,0,1,-2,4,2
1537912259900531,-1,0,1,0,1,5,1,1
1537912259908509,-2,-1,1,-2,-2,2,-2,-3
1537912259908509,-3,-3,-2,1,9,7,-6,-2
1537912259923469,-2,-2,-3,-1,1,7,-3,-1
1537912259923469,-1,-1,0,0,1,-1,1,1
1537912259931448,1,-3,0,2,3,4,3,0
1537912259931448,-1,-2,-4,-4,-8,-14,-5,-1
1537912259946408,1,-2,0,0,-3,1,3,0
1537912259946408,0,-2,-2,-3,0,1,-3,-1
1537912259953389,0,-2,-3,0,-2,-3,-1,-1
1537912259953389,-2,-2,-2,-3,1,4,-3,-4
1537912259968349,-1,-2,-2,-2,-1,0,-6,-4
1537912259968349,-1,-2,0,-2,-4,-8,-1,0
1537912259969347,-2,-1,-1,-2,-4,-5,-1,0
1537912259969347,-1,0,0,0,-2,3,2,0
1537912259983309,-3,-3,0,-4,-2,-5,-1,1
1537912259983309,-3,0,-1,-2,-3,0,-2,-2
1537912259991288,-2,0,-3,-1,3,1,-2,-1
1537912259991288,3,0,-1,1,-2,-1,-3,2
1537912260006248,1,-2,-1,-1,-2,3,1,-1
1537912260006248,-1,0,-4,-1,0,-12,-3,-3
1537912260007245,-1,-1,0,-1,0,0,0,0
1537912260007245,0,1,2,0,-8,1,6,1
1537912260021208,-6,-3,-5,-5,1,1,-12,-7
1537912260021208,0,-1,0,2,4,-2,2,0
1537912260028189,2,-2,0,-2,-11,1,3,-1
1537912260028189,-4,-2,-2,-3,-5,11,-5,-6
1537912260044147,1,1,2,2,1,-12,-1,3
1537912260044147,-1,-2,-1,-2,-2,1,0,-4
1537912260051128,-1,-1,-1,-1,3,5,0,0
1537912260051128,1,0,1,-2,-2,-4,2,1
1537912260066088,-2,0,0,2,4,12,-1,-3
1537912260066088,-1,0,-4,-3,0,-8,-5,-1
1537912260067086,0,-1,-1,-4,-2,6,3,-1
1537912260067086,0,2,4,6,4,2,-1,0
1537912260089027,-4,-6,-7,-5,-2,-25,2,-2
1537912260089027,7,17,6,4,1,19,-2,0
1537912260090024,-10,-15,-9,-17,-2,-27,-10,-8
1537912260090024,-14,-25,-10,-17,0,-1,-16,-9
1537912260102992,8,10,16,14,-31,-16,6,3
1537912260102992,-15,-14,-9,1,16,8,2,-9
1537912260110968,0,7,5,6,-30,4,8,3
1537912260110968,1,4,-3,0,0,-9,-4,-5
1537912260125928,1,-1,4,6,18,26,7,8
1537912260125928,6,2,5,1,-15,34,-10,0
1537912260126926,-6,-3,-13,-9,-16,-64,-20,-2
1537912260126926,0,-6,-10,4,12,34,13,-1
1537912260140888,7,5,5,-3,-17,-55,-4,9
1537912260140888,0,-1,-11,-9,32,8,-1,-4
1537912260147870,-5,-8,-5,-5,4,32,-3,-3
1537912260147870,17,10,11,1,0,-34,-3,10
1537912260162831,-9,-8,-14,-24,17,13,-22,-17
1537912260162831,-2,-1,4,0,-44,-4,-5,-8
1537912260170809,-7,-1,11,15,-37,-31,-11,0
1537912260170809,-3,3,-5,5,19,1,4,-6
1537912260186766,10,6,8,9,-23,-23,-2,9
1537912260186766,-5,5,22,10,8,-42,-5,-1
1537912260186766,0,-2,-3,13,-7,28,-3,1
1537912260186766,3,12,8,-6,-34,-19,-2,3
1537912260208707,4,-1,1,-10,9,30,6,0
1537912260208707,-2,1,-34,-18,-37,-5,1,14
1537912260209705,5,-6,3,-9,28,-27,3,-6
1537912260209705,-3,1,14,22,-9,-3,11,16
1537912260223667,0,4,7,15,-18,-16,-5,-6
1537912260223667,-6,-8,3,9,22,59,12,-12
1537912260230649,12,8,7,7,28,-39,-10,14
1537912260230649,-2,-1,-17,-20,-66,-39,-22,-15
1537912260245609,-8,-5,-11,-14,29,43,17,-5
1537912260245609,-7,-11,-11,-18,-1,-2,-4,4
1537912260253588,2,-8,-37,-44,14,66,5,-5
1537912260253588,8,6,15,-3,3,16,10,4
1537912260260569,-5,9,30,46,26,-36,-10,-4
1537912260260569,-4,-10,7,20,-21,-7,14,1
1537912260268548,4,3,7,14,27,56,17,17
1537912260268548,-6,-15,-35,-49,-29,-57,-12,-10
1537912260283508,-1,-11,-23,-33,-43,-23,-7,-4
1537912260283508,16,9,5,-10,-23,15,9,2
1537912260290489,2,11,46,38,19,-9,3,0
1537912260290489,-1,5,22,43,54,26,1,9
1537912260305450,-17,-33,-16,-8,42,35,0,-16
1537912260305450,-4,7,-28,-11,-25,-17,-14,2
1537912260313428,1,-1,-22,-12,14,3,-6,-11
1537912260313428,-3,-9,-23,-13,-1,34,7,1
1537912260320409,9,18,27,-5,-81,-23,-1,3
1537912260320409,0,-1,27,33,43,40,10,11
1537912260328387,-7,-5,-8,7,18,25,20,-6
1537912260328387,-5,3,-9,-11,9,3,-31,-17
1537912260343347,1,2,-1,-2,4,-53,-1,7
1537912260343347,1,-3,2,-4,0,26,-7,-1
1537912260351326,-3,2,-8,-23,-41,-86,-6,-3
1537912260351326,-8,-11,-6,0,14,62,12,-7
1537912260365289,-4,-3,-23,-20,9,20,-1,-4
1537912260365289,-5,-3,-2,-11,7,-39,-14,-11
1537912260374265,5,4,2,12,31,-5,-5,3
1537912260374265,-8,10,43,20,2,43,13,6
1537912260389225,7,2,8,28,2,26,3,5
1537912260389225,-4,-5,-9,2,17,-36,3,2
1537912260390223,7,6,6,-2,1,33,-1,1
1537912260390223,1,0,2,13,28,-6,10,6
1537912260403188,-6,-9,-11,11,-26,-18,-18,-10
1537912260403188,4,-2,9,5,12,31,5,5
1537912260411166,3,4,2,0,-25,19,8,0
1537912260411166,-2,8,2,1,-17,-71,-7,2
1537912260426127,9,-2,-12,-16,6,20,-4,12
1537912260426127,7,-1,-13,-15,-10,-22,-14,-24
1537912260434105,-9,-3,-6,-24,-29,-15,-2,-3
1537912260434105,-2,-8,-12,-9,18,38,9,-4
1537912260449065,-9,10,-18,-18,-29,17,-6,-13
1537912260449065,3,3,15,7,-9,-19,6,13
1537912260450062,0,8,28,21,22,10,2,3
1537912260450062,3,-9,16,34,17,0,1,1
1537912260463027,6,3,-3,12,-23,0,10,7
1537912260463027,4,10,11,23,68,2,3,14
1537912260471006,-15,-17,-22,-22,-50,-25,-17,-16
1537912260471006,-5,-15,-20,-17,5,12,2,-5
1537912260485968,-5,-1,13,-6,15,80,15,7
1537912260485968,12,9,6,7,-32,15,0,-5
1537912260493944,-5,6,15,22,80,26,12,6
1537912260493944,8,-1,-3,-1,6,-15,-16,4
1537912260508905,2,-4,1,28,35,29,26,1
1537912260508905,-15,6,-3,-23,-41,-68,-24,-4
1537912260509902,4,-17,-29,-21,-21,8,-7,-8
1537912260509902,5,-1,-4,-8,25,-33,0,-4
1537912260524862,-2,9,32,21,69,-1,9,22
1537912260524862,-3,-7,2,22,22,17,-2,-12
1537912260531843,-11,-2,-14,-12,1,19,-10,-13
1537912260531843,2,3,-15,-8,-8,-31,-6,-2
1537912260545806,-4,-14,-27,-50,-4,16,-9,-16
1537912260545806,-6,-7,-6,-34,-48,-57,-10,-9
1537912260553785,6,11,22,25,5,8,15,15
1537912260553785,-10,-6,-8,-9,-33,-13,-12,-14
1537912260568744,0,-2,-1,10,3,-23,1,5
1537912260568744,-7,-9,1,-12,-16,-8,6,1
1537912260569743,9,2,10,43,-14,0,-6,5
1537912260569743,0,9,25,16,18,10,-1,4
1537912260583705,-2,-5,-4,-15,-51,-5,-3,1
1537912260583705,1,-5,-25,-16,1,6,-1,-4
1537912260591685,-1,-11,-16,-17,-8,0,-16,-1
1537912260591685,0,-2,-8,-23,-33,35,15,3
1537912260605647,-1,7,-4,14,40,13,2,-11
1537912260605647,-4,-3,6,-2,6,55,-5,1
1537912260613627,-2,5,2,-17,-32,-87,-2,-5
1537912260613627,-1,-6,-16,-3,34,41,-1,-2
1537912260628586,6,12,18,1,-27,-30,-7,-2
1537912260628586,-11,-8,3,22,16,-13,9,-3
1537912260629585,0,-4,-8,2,13,52,8,1
1537912260629585,2,5,11,-2,-24,-9,2,-3
1537912260643547,-3,-9,-7,-3,23,-32,-7,3
1537912260643547,9,-7,-3,-1,20,5,2,4
1537912260651524,-4,4,15,9,3,-9,2,0
1537912260651524,-4,-5,2,12,-5,20,8,0
1537912260665488,-6,-6,-11,-2,-12,-57,-31,-8
1537912260665488,-3,-8,-9,-10,11,-20,-6,-6
1537912260673467,8,21,-11,-16,5,28,7,4
1537912260673467,-4,-17,-8,-14,-24,-40,-13,-8
1537912260689423,-6,-5,-3,-3,10,77,-1,-7
1537912260689423,1,0,1,4,-38,-6,-3,4
1537912260690422,-3,-7,-1,-6,-13,-7,0,-8
1537912260690422,1,8,1,-7,-6,-28,1,7
1537912260703386,-2,2,0,-3,-3,-13,10,-1
1537912260703386,-5,-5,-10,3,-11,15,-1,-1
1537912260711364,13,10,20,9,-35,12,2,8
1537912260711364,2,13,24,19,19,1,3,10
1537912260725326,-11,-13,-16,3,7,-32,-25,-18
1537912260725326,5,9,10,10,8,28,16,7
1537912260734302,-11,-9,5,-3,6,0,-2,-3
1537912260734302,11,1,-11,13,20,21,0,2
1537912260749262,-2,-9,-3,-10,-27,-64,-8,1
1537912260749262,-2,-1,-12,-4,24,24,-2,2
1537912260749262,-9,-12,-11,-14,6,-19,7,-14
1537912260749262,-8,1,-8,-10,-29,-51,-30,-6
1537912260763224,-2,1,3,-9,35,14,10,0
1537912260763224,3,6,-1,-11,15,4,-5,-7
1537912260771203,-7,-8,-16,-3,0,31,-1,-6
1537912260771203,-2,-1,7,1,-4,-14,6,-1
1537912260785166,4,8,9,6,-9,18,9,5
1537912260785166,-6,-6,-3,-3,5,-1,-6,-4
1537912260794142,2,-11,3,-2,-19,-28,-8,0
1537912260794142,3,26,10,11,25,21,4,-4
1537912260809102,-2,-15,7,13,-13,4,-8,-3
1537912260809102,5,7,12,6,-22,-17,5,6
1537912260809102,0,-3,-2,8,15,-13,-6,1
1537912260809102,-4,-9,-13,-7,-13,4,-1,0
1537912260823065,7,0,-3,-6,-16,-2,7,3
1537912260823065,-5,-7,-5,-5,-3,-29,4,-1
1537912260831043,-6,-3,-9,-13,-34,-25,-3,-5
1537912260831043,7,0,0,-3,3,14,-8,4
1537912260846004,5,9,2,-4,21,10,9,1
1537912260846004,-1,-4,-2,1,-1,-13,2,-2
1537912260853983,5,8,6,6,19,29,4,4
1537912260853983,-6,-7,1,-1,3,26,7,1
1537912260868943,-1,-1,-2,-3,-2,2,-4,-1
1537912260868943,4,6,1,3,0,12,3,-3
1537912260869941,-2,-3,1,0,6,-11,-7,2
1537912260869941,0,-4,-3,-8,-3,1,2,-4
1537912260882906,-1,2,0,6,-2,5,-1,-1
1537912260882906,1,0,1,-3,-7,-5,-1,4
1537912260890885,-2,1,0,-2,0,2,-1,-3
1537912260890885,-2,-5,-5,-3,-8,-1,2,-3
1537912260905844,0,3,-2,-4,-12,-2,3,-3
1537912260905844,-2,-4,1,-1,0,-3,-6,-2
1537912260921801,0,-2,0,3,4,-2,-2,-3
1537912260921801,1,0,-1,1,-3,-7,0,3
1537912260928783,-1,0,-2,1,-2,2,-1,-3
1537912260928783,-1,0,-4,-3,1,5,-1,1
1537912260929780,0,0,-2,-3,8,0,-3,1
1537912260929780,-1,-4,-2,-4,-23,-8,-2,-2
1537912260944740,-1,1,0,-1,0,7,2,1
1537912260944740,1,-3,-4,-3,-4,-11,-7,-5
1537912260951721,-2,0,2,0,1,0,-5,-4
1537912260951721,-2,-3,1,3,1,3,5,2
1537912260974659,-1,-3,-2,-1,-6,-1,-4,1
1537912260974659,0,1,1,-2,-1,5,3,0
1537912260975657,-2,3,-2,-2,1,-3,-3,1
1537912260975657,0,-2,0,0,-1,-2,0,-1
1537912260988622,-2,-3,-4,-1,4,5,-1,-1
1537912260988622,-1,0,1,3,-1,-5,-1,-1
1537912260989620,-1,-2,-1,-2,3,6,2,0
1537912260989620,-1,0,-1,-1,-5,-6,0,-3
1537912261003583,-5,0,1,-2,0,-1,-3,-3
1537912261003583,-2,-2,0,1,-1,-1,-3,-2
1537912261011561,-1,-4,-4,-1,-9,-3,2,0
1537912261011561,-3,-1,-2,-3,-2,-6,-4,-2
1537912261025524,0,-1,-2,-1,0,1,1,-2
1537912261025524,-2,0,0,-1,-2,-6,-2,-2
1537912261041481,-2,0,-1,-1,3,0,-1,0
1537912261041481,-1,-2,-2,-2,-3,-3,0,-2
1537912261048462,-1,1,0,-1,-7,-6,-4,-1
1537912261048462,0,1,2,2,0,16,7,1
1537912261049460,3,0,-2,1,-4,-26,-8,0
1537912261049460,-2,0,0,-1,0,1,0,-3
1537912261063423,-2,-1,-1,-1,6,7,-3,1
1537912261063423,0,-1,-3,0,-1,-8,-1,0
1537912261072398,1,-2,0,1,-4,2,0,1
1537912261072398,0,0,2,1,6,12,5,1
1537912261085364,0,-3,-3,-2,-3,-8,-6,-3
1537912261085364,1,-2,-1,-2,-3,-1,-1,1
1537912261094339,-1,1,0,2,9,6,6,-2
1537912261094339,-1,-2,1,-3,-2,-6,-5,-1
1537912261108302,-1,0,-2,-1,-3,2,3,0
1537912261108302,-1,-2,-4,-5,-5,-6,-3,-3
1537912261117278,1,1,1,1,1,8,0,0
1537912261117278,-1,-1,-1,-2,-1,-14,-4,-1
1537912261123262,-2,-3,0,-1,-2,1,-1,-5
1537912261123262,-1,-1,-3,-2,-6,2,-2,0
1537912261139219,-1,-2,-2,-2,0,-1,-1,-1
1537912261139219,-2,-2,-2,-3,-2,1,-7,-3
1537912261145203,2,0,1,-1,0,-1,-1,2
1537912261145203,-3,-1,0,2,4,9,-1,-3
1537912261154180,-4,-1,-2,-3,-8,5,1,0
1537912261154180,1,-2,-2,0,2,-11,-1,0
1537912261168142,-2,-3,0,0,4,14,2,-1
1537912261168142,-2,-2,-1,-1,1,-6,-3,-1
1537912261177118,-1,1,-1,-1,-2,2,1,-1
1537912261177118,1,0,-3,-1,0,2,2,-1
1537912261183102,-1,1,0,1,-4,-6,3,0
1537912261183102,1,-2,0,-1,2,3,2,1
1537912261192078,-3,-2,-3,-3,7,6,-3,-4
1537912261192078,2,2,2,3,-2,-3,0,0
1537912261206041,0,-4,-3,-3,4,8,-3,-2
1537912261206041,0,0,2,0,-7,-6,10,1
1537912261215017,-3,-5,-5,-3,-8,-23,-11,0
1537912261215017,2,0,0,2,5,9,4,2
1537912261227982,-3,1,-1,-1,0,-2,1,-2
1537912261227982,-3,-2,0,-2,1,-1,-3,-3
1537912261236958,-1,0,1,0,-1,9,2,1
1537912261236958,-2,-1,0,-2,-5,-5,-3,-3
1537912261242942,1,1,0,2,-7,-11,-1,-3
1537912261242942,0,-3,-4,-2,1,16,1,-1
1537912261251918,1,-1,0,1,0,0,2,-3
1537912261251918,0,-1,0,-2,0,-2,-1,0
1537912261265881,2,-1,1,2,1,1,0,4
1537912261265881,0,-1,-1,-1,-2,-3,-5,-3
1537912261274857,-2,0,0,2,1,3,4,-1
1537912261274857,-2,1,-3,-2,-2,-2,-3,-5
1537912261287823,-2,0,-1,-2,-1,-4,-4,-2
1537912261287823,2,3,2,2,3,-6,-1,0
1537912261296798,-2,-2,-3,-2,-5,-6,-5,-3
1537912261296798,-1,-4,-2,-3,10,-1,-1,0
1537912261311758,-1,1,3,-1,-5,6,3,2
1537912261311758,0,-1,0,2,-1,-14,-5,-1
1537912261313753,0,2,-1,2,3,-2,2,-1
1537912261313753,-2,0,-1,0,-5,0,-1,-2
1537912261325721,1,-1,-1,1,-3,-10,-1,2
1537912261325721,-3,-3,-4,-6,-5,16,1,-2
1537912261341678,-2,-2,0,-2,7,22,1,-3
1537912261341678,-3,-1,-3,-2,-6,-11,-10,-1
1537912261347662,1,1,2,0,-2,-19,-5,-1
1537912261347662,-4,-5,-8,-7,-9,-5,-6,-4
1537912261356638,1,-2,-2,-1,-3,-12,-2,0
1537912261356638,-4,-3,-3,-1,3,10,2,-3
1537912261371598,-3,-3,-3,-2,0,5,0,-2
1537912261371598,0,3,3,5,0,-11,-3,0
1537912261373593,1,2,6,4,5,4,4,6
1537912261373593,-3,-2,-1,-6,-3,-17,-15,-7
1537912261385561,1,-5,-1,4,-1,-1,1,-2
1537912261385561,1,-3,-3,-12,-14,-11,3,-1
1537912261394537,-5,-1,2,1,0,-12,-16,-3
1537912261394537,2,3,7,10,-13,-8,7,7
1537912261408500,-4,-3,-5,-8,-27,28,11,-1
1537912261408500,1,3,5,2,5,-42,-12,0
1537912261417476,8,6,-5,1,16,35,24,6
1537912261417476,-10,-10,-16,-12,-11,-61,-16,-9
1537912261432435,5,-1,-1,5,3,-35,-2,-2
1537912261432435,10,13,14,11,6,25,18,9
1537912261433433,-3,-3,7,0,9,0,-10,-5
1537912261433433,17,11,12,10,19,42,20,14
1537912261445401,2,1,-8,0,2,-6,3,2
1537912261445401,-14,-9,-8,2,35,28,-5,-11
1537912261454377,1,-3,-3,-11,-33,-17,-3,1
1537912261454377,-3,-3,-12,-8,15,32,-3,-4
1537912261468340,0,2,12,15,-1,-5,-9,0
1537912261468340,5,3,15,6,-5,30,11,5
1537912261477316,-12,-9,-13,-18,-25,-43,-20,-6
1537912261477316,-2,-12,-12,5,29,26,3,-8
1537912261492276,9,14,19,-2,-38,36,12,7
1537912261492276,-19,-12,-15,-21,-21,-59,-36,-16
1537912261493273,2,-5,-10,17,25,24,7,-1
1537912261493273,9,7,11,-4,-10,-9,9,7
1537912261505241,-16,-13,-21,-18,-24,-23,-20,-13
1537912261505241,8,4,3,10,29,45,26,8
1537912261514217,-18,-9,-16,-22,-34,-67,-27,-13
1537912261514217,-7,-8,-16,-12,-6,-21,-17,-10
1537912261528179,3,6,20,8,6,47,14,7
1537912261528179,4,1,-4,-12,-6,-28,2,1
1537912261537156,-3,-4,-5,-7,3,38,12,1
1537912261537156,-3,-5,-2,14,15,-61,-21,-10
1537912261552115,4,5,15,9,1,-3,1,4
1537912261552115,-4,-9,-11,-11,-52,-38,-3,-1
1537912261553113,8,3,1,-4,13,29,10,5
1537912261553113,-1,6,21,16,-25,18,9,10
1537912261566078,-3,1,5,18,35,-11,4,1
1537912261566078,-8,-12,-24,-14,-9,7,-26,-11
1537912261575055,2,-1,-11,-8,19,22,7,1
1537912261575055,0,-2,-13,-12,0,25,8,-4
1537912261589017,1,-5,-7,-17,-12,18,-4,2
1537912261589017,14,19,39,34,15,-11,-5,9
1537912261595999,-13,-3,9,15,-11,-41,-15,-15
1537912261595999,-5,-3,-7,-17,17,17,-4,1
1537912261611957,-12,-14,-42,-30,3,-36,-18,-21
1537912261611957,4,5,3,3,21,41,6,5
1537912261612955,9,9,36,28,0,-20,-10,8
1537912261612955,-5,-2,9,5,-27,2,4,0
1537912261634896,-5,-3,-1,3,24,6,-10,-4
1537912261634896,-4,-4,-14,-23,-41,29,12,0
1537912261635895,1,-4,-12,-7,-22,-42,-20,-7
1537912261635895,1,4,7,2,6,54,11,13
1537912261648859,3,3,-1,-7,1,-38,-9,-14
1537912261648859,-2,0,7,17,42,36,8,4
1537912261655840,-5,-3,3,-2,-39,-67,-4,-1
1537912261655840,0,-4,-1,-4,-11,-20,-17,-2
1537912261671797,-5,-20,-15,-9,35,16,3,-3
1537912261671797,4,21,1,10,8,17,16,2
1537912261673793,2,6,20,32,43,48,21,3
1537912261673793,7,-4,-3,-13,-9,-17,-1,7
1537912261685760,0,3,3,5,3,48,10,5
1537912261685760,-11,-13,-5,-11,-42,-95,-15,-8
1537912261694736,6,3,-7,-9,3,26,16,8
1537912261694736,-2,4,1,-1,-14,0,16,-7
1537912261708700,-1,2,7,6,-4,25,-1,7
1537912261708700,-2,-10,-13,-10,15,8,-7,-8
1537912261715680,-3,-2,-6,-10,-19,64,12,-1
1537912261715680,1,2,10,5,-45,-106,-8,5
1537912261731636,-5,0,-6,-5,32,7,-7,-8
1537912261731636,-9,-9,-10,-9,18,1,-6,-9
1537912261733631,11,8,15,15,9,6,4,9
1537912261733631,5,6,10,-5,10,58,13,-1
1537912261754574,-7,-3,8,12,-28,-35,-7,-3
1537912261754574,-1,-2,-4,-3,-4,6,7,10
1537912261755572,-5,-14,-29,0,24,43,-8,-19
1537912261755572,0,0,3,2,12,-8,-5,-1
1537912261768537,8,13,14,3,3,-46,6,13
1537912261768537,-2,-6,-6,-2,-1,22,4,-5
1537912261775518,-7,-2,-5,-22,-11,-19,-6,-6
1537912261775518,1,-2,-3,0,3,18,-1,2
1537912261792473,4,0,9,16,46,63,8,0
1537912261792473,1,1,10,5,-55,-93,-30,0
1537912261793471,-2,-5,-13,-14,-4,36,2,2
1537912261793471,-7,-4,-12,-2,25,27,-8,-6
1537912261805439,-1,-3,-15,-12,-35,-13,-5,0
1537912261805439,5,-3,-5,3,35,20,9,-2
1537912261814415,9,15,28,10,-3,-18,4,9
1537912261814415,-6,-11,13,28,7,7,-2,-2
1537912261828377,1,3,-16,-25,-33,-12,3,-3
1537912261828377,-4,-7,-5,-5,-6,-2,-6,-7
1537912261835358,3,5,3,-8,-23,-8,-2,7
1537912261835358,-1,0,-1,1,2,9,-2,-4
1537912261852313,-7,-5,-1,-1,-18,20,3,-3
1537912261852313,2,0,-9,-7,14,17,4,-1
1537912261853311,1,-6,0,2,3,31,6,5
1537912261853311,-1,6,3,-2,-27,-106,-22,-3
1537912261865278,-10,-13,-20,-3,5,60,-2,-8
1537912261865278,-1,2,5,-3,-25,-50,3,-3
1537912261874254,-4,-3,-1,3,13,42,-4,2
1537912261874254,-4,0,-9,-6,16,34,6,-8
1537912261889214,2,2,2,4,-8,-41,-12,-3
1537912261889214,-4,-7,2,-12,-28,8,1,2
1537912261895198,0,-1,-10,-7,7,8,6,-8
1537912261895198,3,4,7,14,16,36,-3,-4
1537912261912153,11,8,24,7,-11,-56,10,12
1537912261912153,5,5,23,37,18,32,12,5
1537912261913151,-5,-2,4,16,25,-13,-3,1
1537912261913151,-8,-14,-31,-36,-8,3,3,-8
1537912261926116,1,-3,-4,-2,-16,30,-4,3
1537912261926116,4,5,18,5,2,-32,-10,3
1537912261934095,-5,-7,-17,-4,5,2,-2,-11
1537912261934095,6,2,-2,10,18,13,9,7
1537912261949054,0,0,1,-2,68,34,4,6
1537912261949054,2,4,-6,-9,15,24,-5,-9
1537912261956036,0,-5,1,-1,-18,-42,-9,4
1537912261956036,-14,-8,-20,-17,-17,10,6,-6
1537912261971993,4,-3,-6,-6,-11,2,6,0
1537912261971993,13,21,37,22,2,45,6,12
1537912261972991,-13,-19,-13,-2,1,-104,-22,-14
1537912261972991,4,18,2,-1,-12,21,-1,0
1537912261985957,-5,0,21,13,-19,-28,-4,-2
1537912261985957,-8,-13,-18,3,-3,12,1,0
1537912261994932,5,4,2,-19,-37,22,7,6
1537912261994932,4,0,5,3,32,42,-2,2
1537912262008895,-7,-12,-33,-29,-35,-21,-4,-12
1537912262008895,1,4,-4,3,3,14,3,-4
1537912262015876,0,4,11,10,-17,-20,9,0
1537912262015876,-12,-10,2,-1,-6,-40,-22,-3
1537912262031833,11,9,6,8,15,-3,4,3
1537912262031833,-2,-8,-8,-2,14,32,10,6
1537912262033828,-2,-4,-17,-21,20,16,-17,-16
1537912262033828,3,2,12,4,-4,-4,12,3
1537912262054772,-1,-1,-2,8,-16,-32,-4,1
1537912262054772,-4,-7,-9,-8,27,22,5,1
1537912262055770,4,8,8,-1,5,13,3,5
1537912262055770,3,2,12,15,-11,-8,-1,2
1537912262068735,-3,1,5,3,3,18,1,-2
1537912262068735,-5,-6,-15,-6,-2,-15,-10,-4
1537912262075717,-1,3,1,3,1,5,2,2
1537912262075717,-4,-9,-9,-10,-1,3,-5,-6
1537912262091675,-2,-4,-10,-4,6,9,-2,-1
1537912262091675,0,0,-1,-5,-13,-58,-17,-7
1537912262093671,1,5,8,4,-9,15,4,5
1537912262093671,-1,-1,0,-1,-14,-3,4,2
1537912262105638,1,0,0,4,6,0,-3,0
1537912262105638,-3,0,0,-3,-8,-3,-2,-2
1537912262114614,0,-2,-5,1,13,16,2,-2
1537912262114614,0,-4,-6,-3,-7,-13,-1,-2
1537912262128576,-4,-3,3,-4,-9,12,-1,1
1537912262128576,-5,-5,-8,-8,-1,-18,-9,-6
1537912262135557,-1,-2,-5,-2,-3,-14,-3,-1
1537912262135557,2,2,0,-2,-7,0,3,2
1537912262151513,-3,-1,4,3,1,-15,-5,-3
1537912262151513,-2,-3,-2,-3,-6,1,-5,-2
1537912262158495,-1,-4,-2,-1,2,-3,2,-2
1537912262158495,-1,-2,1,-2,-1,-6,-4,-2
1537912262165476,-4,-2,-2,-1,-3,-3,-6,-3
1537912262165476,-2,-2,-3,-2,-1,5,3,-1
1537912262174452,1,3,3,3,0,3,0,1
1537912262174452,0,-2,-1,-1,-2,-10,-7,-1
1537912262188415,-3,-2,-1,0,-2,-5,2,-2
1537912262188415,1,0,-2,0,2,-3,0,-2
1537912262195396,0,0,1,-2,-1,2,3,0
1537912262195396,0,-2,-2,0,1,3,1,-1
1537912262211353,-2,1,-1,-2,0,-4,-1,-4
1537912262211353,-1,3,-1,0,-5,0,4,1
1537912262218335,-4,-4,-2,1,0,0,-2,-4
1537912262218335,-1,-1,-2,-2,2,15,-3,-3
1537912262225316,1,0,0,-4,-18,-22,-4,-2
1537912262225316,0,-4,-1,-1,0,18,3,3
1537912262234292,-1,-1,-2,-1,-3,-17,-2,-2
1537912262234292,0,0,2,1,2,14,6,-3
1537912262249252,0,-2,0,1,1,-17,-2,2
1537912262249252,-3,-3,-3,-3,0,-1,-13,-4
1537912262255236,1,2,1,2,3,13,6,1
1537912262255236,2,1,-1,1,2,-4,2,2
1537912262271193,0,-1,-1,-1,3,1,-2,-2
1537912262271193,-2,-1,-2,0,-1,-6,-1,0
1537912262278175,-1,-1,0,-1,1,17,0,-2
1537912262278175,-1,0,0,1,-3,-6,-2,0
1537912262294132,1,0,0,0,1,-2,-1,1
1537912262294132,0,-3,1,1,-8,-2,5,0
1537912262296127,0,2,2,-2,-10,-5,-4,-1
1537912262296127,0,0,-1,-2,-5,-4,-3,-3
1537912262309092,-3,-3,-3,-2,-4,1,-1,0
1537912262309092,0,-1,-2,-2,-4,-16,-6,-3
1537912262316073,1,-1,-2,-2,-2,-4,-3,-2
1537912262316073,-1,-3,0,-2,-4,-4,0,-1
1537912262331033,-1,4,3,-1,0,3,-4,1
1537912262331033,1,1,2,1,2,2,1,1
1537912262338015,-3,-1,-3,-1,-1,-5,-1,2
1537912262338015,-1,-3,-1,-1,-8,-5,-1,-4
1537912262354969,-2,-2,-1,-1,2,7,-1,-2
1537912262354969,-1,1,0,-2,-7,-8,1,0
1537912262355967,-1,-3,-2,-2,-1,-13,-7,0
1537912262355967,-3,-2,-3,-2,-1,-7,-3,1
1537912262368932,-1,0,0,-1,5,0,0,0
1537912262368932,3,0,0,4,14,10,3,2
1537912262375914,-3,-5,-3,-5,-2,-4,-6,-3
1537912262375914,-1,0,-2,-2,-8,-3,-2,-2
1537912262390874,2,-2,-1,1,1,4,4,0
1537912262390874,-4,-2,0,-2,0,-4,-5,-3
1537912262397856,0,1,0,3,4,-2,0,1
1537912262397856,2,-1,-1,0,3,2,1,1
1537912262414812,0,0,1,2,1,-7,0,-1
1537912262414812,-1,-4,-7,-6,-7,15,-3,-2
1537912262415809,2,1,0,0,-5,-6,1,0
1537912262415809,-2,-2,-1,-4,-3,-2,-3,-3
1537912262428773,0,-1,-2,0,-5,1,0,1
1537912262428773,-2,0,1,-3,-11,-16,-4,-3
1537912262435755,0,-2,-3,0,-2,4,0,-1
1537912262435755,0,1,1,0,5,3,0,4
1537912262451712,0,-1,-2,-1,1,5,-3,-3
1537912262451712,-1,0,-1,-1,-1,4,2,0
1537912262458693,0,-3,0,0,-1,3,3,-2
1537912262458693,-1,-4,-1,0,-6,-10,1,0
1537912262474651,0,0,-2,0,1,5,1,0
1537912262474651,-2,-3,-2,-2,-4,10,0,1
1537912262475649,-1,2,1,-1,0,-10,-3,1
1537912262475649,-1,1,-1,-1,-1,-10,-1,2
1537912262488613,-2,-4,-4,-5,-11,3,-1,-1
1537912262488613,2,1,1,2,1,7,3,0
1537912262495594,-3,-2,0,-1,0,-2,-3,-1
1537912262495594,2,0,-2,0,2,6,3,-3
1537912262511551,-2,-1,0,-1,-1,-13,-3,-4
1537912262511551,0,-1,-1,0,2,15,-10,-5
1537912262518532,1,2,0,1,-1,2,6,2
1537912262518532,-3,1,0,1,8,6,0,-2
1537912262534489,2,1,0,2,3,4,5,0
1537912262534489,-2,-2,-2,-1,0,-8,-1,-2
1537912262535488,0,-3,2,1,-4,-1,-2,1
1537912262535488,-1,1,1,2,3,9,1,0
1537912262548452,2,1,-1,-2,4,6,2,0
1537912262548452,-2,-2,-2,-3,0,3,3,-1
1537912262555434,2,1,0,1,6,-19,-6,-2
1537912262555434,-3,-1,-4,-4,1,17,-1,-2
1537912262571391,-1,-2,-2,-2,-6,0,-5,-4
1537912262571391,-1,-1,-2,0,-2,-16,-2,0
1537912262585354,-2,-3,-3,0,3,10,1,-3
1537912262585354,-1,-2,-2,-2,-6,8,4,1
1537912262594329,-4,-2,-3,-4,4,-17,-9,-5
1537912262594329,-5,-2,-3,-3,0,-6,-1,-1
1537912262596324,0,-1,-2,0,7,4,5,3
1537912262596324,1,0,5,0,-17,-35,-9,1
1537912262609290,-7,-9,-8,-9,0,37,-9,-11
1537912262609290,5,5,8,8,-4,-3,7,2
1537912262615274,-8,-9,-11,-12,-21,18,2,-1
1537912262615274,0,0,-6,-4,5,2,-4,-3
1537912262631231,4,5,10,12,-1,-15,1,6
1537912262631231,-4,-3,3,-2,16,3,3,-1
1537912262638212,-3,-3,-8,-9,-2,0,0,-5
1537912262638212,8,2,2,1,7,5,4,3
1537912262654170,-4,5,5,3,6,13,12,2
1537912262654170,-2,-8,-21,-2,12,-18,-21,-2
1537912262656164,11,4,16,15,17,-7,6,10
1537912262656164,-5,7,22,2,-16,57,-1,-3
1537912262669130,-7,-9,-14,-10,-34,-58,-14,-3
1537912262669130,-4,-8,-12,-3,0,11,7,-3
1537912262675114,0,7,8,5,-11,-25,-11,-2
1537912262675114,3,0,2,12,33,29,7,3
1537912262691071,-2,0,0,6,-10,21,19,5
1537912262691071,-8,-10,-22,-32,-50,-26,-34,-14
1537912262698052,-5,-2,-9,-3,33,11,0,-2
1537912262698052,-1,-6,-40,-44,-21,-26,-2,-7
1537912262714010,5,4,14,19,12,29,7,2
1537912262714010,6,12,34,14,1,-30,12,12
1537912262716005,1,-4,7,17,10,51,7,-9
1537912262716005,2,9,21,-4,0,2,-2,3
1537912262727972,-13,-16,-25,-15,7,-5,-13,-7
1537912262727972,12,1,-4,3,5,43,8,-2
1537912262736949,5,16,39,20,-18,-19,0,8
1537912262736949,-5,-6,4,23,12,6,4,-4
1537912262750911,-1,-7,-15,-8,-49,-12,-5,3
1537912262750911,-28,-15,-37,-50,2,-4,-17,-24
1537912262757892,2,-15,-38,-5,-3,5,2,-6
1537912262757892,17,16,23,6,21,24,5,10
1537912262774847,1,9,30,13,-34,-29,10,-3
1537912262774847,-4,-9,-3,0,23,36,10,19
1537912262775845,-1,1,-13,-18,-4,-62,-18,-10
1537912262775845,-10,-12,-28,-19,-28,-45,-16,-11
1537912262787813,2,3,-3,-12,0,-39,-12,-1
1537912262787813,0,8,12,16,1,13,4,-8
1537912262796788,-11,-16,-17,-17,31,56,6,-6
1537912262796788,9,12,8,7,-1,7,7,4
1537912262811748,3,4,20,12,10,15,-4,0
1537912262811748,2,3,16,30,-5,-14,3,5
1537912262817732,7,4,8,5,-22,-5,2,12
1537912262817732,-5,-1,12,14,3,-4,2,4
1537912262834687,-5,-5,-10,-5,3,-1,4,1
1537912262834687,3,4,-5,3,0,23,-1,-7
1537912262835684,-3,6,8,-3,19,-3,3,-4
1537912262835684,-12,-14,-23,-21,-82,-77,-19,-1
1537912262847652,12,-6,-14,-12,21,14,-2,-5
1537912262847652,0,5,6,-13,-11,-29,-1,-1
1537912262856628,5,10,-4,-2,-12,0,-15,3
1537912262856628,-7,-15,-3,2,-29,-21,2,-17
1537912262871589,-4,4,3,-18,30,-3,-4,6
1537912262871589,1,-5,-16,9,-22,-9,11,3
1537912262878570,7,7,20,14,11,5,0,7
1537912262878570,-4,-1,11,6,3,18,12,4
1537912262894527,-1,-9,-19,-8,-4,13,-7,-6
1537912262894527,5,10,26,11,7,-7,1,2
1537912262895525,-14,-5,-2,1,-13,-11,-18,-11
1537912262895525,7,-1,-6,18,39,37,2,7
1537912262908490,0,8,6,4,18,-17,-2,-8
1537912262908490,1,-6,-11,-13,-9,5,10,10
1537912262917466,-4,-3,-4,-4,-27,-74,-5,-8
1537912262917466,1,3,-9,-13,40,17,-4,-2
1537912262931428,2,0,-11,-8,10,17,1,-5
1537912262931428,9,1,9,6,-49,-45,2,8
1537912262938410,-5,2,13,16,15,9,3,-2
1537912262938410,-11,-9,-10,8,36,30,-3,-3
1537912262954367,6,8,5,-18,-29,-55,-13,6
1537912262954367,-5,-25,-10,7,30,19,1,-5
1537912262956362,-1,17,-3,-11,-24,7,2,-4
1537912262956362,-1,-3,11,1,8,-2,-4,-3
1537912262968330,-1,-5,2,15,0,35,10,7
1537912262968330,-4,0,4,2,-3,-16,-5,-5
1537912262977306,-3,-10,-13,-12,-22,-3,-2,0
1537912262977306,0,3,-6,-6,-6,21,-7,-1
1537912262991268,6,3,4,4,26,72,17,6
1537912262991268,-1,7,-5,-9,-6,-18,-3,-6
1537912262998250,1,-6,-4,4,28,69,10,0
1537912262998250,2,9,5,-11,-11,-2,-1,4
1537912263014207,-8,-15,-7,3,-1,-2,-8,-5
1537912263014207,1,2,0,1,3,19,-7,0
1537912263016202,7,8,21,13,28,31,15,13
1537912263016202,0,-11,-12,2,27,14,-4,-7
1537912263028170,-8,-2,-10,-3,-4,-13,-1,-6
1537912263028170,-6,-2,-3,-7,18,22,3,-1
1537912263037146,4,0,6,8,3,-10,3,5
1537912263037146,0,3,7,-6,-58,-64,-7,2
1537912263051108,-4,-4,-2,0,16,13,-6,-2
1537912263051108,-3,-2,-3,0,-28,-23,-5,-7
1537912263058090,-5,-7,-3,-2,-11,-8,-4,-4
1537912263058090,-3,-6,-12,3,8,13,-7,-2
1537912263074047,8,10,11,5,-4,57,16,3
1537912263074047,-3,-1,4,2,-19,-65,-52,-12
1537912263081029,-7,-6,-15,-27,1,-12,-8,-1
1537912263081029,1,-1,0,2,13,18,12,-1
1537912263088010,-6,-4,-8,6,20,8,5,0
1537912263088010,1,0,0,-9,-2,-1,-3,0
1537912263096986,-4,-6,-9,-2,4,-27,-20,-11
1537912263096986,-4,-2,-2,-4,1,-6,2,-5
1537912263110949,4,3,7,0,-17,-9,-2,7
1537912263110949,-2,-1,-3,3,18,16,4,-5
1537912263117931,6,-2,-7,-8,-22,35,3,1
1537912263117931,1,7,16,6,6,21,10,4
1537912263133889,0,-3,5,10,-3,-5,-3,-4
1537912263133889,5,6,7,11,9,33,22,14
1537912263140870,-5,-3,-7,-7,-14,-5,3,-4
1537912263140870,-6,-7,-19,-19,-14,-18,-14,-8
1537912263147851,6,10,20,17,-8,-26,-1,5
1537912263147851,1,4,10,10,15,13,6,6
1537912263164807,-3,-8,-7,4,-9,-24,4,-1
1537912263164807,-4,-4,-6,-4,-1,-5,-14,-6
1537912263171787,-1,2,-10,-7,40,20,-1,-8
1537912263171787,1,-2,-5,-8,-10,-6,14,1
1537912263177773,-3,-5,-2,-1,-39,-17,-13,-4
1537912263177773,-1,-1,-5,-8,-9,-42,-6,-4
1537912263193728,-7,-8,-8,-14,-44,-30,-5,-6
1537912263193728,3,5,9,2,31,63,8,0
1537912263200709,-8,-5,-10,-10,12,13,7,-5
1537912263200709,-4,-2,-3,11,2,-3,-1,2
1537912263216666,9,9,14,-5,-17,-15,2,7
1537912263216666,1,6,14,24,-3,15,9,8
1537912263218662,-5,-4,3,-6,3,-7,-7,-5
1537912263218662,-3,0,2,8,8,-3,5,1
1537912263231626,1,-6,-13,4,-2,-5,1,-3
1537912263231626,3,2,-3,-12,-26,-39,-8,2
1537912263238607,8,4,5,4,1,23,7,9
1537912263238607,-4,-2,-4,-2,37,45,11,-1
1537912263253568,-14,-8,-12,-12,-27,-79,-46,-8
1537912263253568,5,3,-6,-10,21,75,26,5
1537912263260550,3,3,-2,-6,5,8,-8,-4
1537912263260550,6,1,6,1,-17,30,12,5
1537912263276508,-1,-2,4,1,1,7,-4,0
1537912263276508,-8,-7,-9,-1,7,-13,-14,-7
1537912263283489,0,3,1,1,-1,-14,-4,0
1537912263283489,4,4,10,7,3,13,11,3
1537912263291467,-2,0,2,4,11,4,4,-5
1537912263291467,0,-4,0,-3,-8,-20,-10,-2
1537912263298449,-4,-3,-3,0,0,8,8,1
1537912263298449,-5,-9,-9,-7,-39,-50,-17,-3
1537912263313409,-1,2,4,2,-4,8,8,4
1537912263313409,-3,-6,-8,-7,-3,-4,-7,-4
1537912263320391,-3,-1,0,1,-2,1,0,1
1537912263320391,0,-1,0,-4,-15,-35,-8,-2
1537912263337346,-1,-2,-7,-9,-4,-7,-1,-2
1537912263337346,-1,0,-5,-2,9,35,14,-1
1537912263338343,0,2,1,5,23,-18,-11,-4
1537912263338343,4,2,1,0,2,4,5,2
1537912263351307,-3,-4,-3,0,-12,0,3,-2
1537912263351307,-4,0,1,-1,-8,-12,-9,-3
1537912263358289,1,1,1,1,0,7,10,5
1537912263358289,0,-2,-1,-2,-5,-2,-1,-1
1537912263374247,-2,-2,-3,-1,5,17,-2,-3
1537912263374247,-1,-3,0,0,0,-5,-7,0
1537912263380230,1,-1,0,-3,-5,12,3,-3
1537912263380230,-4,1,-2,1,-1,-19,-3,-3
1537912263397185,0,-1,1,1,4,7,2,0
1537912263397185,-1,0,-1,-3,-5,-12,-4,-2
1537912263398182,1,-1,-2,1,-6,4,2,2
1537912263398182,0,0,-1,-3,0,-2,-5,-2
1537912263412144,-2,-1,-1,1,2,-2,0,-2
1537912263412144,-4,-1,-4,-2,-1,-8,0,-4
1537912263418127,-2,-4,-2,-3,-3,-1,-2,-2
1537912263418127,-1,2,2,4,-2,1,-3,-1
1537912263434085,1,0,-2,-3,4,5,0,2
1537912263434085,-1,-2,0,-1,1,6,-1,1
1537912263441066,1,1,3,1,0,-10,2,0
1537912263441066,1,-2,-3,-5,4,1,1,-1
1537912263457024,-2,1,0,1,5,4,5,1
1537912263457024,0,0,-2,1,0,8,3,0
1537912263458021,-6,-5,-6,-6,1,-6,-24,-9
1537912263458021,-2,-2,-3,-6,-13,-34,-5,-1
1537912263470986,-3,-3,-1,-1,-2,13,1,-2
1537912263470986,1,0,1,3,5,-14,3,0
1537912263477968,1,-1,-1,0,3,8,7,4
1537912263477968,-2,-1,1,0,-4,11,-5,-6
1537912263493926,-3,-4,-5,-2,-6,5,-8,-7
1537912263493926,1,-3,-4,-2,-7,-20,-6,2
1537912263500907,0,3,0,0,-4,-6,0,1
1537912263500907,-3,-2,-1,-3,4,12,-3,-3
1537912263515866,0,0,-2,1,1,-2,5,2
1537912263515866,0,-1,-2,-3,-4,0,-2,-5
1537912263516864,0,-5,-1,1,-3,-6,2,-1
1537912263516864,1,0,2,1,3,17,6,3
1537912263531824,-2,-2,-1,-2,-1,-7,-3,-1
1537912263531824,-1,-3,-1,-2,-1,1,-4,0
1537912263537807,2,0,0,-1,2,5,3,0
1537912263537807,0,0,-2,2,2,-2,1,-1
1537912263552767,-3,0,-4,-3,4,0,-3,-1
1537912263552767,-2,-1,-2,-1,-2,7,-3,-5
1537912263560747,0,1,0,3,1,7,6,2
1537912263560747,-4,-2,1,0,-1,-33,-17,-3
1537912263576704,2,1,1,0,0,-5,1,0
1537912263576704,-2,1,-1,-3,-6,5,6,1
1537912263576704,-1,-4,-4,-2,5,9,-6,-2
1537912263576704,2,-1,-1,3,-2,9,1,1
1537912263591664,1,1,1,5,15,14,8,3
1537912263591664,-4,-4,-4,-7,-8,-72,-16,-4
1537912263597648,-1,0,1,-2,-19,2,0,-4
1537912263597648,1,0,1,4,-5,-21,0,6
1537912263612608,-7,-7,-5,-7,-2,1,-8,-5
1537912263612608,0,-1,-1,1,7,21,7,1
1537912263620586,-2,0,-2,-2,0,-4,1,-3
1537912263620586,0,1,2,-1,0,0,-1,-1
1537912263636544,-1,0,2,2,-5,-4,-1,-1
1537912263636544,2,-1,0,1,0,3,0,-2
1537912263636544,0,-1,-2,-3,3,-8,0,-1
1537912263636544,1,1,0,3,3,20,0,-2
1537912263652501,0,-2,0,3,-2,6,-4,-1
1537912263652501,0,1,-1,-2,6,16,5,0
1537912263658485,0,-1,2,0,-2,2,-3,1
1537912263658485,-1,-3,-3,-6,-6,38,10,-1
1537912263673445,-6,-2,0,-2,-7,-21,-11,-6
1537912263673445,-1,-5,-2,0,1,-4,-9,0
1537912263680426,1,0,-2,-3,-6,0,5,-1
1537912263680426,-1,2,1,3,6,4,-2,-4
1537912263696383,3,3,-2,-1,7,24,8,1
1537912263696383,-2,0,-2,1,6,19,-1,-2
1537912263697381,-2,-1,-1,1,-8,-13,-1,3
1537912263697381,-2,-3,-1,0,-1,-10,-11,-4
1537912263712341,2,2,3,2,-1,-17,2,0
1537912263712341,0,-2,0,-2,-2,27,4,-1
1537912263718325,-1,-1,-1,-1,5,-10,1,0
1537912263718325,-4,-3,-5,-5,8,-3,-7,-4
1537912263733285,0,0,1,3,-15,-15,0,2
1537912263733285,1,2,2,1,-4,3,-2,2
1537912263740267,-6,-8,-9,-8,-9,-31,-11,-7
1537912263740267,4,5,2,2,2,12,11,3
1537912263756223,-4,-5,-1,0,15,4,-1,0
1537912263756223,-2,-2,-1,-1,-6,3,0,-4
1537912263757221,0,-1,4,6,10,13,-4,0
1537912263757221,-5,-4,-6,-5,-6,-1,-5,-3
1537912263779163,1,1,-3,-4,-2,5,7,2
1537912263779163,2,3,2,2,1,-5,-5,0
1537912263779163,1,0,-1,-2,-3,-3,-2,-1
1537912263779163,-3,-2,-1,1,1,-2,-1,-4
1537912263794122,0,-2,-3,-3,-4,0,-2,-1
1537912263794122,-2,-2,0,-1,-3,-15,-3,-2
1537912263800107,0,0,0,1,5,7,-1,3
1537912263800107,-1,-4,-4,-6,-13,-7,5,1
1537912263816064,-4,-7,-4,-6,-19,-28,-19,-11
1537912263816064,3,1,-2,-1,3,-5,0,5
1537912263817061,1,3,4,3,10,7,5,1
1537912263817061,-3,0,-1,0,-3,-12,2,0
1537912263839002,-2,-1,-1,-2,4,10,4,4
1537912263839002,1,-3,-1,-1,0,7,5,-2
1537912263839002,-2,-2,-1,-3,-2,8,1,-5
1537912263839002,1,1,2,0,5,-7,1,2
1537912263852965,-1,-1,-1,0,-9,-16,-16,-6
1537912263852965,-3,0,0,2,3,-15,-5,0
1537912263860944,-2,0,-1,0,-1,5,-1,0
1537912263860944,0,0,2,3,4,8,1,1
1537912263875904,0,0,0,1,6,12,11,-1
1537912263875904,-5,-2,-1,-1,0,7,-5,-3
1537912263876901,1,3,1,4,-2,1,1,-2
1537912263876901,0,-2,-3,-8,-26,-28,-10,1
1537912263891861,3,3,-1,-1,9,16,3,2
1537912263891861,-2,0,0,-1,-7,-16,1,-2
1537912263897845,0,-1,0,0,-3,-2,2,-3
1537912263897845,1,0,-1,-1,5,20,2,1
1537912263912805,-1,-2,-3,-3,0,19,5,-1
1537912263912805,-3,0,-3,-4,-7,-7,-6,0
1537912263920784,-2,-1,-1,-1,0,-4,3,2
1537912263920784,-3,-1,2,-3,3,9,0,-4
1537912263936741,0,-1,-1,2,1,-17,-4,-1
1537912263936741,0,-1,-2,-1,0,15,8,1
1537912263936741,0,-1,-1,-3,-4,-4,-10,-3
1537912263936741,1,-2,1,4,12,24,7,2
1537912263951701,0,0,0,-3,-17,-20,-2,2
1537912263951701,-3,-4,2,1,-6,-7,-1,-4
1537912263957685,0,-2,-2,-1,6,8,-5,-2
1537912263957685,-1,0,-2,-1,1,-2,4,-2
1537912263972645,0,1,0,1,6,9,3,1
1537912263972645,-2,-1,-2,-1,9,13,1,-5
1537912263980624,1,0,0,-1,-5,-12,6,3
1537912263980624,0,-2,0,0,-5,4,5,1
1537912263995584,-2,-4,-3,-5,0,10,2,-2
1537912263995584,1,1,-2,0,-2,-6,-1,4
1537912264003563,-2,0,-1,-3,-8,-32,-8,0
1537912264003563,0,2,2,4,16,15,7,-1
1537912264011541,1,-3,1,2,-2,3,2,4
1537912264011541,-3,-2,1,0,-2,0,-1,-5
1537912264018523,0,-1,-1,2,1,20,6,0
1537912264018523,-1,-3,-6,-4,-6,-14,-9,-2
1537912264033483,-2,-2,-2,0,-9,17,0,-7
1537912264033483,0,1,-2,0,2,-18,-7,3
1537912264040464,0,0,0,-1,-4,-1,-4,-1
1537912264040464,-1,-3,-2,2,6,6,1,-3
1537912264055424,-5,-2,-2,1,7,10,-5,-5
1537912264055424,2,-1,0,-1,-1,0,0,-2
1537912264063402,0,-1,-1,-5,-1,-5,1,-1
1537912264063402,-1,1,0,-1,-9,-19,-4,2
1537912264072379,3,0,0,1,8,3,7,2
1537912264072379,0,-3,-4,-3,-6,-4,4,-2
1537912264078363,-3,-4,-2,-1,2,-4,-12,-7
1537912264078363,1,3,3,3,0,-5,2,0
1537912264093322,-2,2,2,0,0,-7,-1,3
1537912264093322,0,0,2,0,3,8,1,-2
1537912264100304,-5,-6,-6,-6,-14,-7,-4,-4
1537912264100304,-4,-2,-3,-4,-2,-1,-7,-1
1537912264117258,2,2,0,1,-3,-6,-5,-5
1537912264117258,0,-2,-3,-2,2,14,1,-1
1537912264123243,-3,0,-1,1,-2,11,-2,1
1537912264123243,-2,0,-2,3,8,4,-4,0
1537912264139200,-2,-1,-4,-3,0,-5,-6,-3
1537912264139200,1,0,3,4,-3,7,0,3
1537912264139200,3,1,-1,1,8,13,8,4
1537912264139200,-4,-2,-2,-2,-6,-7,-5,-5
1537912264153163,-2,1,-2,-1,-6,-36,-6,-2
1537912264153163,-1,-1,-1,1,9,-2,7,2
1537912264160144,-3,-3,-4,0,-2,-1,-10,-4
1537912264160144,1,0,0,-1,-4,-15,-5,-3
1537912264175104,-2,-3,-1,0,3,20,3,1
1537912264175104,-1,-1,0,-3,-5,-6,-3,-1
1537912264183082,-1,-2,0,-1,-2,-10,2,1
1537912264183082,2,1,3,6,12,26,6,3
1537912264199040,2,2,-1,-2,-5,-18,-4,0
1537912264199040,-3,-3,-2,-4,0,7,-1,-5
1537912264199040,0,-1,1,4,10,18,9,0
1537912264199040,1,-2,-2,-3,-2,2,-3,-2
1537912264213003,-1,0,1,-1,-8,0,1,1
1537912264213003,-1,0,-1,0,3,15,2,-3
1537912264220981,1,-2,1,-3,-14,-22,3,1
1537912264220981,-6,-9,-6,-9,-13,-22,-27,-8
1537912264235942,1,0,2,-2,-2,-3,9,4
1537912264235942,-4,-1,-1,3,13,12,-2,-7
1537912264250901,4,5,-1,0,5,16,7,5
1537912264250901,-2,-2,0,1,-7,-35,-11,-5
1537912264258880,-2,-5,-2,-4,-3,9,1,-2
1537912264258880,-4,-3,-2,-4,-9,-42,-12,-2
1537912264259877,-3,0,1,1,10,4,-6,-1
1537912264259877,-2,-2,-2,-5,-11,6,4,1
1537912264272843,3,1,1,6,10,0,-3,-1
1537912264272843,-2,-4,0,0,-1,7,1,0
1537912264280821,-2,0,-1,-2,0,-6,-6,-1
1537912264280821,0,2,2,0,0,9,7,3
1537912264295781,-3,0,0,-1,-2,2,-2,-4
1537912264295781,1,1,0,0,-3,-1,-3,2
1537912264302763,0,-2,-1,0,0,13,6,0
1537912264302763,1,-2,-1,-1,-2,-19,-5,-1
1537912264318720,-2,1,-3,1,1,15,2,0
1537912264318720,3,2,-1,-1,-3,-12,0,4
1537912264319718,-1,-1,1,-1,3,1,-5,-2
1537912264319718,-1,-2,1,1,-3,8,7,0
1537912264332683,-3,-1,-2,-1,2,-27,-15,-6
1537912264332683,-1,0,0,0,-7,-4,1,3
1537912264340661,1,-1,2,3,4,-4,-1,0
1537912264340661,-2,-3,-6,-7,-5,1,-4,-6
1537912264355621,1,-1,2,1,2,4,3,3
1537912264355621,-1,2,1,-1,-5,-6,-5,0
1537912264362603,-3,-4,-1,0,2,0,-1,-4
1537912264362603,-1,0,-1,0,-1,-20,-2,1
1537912264378560,1,-1,0,-1,-1,10,1,2
1537912264378560,1,0,-2,-1,3,7,2,-1
1537912264379558,-2,-1,-1,-4,-21,-5,-3,1
1537912264379558,0,0,0,0,5,17,4,-1
1537912264393520,-3,-3,-3,-1,-1,4,-3,-2
1537912264393520,-1,-1,-3,-4,-5,-4,-3,1
1537912264400501,-1,1,0,0,2,-2,0,-4
1537912264400501,-1,0,-3,-1,3,14,2,0
1537912264415462,0,2,2,0,-1,1,3,-1
1537912264415462,-1,-2,0,2,-1,-17,-1,1
1537912264423440,0,-3,-6,-6,-8,-5,-8,-3
1537912264423440,-1,3,4,2,5,3,-2,-2
1537912264438400,-4,-4,-2,-6,-2,14,5,-1
1537912264438400,-4,-4,-3,-5,-10,-32,-26,-12
1537912264439397,-2,-3,-2,0,0,-6,3,3
1537912264439397,2,0,-2,0,8,13,5,3
1537912264453360,3,1,1,1,-1,7,1,-2
1537912264453360,0,-2,2,0,-4,-2,-1,-2
1537912264460341,-1,2,-1,-1,0,1,-1,0
1537912264460341,0,-2,-1,0,-1,-1,-3,0
1537912264475301,-2,-2,-1,-2,2,0,1,-1
1537912264475301,-2,-2,-3,0,-10,6,4,0
1537912264483280,-3,-1,-1,-1,2,-4,-3,0
1537912264483280,-1,0,-1,1,-4,-3,2,-1
1537912264499238,1,0,0,-2,-4,-11,-4,-1
1537912264499238,-1,2,1,0,8,14,5,1
1537912264499238,1,1,0,0,5,-20,1,0
1537912264499238,-5,1,1,3,4,17,0,-6
1537912264513200,-3,-6,-5,-4,8,14,-14,-1
1537912264513200,1,0,-2,-1,9,13,5,-4
1537912264520182,-1,0,2,-1,-8,21,8,0
1537912264520182,1,0,1,-2,-12,-39,-1,1
1537912264535141,1,0,-1,1,0,-11,0,1
1537912264535141,-2,-2,-1,-1,3,18,1,-2
1537912264543120,-2,0,-1,2,2,6,-2,-1
1537912264543120,-1,-4,-2,-1,-7,-1,-2,-1
1537912264559077,-3,-1,-2,-1,-9,-8,-1,-1
1537912264559077,0,-3,-2,-2,-3,1,1,-1
1537912264559077,1,-2,-2,-2,-8,-23,-2,-1
1537912264559077,-2,0,-2,-1,0,3,-4,0
1537912264573040,-3,-1,-2,-1,-3,-5,-2,-4
1537912264573040,0,3,-1,0,1,-5,4,1
1537912264581019,-2,0,1,0,-3,5,-4,-5
1537912264581019,-1,-2,-1,-3,-8,4,-1,1
1537912264595979,2,3,4,4,3,5,10,-2
1537912264595979,1,1,4,5,-4,1,1,0
1537912264602960,-4,-3,-6,-7,-3,32,-3,-6
1537912264602960,3,2,0,0,5,11,10,2
1537912264618917,-2,-3,-4,-6,-12,-37,-13,-4
1537912264618917,0,0,0,1,0,11,7,0
1537912264619915,1,2,3,6,8,-3,-5,-1
1537912264619915,-1,-1,-1,0,5,18,6,-5
1537912264632880,-1,-1,-1,1,1,5,3,0
1537912264632880,-1,1,0,0,-9,2,-2,2
1537912264640859,-3,-2,-3,-3,-6,-14,-3,-1
1537912264640859,0,-4,-3,-5,-4,-10,-3,-1
1537912264655819,1,1,1,0,-1,-3,-2,-1
1537912264655819,-3,-3,-4,-4,0,4,-3,-2
1537912264662800,-2,-1,1,2,4,3,0,-1
1537912264662800,-3,-2,-4,-4,-19,-15,-7,-2
1537912264678758,-1,-2,1,-2,4,16,9,-3
1537912264678758,-2,0,2,1,-7,-19,-8,5
1537912264679756,0,-3,-6,-3,16,43,-3,-2
1537912264679756,-2,1,2,3,24,21,8,0
1537912264692721,-2,0,-3,-3,-16,-27,3,0
1537912264692721,-6,-2,-3,-2,-6,-5,-9,-7
1537912264700700,5,5,5,7,4,-25,6,3
1537912264700700,1,3,1,1,-5,-6,-1,1
1537912264715661,-1,0,-4,-2,2,11,0,1
1537912264715661,0,0,-1,-1,6,2,4,-1
1537912264722643,-3,-4,-2,-3,-9,-16,-4,-2
1537912264722643,-1,-3,-1,-4,-13,-19,-8,-3
1537912264738600,-1,1,0,1,1,-5,-1,0
1537912264738600,0,-1,-2,-1,-1,-11,-3,0
1537912264739597,-4,0,-1,-1,-3,1,1,-3
1537912264739597,-2,-2,-2,-2,-2,-3,-1,2
1537912264753560,-2,-1,0,2,4,6,-3,0
1537912264753560,3,0,2,3,9,2,4,0
1537912264760541,0,-2,-3,-4,-4,3,4,-3
1537912264760541,-1,0,-2,-1,3,-10,-5,-1
1537912264775503,0,0,-1,-1,5,6,1,-2
1537912264775503,-3,-3,-3,-4,-6,-14,-12,-3
1537912264783480,-2,-1,-1,-2,-6,-17,-4,1
1537912264783480,-3,-1,-1,-1,-4,-22,-6,1
1537912264798438,-1,-1,-1,3,3,18,3,0
1537912264798438,-2,-3,-2,-4,2,12,2,-5
1537912264799436,1,3,0,1,1,12,9,6
1537912264799436,-2,-4,-3,-3,1,15,-4,-5
1537912264813404,-1,0,2,3,3,-7,-5,1
1537912264813404,-2,0,1,-2,-10,2,4,3
1537912264820380,-1,-3,-3,-4,-7,-2,-8,-4
1537912264820380,0,1,1,2,4,8,5,2
1537912264835340,0,-2,-1,-2,-5,-1,-5,-2
1537912264835340,-1,-2,-1,-1,2,2,1,-1
1537912264843319,2,-1,0,0,2,0,-4,1
1537912264843319,-1,-1,-1,-2,-10,-16,-3,-3
1537912264859275,-2,-2,-1,-3,-2,5,-6,-4
1537912264859275,2,0,0,-2,0,-10,-1,0
1537912264859275,-3,-1,-2,-2,0,-2,1,-4
1537912264859275,-1,-1,-3,2,9,28,12,5
1537912264873238,-5,-2,-3,-6,-13,-40,-22,-7
1537912264873238,1,-1,-3,-2,-1,0,3,3
1537912264880219,-1,-2,-1,-2,4,3,-4,-2
1537912264880219,-1,-1,-2,0,-5,-26,-4,-4
1537912264895179,1,-1,0,1,-3,7,9,3
1537912264895179,-1,0,-1,2,1,5,-4,2
1537912264903158,0,1,0,1,-3,-7,5,1
1537912264903158,0,0,-3,2,4,6,0,-1
1537912264919116,1,2,0,0,-1,-2,2,1
1537912264919116,-2,-1,-2,-2,-2,3,-3,-6
1537912264919116,0,-2,-2,-2,3,6,-1,0
1537912264919116,-3,-1,0,0,0,-3,-5,-2
1537912264933078,2,-4,3,1,5,9,1,2
1537912264933078,0,-3,-3,-3,1,8,5,-4
1537912264949035,-2,-2,-1,-5,-22,-26,-13,-5
1537912264949035,1,-3,-1,0,2,3,3,1
1537912264956016,4,4,0,2,-3,-23,4,3
1537912264956016,-6,-4,-4,-7,-6,-6,-14,-5
1537912264962998,3,1,-1,2,7,5,9,2
1537912264962998,-6,-4,-4,-8,-12,-34,-16,-7
1537912264977958,-4,-2,-2,-2,-6,9,-1,-1
1537912264977958,3,1,1,6,6,15,9,2
1537912264985937,-4,-3,-2,-2,0,-40,-13,-6
1537912264985937,0,1,2,2,4,25,5,1
1537912264992919,0,-1,-3,-4,-1,-1,4,-2
1537912264992919,-1,1,1,0,4,-1,1,1
1537912265000898,-2,-4,-1,0,-3,8,-2,-1
1537912265000898,-1,0,0,2,1,2,1,2
1537912265015857,-2,-4,-1,-4,-4,-12,-5,0
1537912265015857,1,0,-1,0,1,-2,0,-1
1537912265022838,0,0,0,0,-1,5,1,0
1537912265022838,0,3,2,2,3,1,4,1
1537912265037798,2,1,0,2,4,7,1,2
1537912265037798,-2,1,-1,-3,-7,-2,3,-1
1537912265046774,-3,-1,-5,-5,-5,-13,-5,-1
1537912265046774,0,-1,-1,0,1,7,-1,-3
1537912265061734,0,-1,-3,-3,-10,-11,-5,-2
1537912265061734,1,0,0,0,1,-6,0,-2
1537912265061734,0,1,0,0,-8,5,3,0
1537912265061734,0,-1,-1,-3,3,18,5,1
1537912265084672,-1,-1,-1,0,0,20,10,0
1537912265084672,-3,-4,-4,-6,-11,-52,-23,-7
1537912265084672,-1,0,-1,-2,-1,13,5,2
1537912265084672,0,-1,-1,0,14,3,-3,-2
1537912265097638,-1,-2,0,0,-6,8,2,-3
1537912265097638,-1,-3,-2,0,3,11,-2,1
1537912265106614,-2,-2,0,-1,1,1,3,-4
1537912265106614,-1,-1,1,0,-7,-8,-7,-2
1537912265121574,-2,-3,0,-1,6,6,-1,0
1537912265121574,-2,-2,-1,-2,-11,-21,2,-2
1537912265121574,1,1,0,2,5,3,0,1
1537912265121574,-3,-3,-1,-2,-3,3,1,-1
1537912265135537,-3,0,-3,1,10,18,1,-2
1537912265135537,0,0,-1,-3,-17,-30,-2,5
1537912265143515,0,1,-1,-3,2,4,-5,-1
1537912265143515,-2,-3,1,0,-5,-4,1,0
1537912265158475,-2,-1,-1,-1,3,-4,0,0
1537912265158475,-2,0,0,1,2,10,0,0
1537912265166455,-1,-2,-2,3,6,10,1,-2
1537912265166455,0,0,-4,-3,-2,0,-2,-1
1537912265181414,0,1,-1,0,2,8,1,0
1537912265181414,0,-1,-1,0,-5,4,0,-3
1537912265182412,1,-2,-1,-1,-12,-7,-7,-1
1537912265182412,1,1,1,2,3,12,3,0
1537912265195377,-3,-3,-3,-5,-5,-24,-16,-3
1537912265195377,-2,1,1,1,10,23,2,-2
1537912265203355,-1,0,-2,0,-5,1,4,-3
1537912265203355,1,-1,1,-3,-5,-11,-2,-1
1537912265227291,-1,-1,1,-1,-4,-6,-1,-4
1537912265227291,1,0,1,1,7,13,3,-1
1537912265227291,0,-3,0,3,2,-3,0,1
1537912265227291,-2,0,-1,-2,-2,4,2,-4
1537912265241254,1,0,-3,0,-4,-1,-4,-1
1537912265241254,1,-2,-1,-1,0,3,0,0
1537912265242251,-1,-1,-2,0,0,0,-1,-2
1537912265242251,0,0,-1,-1,-5,-11,-2,0
1537912265255217,-3,2,0,0,5,2,-1,0
1537912265255217,-3,-2,-1,-2,2,-1,-3,0
1537912265264193,-1,0,1,-1,2,-9,1,0
1537912265264193,-4,-4,-2,-1,4,20,4,-5
1537912265278155,-2,-4,-2,-3,-9,12,0,0
1537912265278155,-2,-1,-5,-2,-2,-26,-10,0
1537912265286134,-2,2,0,0,4,3,2,1
1537912265286134,-1,-1,1,-1,-1,0,-1,1
1537912265301094,3,1,2,3,2,17,4,-1
1537912265301094,0,-1,-2,-2,-2,-15,-1,-1
1537912265302092,-1,-2,-1,1,0,4,1,0
1537912265302092,-4,-1,-1,-2,3,-4,-5,-1
1537912265316054,0,0,1,1,-2,-12,2,1
1537912265316054,-2,-2,2,1,1,8,3,-1
1537912265324033,1,0,2,-1,0,-7,-6,-1
1537912265324033,0,0,-1,-1,2,-8,2,1
1537912265337995,-3,0,-3,-2,-2,1,2,-1
1537912265337995,-1,-4,-4,-1,-2,3,-4,-2
1537912265345974,-1,-1,-1,-1,-2,6,-1,-2
1537912265345974,0,-2,-1,-1,-9,-8,-1,2
1537912265360934,-2,-4,-2,-1,5,-5,0,0
1537912265360934,-3,1,0,2,2,29,4,-1
1537912265361931,-2,-3,-5,-6,-9,-48,-23,-5
1537912265361931,2,1,1,2,1,6,4,3
1537912265384870,-2,-4,-5,-5,-1,13,-7,-4
1537912265384870,1,-1,0,-1,1,3,8,1
1537912265384870,-4,-6,-3,-2,-9,-4,-3,-7
1537912265384870,1,4,-1,2,1,-5,-1,1
1537912265397835,1,-1,1,3,-2,-16,-2,2
1537912265397835,-3,0,0,-2,-6,9,-3,0
1537912265405814,-1,1,1,3,9,25,5,0
1537912265405814,-1,-4,-4,-1,-1,5,-5,0
1537912265420774,-1,0,3,-1,3,0,3,0
1537912265420774,-2,-2,-3,-6,-15,12,-2,0
1537912265421771,0,0,-2,-1,3,-6,-4,-2
1537912265421771,1,1,-1,-1,-5,-6,3,0
1537912265435734,-1,2,1,-1,-8,-3,0,-4
1537912265435734,1,-3,-1,-2,8,19,2,1
1537912265443713,-2,1,0,2,3,8,4,0
1537912265443713,-2,-5,-2,-2,-5,-11,-12,-5
1537912265457675,-1,1,-1,1,-6,-14,-5,-3
1537912265457675,0,2,4,5,15,7,8,3
1537912265466651,-1,0,-4,-5,-14,-10,8,3
1537912265466651,2,-1,-2,-2,1,3,-1,-2
1537912265481611,-2,-2,0,-1,3,6,-3,-3
1537912265481611,2,1,-1,-1,2,-10,-4,-2
1537912265481611,1,-3,0,-1,-3,9,1,1
1537912265481611,-2,-1,1,2,-1,-8,-1,-5
1537912265495574,0,-4,-2,-3,-4,-1,2,1
1537912265495574,2,0,-1,1,-1,-2,2,-1
1537912265503553,-4,0,-2,0,11,-15,-6,-2
1537912265503553,-3,-2,-1,0,0,-8,-1,-2
1537912265518512,3,0,1,5,2,-4,-8,-2
1537912265518512,-3,-3,-5,-6,-8,-29,-11,-5
1537912265526491,-1,0,-2,0,-10,-15,2,1
1537912265526491,-3,1,1,1,8,11,5,-1
1537912265541451,3,2,-1,0,-1,2,1,4
1537912265541451,1,-2,2,1,1,4,3,-1
1537912265541451,3,3,2,2,3,18,4,2
1537912265541451,-1,-3,0,-1,-3,5,4,0
1537912265555414,-3,-3,-2,-3,-1,-3,-2,-2
1537912265555414,-2,-2,0,3,1,7,1,2
1537912265563393,0,0,-1,-1,2,8,0,-2
1537912265563393,0,-1,-2,-2,-6,-4,-4,-2
1537912265578353,0,-1,0,-1,2,6,0,-1
1537912265578353,-2,-2,0,-2,-4,-12,-4,-4
1537912265586331,-1,-3,-1,-1,-4,-1,-1,-4
1537912265586331,0,-1,-5,-3,-1,-3,-3,4
1537912265601291,-5,1,-2,0,-3,-1,-4,-2
1537912265601291,1,2,2,1,-5,3,4,0
1537912265602289,-4,-8,-5,-5,12,14,-20,-6
1537912265602289,4,1,0,-1,1,3,2,-2
1537912265615254,-1,-2,-2,-2,-6,10,7,1
1537912265615254,0,2,2,2,7,-1,-5,-4
1537912265624230,1,3,0,0,-1,0,7,3
1537912265624230,-4,0,-2,0,-10,-9,-16,-5
1537912265638193,3,2,1,3,9,10,9,1
1537912265638193,-3,-4,-5,-4,2,-4,-1,-2
1537912265646171,-2,-3,1,-4,-8,-6,-1,1
1537912265646171,-2,-1,0,1,1,2,1,0
1537912265661131,-1,-1,-2,-3,-5,-15,-3,-2
1537912265661131,1,0,-1,0,-3,0,-2,-1
1537912265662129,2,0,-1,0,-3,5,3,1
1537912265662129,0,0,0,-2,-2,-1,3,1
1537912265675094,-3,-3,-1,-3,2,-1,-7,-2
1537912265675094,-2,-1,-3,-3,-4,-4,1,2
1537912265684070,0,-1,0,0,1,2,3,2
1537912265684070,0,-1,-1,-1,-1,-5,1,1
1537912265698033,-5,-4,-4,-7,-12,-37,-17,-7
1537912265698033,0,0,3,1,1,-22,3,1
1537912265706012,-3,-1,-3,-1,-3,2,-7,-7
1537912265706012,-1,0,-1,-2,4,8,-2,0
1537912265720972,3,0,-1,0,-1,2,9,1
1537912265720972,-5,-4,-2,-4,-4,16,-6,-3
1537912265721969,0,0,4,-1,-8,-27,-13,-2
1537912265721969,-1,-1,0,-1,1,-9,1,-3
1537912265735932,-1,-2,-1,-2,0,8,-3,-2
1537912265735932,2,2,-1,3,-1,0,2,1
1537912265743910,-1,-2,-1,1,2,5,6,-1
1537912265743910,-1,-2,0,-1,-2,4,-5,-4
1537912265757873,-1,3,2,1,-1,-4,0,2
1537912265757873,-1,-3,-2,0,0,-5,-3,0
1537912265765851,0,0,-1,-1,-4,2,3,0
1537912265765851,-1,0,-1,0,-1,-4,1,1
1537912265780811,-3,0,0,-2,1,11,1,0
1537912265780811,-1,0,1,0,-1,-4,-3,-1
1537912265781809,-1,0,0,1,14,11,2,0
1537912265781809,-1,-2,-1,-2,1,-1,-5,-2
1537912265795772,0,0,-1,1,-3,21,7,3
1537912265795772,1,-4,-3,-3,5,-3,-1,2
1537912265803750,0,1,1,3,8,8,7,0
1537912265803750,-1,-1,-3,-1,0,3,-3,-1
1537912265817713,-1,-2,-1,1,2,2,1,0
1537912265817713,-1,1,1,-1,1,-1,-2,-1
1537912265826689,2,0,-2,1,-6,-3,5,4
1537912265826689,-1,0,0,0,-2,14,5,0
1537912265841649,-3,-4,-3,-3,-1,-11,-14,-6
1537912265841649,-2,0,0,0,-2,8,6,-2
1537912265841649,0,0,-1,-3,-7,-5,-5,0
1537912265841649,1,-1,-1,-1,-4,1,2,0
1537912265855611,-2,0,0,1,1,0,-1,2
1537912265855611,-4,-4,-1,-3,-4,-17,-10,-4
1537912265863590,0,-2,0,-1,-3,5,1,-1
1537912265863590,-2,1,0,-1,-1,-4,-5,-4
1537912265877553,2,-1,-2,-1,0,-3,3,-3
1537912265877553,-2,-1,-3,-2,-3,2,-2,-3
1537912265886529,0,0,-1,0,4,3,1,1
1537912265886529,0,-1,0,0,-1,-16,-6,-1
1537912265900492,0,-2,0,0,1,3,1,0
1537912265900492,2,2,4,4,-3,2,13,3
1537912265909468,-6,-6,-8,-8,1,19,-19,-6
1537912265909468,2,0,-1,0,2,15,8,2
1537912265915453,-1,0,1,1,2,-22,-4,-2
1537912265915453,1,0,-1,1,-1,3,1,1
1537912265923431,1,-1,0,-1,-8,-11,6,0
1537912265923431,0,-2,0,2,-2,-2,4,-1
1537912265938391,-1,-3,-4,-4,-4,-1,-10,-6
1537912265938391,-2,0,-1,-1,-3,-2,-4,-3
1537912265947367,-1,0,-3,-1,-4,-7,-1,-1
1537912265947367,-2,-2,-2,-2,-2,0,-3,0
1537912265960333,0,2,0,2,1,-5,2,-1
1537912265960333,-1,-2,-1,-4,-10,-3,-2,-2
1537912265969308,1,2,1,1,0,0,-3,0
1537912265969308,-1,-4,0,0,-1,-3,0,0
1537912265984269,-1,0,-1,2,-1,6,-2,-2
1537912265984269,1,1,-3,-1,-1,1,-1,0
1537912265986264,0,0,2,0,-2,-1,3,-1
1537912265986264,-2,1,0,0,-2,2,-3,-4
1537912265998231,3,-1,-2,0,6,7,7,2
1537912265998231,-3,-2,-2,-2,-3,7,-7,-4
1537912266007208,1,1,0,3,-4,-20,6,0
1537912266007208,0,0,-1,-1,0,-5,3,2
1537912266020173,-8,-7,-9,-8,-7,2,-19,-11
1537912266020173,-1,-2,-1,-3,-1,3,-1,2
1537912266037127,-2,-4,-4,-3,0,11,0,-4
1537912266037127,-1,-1,-1,-1,-4,-4,2,1
1537912266044109,0,2,1,0,-3,-10,3,0
1537912266044109,-5,-3,-2,0,1,-10,-11,-3
1537912266046103,-2,-2,-1,2,5,8,-4,-3
1537912266046103,-1,-1,-2,-1,-7,-12,-4,-2
1537912266058071,1,1,0,0,13,4,2,3
1537912266058071,1,0,-1,-1,-3,-5,0,-2
1537912266067048,2,0,3,0,-1,0,1,1
1537912266067048,0,1,-2,0,4,4,-6,-3
1537912266081009,-2,-1,0,-2,-8,-15,-6,-1
1537912266081009,-1,-2,-2,1,3,0,1,-1
1537912266088987,-2,-1,-1,0,-3,-4,0,1
1537912266088987,1,1,-1,-3,-2,-5,0,1
1537912266103948,-1,-2,-1,-4,-1,15,1,-1
1537912266103948,0,1,1,0,0,2,1,-3
1537912266105943,2,0,0,-2,-4,3,2,0
1537912266105943,0,0,0,2,4,-4,-3,-4
1537912266117911,1,1,0,2,-3,-3,4,1
1537912266117911,-1,0,0,0,2,3,-1,2
1537912266126886,-2,-1,1,2,1,-1,0,0
1537912266126886,-1,-2,-2,0,3,34,7,0
1537912266140849,-2,-3,-2,-5,-14,-50,-16,-2
1537912266140849,0,0,0,3,2,2,3,2
1537912266149825,-3,-3,-5,-6,-10,-1,-6,-5
1537912266149825,1,1,2,0,0,-12,-1,1
1537912266164785,-4,-2,-1,-2,2,18,0,-3
1537912266164785,-2,-2,-2,-3,-3,-10,0,-3
1537912266165783,-2,0,2,-2,2,-17,-3,2
1537912266165783,0,0,-1,0,0,-1,-2,-2
1537912266177750,1,-2,-1,0,1,5,1,2
1537912266177750,2,-2,-2,1,3,6,2,0
