timestamp,emg1,emg2,emg3,emg4,emg5,emg6,emg7,emg8
1537907914624740,0,-2,7,-5,1,0,-1,0
1537907914624740,-3,5,79,13,-1,-1,-1,-4
1537907914625737,0,-17,-84,1,2,1,-1,-1
1537907914625737,1,6,23,9,0,-1,1,2
1537907914626734,-1,-14,-7,7,-1,-2,-1,-2
1537907914626734,-1,-4,-5,-9,-3,0,-1,-2
1537907914630724,-6,0,39,-7,-3,-3,-2,0
1537907914630724,-5,-9,-10,4,6,2,-2,-6
1537907914637705,-2,8,-23,-2,-6,-3,-2,-2
1537907914637705,-1,-9,-5,5,-2,-2,-1,-2
1537907914648676,3,13,10,10,6,2,4,6
1537907914648676,0,-1,-15,4,1,0,-3,-9
1537907914652665,0,-5,16,-37,-17,-9,-13,-31
1537907914652665,-6,-17,-37,-10,1,0,0,6
1537907914671614,2,26,15,16,0,-2,-4,-5
1537907914671614,0,8,29,-19,-4,1,3,2
1537907914674606,0,12,-35,8,7,4,0,4
1537907914674606,3,21,-18,0,1,-1,-2,-8
1537907914689567,-7,-46,0,-7,-4,-1,-1,-4
1537907914689567,0,6,-10,3,-3,-3,-1,-2
1537907914699540,-2,13,22,11,5,2,4,0
1537907914699540,4,-7,-5,-6,-1,0,0,2
1537907914713502,0,0,6,-7,0,-2,-3,0
1537907914713502,3,17,-1,-1,-1,-2,-3,1
1537907914753396,-4,-11,-52,-22,-6,-3,-2,-2
1537907914753396,1,2,-2,-1,-1,0,-1,1
1537907914754393,2,-4,36,3,1,-1,2,5
1537907914754393,-8,-10,-54,1,-2,-3,-5,-21
1537907914757385,1,13,45,-2,0,0,-2,-1
1537907914757385,1,-2,-14,-4,-1,0,-1,-4
1537907914758382,-2,0,-2,8,-1,-2,-1,4
1537907914758382,1,15,15,9,1,0,2,5
1537907914766361,-2,-11,4,7,0,-1,0,-15
1537907914766361,-5,-8,-13,-10,-2,-1,-1,8
1537907914772345,2,17,0,2,4,2,-5,-13
1537907914772345,-1,-10,15,0,0,0,3,10
1537907914781321,-2,-9,-24,-5,-5,-2,-1,-3
1537907914781321,1,11,25,0,-4,-1,0,-5
1537907914794286,-6,-6,24,4,0,-2,-4,-7
1537907914794286,4,-6,-41,3,1,2,0,-2
1537907914803262,0,-2,-3,0,3,2,3,10
1537907914803262,-4,-30,19,9,4,3,-2,-5
1537907914826201,3,18,-16,-3,-1,-2,0,2
1537907914826201,0,2,30,-4,0,0,-1,2
1537907914827198,-1,3,8,4,-1,0,0,3
1537907914827198,5,31,2,-5,-1,-3,0,4
1537907914840164,-11,-51,-25,-7,0,2,2,0
1537907914840164,3,14,4,0,-1,-4,-4,-3
1537907914848142,2,7,8,5,-3,-1,-1,0
1537907914848142,0,3,-7,-15,-2,-2,1,-5
1537907914864100,-4,-1,10,27,-2,-3,1,3
1537907914864100,-1,-1,2,-22,-4,-2,0,-1
1537907914865097,-4,-6,-14,10,1,1,-2,0
1537907914865097,-1,-8,10,0,2,2,-2,1
1537907914886041,3,1,-12,-13,0,-1,1,-4
1537907914886041,0,-1,23,6,-3,0,3,28
1537907914887038,1,4,-12,2,-1,-3,-3,1
1537907914887038,-2,-10,-43,-2,-1,0,2,16
1537907914908980,2,10,27,1,-3,0,-7,-32
1537907914908980,0,17,25,5,4,1,12,23
1537907914909977,-3,-19,27,-13,-4,1,1,3
1537907914909977,2,7,-48,-9,-6,-2,-1,0
1537907914923940,1,-9,-19,-12,-4,0,2,7
1537907914923940,-6,-13,-17,0,-2,-5,-8,-15
1537907914924937,5,11,35,5,6,1,0,1
1537907914924937,-4,-1,-4,3,0,-1,2,-2
1537907914945881,2,27,-2,-2,-4,-2,-1,3
1537907914945881,-4,-18,7,-6,-1,1,-1,-10
1537907914947876,-1,-13,-46,-10,-1,-1,0,9
1537907914947876,-3,-8,16,18,1,-3,-4,-15
1537907914959843,-2,2,-4,-3,-1,-3,-1,5
1537907914959843,2,7,2,-6,-2,0,-3,-6
1537907914975801,-3,-10,-17,-4,-2,-3,-1,-2
1537907914975801,3,31,24,2,-1,-1,-2,-2
1537907914983780,0,-7,-31,-8,-1,-2,-2,3
1537907914983780,1,-4,30,5,0,-2,-1,-1
1537907914984777,-2,1,-32,9,2,1,0,-7
1537907914984777,-3,-7,23,-9,-3,-1,1,-1
1537907915005721,0,1,-23,-2,-3,-1,0,4
1537907915005721,-4,3,11,6,-3,-1,-3,-16
1537907915007716,4,4,8,6,2,0,1,30
1537907915007716,-4,-14,-5,-5,-7,-6,-2,2
1537907915019684,-2,-1,9,-5,-5,-1,1,-1
1537907915019684,1,-3,-37,-11,-3,-1,-2,-1
1537907915028660,-4,3,12,-2,0,0,-1,-14
1537907915028660,1,9,-14,8,2,-1,0,1
1537907915043620,-1,-14,13,9,5,2,-1,8
1537907915043620,-1,2,-33,-8,-1,-3,-2,-7
1537907915044617,0,-9,0,1,-2,-3,1,-5
1537907915044617,0,-10,22,-1,3,1,1,-1
1537907915065561,1,18,7,-1,-4,-1,0,-4
1537907915065561,1,14,15,9,-2,-2,-2,0
1537907915067556,0,8,-5,-6,-1,0,-2,-5
1537907915067556,-2,-18,-34,-5,-1,-2,0,12
1537907915080521,2,0,15,5,-2,-3,0,1
1537907915080521,-1,-15,-5,6,2,0,-1,0
1537907915088500,2,6,11,-23,-8,0,2,9
1537907915088500,-5,2,13,20,2,-1,-5,-15
1537907915103460,-1,-3,-4,10,2,1,-1,-2
1537907915103460,0,5,-13,-23,-7,-2,0,2
1537907915105454,-4,-17,-17,-6,0,0,-3,-14
1537907915105454,2,27,34,5,-3,0,0,-1
1537907915126398,-4,-27,-39,-1,2,-2,-1,0
1537907915126398,-2,-8,4,2,4,-2,-1,-3
1537907915127396,-1,11,-11,-16,-2,-1,-1,-4
1537907915127396,-3,-17,-16,-1,4,-1,-2,-5
1537907915139364,-1,-3,24,-12,-6,-2,3,3
1537907915139364,-3,0,8,0,-1,-2,-2,-3
1537907915148340,-3,2,-12,10,-3,-2,0,-3
1537907915148340,1,0,-5,-1,0,-1,0,1
1537907915163300,0,-5,1,-5,3,2,-3,-4
1537907915163300,0,-18,-8,3,0,0,0,0
1537907915165295,1,21,48,0,-1,-3,0,-4
1537907915165295,0,-13,-41,-1,1,0,-1,1
1537907915186238,-6,5,0,1,1,-2,-3,-25
1537907915186238,6,12,12,-3,-3,0,0,37
1537907915188234,0,6,-2,5,1,-2,-2,2
1537907915188234,-3,-20,21,-20,-9,-2,1,0
1537907915200201,0,-4,-49,-7,1,1,0,3
1537907915200201,-3,2,15,-7,-4,-2,-1,-12
1537907915208180,-1,3,8,12,1,1,-2,-3
1537907915208180,-2,2,4,10,1,-1,-3,2
1537907915223141,1,6,9,-3,-1,0,-1,3
1537907915223141,-2,-5,-20,-3,1,-1,0,-9
1537907915225134,-4,-36,-10,-2,-1,-3,-4,-6
1537907915225134,-1,25,15,1,0,0,9,24
1537907915246078,-1,-2,-8,1,-1,-2,2,11
1537907915246078,2,-5,-1,1,1,2,-1,-8
1537907915247076,0,12,-18,-3,1,1,0,2
1537907915247076,2,-3,4,3,3,1,-2,-10
1537907915260041,-3,5,24,-8,-3,-1,-2,-2
1537907915260041,1,-3,12,-2,-4,-3,1,3
1537907915269017,-1,-9,-6,2,0,-2,-1,-5
1537907915269017,-3,-6,-21,-1,1,-1,-3,-8
1537907915283977,2,6,29,22,4,1,1,7
1537907915283977,-3,-11,-9,-13,-2,0,-2,-10
1537907915284975,0,6,9,-16,-6,-1,-1,-4
1537907915284975,-1,3,4,-3,-2,-1,-2,-4
1537907915305919,0,-4,-7,-3,4,0,1,5
1537907915305919,-3,1,-31,13,-1,-1,-4,-11
1537907915307913,1,9,6,8,-1,-1,-1,-1
1537907915307913,2,-3,-9,-5,-2,-2,-1,-2
1537907915328857,-3,-5,4,-2,-3,-2,-2,-33
1537907915328857,1,1,25,3,-1,0,2,38
1537907915329855,-1,1,-32,5,4,1,1,-16
1537907915329855,-1,0,0,-7,-3,-1,-4,-8
1537907915342820,-2,4,-4,-1,-3,-2,-2,-5
1537907915342820,-4,-8,17,1,0,-2,-1,-10
1537907915349801,4,25,9,2,1,1,3,13
1537907915349801,1,-9,5,-3,1,-1,1,-1
1537907915365759,1,15,-8,-2,-9,-7,-3,0
1537907915365759,-5,-25,-28,10,1,-1,0,-3
1537907915367753,0,7,23,-1,1,-1,0,4
1537907915367753,-1,4,14,10,4,2,-10,-29
1537907915388697,-3,4,13,-34,-13,-3,-2,9
1537907915388697,0,3,-38,-3,1,1,-3,-6
1537907915389695,-4,-14,2,7,1,-1,-1,-1
1537907915389695,-1,4,-7,5,0,-1,-3,-3
1537907915402660,0,-15,-20,-8,4,2,1,6
1537907915402660,-1,8,17,10,-4,-2,-2,-6
1537907915417620,-1,-16,1,1,-3,0,0,1
1537907915417620,-5,2,-11,-2,-3,-1,-1,-1
1537907915433577,2,-2,6,2,1,1,-1,4
1537907915433577,0,2,-5,-4,0,1,0,-2
1537907915434575,0,12,1,2,3,0,1,4
1537907915434575,-4,-24,7,-6,-1,-2,2,-13
1537907915448538,0,-7,-10,9,-5,-4,-3,8
1537907915448538,3,29,16,3,3,1,0,-5
1537907915449535,-3,-20,5,16,2,-1,-2,5
1537907915449535,0,1,10,-13,-3,-1,1,1
1537907915462500,-1,6,-12,-8,0,-2,0,-7
1537907915462500,0,-5,-14,-12,-1,0,2,0
1537907915471476,-3,3,0,8,1,1,-3,-10
1537907915471476,4,17,13,-10,-8,-2,-1,10
1537907915486436,-2,-15,10,20,2,2,1,6
1537907915486436,0,4,9,0,-1,-1,0,2
1537907915487433,-2,0,-15,-6,-1,-1,-3,-3
1537907915487433,0,-12,-1,5,1,-1,-9,-17
1537907915508377,0,4,5,-5,0,0,6,33
1537907915508377,-8,-25,-30,-8,3,-1,-9,-38
1537907915510372,3,15,31,-9,-11,-4,-1,7
1537907915510372,0,-3,-27,0,-1,2,1,0
1537907915523338,3,12,9,0,4,0,-3,-9
1537907915523338,1,-12,-11,13,5,0,4,10
1537907915529322,-3,-5,12,-11,-7,-4,-1,-4
1537907915529322,-5,-4,5,4,0,-1,1,-19
1537907915546276,4,-11,0,-6,-6,0,-1,16
1537907915546276,-1,7,-7,-10,-1,-2,1,5
1537907915547274,-2,-9,1,1,2,2,-1,-3
1537907915547274,0,15,0,6,-3,-1,2,8
1537907915568218,-5,-6,-4,-3,4,1,-3,-14
1537907915568218,1,13,12,7,3,1,-1,-2
1537907915570212,0,-8,0,-11,-9,-3,-1,-1
1537907915570212,1,0,-5,6,0,0,1,11
1537907915583177,4,24,-6,0,1,-1,-1,-9
1537907915583177,3,6,6,-2,-3,-2,0,10
1537907915590159,-1,-11,-27,1,3,2,3,1
1537907915590159,-2,17,15,2,-2,-1,0,10
1537907915606117,-4,-8,-6,-8,-1,0,-1,-7
1537907915606117,-3,-4,20,-2,-2,-1,0,-4
1537907915607114,-1,-6,3,-4,2,-2,-4,-10
1537907915607114,1,-7,-47,-1,-2,-1,12,42
1537907915629055,-1,-9,13,6,-2,-2,3,17
1537907915629055,1,6,1,-9,-1,-1,-7,-21
1537907915631050,-2,-3,12,9,-4,-2,-3,-11
1537907915631050,3,-4,8,-12,2,2,0,26
1537907915643017,1,-9,-13,-21,-9,-1,-1,-3
1537907915643017,1,-3,18,17,1,0,5,10
1537907915649999,-2,-5,-29,-29,-4,-1,-1,2
1537907915649999,-1,-5,-4,7,1,-2,-3,-14
1537907915665956,-3,8,-1,6,5,2,1,-6
1537907915665956,-4,-12,5,-6,-4,-2,-2,4
1537907915667951,-1,3,-3,4,2,-2,-1,-3
1537907915667951,-3,-6,8,3,0,-1,-1,-5
1537907915687898,0,-3,-17,-1,3,1,-2,-5
1537907915687898,-3,-8,10,4,-1,-1,0,-3
1537907915694879,1,1,34,10,3,-1,0,6
1537907915694879,3,2,-21,-13,-3,-1,-3,-4
1537907915702858,-1,10,27,5,1,-1,-3,-7
1537907915702858,0,-10,-31,-4,1,2,0,-1
1537907915709839,0,4,-27,2,-4,-1,1,4
1537907915709839,-1,-1,41,-6,-1,-1,-4,-6
1537907915724799,-2,2,-14,-1,-2,-2,-4,-7
1537907915724799,0,6,3,2,-1,-1,0,5
1537907915733775,-3,-10,16,1,3,2,1,1
1537907915733775,-3,-2,-12,11,3,-1,-2,-18
1537907915748735,-3,-11,-20,-12,-9,-5,-8,-14
1537907915748735,0,5,2,-2,-4,1,1,3
1537907915749732,0,9,0,16,1,0,-2,2
1537907915749732,-5,-16,-5,-30,1,-1,1,-4
1537907915770676,3,6,21,10,0,1,2,16
1537907915770676,-1,2,-4,-4,0,-2,-5,-20
1537907915772671,-1,4,-38,-19,-3,2,-2,-2
1537907915772671,-2,-1,10,12,-1,1,-2,-4
1537907915784639,0,-19,-8,5,2,-1,2,8
1537907915784639,5,41,11,-7,0,0,-2,4
1537907915793615,-1,-10,14,3,0,-2,1,2
1537907915793615,1,11,-40,-6,1,0,1,3
1537907915808575,0,3,7,-3,-3,-1,0,3
1537907915808575,-2,-2,-9,17,3,-2,1,4
1537907915809572,4,5,28,-4,-2,-1,-3,-6
1537907915809572,1,5,20,0,-2,-1,-1,3
1537907915831514,-1,-3,-27,-4,-2,0,1,-10
1537907915831514,-3,-12,-7,-1,1,-1,0,-3
1537907915832511,1,10,16,1,1,-3,-1,6
1537907915832511,-1,-10,-16,1,-5,-2,0,-1
1537907915854452,-4,-14,7,6,2,0,1,1
1537907915854452,-2,-3,-1,-14,-2,-1,-2,-7
1537907915855450,-2,-13,-10,24,-1,-3,-1,0
1537907915855450,4,-15,4,-20,0,1,2,13
1537907915868415,-5,6,21,-2,-3,-2,1,-9
1537907915868415,3,5,-27,-8,-2,0,-3,-5
1537907915870410,-1,-9,17,2,3,1,2,3
1537907915870410,-2,7,-36,-1,1,-1,-2,-6
1537907915891354,0,4,26,3,-3,-2,-2,-3
1537907915891354,-1,-9,-31,-4,-4,-2,2,9
1537907915892351,1,3,-1,4,0,-1,-2,-3
1537907915892351,-1,-3,21,9,-3,-1,-5,-8
1537907915913295,0,3,-9,-4,2,1,-1,1
1537907915913295,-5,-9,-11,2,-1,-1,0,3
1537907915915290,-4,5,30,-8,1,-1,0,-20
1537907915915290,5,5,-5,8,0,0,2,1
1537907915928255,-3,-6,-15,-18,-5,-3,-3,-4
1537907915928255,4,-3,22,2,-3,-1,0,5
1537907915930250,-3,-6,-31,-15,-2,-1,-2,-4
1537907915930250,2,9,34,7,2,0,1,5
1537907915951193,1,-2,-21,11,6,-1,0,-1
1537907915951193,-3,-10,1,1,-4,0,-3,-8
1537907915952191,2,2,-7,-10,-2,1,4,15
1537907915952191,-4,0,20,7,1,-2,-3,-11
1537907915973135,1,-1,25,24,3,0,-5,-15
1537907915973135,-1,3,-33,-37,-8,-1,12,32
1537907915975130,-1,-3,-18,-3,-1,-1,2,5
1537907915975130,-2,3,2,-4,-4,-1,-3,0
1537907915988095,-1,-13,7,19,6,2,1,-5
1537907915988095,-2,-2,15,-4,-1,-1,-2,-6
1537907915990090,3,11,9,4,-2,0,-3,0
1537907915990090,-3,0,1,17,-1,-2,0,2
1537907916011034,-1,-2,-31,-38,-5,-1,-2,4
1537907916011034,-1,5,24,11,4,1,-1,-4
1537907916012031,-1,-10,-33,-7,-1,0,-1,-1
1537907916012031,-3,1,20,7,-1,-2,-3,-19
1537907916033973,3,-1,9,5,0,-1,1,10
1537907916033973,0,19,28,4,-2,-1,-4,-8
1537907916034970,1,9,1,4,2,-1,-1,-2
1537907916034970,-3,-22,-40,-20,-2,1,1,-2
1537907916047935,-2,10,-3,7,-4,-2,-4,-7
1537907916047935,-3,-20,21,4,2,0,-2,-1
1537907916054917,3,18,6,7,-1,-1,2,22
1537907916054917,-1,-1,-4,-1,2,-1,-6,-20
1537907916070874,-1,-5,-12,-16,-4,-2,1,8
1537907916070874,1,2,25,11,3,-1,-1,-5
1537907916072869,0,-8,-27,-2,-6,-1,-2,-1
1537907916072869,1,-7,2,2,-2,-1,-2,-4
1537907916093812,1,14,-1,4,-1,2,12,34
1537907916093812,-3,-7,-22,-6,-1,-1,-2,-5
1537907916094810,1,-1,7,-11,-3,0,0,-6
1537907916094810,-4,4,1,-7,-2,0,-1,-20
1537907916107775,2,5,8,9,3,0,-4,10
1537907916107775,0,-5,-19,5,-2,-3,-1,1
1537907916114756,-3,0,33,2,4,1,-1,2
1537907916114756,0,-21,-11,4,-5,-1,-1,3
1537907916130714,2,23,-6,-16,-1,0,-2,-15
1537907916130714,2,0,-2,16,-1,-1,1,9
1537907916132708,-7,-15,-14,-11,-3,-3,-6,-17
1537907916132708,4,12,1,5,2,-1,3,12
1537907916152655,-4,-21,17,-5,0,0,-1,-9
1537907916152655,-2,0,-8,-10,-2,-1,-2,2
1537907916160634,0,13,19,19,2,-2,-3,-13
1537907916160634,-5,-10,-24,-16,-2,-2,1,13
1537907916167615,0,-6,-4,-1,0,0,-3,-4
1537907916167615,0,9,-3,1,0,-1,-2,-4
1537907916174597,-3,-22,-1,-10,-4,-1,-1,0
1537907916174597,0,25,2,4,1,0,1,8
1537907916190554,-1,-2,-10,-6,-3,-4,-4,-8
1537907916190554,-3,-2,12,16,0,-1,-1,-4
1537907916198532,-1,-3,-13,-7,0,-2,1,2
1537907916198532,5,16,29,7,-1,0,0,12
1537907916213492,-3,-13,-17,9,3,1,0,-8
1537907916213492,0,-2,-13,-30,-4,0,0,2
1537907916214490,0,-1,-4,-14,-4,-2,-1,-5
1537907916214490,0,-5,0,-7,-3,-2,1,19
1537907916227455,-2,5,11,20,3,-2,-12,-45
1537907916227455,-5,-13,-17,6,1,0,6,14
1537907916234436,-1,-2,0,-7,-2,0,2,3
1537907916234436,-6,-14,-15,-6,-2,-2,-5,-9
1537907916251391,2,11,2,-6,-1,1,0,2
1537907916251391,-2,-16,-1,2,-1,-1,-4,-9
1537907916252388,-1,18,4,7,-1,0,0,3
1537907916252388,1,2,8,-1,1,-1,0,5
1537907916273333,-4,1,-21,1,-4,0,3,8
1537907916273333,2,-1,-3,1,-1,-1,-3,-8
1537907916275327,2,16,1,0,1,-2,1,8
1537907916275327,-3,-1,-5,-1,0,0,-2,-12
1537907916288292,3,-1,5,10,0,-2,1,21
1537907916288292,-2,5,12,-3,-2,-2,-2,6
1537907916294276,1,-5,-5,8,7,1,-1,-7
1537907916294276,-4,-2,-1,-29,-13,-5,-3,-5
1537907916311231,-4,-4,34,-5,0,0,2,-4
1537907916311231,4,10,-22,3,-1,-1,0,-2
1537907916312229,-1,-15,-15,-4,2,-1,-1,5
1537907916312229,0,0,1,16,2,-1,0,-3
1537907916333172,-2,-4,0,-5,-5,-4,3,21
1537907916333172,-1,2,5,-2,-1,0,-8,-47
1537907916335167,-2,3,3,11,0,1,7,19
1537907916335167,-1,-7,-4,-10,0,1,3,7
1537907916347135,-2,-7,-12,-7,-2,-1,-3,-3
1537907916347135,1,4,10,1,3,1,0,8
1537907916373066,-2,-5,-6,1,-3,-2,-5,-8
1537907916373066,1,13,-5,5,0,-2,-3,-2
1537907916374063,-1,-15,11,6,3,1,2,6
1537907916374063,-1,3,-10,-10,-4,-2,-1,1
1537907916377055,-6,-12,26,7,0,1,-3,-38
1537907916377055,3,6,-40,-4,-2,-1,0,25
1537907916393012,2,7,18,5,2,2,-1,-11
1537907916393012,-1,-2,-2,-11,-2,0,1,7
1537907916395007,0,-7,-9,8,-6,-3,-4,-8
1537907916395007,1,1,22,0,0,0,-2,-9
1537907916406975,-1,2,-7,-1,4,1,-1,-3
1537907916406975,-1,-15,4,-8,-5,-2,1,5
1537907916415951,2,9,-4,8,-3,0,-1,4
1537907916415951,-2,-6,22,-12,-2,-1,1,-9
1537907916430911,2,6,-33,-7,-1,-2,0,2
1537907916430911,-2,-2,13,7,4,0,2,3
1537907916432906,-1,3,0,-3,0,0,-2,1
1537907916432906,-1,-4,-17,2,0,0,-5,-9
1537907916453850,-3,-3,31,6,-1,-4,-3,-8
1537907916453850,0,12,-26,5,2,0,-2,-2
1537907916454847,-1,0,5,-16,-4,-3,0,11
1537907916454847,-3,-3,-3,3,1,0,1,-34
1537907916466815,1,-4,11,-4,-3,-1,-3,15
1537907916466815,1,11,5,15,2,-1,-3,3
1537907916475792,1,-5,-16,-8,-2,-1,-2,-9
1537907916475792,-1,-10,3,6,1,0,4,7
1537907916490752,0,8,-11,-13,-12,-6,-1,-11
1537907916490752,-3,-19,0,-12,-2,-1,2,1
1537907916492746,-1,-5,-4,10,1,-1,0,6
1537907916492746,-1,2,11,4,1,0,1,6
1537907916513690,-2,-15,-19,5,2,2,2,2
1537907916513690,-3,2,4,2,-2,-3,-5,-7
1537907916514687,-1,-1,17,-12,0,1,1,-3
1537907916514687,3,7,-26,5,-3,-4,0,6
1537907916527653,-2,-10,11,4,-3,-1,-1,-5
1537907916527653,2,-2,-23,-6,3,0,0,0
1537907916535631,-1,4,0,13,0,-1,1,4
1537907916535631,-1,-5,11,3,2,0,-2,-3
1537907916550591,0,7,-6,-8,0,0,-4,-25
1537907916550591,-3,-2,12,-3,-2,-2,0,5
1537907916552586,-2,-3,-18,-1,-1,-2,-3,-2
1537907916552586,-2,-5,1,0,1,0,1,13
1537907916573530,-3,4,8,8,2,-1,0,-10
1537907916573530,-1,-2,-19,-5,-2,0,-1,-3
1537907916574528,0,1,3,12,4,-3,-1,0
1537907916574528,-1,-7,-1,-8,-3,-2,-2,-10
1537907916587493,-3,-2,-18,-3,1,2,1,12
1537907916587493,-3,7,15,-3,-1,-1,-5,-19
1537907916596469,2,0,29,0,-1,-1,-1,7
1537907916596469,-2,-10,-41,-10,-2,1,0,4
1537907916611429,1,3,10,1,-2,-2,0,6
1537907916611429,2,2,18,13,0,0,2,11
1537907916612426,-3,-11,-42,-5,0,-2,-3,-10
1537907916612426,0,3,28,-10,-3,-1,0,7
1537907916633370,0,-4,-10,-7,-4,0,0,3
1537907916633370,-1,-2,5,-5,0,1,-2,-7
1537907916635365,-4,3,9,5,0,0,-2,-31
1537907916635365,3,-3,-5,4,1,-1,1,17
1537907916647333,1,17,0,-1,-1,-1,0,3
1537907916647333,1,-1,-3,2,0,0,1,1
1537907916656309,-3,-4,4,-9,-5,-2,0,0
1537907916656309,-1,8,-13,7,2,-1,-8,-22
1537907916671269,-6,9,18,0,4,-1,-1,-5
1537907916671269,-3,-20,-12,-18,-5,-1,0,3
1537907916672266,4,4,24,17,-3,-2,1,14
1537907916672266,2,2,0,-12,2,0,-4,-10
1537907916693210,-2,-12,-1,10,-2,-1,-2,4
1537907916693210,2,4,-19,3,4,1,2,3
1537907916693210,-2,-9,-8,-24,-9,-2,-2,5
1537907916693210,-2,-9,14,10,2,-1,2,3
1537907916715151,-1,-9,-14,-2,0,-1,-2,-4
1537907916715151,0,6,5,-4,0,1,-1,2
1537907916716149,-2,2,-9,-10,-3,0,0,-5
1537907916716149,1,0,7,13,2,-1,2,37
1537907916730111,-1,-1,-10,-3,0,-1,0,4
1537907916730111,-2,-2,21,9,-2,-3,-1,-2
1537907916738090,2,8,-13,-14,2,1,2,-5
1537907916738090,-6,-7,-16,-5,-3,-2,-2,-20
1537907916753050,0,-1,-1,-3,-2,0,-1,-3
1537907916753050,-3,1,-6,0,-2,-2,-2,2
1537907916753050,1,6,12,11,3,1,0,7
1537907916753050,-1,-8,-37,-11,-3,-1,0,0
1537907916774991,-2,-11,-6,-16,-9,-3,-2,-2
1537907916774991,1,0,8,1,-2,0,1,2
1537907916775989,-2,3,6,-5,-1,-2,-2,1
1537907916775989,-7,-19,14,6,2,1,0,-10
1537907916789952,4,9,9,24,5,-2,-6,-13
1537907916789952,1,-4,2,-21,-5,-2,7,24
1537907916790949,1,-4,-18,-12,2,1,2,8
1537907916790949,2,20,23,15,0,-2,-4,-7
1537907916812890,-2,-5,-9,-3,1,0,0,-6
1537907916812890,0,6,1,0,0,1,-2,-7
1537907916813888,-3,-8,-8,1,3,-1,-2,1
1537907916813888,-1,10,2,-5,-4,-1,1,1
1537907916835830,1,-7,-3,-9,-2,-1,3,32
1537907916835830,-3,4,14,11,1,0,-1,-2
1537907916835830,1,5,-26,-4,-2,1,-2,3
1537907916835830,-3,-4,47,12,0,0,1,1
1537907916850791,-3,-3,-40,-14,-3,-3,-2,-10
1537907916850791,-2,-7,-11,-2,0,0,-2,-5
1537907916850791,1,8,17,3,1,-1,-2,2
1537907916850791,-3,-5,9,14,-1,-1,0,-6
1537907916872731,3,4,7,-7,4,1,5,25
1537907916872731,-4,-5,8,9,2,-1,-8,-36
1537907916873730,-5,-8,-18,-1,-9,-3,-2,-2
1537907916873730,2,4,-13,-11,-2,-2,0,3
1537907916895671,-1,1,21,6,3,0,-2,-4
1537907916895671,2,11,-18,-4,0,-3,0,12
1537907916895671,-2,-19,7,5,-1,-1,-1,-4
1537907916895671,0,9,-7,-3,1,-2,0,-2
1537907916910629,-1,-1,-2,-7,-4,-1,0,-2
1537907916910629,0,4,3,3,2,0,0,0
1537907916910629,-6,-10,1,-3,-3,-2,-12,-59
1537907916910629,0,9,-1,0,-1,1,4,25
1537907916932570,-1,-5,-14,-12,-2,0,-3,-11
1537907916932570,0,0,-11,-3,-4,-3,-5,2
1537907916933568,1,5,14,3,1,1,-1,-1
1537907916933568,-2,-20,-11,21,1,0,-2,-8
1537907916955509,-1,12,-2,-34,-4,-2,-2,-4
1537907916955509,-2,-6,1,-6,-4,-3,-1,-5
1537907916956506,2,21,-12,0,-3,-2,4,19
1537907916956506,-5,-34,9,2,-1,-2,-6,-16
1537907916970469,-2,0,-1,18,2,1,2,4
1537907916970469,1,1,-1,-2,2,0,0,3
1537907916971466,-1,9,7,-1,-4,-3,0,5
1537907916971466,1,3,-1,-5,0,-1,2,2
1537907916992410,-3,-3,-5,3,-1,-2,-3,-9
1537907916992410,1,0,14,-1,-2,0,-1,-1
1537907916993408,-2,-6,-20,4,3,1,1,9
1537907916993408,1,11,-5,-2,0,1,0,4
1537907917015350,1,5,9,2,0,-1,2,14
1537907917015350,-2,-13,18,1,-4,-2,-6,-14
1537907917016347,-1,-5,-23,0,-1,-1,1,4
1537907917016347,-1,7,-4,-13,-3,-1,-2,-9
1537907917030310,-1,-3,3,3,1,1,-2,1
1537907917030310,2,-12,14,10,-3,-2,1,2
1537907917031308,2,8,19,9,5,0,-2,2
1537907917031308,0,16,-24,-22,-6,1,-2,3
1537907917053250,-1,-4,5,-3,-5,-2,-2,-5
1537907917053250,-2,-1,-20,-5,-2,-1,5,13
1537907917053250,-6,-20,21,-4,-1,-1,-4,-12
1537907917053250,3,11,10,3,1,1,1,6
1537907917075190,0,1,5,11,2,2,-3,-5
1537907917075190,-2,-14,-18,-8,1,1,-1,-8
1537907917076188,2,20,6,6,1,0,2,10
1537907917076188,-1,4,13,-2,-6,-2,0,-5
1537907917090150,-2,-8,-12,12,-1,-2,-4,-39
1537907917090150,4,-3,-29,-16,-1,0,2,27
1537907917098129,-2,-8,1,5,1,0,1,3
1537907917098129,-1,2,12,-7,2,-2,-1,0
1537907917113088,-1,-3,-14,-7,-2,-3,0,-7
1537907917113088,-1,11,16,23,0,-2,0,-4
1537907917113088,-1,-6,-6,-2,0,0,1,3
1537907917113088,1,-4,4,-2,-2,-2,-1,-6
1537907917135030,0,1,42,10,0,-1,-3,9
1537907917135030,-3,8,-46,-2,1,-1,-1,-3
1537907917136027,1,-2,-23,-15,-3,-2,1,7
1537907917136027,-4,-17,12,4,3,0,-2,-9
1537907917149989,3,5,0,4,3,1,2,23
1537907917149989,-6,-4,21,-5,-6,-1,-7,-25
1537907917150986,-1,22,-6,-3,-2,-1,-1,-8
1537907917150986,3,-11,-14,0,-4,-1,3,5
1537907917172928,0,-15,-3,-3,-3,-1,2,2
1537907917172928,-4,-5,7,-1,-2,-1,-1,-14
1537907917173925,6,4,-8,12,3,1,1,37
1537907917173925,-5,-3,-10,-10,-2,-1,-5,-5
1537907917195866,0,0,5,5,-3,-1,-1,-3
1537907917195866,2,-5,-2,8,0,-2,0,0
1537907917196864,-3,-17,2,-4,0,-1,-2,-13
1537907917196864,2,7,-26,-11,-2,0,1,5
1537907917209829,-3,-2,5,-15,-5,-1,0,1
1537907917209829,0,4,6,1,2,0,-1,2
1537907917210827,-1,-7,16,9,-2,-3,-1,-5
1537907917210827,0,1,0,3,1,-1,-1,0
1537907917232768,-1,-5,-12,-2,0,-1,0,-7
1537907917232768,4,6,4,4,0,-3,0,2
1537907917233766,1,1,7,-5,1,1,-2,-2
1537907917233766,-4,-11,-9,-2,-2,-4,-1,-4
1537907917255709,-3,14,6,10,1,-3,-1,-7
1537907917255709,2,-1,5,-12,-2,-2,4,24
1537907917256705,-4,-6,-9,-5,-2,0,-1,-28
1537907917256705,6,15,21,4,-1,-1,2,46
1537907917270669,1,-4,-26,-8,1,2,1,-15
1537907917270669,-5,-1,2,-7,-7,-2,-2,-4
1537907917270669,-1,-9,-11,-3,-1,0,0,-6
1537907917270669,-1,3,-2,11,1,1,-2,-9
1537907917292610,2,2,-7,5,1,-1,-1,1
1537907917292610,-1,-15,13,-1,5,1,0,6
1537907917293607,-1,4,-13,-15,-8,-4,-1,-3
1537907917293607,-3,-10,7,14,2,1,-1,-5
1537907917315547,0,2,1,-11,-7,-2,-2,8
1537907917315547,-2,-12,-7,4,3,1,-1,-11
1537907917316545,-4,15,14,-8,-2,1,0,8
1537907917316545,1,-18,-10,-1,1,-1,-2,-8
1537907917330506,-3,1,11,1,-1,-1,1,1
1537907917330506,-2,2,-7,3,0,-1,-3,-8
1537907917331504,1,10,-2,5,2,-1,-2,0
1537907917331504,-4,-7,4,-2,-2,-1,-1,-22
1537907917361424,3,3,13,-4,0,1,0,27
1537907917361424,-2,-10,-16,-3,-1,-1,1,5
1537907917361424,2,14,-20,-5,1,2,1,1
1537907917361424,-1,8,12,10,-1,-1,-12,-39
1537907917375386,-2,-6,-3,8,4,-1,4,7
1537907917375386,-1,0,-7,-17,-8,-2,-1,0
1537907917376384,3,-5,-17,3,-2,-2,1,4
1537907917376384,-1,3,10,-4,1,0,-1,2
1537907917389349,-1,-5,-25,-6,-4,-1,-4,-9
1537907917389349,0,10,25,13,3,2,0,1
1537907917398325,-2,-6,17,-2,1,-1,2,0
1537907917398325,1,-3,-9,-16,-4,-1,1,7
1537907917413286,-2,-2,-16,-6,1,0,-2,-6
1537907917413286,1,2,5,3,-1,0,2,-1
1537907917413286,2,3,6,5,-1,1,0,13
1537907917413286,-1,11,-9,10,6,1,4,-13
1537907917443206,-4,-10,27,-7,-2,-2,-2,0
1537907917443206,-1,13,-26,3,-8,-5,-5,-11
1537907917444204,-1,-5,15,5,0,0,0,14
1537907917444204,2,5,-8,-10,-3,-1,1,14
1537907917449190,1,-1,-5,4,1,1,0,-7
1537907917449190,2,16,18,10,2,0,0,3
1537907917458167,-4,-22,-25,-10,-3,-1,-2,-8
1537907917458167,-3,-2,-5,-7,-2,0,-4,-14
1537907917473125,1,-6,-10,5,1,0,8,23
1537907917473125,0,-4,10,-8,-1,0,-1,-3
1537907917473125,1,-6,23,-1,-3,-3,-2,-5
1537907917473125,-2,-4,-7,7,0,1,-2,-2
1537907917496065,0,4,0,-6,-2,-2,-6,-14
1537907917496065,-1,1,3,7,0,1,0,5
1537907917497062,0,-2,-2,3,-2,-1,-1,-1
1537907917497062,1,-5,-4,-11,-3,0,0,11
1537907917510027,-1,10,3,-1,-5,-1,0,-23
1537907917510027,5,1,-11,-10,2,0,-1,26
1537907917518005,-6,-11,3,0,-3,-1,-5,-10
1537907917518005,-1,2,5,5,-1,-2,2,4
1537907917532966,-3,6,-9,-2,0,-1,-4,-15
1537907917532966,0,4,4,1,2,1,1,15
1537907917533963,1,-11,-23,-12,-1,1,-3,-26
1537907917533963,0,28,28,0,-3,-1,-1,12
1537907917555904,1,-8,0,-4,-3,-1,0,3
1537907917555904,-4,7,-17,3,2,-1,1,-4
1537907917556902,0,1,13,4,0,-1,1,9
1537907917556902,-3,-8,-6,-6,-1,-1,1,-1
1537907917569867,1,3,1,0,-1,0,-2,0
1537907917569867,0,-4,1,10,-1,0,-1,-9
1537907917577845,-3,-3,7,-20,-9,-4,-2,-1
1537907917577845,-2,-7,-28,-10,-1,0,-2,-5
1537907917592806,0,3,6,8,-1,-1,-5,-14
1537907917592806,1,-3,10,2,3,2,8,21
1537907917593804,-2,-3,9,14,4,1,0,3
1537907917593804,-2,4,-21,-9,-4,0,-1,-21
1537907917616742,-3,-20,13,1,2,-1,-4,4
1537907917616742,-3,0,-9,-7,-3,-2,-1,-13
1537907917616742,1,6,14,6,1,-1,-2,-1
1537907917616742,-2,-2,3,2,2,-1,2,2
1537907917629707,5,25,-5,3,1,0,0,1
1537907917629707,-3,-7,4,-2,-1,-3,-4,-13
1537907917637686,-1,2,-7,-1,-1,0,2,4
1537907917637686,1,-5,10,1,-2,-1,1,8
1537907917652647,-9,-13,12,-1,-4,-3,-5,-16
1537907917652647,1,0,-24,-15,-1,0,-3,-2
1537907917653643,-1,4,16,13,-2,-3,-1,-7
1537907917653643,1,-3,-15,1,-2,-1,0,10
1537907917675584,1,-1,6,1,0,-1,2,9
1537907917675584,-3,-13,-12,-1,0,-1,-2,-13
1537907917676581,-3,6,3,-10,-5,-2,-2,3
1537907917676581,2,-1,-3,0,0,0,0,1
1537907917689546,-2,-4,10,0,0,-2,0,-1
1537907917689546,1,-4,-10,-3,0,0,2,28
1537907917697525,0,-8,-21,-3,1,1,-2,-2
1537907917697525,-3,5,30,4,-1,-2,-3,-5
1537907917712485,-1,-12,14,-1,0,1,1,4
1537907917712485,0,2,-8,1,0,-1,-3,-17
1537907917713483,2,-4,-47,-4,2,0,-1,2
1537907917713483,0,0,14,-13,-6,-2,-6,-14
1537907917736421,0,-1,3,8,0,-1,9,21
1537907917736421,0,1,-19,-3,-1,-2,-1,-4
1537907917736421,-1,-15,29,3,0,-3,1,0
1537907917736421,-1,-4,-11,2,1,-1,-3,-8
1537907917758363,3,8,-7,-1,-1,-1,-2,-1
1537907917758363,0,2,26,5,-1,0,-4,-6
1537907917759360,0,4,-26,-9,-4,0,0,1
1537907917759360,-2,9,9,-12,-4,-1,1,10
1537907917772325,-2,-1,-9,-9,1,0,-2,-1
1537907917772325,0,5,8,11,-5,-2,-1,-2
1537907917773323,-1,-13,0,-2,-1,-2,-2,-6
1537907917773323,-1,-2,12,11,0,-1,1,-4
1537907917796261,2,3,-19,11,1,0,0,32
1537907917796261,-2,-3,14,-26,-3,-1,-4,-14
1537907917796261,1,3,-16,-6,-1,1,3,0
1537907917796261,-3,-9,-34,-2,-3,-2,0,7
1537907917818203,-2,-4,14,-5,0,1,-2,-11
1537907917818203,2,6,4,8,-2,-2,-2,2
1537907917819200,2,10,-3,-6,2,1,-2,0
1537907917819200,-3,1,14,16,4,-1,0,-3
1537907917833163,0,-1,-35,-8,-4,-2,-4,-9
1537907917833163,-1,2,40,15,0,0,0,-2
1537907917833163,0,-1,-8,-27,-2,-2,-1,-3
1537907917833163,2,-2,-11,3,-2,0,1,1
1537907917856101,-1,8,12,-5,0,-1,-4,-7
1537907917856101,-3,-9,-12,7,-1,-2,-1,-2
1537907917857099,1,2,31,10,3,2,2,13
1537907917857099,-3,-8,-26,-1,2,1,-7,-24
1537907917878043,1,1,-9,-6,-4,-2,11,35
1537907917878043,-3,-13,1,1,-2,-2,-1,-7
1537907917879040,-2,2,8,8,1,0,0,2
1537907917879040,-1,1,3,-9,-2,-2,1,8
1537907917893003,-4,-4,-13,0,-1,-3,-5,-31
1537907917893003,1,4,-8,-4,-2,0,1,11
1537907917894001,-4,0,4,7,0,-2,-3,-10
1537907917894001,-1,-13,14,7,-1,-1,0,10
1537907917915941,0,19,-5,-6,0,2,-3,-15
1537907917915941,-1,-4,-35,-13,1,0,1,-1
1537907917916940,-1,-7,4,8,-5,-4,-3,-4
1537907917916940,0,0,-8,2,1,0,1,-2
1537907917938880,0,-16,17,15,2,-2,-3,-2
1537907917938880,-1,4,-3,-22,-2,0,0,-2
1537907917938880,2,9,47,3,0,0,-2,0
1537907917938880,3,14,-31,8,1,0,0,6
1537907917952843,-1,-11,-6,-17,-3,-2,-1,1
1537907917952843,-2,-8,-2,-1,-1,-1,-1,-1
1537907917953840,-2,6,-10,-1,-1,-1,-1,-7
1537907917953840,-1,-11,30,-6,-2,0,2,5
1537907917975782,0,9,1,6,-2,1,0,-3
1537907917975782,-4,-8,-3,10,4,0,-2,-9
1537907917976779,1,-3,3,-7,-7,-2,1,1
1537907917976779,2,4,-14,-10,0,0,0,2
1537907917998720,-1,-10,9,-2,-2,-3,-2,-2
1537907917998720,-2,5,-14,1,1,0,-1,1
1537907917998720,-1,-1,0,5,1,0,-1,2
1537907917998720,0,-7,-23,-5,-2,-1,-1,1
1537907918012683,-1,-1,-9,5,0,-1,-1,-3
1537907918012683,1,11,38,-5,-4,-1,0,3
1537907918013680,-1,-7,-21,-9,0,-1,-4,-6
1537907918013680,-4,-2,37,11,3,1,-1,-4
1537907918035621,0,-1,-31,-1,-5,-3,-3,6
1537907918035621,-2,4,0,3,0,-2,1,2
1537907918036619,-2,-5,-5,-3,-1,1,1,0
1537907918036619,1,7,9,-2,0,-3,2,8
1537907918058560,3,6,0,8,0,1,-3,-9
1537907918058560,-4,-12,5,5,1,-1,-1,-8
1537907918059558,-1,-8,7,-10,0,-1,1,2
1537907918059558,1,24,-40,-2,-1,-3,-4,-12
1537907918072523,-3,-12,10,0,3,0,2,1
1537907918072523,1,-4,-15,-5,-5,0,-1,-3
1537907918073520,-1,3,15,8,2,0,-1,-1
1537907918073520,-2,-6,14,-4,0,1,-1,3
1537907918095462,-5,-16,-12,-4,1,1,0,-1
1537907918095462,2,22,10,5,-3,-4,0,2
1537907918096459,-4,-11,-17,6,1,0,-1,-4
1537907918096459,-1,-5,17,0,-5,0,-1,0
1537907918119398,0,4,-5,-10,-2,0,1,4
1537907918119398,-1,-7,11,3,1,-1,-3,-10
1537907918119398,1,-1,-10,1,0,-1,0,0
1537907918119398,0,4,-13,2,2,-1,0,1
1537907918132363,-1,-4,15,-9,-4,-1,-1,-5
1537907918132363,0,-4,-17,-6,0,-1,1,7
1537907918133361,-2,3,-2,0,-3,-2,-4,-9
1537907918133361,-3,-4,39,3,0,0,0,3
1537907918156299,1,7,-40,-7,0,-3,0,-3
1537907918156299,2,-4,12,-2,-1,1,0,2
1537907918156299,-1,10,-30,2,0,-1,1,3
1537907918156299,-4,-25,20,-2,0,-2,-3,-3
1537907918178241,-1,5,21,7,-1,0,-1,-1
1537907918178241,0,-2,-39,3,0,-1,-3,-2
1537907918179239,-2,0,11,-7,0,0,-2,1
1537907918179239,1,6,2,2,-4,-2,0,3
1537907918193201,1,7,15,3,2,0,1,-14
1537907918193201,1,-4,-2,-9,-2,0,2,36
1537907918194198,1,-4,-9,-5,-1,-1,0,4
1537907918194198,-3,-7,-9,-2,-2,-3,-2,-5
1537907918216139,-2,2,7,1,1,0,-1,3
1537907918216139,-1,-2,-1,13,3,0,0,-15
1537907918217137,-1,0,6,2,-3,-1,-1,-3
1537907918217137,1,8,-22,-12,-2,0,0,6
1537907918238081,-3,-23,1,5,-1,-1,-1,0
1537907918238081,-1,-7,-16,-9,-1,-1,-3,-8
1537907918239078,-1,-6,3,5,1,-2,-1,5
1537907918239078,2,23,-2,1,1,-1,0,-6
1537907918252044,2,-5,14,-8,-2,0,2,16
1537907918252044,-5,0,-12,0,-3,-1,2,-1
1537907918261022,-3,-26,-7,-7,-3,-1,-2,-7
1537907918261022,-1,2,6,-2,-2,-2,1,2
1537907918275981,-2,2,-19,4,3,0,-4,-2
1537907918275981,1,8,28,5,-2,-2,-2,-3
1537907918277975,-1,-1,-16,-6,-5,-1,-1,2
1537907918277975,0,-6,-4,-2,0,0,-4,-7
1537907918298919,-4,2,-13,-1,0,0,-2,-1
1537907918298919,0,5,33,8,1,-1,-1,-5
1537907918299916,0,5,-12,-10,0,0,-1,-3
1537907918299916,-2,-11,6,0,-2,-1,-1,-1
1537907918311884,0,6,-30,-1,-2,-1,-1,-1
1537907918311884,-2,-1,19,3,0,0,-1,-4
1537907918320860,0,2,6,2,4,1,-1,-1
1537907918320860,1,-7,-12,0,-2,-2,-1,2
1537907918335819,0,10,28,13,-1,-2,0,1
1537907918335819,-3,-23,-25,-16,-4,-1,-2,-6
1537907918337815,0,4,8,7,1,-1,-3,0
1537907918337815,-3,-3,0,0,-2,1,0,-2
1537907918358758,-3,0,-9,-7,-4,-4,-3,-4
1537907918358758,3,7,4,1,-1,-2,-1,-4
1537907918359755,-2,3,5,1,-1,0,2,0
1537907918359755,-2,-24,3,-2,1,0,-2,1
1537907918371723,-1,12,2,5,0,0,-1,-2
1537907918371723,-1,-11,-5,-5,-2,0,-2,0
1537907918380699,-1,6,7,3,0,0,0,-1
1537907918380699,-1,7,-23,5,1,-1,-1,-1
1537907918395659,-1,-6,10,-7,0,-2,-2,-1
1537907918395659,-1,5,-3,-9,-3,-1,-3,-2
1537907918397654,0,0,11,7,0,-1,-2,-2
1537907918397654,-2,-3,-10,-10,-3,0,1,-3
1537907918418598,-2,-5,-3,-4,-1,0,0,-1
1537907918418598,-4,2,3,-2,0,1,1,-2
1537907918419595,3,4,6,5,-1,1,1,0
1537907918419595,0,1,-8,0,0,-2,-1,-1
1537907918432560,1,0,-9,-2,-3,-2,0,0
1537907918432560,-1,0,-4,-2,-1,0,-1,-1
1537907918440539,-1,-13,2,-3,1,0,2,1
1537907918440539,-2,6,7,11,3,0,0,0
1537907918455499,0,-2,-4,-22,-7,-1,-3,-1
1537907918455499,-1,-5,-7,1,-1,-1,-1,-1
1537907918457494,0,5,0,-7,1,-3,0,0
1537907918457494,0,1,0,8,-2,-3,-1,-1
1537907918478438,-2,-5,26,4,1,0,0,-1
1537907918478438,2,7,-30,-1,0,1,0,0
1537907918479436,-1,-14,7,7,-1,-2,-2,2
1537907918479436,-1,-4,-12,-5,0,0,0,1
1537907918492401,-2,-3,9,-8,-1,-1,-2,0
1537907918492401,-2,-5,1,-1,-2,-2,-2,-3
1537907918501377,0,13,-3,1,-1,0,0,0
1537907918501377,-1,-19,-6,-3,-1,-1,-1,-1
1537907918516337,1,0,3,6,2,0,-1,-2
1537907918516337,0,0,-9,-8,0,0,-1,0
1537907918517334,-1,-2,-6,2,-2,-2,-1,-1
1537907918517334,0,3,7,-3,-5,-1,-1,-2
1537907918538278,2,8,-3,0,-1,1,2,0
1537907918538278,-3,-3,6,2,-1,-2,-1,-1
1537907918540273,0,4,-5,0,1,-1,-1,2
1537907918540273,-1,4,12,-2,-1,0,-1,-1
1537907918552241,-1,-4,-19,-2,1,0,-1,-1
1537907918552241,0,-3,4,5,-1,0,1,-2
1537907918561217,-1,-1,-8,-5,-2,-2,-3,-1
1537907918561217,1,1,9,-2,1,-1,0,-1
1537907918576177,1,-2,7,4,-2,0,-1,0
1537907918576177,-1,0,-9,21,5,-1,-1,0
1537907918577174,-1,-2,8,-22,-5,2,1,0
1537907918577174,1,10,-12,-3,-6,-3,-1,-2
1537907918598118,-1,-4,-2,4,2,-1,0,-1
1537907918598118,-1,0,1,-14,0,0,0,-1
1537907918600113,3,5,17,16,-1,0,-1,0
1537907918600113,-1,1,-4,-2,3,0,-1,0
1537907918612080,-2,-14,-3,-2,-2,-2,0,-1
1537907918612080,0,3,45,7,3,1,0,1
1537907918621057,-1,-3,-65,-6,1,0,0,-1
1537907918621057,-2,-5,9,-6,-3,1,1,1
1537907918637014,-1,2,-23,5,1,-1,0,-1
1537907918637014,-2,5,26,-1,0,0,0,0
1537907918639008,-1,-7,6,0,-2,-1,-2,-3
1537907918639008,0,0,0,-1,-2,-1,0,0
1537907918657958,1,4,-4,-1,0,0,0,1
1537907918657958,-1,-1,-9,-3,-5,-2,-2,-1
1537907918659953,-1,13,31,1,-1,0,-2,-1
1537907918659953,-2,-8,-38,-5,-1,-2,0,-3
1537907918679899,-3,3,13,17,4,1,-2,-1
1537907918679899,0,-3,-7,-11,-7,-2,-1,-1
1537907918688875,0,-6,3,3,-2,-2,0,-1
1537907918688875,-1,-2,10,-9,2,0,-2,0
1537907918695857,0,0,-4,-5,0,0,-1,0
1537907918695857,-1,2,-1,4,-1,-2,-2,-2
1537907918697851,-4,-1,2,-6,-7,-2,-2,-2
1537907918697851,-1,-3,-20,-5,-4,-1,-1,-2
1537907918718795,-4,-36,-6,0,-1,-1,0,0
1537907918718795,1,26,-2,0,1,1,1,1
1537907918719793,0,-2,0,-1,1,0,-1,-1
1537907918719793,0,3,8,8,0,-1,-2,-1
1537907918740737,0,2,-1,-4,-2,0,-1,-1
1537907918740737,-2,-25,-13,-4,-3,-1,0,-1
1537907918746720,-1,-2,0,-3,0,-1,0,0
1537907918746720,-2,8,6,9,0,-2,-1,-2
1537907918755697,1,5,-1,-4,-3,-1,0,-1
1537907918755697,1,-2,-6,-3,-1,-1,-1,-2
1537907918757692,0,6,-7,5,3,3,-1,-2
1537907918757692,-1,-5,9,3,3,0,1,2
1537907918778635,-1,5,12,-17,-13,-7,-4,-4
1537907918778635,0,1,-28,6,-1,0,0,0
1537907918779633,-2,0,0,-1,-1,-1,1,-2
1537907918779633,-1,-4,3,4,1,0,-1,-1
1537907918800577,-2,0,17,0,-1,-1,1,0
1537907918800577,-2,-6,-26,-6,-2,-2,-2,-1
1537907918802572,-1,0,4,2,1,-1,-1,0
1537907918802572,1,3,11,-3,1,1,0,1
1537907918815537,0,4,1,4,3,1,0,1
1537907918815537,-1,3,33,0,-3,-1,-2,-2
1537907918822518,0,-16,-37,-12,-5,0,0,0
1537907918822518,-2,3,-42,-6,-6,-4,-1,-1
1537907918838476,2,17,3,-5,-9,-3,-3,0
1537907918838476,-4,-32,34,-2,3,2,0,0
1537907918839473,4,29,-20,0,2,0,-1,2
1537907918839473,-1,-8,20,10,-1,0,0,1
1537907918861415,-3,-21,-16,-15,5,-2,-2,-3
1537907918861415,1,28,17,18,10,3,-2,-2
1537907918862413,-2,-13,-7,16,9,-2,-1,-2
1537907918862413,-3,6,20,0,-14,-8,-5,-5
1537907918874381,-2,-5,-41,-29,-15,-2,-2,-2
1537907918874381,-1,-7,-10,86,42,16,-2,-1
1537907918883357,1,-9,13,-54,-21,-12,-5,-1
1537907918883357,5,24,14,27,25,12,2,2
1537907918898316,-11,-18,-4,20,-14,-13,-4,-8
1537907918898316,1,1,-6,-31,-19,-9,-2,-2
1537907918900311,-1,0,-19,26,17,5,-1,1
1537907918900311,-2,0,34,56,25,7,-1,0
1537907918921255,-3,-11,34,-32,-11,-7,-4,0
1537907918921255,-5,-7,-22,-93,-27,-2,-1,-4
1537907918922252,-1,-5,-2,51,-34,-20,-8,-4
1537907918922252,6,5,11,-8,-8,2,-6,-2
1537907918936215,6,8,15,127,93,23,14,10
1537907918936215,-2,-10,-18,-118,-108,-36,-11,-4
1537907918943196,-1,-4,41,-17,1,12,5,2
1537907918943196,-4,-13,-51,-2,19,5,-1,-2
1537907918959153,-11,-33,75,46,-27,-5,-4,-8
1537907918959153,16,88,-58,-10,45,13,9,11
1537907918964140,-2,19,-11,98,36,4,1,0
1537907918964140,-1,-8,27,-99,-30,-13,-1,0
1537907918981095,-6,25,-61,-104,-39,-6,-4,-4
1537907918981095,1,-12,44,124,27,8,1,4
1537907918982093,0,12,-42,-81,-37,-15,-5,-1
1537907918982093,-7,-33,1,-75,-29,-14,-5,-4
1537907918995057,5,14,59,71,38,13,1,2
1537907918995057,-5,-64,-40,-60,-61,-22,-8,-4
1537907919003036,10,-10,-43,115,72,28,10,8
1537907919003036,3,35,13,-44,-52,-16,-5,-1
1537907919018993,3,-27,8,-9,57,23,6,3
1537907919018993,-7,-28,54,94,18,-1,1,1
1537907919019991,-11,-62,9,-89,-53,-16,-3,-6
1537907919019991,2,-9,-75,81,43,16,6,4
1537907919040935,4,38,-39,-68,-33,-9,-5,-3
1537907919040935,-1,16,8,36,27,7,4,0
1537907919041932,-6,3,-18,-16,11,2,1,-3
1537907919041932,-2,-33,18,-12,37,10,4,1
1537907919054897,-3,13,-4,-12,-35,-11,-3,-1
1537907919054897,-6,-48,-75,24,18,-1,4,0
1537907919069857,-3,9,39,-115,-92,-22,-9,-4
1537907919069857,-1,1,-24,25,20,9,4,0
1537907919078833,-1,-21,-10,-5,-6,-4,-2,1
1537907919078833,1,49,22,-45,-9,-2,-4,-5
1537907919079832,4,13,33,29,25,12,5,0
1537907919079832,-9,-28,-39,-57,-38,-16,-6,-5
1537907919100775,5,23,70,40,-4,-2,-2,-1
1537907919100775,-3,-6,-79,-10,10,4,1,0
1537907919106759,-3,-5,6,5,14,1,1,0
1537907919106759,4,20,36,27,12,6,1,-1
1537907919114738,1,-9,-11,-36,-1,-3,0,2
1537907919114738,-1,11,18,1,-9,-3,-5,-4
1537907919123715,3,12,24,12,10,1,-1,-1
1537907919123715,-1,-2,-5,9,-6,-4,-2,-1
1537907919138674,0,-12,-32,-14,-1,1,1,0
1537907919138674,2,7,36,4,4,3,0,-1
1537907919139671,-3,-1,-23,-6,8,1,0,-2
1537907919139671,-4,5,20,13,-8,-2,-2,-5
1537907919160616,1,11,-26,-1,1,0,0,-1
1537907919160616,1,-3,14,-19,-1,1,1,-1
1537907919162610,0,-1,21,13,10,2,1,2
1537907919162610,2,1,-4,12,-1,0,0,1
1537907919174578,9,3,-12,-10,-4,-3,1,3
1537907919174578,-14,-4,8,-10,-2,0,0,-1
1537907919183554,-1,-10,0,-1,3,2,-2,-3
1537907919183554,-1,5,9,14,-1,-2,0,-2
1537907919198513,-1,-2,-23,-10,-6,-1,-2,-8
1537907919198513,6,-20,19,-5,5,2,1,0
1537907919199510,-10,-23,-2,13,4,-2,-1,-2
1537907919199510,-2,-25,-4,-8,-8,-1,-1,-1
1537907919220454,-39,-22,-1,-2,1,0,0,-2
1537907919220454,57,1,-1,-12,20,7,1,5
1537907919222449,6,10,8,22,-12,-6,-1,1
1537907919222449,-10,21,2,-1,-19,-6,-1,0
1537907919234417,-3,11,-10,-9,-2,-2,-1,-1
1537907919234417,-8,28,12,1,7,1,0,-1
1537907919243393,-3,14,-3,-14,5,1,1,-2
1537907919243393,-13,11,25,-6,-5,-5,-1,-3
1537907919258353,-14,-6,-54,-11,-7,-1,-2,-6
1537907919258353,-7,-6,6,-3,-6,-2,-2,-2
1537907919260348,15,10,3,-2,3,2,1,5
1537907919260348,8,2,13,12,2,0,0,1
1537907919281292,-3,1,10,-6,-1,-1,0,3
1537907919281292,5,-4,-5,3,-3,-1,-1,0
1537907919282290,-3,0,0,-7,-1,-3,-2,1
1537907919282290,2,4,-7,2,7,2,1,3
1537907919303233,6,3,-1,-2,-4,0,2,1
1537907919303233,-16,-2,-1,7,-2,-3,-2,-3
1537907919305229,-2,1,7,0,-1,0,0,-4
1537907919305229,1,-1,-9,-1,-1,-2,-4,-3
1537907919318194,16,6,2,3,4,0,-2,1
1537907919318194,-12,1,4,-9,-2,0,1,1
1537907919320189,-2,-5,-2,-4,7,3,0,1
1537907919320189,2,1,-5,1,-7,-3,-1,-1
1537907919341133,3,-3,5,3,-3,-2,-2,-1
1537907919341133,-7,-2,-1,-12,-4,-2,-1,-2
1537907919342130,-2,0,-4,4,6,0,-2,-2
1537907919342130,13,1,3,6,1,1,3,3
1537907919355095,8,-1,-3,-3,-1,-2,0,4
1537907919355095,-2,-5,-3,-2,-7,-3,-2,-1
1537907919363074,-11,-6,-7,-9,-2,-1,-2,-6
1537907919363074,-9,4,5,7,4,0,-3,-7
1537907919378034,3,-1,3,-7,-3,-4,-2,-1
1537907919378034,8,2,3,11,4,2,1,3
1537907919385015,1,0,-4,-4,-3,0,0,2
1537907919385015,6,-1,-2,4,2,0,0,3
1537907919400972,2,4,0,-2,-5,-1,0,0
1537907919400972,-8,-5,-2,0,-5,-3,-2,-6
1537907919401969,-1,5,0,-4,2,3,-1,-2
1537907919401969,-5,-3,0,12,8,6,2,-1
1537907919414934,3,1,-4,-18,-15,-8,-3,2
1537907919414934,1,3,3,2,0,-1,1,3
1537907919423911,-11,-5,-9,-4,-8,-3,-7,-8
1537907919423911,-1,-4,-8,-3,7,2,-1,0
1537907919437873,6,5,4,14,9,5,0,-1
1537907919437873,-5,-3,0,-2,-7,-3,-1,3
1537907919444854,5,-2,1,-6,-2,0,1,4
1537907919444854,0,-2,-6,-4,0,-2,0,0
1537907919460812,2,1,7,7,3,-1,-2,-4
1537907919460812,-18,2,4,-1,-3,-2,-4,-9
1537907919462806,1,-2,2,8,1,-2,0,4
1537907919462806,6,-1,15,-4,-6,-2,-1,1
1537907919474774,1,-2,-32,-2,-1,1,1,1
1537907919474774,11,7,15,4,4,1,0,-3
1537907919483750,-12,-2,-4,-3,8,3,1,-4
1537907919483750,3,1,-19,-7,-17,-8,-1,4
1537907919497713,1,-1,4,5,0,-2,0,1
1537907919497713,-9,-5,-13,4,9,4,0,-1
1537907919504694,8,1,-1,-5,-14,-6,0,2
1537907919504694,-6,-3,7,-19,1,-1,-4,-4
1537907919520652,0,-1,2,4,-2,0,-1,0
1537907919520652,-2,-4,2,-13,-6,-1,-1,1
1537907919522646,2,-2,11,8,2,1,-1,-1
1537907919522646,5,-1,-14,-7,3,-1,1,1
1537907919534614,-9,-4,3,-4,-2,-2,1,-4
1537907919534614,0,-4,3,4,0,-3,-2,2
1537907919543591,-3,1,-1,-4,0,-2,-1,-3
1537907919543591,1,4,14,0,-5,-1,-1,0
1537907919557553,-9,-2,-6,3,4,2,-1,-8
1537907919557553,-1,-3,-7,3,-2,-2,2,0
1537907919564534,4,-1,-2,-4,1,0,0,3
1537907919564534,0,0,-10,4,-1,-1,0,2
1537907919581489,-1,-1,23,-1,3,1,-1,2
1537907919581489,2,0,-8,2,-3,-3,-5,-4
1537907919582487,-3,1,-13,-4,-6,-2,-1,4
1537907919582487,2,-3,2,8,4,2,-2,-3
1537907919603431,-1,2,8,-5,3,1,-1,0
1537907919603431,0,-1,-2,3,-1,-3,-3,-2
1537907919604428,-1,-2,5,8,-9,-4,-3,-1
1537907919604428,-5,-4,-12,1,1,-1,0,-3
1537907919617393,2,-5,-30,-11,1,2,1,2
1537907919617393,1,2,1,2,1,2,2,2
1537907919624375,1,0,8,-2,-2,-2,-1,0
1537907919624375,-7,-1,4,-1,-2,-1,-1,-2
1537907919641329,-1,-3,-1,0,-4,-2,-4,-1
1537907919641329,0,-1,-9,-7,1,0,1,4
1537907919642326,3,-3,26,-2,3,1,-2,0
1537907919642326,-10,0,-29,3,1,-1,-3,-6
1537907919663270,5,13,49,-4,-4,-1,1,1
1537907919663270,3,1,-4,9,-1,-2,-1,-1
1537907919665265,0,-11,3,9,14,4,2,1
1537907919665265,-12,-21,-50,-77,-37,-10,-5,-6
1537907919678231,2,3,9,25,6,-2,-1,1
1537907919678231,5,62,27,31,2,0,-1,1
1537907919684215,-3,-58,-47,-11,-13,-5,-1,-1
1537907919684215,4,5,15,-20,-5,-1,0,0
1537907919701169,-6,-20,-20,38,30,4,-1,-2
1537907919701169,-1,-15,16,-108,-47,-17,-8,-5
1537907919702167,3,41,45,56,6,0,1,2
1537907919702167,0,-20,-91,48,8,3,2,3
1537907919723111,-6,-14,-16,59,-23,-9,-7,-7
1537907919723111,-2,-14,-20,-18,12,6,2,3
1537907919725106,-7,3,-6,-101,-87,-27,-10,-10
1537907919725106,-3,-21,90,31,54,15,1,-2
1537907919737073,2,18,21,36,-21,-10,-1,-3
1537907919737073,-8,-22,-42,52,-13,-6,0,-3
1537907919746050,5,30,-56,-105,30,17,5,5
1537907919746050,18,8,60,118,22,3,2,8
1537907919763004,-3,-2,30,-128,-71,-18,-6,-6
1537907919763004,-1,-3,-43,-20,16,10,3,3
1537907919767990,-2,10,-12,-7,9,1,0,-2
1537907919767990,-8,5,100,5,-34,-15,-5,-6
1537907919768988,1,-2,-63,-52,-4,3,1,2
1537907919768988,2,11,89,55,24,4,2,1
1537907919778962,1,-44,-67,79,12,0,0,1
1537907919778962,-4,40,85,-19,-2,-3,-4,-3
1537907919789932,7,12,-11,47,34,6,2,4
1537907919789932,-5,1,-16,-35,-29,-10,-5,-5
1537907919798908,0,-8,20,59,36,12,4,2
1537907919798908,-12,-9,-28,-28,6,1,-3,-8
1537907919812871,-6,-19,26,25,41,10,2,-2
1537907919812871,4,8,5,-36,-6,1,1,4
1537907919819852,2,18,2,5,-2,0,1,2
1537907919819852,3,-3,-66,-19,-16,-5,-3,-1
1537907919826833,12,19,42,-81,-1,-2,-2,0
1537907919826833,-6,-13,-65,27,2,3,-2,-3
1537907919835809,0,16,88,7,-2,-6,-2,-2
1537907919835809,-3,-6,-78,-16,5,2,0,3
1537907919857751,-1,-20,-47,16,6,3,2,4
1537907919857751,-4,-12,46,19,8,-4,-2,-3
1537907919865729,-8,-2,6,-48,-56,-16,-8,-8
1537907919865729,4,18,-7,-5,9,2,2,2
1537907919872711,-1,2,16,25,5,0,0,1
1537907919872711,-3,-14,12,-27,-9,-2,-1,-1
1537907919879692,-2,5,-14,14,20,5,0,2
1537907919879692,-1,-20,-12,-31,-48,-17,-4,-3
1537907919895649,-10,12,-46,-9,-7,-3,-3,-6
1537907919895649,0,0,23,17,12,3,0,0
1537907919897644,3,1,-18,22,13,2,-1,1
1537907919897644,1,-8,14,26,21,8,3,4
1537907919909612,-4,-3,24,-38,-44,-14,-4,-6
1537907919909612,-5,7,-39,15,8,2,0,-5
1537907919918588,4,-16,64,13,3,-1,-1,-2
1537907919918588,8,10,-35,-26,-12,-3,1,6
1537907919932550,-5,-3,8,31,22,5,3,0
1537907919932550,-1,-2,16,9,10,2,-3,-4
1537907919939532,-1,-8,-30,6,-12,-6,-1,-2
1537907919939532,-1,2,29,-7,1,3,1,-1
1537907919955489,-3,-4,3,3,3,0,0,1
1537907919955489,-2,-9,-19,-9,-8,-3,-1,-2
1537907919957484,3,6,-9,1,11,4,-1,0
1537907919957484,-4,2,3,7,4,0,-3,-4
1537907919969452,-7,-4,2,3,1,1,-1,-2
1537907919969452,1,-5,0,-2,-14,-5,-1,-1
1537907919978428,-8,3,3,5,5,1,0,-1
1537907919978428,9,0,4,6,1,0,0,3
1537907919992391,0,-7,-6,-6,-4,-1,-3,0
1537907919992391,2,-1,-2,4,5,0,0,0
1537907919999372,-2,3,0,3,1,0,-3,-5
1537907919999372,-8,-3,-8,-13,-4,-3,-1,-4
1537907920016328,2,-2,-7,9,5,1,1,0
1537907920016328,-2,-2,0,4,-1,-2,-3,-3
1537907920017324,-2,-6,-7,-2,-5,-5,-2,-1
1537907920017324,10,12,5,-1,-3,0,2,5
1537907920029292,-3,-1,1,7,5,0,-1,0
1537907920029292,7,3,4,5,-1,0,1,3
1537907920046247,4,-7,-5,-11,-4,-2,-1,2
1537907920046247,-13,-4,-4,2,6,0,-4,-8
1537907920052231,1,4,0,3,-2,0,-1,2
1537907920052231,-3,-1,2,-1,-3,-2,-2,-1
1537907920059212,-1,2,-4,-1,0,0,0,1
1537907920059212,3,0,-3,0,0,1,3,2
1537907920076167,0,-2,-1,6,5,2,1,-3
1537907920076167,-5,-5,-3,14,-3,-4,-1,-2
1537907920077164,2,0,-1,2,5,1,-1,0
1537907920077164,0,1,3,3,-5,-3,-1,0
1537907920089132,-1,-1,0,-2,-4,-1,-2,0
1537907920089132,7,4,2,15,13,4,2,3
1537907920098108,-10,-1,-1,-5,-9,-5,-2,-7
1537907920098108,1,0,-4,0,4,-1,1,0
1537907920113068,0,-2,-5,-13,-7,-2,-1,0
1537907920113068,-2,-1,-2,-12,-1,0,0,-1
1537907920120049,5,4,2,11,3,1,-1,6
1537907920120049,-6,-5,-6,-13,-4,-3,-3,-8
1537907920136007,-2,2,1,-8,-4,-1,-1,-2
1537907920136007,-5,-4,0,0,0,-1,-4,-3
1537907920137004,-4,2,-6,-11,-7,-3,-1,0
1537907920137004,5,2,1,10,5,2,1,3
1537907920150967,4,1,0,8,5,3,2,4
1537907920150967,-3,0,0,-6,-6,-1,-2,-3
1537907920158946,-5,-1,-1,2,7,2,1,-3
1537907920158946,-4,-4,0,0,-5,-3,-1,0
1537907920172908,-4,-1,-1,-3,0,-1,-1,-2
1537907920172908,-1,-1,-1,2,-1,-2,-2,1
1537907920179889,2,2,2,16,-6,-2,1,1
1537907920179889,1,-2,-2,-18,1,1,0,-1
1537907920195847,0,2,0,16,-1,-2,0,0
1537907920195847,1,-2,-3,-11,-1,-2,-3,0
1537907920197842,1,-2,1,10,5,3,0,-2
1537907920197842,-4,-5,-1,-6,-1,1,0,-1
1537907920218785,3,-2,-3,-6,6,-1,-1,1
1537907920218785,1,1,-1,-12,-13,-2,0,-1
1537907920219783,-5,-3,0,-2,-5,-3,-3,-4
1537907920219783,-3,-1,-1,5,2,3,-1,-1
1537907920232748,1,1,1,-2,3,0,1,-1
1537907920232748,-4,-1,2,7,2,-1,1,-3
1537907920239729,-2,0,-1,-5,0,-1,-1,0
1537907920239729,-1,1,-2,6,-1,0,0,0
1537907920255687,-2,0,-1,-8,1,-1,0,-1
1537907920255687,0,1,-1,5,-7,-3,0,1
1537907920257682,2,-4,-4,-16,4,0,0,-2
1537907920257682,0,-1,3,18,-1,-2,1,0
1537907920269649,-2,-2,0,1,-6,-2,-1,-3
1537907920269649,0,-1,0,-13,4,2,1,0
1537907920278626,2,1,0,-5,-1,-1,0,2
1537907920278626,1,0,-2,10,0,0,-1,-1
1537907920292588,0,-3,0,-7,-2,-2,0,-1
1537907920292588,-1,-2,-3,-4,3,0,1,0
1537907920299569,-2,-2,2,3,2,0,0,-1
1537907920299569,-3,-2,-3,-4,-6,-3,-3,-2
1537907920314529,0,1,0,10,2,0,-1,-1
1537907920314529,0,-2,-2,-13,2,0,0,1
1537907920323506,0,-1,1,-2,-7,-3,-1,0
1537907920323506,-1,-3,-2,-7,-6,-4,1,-1
1537907920329490,1,-2,-1,-2,0,0,-2,-2
1537907920329490,-1,-2,-1,5,1,-2,-2,-1
1537907920338466,-2,-2,2,13,3,0,1,-2
1537907920338466,-1,0,-1,-13,-2,-2,-5,-5
1537907920352428,-2,-1,0,5,-1,0,0,0
1537907920352428,1,-1,-3,-8,-2,-1,1,-1
1537907920361404,-1,1,0,2,-5,-2,0,1
1537907920361404,0,0,1,1,-5,-3,-2,1
1537907920376364,1,-2,-3,-1,2,1,-1,1
1537907920376364,-3,0,0,-1,-6,-2,-3,-2
1537907920377362,0,0,-3,-11,0,0,1,-1
1537907920377362,0,-1,-1,14,4,-1,-1,0
1537907920389330,1,0,-3,-9,-4,-1,-2,-1
1537907920389330,-4,-1,0,3,2,-1,-2,-2
1537907920398306,0,0,-3,-6,0,0,0,-1
1537907920398306,0,-1,1,-2,-1,-1,-1,0
1537907920412269,-4,-2,1,9,2,-1,1,-2
1537907920412269,2,-2,0,-6,-3,-1,1,-2
1537907920419249,0,-1,0,-4,-2,-2,-3,-1
1537907920419249,-1,0,-1,-5,3,1,2,1
1537907920436204,-1,0,0,-1,-2,-1,-1,0
1537907920436204,2,0,-1,3,-1,-1,0,1
1537907920437202,-1,-2,-2,1,1,-1,-2,-2
1537907920437202,-3,-1,-2,-6,0,-1,0,0
1537907920449169,-1,-2,0,-5,1,-1,0,0
1537907920449169,1,-1,-1,7,-2,-3,-3,-1
1537907920458146,1,1,-3,1,-4,-2,-2,1
1537907920458146,0,1,-2,-2,-3,-2,0,-3
1537907920473106,0,1,-1,1,-2,0,-2,-2
1537907920473106,-1,-1,-1,4,3,0,0,-1
1537907920479090,3,1,-1,-10,0,0,1,0
1537907920479090,-2,-4,-1,3,5,1,1,0
1537907920496045,1,0,-1,-2,-4,-3,0,0
1537907920496045,-1,-1,1,-6,-3,0,-1,0
1537907920497042,-3,-3,-2,1,1,0,-2,-2
1537907920497042,-1,0,1,-1,2,2,-1,-1
1537907920510007,-1,-1,-3,2,-2,-1,-1,1
1537907920510007,3,-1,1,7,0,-1,-1,0
1537907920517986,-2,-2,-2,-6,0,-1,-2,0
1537907920517986,-4,-3,-1,3,3,1,0,1
1537907920532946,0,-1,0,-2,-5,-1,-1,-1
1537907920532946,1,-2,-5,-1,-1,-2,-1,-1
1537907920539927,0,7,4,1,-1,-1,-1,-2
1537907920539927,0,-5,-3,-2,-2,-2,-2,-1
1537907920563863,-1,-1,-1,-1,3,2,-2,-3
1537907920563863,0,2,2,7,7,3,2,1
1537907920564861,-1,1,-1,-1,-11,-6,-3,-1
1537907920564861,-3,-8,-14,-21,-9,-2,-4,-2
1537907920569847,-4,7,2,12,2,-1,-1,-2
1537907920569847,-2,-7,3,-8,-2,0,-1,-2
1537907920578824,4,15,2,-5,3,0,1,1
1537907920578824,1,10,19,4,-2,-1,0,-1
1537907920592786,-1,0,-19,-10,-2,0,-1,-2
1537907920592786,-3,-4,-3,3,3,0,0,1
1537907920599768,-4,-12,11,1,-2,-2,1,3
1537907920599768,6,-1,-39,-2,-4,-3,-2,-6
1537907920615724,2,-7,0,-9,-2,-1,-1,-4
1537907920615724,0,5,-13,4,1,-1,0,1
1537907920621709,-1,1,32,9,1,-1,-1,-3
1537907920621709,0,0,-4,-2,1,1,-1,2
1537907920629687,-3,-6,16,4,1,-1,-1,1
1537907920629687,6,0,22,4,-4,0,3,6
1537907920638663,-11,-1,-20,-2,1,-1,-3,-7
1537907920638663,7,-9,-19,-7,-3,-3,-3,-1
1537907920660604,-7,2,-45,-10,-2,-2,-5,-8
1537907920660604,-5,-6,27,4,-3,-3,-5,-9
1537907920666588,5,12,-46,-1,6,5,5,9
1537907920666588,5,7,67,20,6,3,7,13
1537907920683543,-2,-3,-5,-2,-3,-2,1,10
1537907920683543,-10,-14,-8,-3,-3,-5,-13,-26
1537907920689527,-23,-8,18,-9,-5,-3,-5,-8
1537907920689527,-13,-1,-14,-5,-5,-4,-4,-9
1537907920705484,10,3,-16,-2,4,1,5,7
1537907920705484,25,13,-5,-9,7,9,18,30
1537907920707480,-15,-9,6,17,9,3,-2,-11
1537907920707480,20,3,1,2,-17,-13,-12,-7
1537907920720444,-42,-10,-14,-5,-1,-3,-6,-11
1537907920720444,6,4,-19,-23,-10,-2,-4,-11
1537907920727426,35,9,37,28,8,6,10,20
1537907920727426,-16,14,1,-19,32,19,22,15
1537907920743383,-8,-11,-15,5,-35,-16,-17,-3
1537907920743383,3,-5,8,-9,-13,-3,3,0
1537907920744381,-52,-16,-34,5,9,0,-3,-18
1537907920744381,27,0,55,0,-10,-8,-16,-8
1537907920766322,-15,30,-37,75,51,23,11,11
1537907920766322,-34,-9,45,-82,-14,-11,-9,-14
1537907920767320,34,19,-58,11,-60,-23,1,16
1537907920767320,-34,-19,36,-21,-2,0,-9,-29
1537907920780285,10,-17,43,-27,-16,-3,10,9
1537907920780285,-20,-2,-10,46,26,7,-7,9
1537907920787266,24,6,0,-2,26,9,-9,0
1537907920787266,-11,-2,-41,55,40,17,21,14
1537907920803223,24,-15,-10,-27,-57,-23,-9,-22
1537907920803223,-10,-5,-57,-19,-13,-6,-4,2
1537907920805218,-19,15,46,-12,14,11,3,12
1537907920805218,15,8,33,33,2,1,1,22
1537907920826162,46,-7,29,107,92,20,-20,15
1537907920826162,-35,14,14,-27,-67,-14,57,-25
1537907920827160,-29,-49,-84,-48,-31,-12,-29,-28
1537907920827160,19,19,0,54,-31,-6,-18,-8
1537907920840125,-25,7,-31,80,65,11,3,-6
1537907920840125,22,-17,20,-25,-33,-12,-8,18
1537907920854087,60,18,-20,41,49,25,39,29
1537907920854087,-31,-8,-1,-27,-44,-13,7,-3
1537907920863063,40,4,6,-84,-60,-22,-47,-38
1537907920863063,7,5,-20,70,56,8,-39,16
1537907920865058,-10,-31,22,-50,-15,2,30,26
1537907920865058,-19,24,-13,-84,-39,-17,50,-17
1537907920886002,27,-7,8,14,16,15,18,29
1537907920886002,-20,-12,26,-22,-20,-18,-24,-46
1537907920886999,-15,7,15,28,25,5,-18,-10
1537907920886999,34,-12,-27,-32,23,5,1,9
1537907920899965,-17,16,26,5,-59,-14,6,-2
1537907920899965,34,-3,-23,-34,13,12,7,26
1537907920907943,-20,-11,10,6,-7,-10,-28,-25
1537907920907943,4,-6,-19,-19,8,-2,-4,-2
1537907920922903,0,10,9,-13,10,5,16,11
1537907920922903,1,-7,-1,35,14,7,-3,7
1537907920924898,8,6,13,10,-10,-7,-3,-6
1537907920924898,-6,-14,-19,6,11,6,-14,4
1537907920945842,-18,-6,11,-41,-13,-6,4,-6
1537907920945842,6,9,4,41,12,6,4,2
1537907920947837,-1,-2,0,-29,-11,-7,2,-7
1537907920947837,0,-2,-7,12,8,2,-8,5
1537907920959804,-8,-5,10,-12,-3,1,4,1
1537907920959804,-5,5,-17,-4,0,0,-2,-17
1537907920968781,7,5,-1,2,2,-1,5,-21
1537907920968781,-5,-13,0,7,-2,-6,-16,15
1537907920983740,-1,3,12,1,1,0,-1,2
1537907920983740,5,7,-21,7,11,3,9,9
1537907920984738,-3,-3,29,1,-3,2,-2,-5
1537907920984738,-3,-1,-6,12,2,2,1,-3
1537907921013661,-1,-3,0,-31,-3,4,8,27
1537907921013661,-2,6,19,6,5,-10,-5,-33
1537907921014658,-5,-7,-25,1,-4,-1,-10,-16
1537907921014658,-7,-3,-14,2,1,-5,-3,-38
1537907921019645,6,0,25,-10,3,5,4,23
1537907921019645,12,1,-30,4,2,26,18,35
1537907921028621,6,3,-11,0,-4,-28,19,48
1537907921028621,-15,-6,17,0,4,0,-45,-44
1537907921043581,-10,-2,-3,-6,-7,-25,-6,-21
1537907921043581,-1,-1,2,9,5,0,-6,-6
1537907921044578,3,2,48,-2,-2,8,9,8
1537907921044578,8,8,-3,3,5,12,14,23
1537907921065522,-4,-8,-19,-8,-3,-2,-2,-9
1537907921065522,14,8,-4,-5,0,2,8,21
1537907921067517,-28,-2,-16,21,8,4,-14,-27
1537907921067517,23,-4,2,-22,-11,-9,-4,-2
1537907921079485,-28,0,10,8,9,9,24,0
1537907921079485,25,0,-6,16,12,-1,-1,33
1537907921088461,33,19,4,3,-28,3,87,52
1537907921088461,-74,-57,1,-66,-40,-24,-103,-80
1537907921102423,-18,-10,-57,45,23,5,12,-7
1537907921102423,79,15,16,-78,-78,-29,-28,76
1537907921109405,-79,-19,51,114,24,19,76,-75
1537907921109405,2,34,-10,-31,35,20,1,70
1537907921125362,-82,21,35,-113,-116,-56,1,-85
1537907921125362,-11,-60,-72,-3,37,-34,-113,-124
1537907921127357,63,45,34,18,47,41,23,24
1537907921127357,-93,-76,-49,-27,-53,2,91,13
1537907921139325,98,65,15,76,87,48,61,123
1537907921139325,-1,3,26,-14,28,25,36,-25
1537907921148301,55,23,-48,-128,-88,-77,-114,26
1537907921148301,4,59,90,127,73,54,64,-40
1537907921163261,-16,-54,-28,20,33,21,46,-43
1537907921163261,9,40,60,-8,-55,-1,2,37
1537907921165256,-85,-54,-49,8,26,-4,-34,-49
1537907921165256,41,10,-1,-23,-7,-6,-10,87
1537907921185202,36,5,17,15,10,5,-26,29
1537907921185202,-28,-24,4,38,29,-5,-77,-36
1537907921192184,33,-18,-3,-14,-17,6,-2,-16
1537907921192184,-67,-20,-38,-7,-16,-28,-17,-32
1537907921199165,71,7,21,2,15,8,-29,-23
1537907921199165,-59,-8,-11,10,-4,-6,22,-9
1537907921208141,21,7,0,-13,-4,-5,-25,36
1537907921208141,35,1,-2,21,15,2,-9,-24
1537907921223101,-20,-11,-23,6,-8,-1,30,8
1537907921223101,-27,-2,-2,4,-14,-2,-11,-16
1537907921225096,6,-2,-17,-11,4,3,8,-20
1537907921225096,33,11,22,10,1,7,22,33
1537907921246039,-33,-17,-12,-16,-17,-10,-35,5
1537907921246039,13,17,0,21,11,9,37,-4
1537907921247037,-14,-17,23,9,19,29,6,-6
1537907921247037,16,0,-23,-3,-14,-66,-28,11
1537907921267981,1,-1,26,-7,-11,27,-45,-17
1537907921267981,-38,-8,-22,-1,10,-45,13,-81
1537907921269976,3,0,-19,1,-4,10,-9,67
1537907921269976,30,4,1,2,1,15,0,6
1537907921282941,1,5,-41,-10,-10,-22,0,12
1537907921282941,-8,5,41,12,10,33,36,20
1537907921289922,-14,-1,-40,-9,-7,-8,-10,-18
1537907921289922,18,20,77,24,8,4,12,-9
1537907921305880,-8,-9,-21,-4,-3,-2,-8,8
1537907921305880,-6,-2,-22,1,-4,9,5,-5
1537907921306877,-1,-1,-30,-19,-7,-17,-7,0
1537907921306877,16,3,-41,18,16,15,4,14
1537907921319842,-13,1,46,-19,-8,-7,-9,-43
1537907921319842,4,2,33,11,0,0,6,7
1537907921328818,3,9,-7,8,2,-6,-1,11
1537907921328818,-2,-2,-17,-18,-7,4,0,-16
1537907921342781,-12,-5,-8,-1,-4,-9,-10,-9
1537907921342781,4,5,-20,7,1,-1,8,22
1537907921349762,-1,0,78,9,4,4,-5,-7
1537907921349762,0,3,-33,-4,-3,1,-8,-17
1537907921365720,2,1,-19,-7,0,-3,1,8
1537907921365720,4,-6,-3,-10,3,4,8,25
1537907921367714,-13,6,54,7,-3,0,-6,-30
1537907921367714,-5,-1,-20,-8,-5,-4,-2,5
1537907921379682,1,-5,26,7,1,-4,2,23
1537907921379682,6,6,-69,5,5,8,8,-9
1537907921388658,-8,-3,-5,-3,-3,-3,-4,-13
1537907921388658,1,0,29,9,-2,-9,-8,-1
1537907921402621,-6,-11,-16,-7,-3,-3,-4,-7
1537907921402621,1,1,27,2,0,2,7,21
1537907921409602,3,2,-30,-7,5,2,4,1
1537907921409602,1,-1,3,1,-5,0,-3,-7
1537907921425560,-4,0,14,-6,-3,-3,-3,-10
1537907921425560,-7,-4,-29,2,0,3,0,1
1537907921427554,7,5,7,10,3,-3,-7,-17
1537907921427554,0,-7,-32,-11,1,4,12,38
1537907921447501,0,2,0,-1,-2,-4,-3,-2
1537907921447501,0,2,20,-6,-4,-3,0,4
1537907921456477,-1,-5,-39,-2,1,0,-3,-1
1537907921456477,1,2,38,4,0,1,-5,-8
1537907921463458,-3,-5,-34,-6,-1,-1,-1,-3
1537907921463458,-3,-2,7,2,-3,-3,-1,5
1537907921464456,-2,4,93,6,-4,-4,-5,-1
1537907921464456,3,-3,-96,-14,3,1,1,-6
1537907921485400,6,4,22,-3,0,0,2,2
1537907921485400,3,-1,-7,-9,-3,-1,1,3
1537907921487394,-15,-21,2,6,-1,-4,-8,-9
1537907921487394,-2,13,34,-14,-6,-4,-2,-8
1537907921508338,-1,7,13,16,4,4,1,-5
1537907921508338,3,-2,-19,-4,0,2,4,9
1537907921510333,5,0,6,-3,1,0,3,7
1537907921510333,-1,-8,2,0,-6,-5,-1,-2
1537907921523299,-5,-4,-25,-5,-3,-1,-3,-4
1537907921523299,-4,3,27,8,1,0,-2,-1
1537907921525293,1,-2,-24,-2,0,0,2,9
1537907921525293,-2,-5,-11,4,-2,-1,-2,-11
1537907921546237,34,10,17,-5,0,2,12,30
1537907921546237,-30,-8,6,9,3,-4,-15,-31
1537907921547234,2,-2,-44,-15,-1,1,1,-3
1537907921547234,-8,-3,33,7,0,-1,-2,-5
1537907921568178,7,12,50,7,1,1,4,7
1537907921568178,37,5,-6,-3,0,9,34,50
1537907921570173,5,3,-13,-7,25,15,0,19
1537907921570173,-41,-17,5,19,-25,-16,-11,-28
1537907921583138,-6,-7,-34,8,10,-7,17,-40
1537907921583138,-55,-45,6,-50,-57,-19,-17,-6
1537907921583138,69,77,-2,9,29,24,48,25
1537907921583138,-43,-84,-42,-1,-16,-25,-80,-63
1537907921605080,-11,32,15,-7,17,-3,48,42
1537907921605080,-17,-15,24,57,5,1,36,-73
1537907921606077,-13,-6,-81,-105,-83,-25,8,22
1537907921606077,99,63,48,59,86,64,127,119
1537907921628019,-101,-33,42,8,-51,-59,-128,-125
1537907921628019,15,-93,-18,-23,6,16,79,3
1537907921628019,-26,72,-43,-28,-41,0,10,-14
1537907921628019,-89,7,74,76,59,-19,-108,6
1537907921641981,36,18,-86,-69,-62,7,116,33
1537907921641981,21,70,-6,28,17,0,-30,111
1537907921649960,-59,-80,-13,-14,-3,7,-87,-96
1537907921649960,-84,-53,-104,-107,-75,-29,-61,-96
1537907921665917,-11,30,46,82,77,48,71,82
1537907921665917,74,-2,-37,5,-4,-12,-4,-23
1537907921672898,34,95,29,39,59,29,52,111
1537907921672898,109,44,3,13,2,-15,-33,-7
1537907921679880,0,-67,56,17,-30,-27,-51,-8
1537907921679880,-29,-75,-9,-19,-16,4,-91,-56
1537907921680877,-3,-17,49,31,5,-40,-41,39
1537907921680877,-68,9,-29,32,35,56,127,-41
1537907921695837,15,-10,-18,-20,-8,-3,-6,-29
1537907921695837,10,25,34,-13,12,4,5,35
1537907921701821,21,-31,-15,30,21,5,0,7
1537907921701821,24,16,31,-2,-13,6,58,69
1537907921716781,-10,-28,-58,-72,-16,-19,-116,-86
1537907921716781,-30,38,16,9,-10,-17,-22,-43
1537907921724760,-14,-26,-1,12,-6,-5,-1,-37
1537907921724760,24,9,-2,-13,-7,5,17,45
1537907921747698,2,1,-6,-1,14,13,25,38
1537907921747698,-3,22,-10,4,20,7,3,-3
1537907921748696,-18,-25,6,1,-13,-15,-8,-15
1537907921748696,20,-13,1,-17,-10,-6,0,7
1537907921755677,6,4,-1,8,17,12,1,3
1537907921755677,-10,14,-15,-10,-11,-16,-20,-5
1537907921761661,6,-20,16,9,15,62,19,-20
1537907921761661,5,1,1,-16,-13,-54,0,38
1537907921776621,6,5,1,7,0,-9,-12,3
1537907921776621,-5,14,5,-2,3,13,19,22
1537907921784600,-11,-17,8,-1,-3,-23,-7,-27
1537907921784600,12,9,14,13,6,14,-13,-19
1537907921801555,2,15,-38,-6,0,11,-7,-5
1537907921801555,-18,0,-52,-5,5,-18,13,17
1537907921802552,-1,-2,36,7,7,73,19,-33
1537907921802552,7,-5,-48,-22,-21,-83,-34,5
1537907921822499,9,7,21,8,1,-3,12,40
1537907921822499,-1,10,11,-3,1,5,-8,7
1537907921823496,-4,-13,-39,-9,-8,-21,1,-3
1537907921823496,-11,4,19,-9,1,27,7,-9
1537907921837460,5,15,-2,9,3,3,6,3
1537907921837460,-1,3,-27,1,4,-9,3,-7
1537907921844440,-3,-7,8,-15,-8,-25,-2,14
1537907921844440,6,-6,74,22,1,20,1,-6
1537907921860397,-4,-1,-2,3,1,5,2,-4
1537907921860397,0,-1,-37,-11,-1,8,-1,-8
1537907921861394,-4,-11,34,3,-4,-24,-3,0
1537907921861394,7,5,-44,-20,-6,10,-1,-7
1537907921882338,-4,-7,-9,1,2,3,-1,-10
1537907921882338,2,13,57,20,3,0,2,8
1537907921883336,-7,-7,-23,-1,-6,-20,-2,1
1537907921883336,2,2,65,9,1,10,-1,-7
1537907921897298,-1,-4,-104,-35,-2,4,1,6
1537907921897298,3,-3,-26,5,3,1,4,2
1537907921904280,4,14,31,15,2,-11,-2,2
1537907921904280,4,-2,-40,-13,-2,10,-2,-2
1537907921921234,-8,-6,27,2,0,-4,0,-8
1537907921921234,-1,-4,30,-11,-2,-1,1,-5
1537907921922232,0,5,2,7,1,-6,-1,-3
1537907921922232,2,-1,-8,5,-2,4,-1,4
1537907921936195,1,-5,8,-1,0,-3,2,2
1537907921936195,-4,2,-30,4,8,5,1,-1
1537907921942178,3,0,10,-6,-9,-7,-2,7
1537907921942178,1,-3,-29,-11,-3,1,2,-1
1537907921957139,-16,-7,31,3,0,-4,-8,-15
1537907921957139,12,6,0,1,-5,3,3,6
1537907921964120,-8,-4,-37,-2,2,-4,-5,-8
1537907921964120,-8,-4,-5,-5,1,3,1,-8
1537907921980078,2,6,13,6,2,2,4,4
1537907921980078,17,7,54,4,0,0,3,10
1537907921981075,5,2,-1,-2,1,0,5,10
1537907921981075,36,1,-29,-7,11,7,10,29
1537907921996035,-36,8,16,-8,-16,-7,-6,-32
1537907921996035,-39,-62,-48,4,-8,-6,-16,-30
1537907922002018,3,33,36,6,2,-8,-48,13
1537907922002018,-2,16,-2,57,47,22,55,43
1537907922016979,117,40,21,-59,-54,-6,15,34
1537907922016979,-85,-69,-37,-74,-14,-8,-36,-76
1537907922024957,-71,-30,-67,-46,-21,-13,-11,3
1537907922024957,84,64,94,33,23,15,-5,10
1537907922039918,-120,-49,-41,57,34,14,111,28
1537907922039918,127,113,48,127,114,57,-20,71
1537907922040916,-36,-61,-57,-92,-98,-80,-51,-43
1537907922040916,-28,5,51,-118,-73,-11,80,-92
1537907922056872,17,-32,-65,3,42,12,53,90
1537907922056872,-109,-4,88,68,45,27,-66,-115
1537907922061859,76,78,77,-49,-33,-3,71,33
1537907922061859,58,17,-95,55,31,2,-37,93
1537907922076818,-21,-45,80,-45,-49,-30,8,-46
1537907922076818,-4,-13,-81,-12,-2,-9,-53,43
1537907922084797,-14,26,16,109,62,17,9,-25
1537907922084797,3,38,-25,-55,-81,-52,-128,-69
1537907922099757,29,-66,-49,34,27,25,101,13
1537907922099757,-49,96,65,-6,-15,-10,18,56
1537907922100755,-6,-16,-112,-44,14,20,-17,-2
1537907922100755,-52,-74,-104,-65,-48,-29,-65,-73
1537907922115714,-37,16,99,4,15,5,-71,-24
1537907922115714,86,-18,-76,17,-10,-5,-1,36
1537907922121698,-1,24,-58,31,28,13,26,48
1537907922121698,17,4,11,24,37,17,76,89
1537907922136659,-7,-7,-34,-21,-20,-13,-128,-100
1537907922136659,-7,-14,2,-1,4,0,112,-10
1537907922144637,-49,-14,34,-37,-43,-16,-30,-67
1537907922144637,11,-30,23,12,15,5,-24,7
1537907922160595,-39,19,-17,7,3,-12,-58,-40
1537907922160595,37,11,14,-44,-41,-17,62,114
1537907922160595,68,-10,4,36,34,40,35,-23
1537907922160595,-65,-20,3,10,-18,-9,-11,-83
1537907922175555,17,30,-21,18,12,6,0,40
1537907922175555,5,-1,-1,-22,-11,-7,11,-13
1537907922181539,28,1,38,30,22,5,-9,23
1537907922181539,-28,-17,0,0,-1,-2,6,19
1537907922197496,29,28,-1,21,18,13,4,20
1537907922197496,4,-19,-25,-31,-16,-8,-10,-36
1537907922204477,-20,-13,24,13,-1,33,-4,2
1537907922204477,-5,0,3,12,14,9,33,28
1537907922220435,9,6,-41,-3,-16,-64,-29,-35
1537907922220435,-6,-3,3,-22,-17,7,-45,-35
1537907922220435,-11,-15,-40,-9,6,-8,3,25
1537907922220435,-13,1,93,16,0,-4,7,0
1537907922236393,20,12,-34,7,3,13,-34,-30
1537907922236393,-9,-14,-29,-6,-18,-46,1,-1
1537907922242377,3,-2,29,10,13,32,16,-6
1537907922242377,-4,-8,-21,-18,5,52,7,-16
1537907922257337,4,13,28,2,-4,-36,15,61
1537907922257337,4,4,35,25,0,0,0,-33
1537907922264317,-1,-11,-71,0,2,-8,-6,-1
1537907922264317,-8,-1,-25,-5,2,-5,5,2
1537907922280275,0,-7,10,-27,-7,19,-5,-20
1537907922280275,0,10,-27,-11,1,12,3,17
1537907922281272,5,12,96,31,-1,-21,-6,-8
1537907922281272,-4,-2,-51,-2,5,15,2,-4
1537907922296232,8,-1,-34,-1,8,4,11,24
1537907922296232,0,-13,2,-10,-8,-7,6,-12
1537907922302216,-5,-3,15,10,-2,-1,-3,-11
1537907922302216,-1,5,0,6,4,-5,-4,-2
1537907922317176,2,6,-7,-10,-1,11,2,10
1537907922317176,2,10,-1,8,-3,3,3,4
1537907922324158,-2,-6,-16,-39,-4,-3,-3,4
1537907922324158,-7,-1,12,17,4,-2,-6,-7
1537907922340116,6,26,52,26,3,3,2,11
1537907922340116,-4,-9,-9,-17,-7,3,-1,-6
1537907922341114,3,-5,1,10,6,-1,-2,-1
1537907922341114,-4,1,-6,-11,-2,-12,1,6
1537907922356074,-4,0,-2,16,1,12,1,-4
1537907922356074,-1,-8,9,-6,1,-1,4,28
1537907922362058,2,1,-21,3,-2,-3,-4,-20
1537907922362058,-1,2,-4,2,0,-7,-2,7
1537907922377018,-2,2,13,-18,-4,5,-1,-1
1537907922377018,-3,-16,2,-6,-2,5,-1,-5
1537907922384996,0,9,-14,5,-3,-9,2,15
1537907922384996,-1,-15,-32,-9,-2,-4,-3,-5
1537907922399956,-1,2,-1,5,2,5,0,-5
1537907922399956,2,2,2,8,2,0,2,2
1537907922400954,-2,-11,10,-5,2,-5,0,4
1537907922400954,1,-3,-15,21,2,-4,-3,-5
1537907922415913,0,3,-14,-46,-16,0,1,4
1537907922415913,0,4,46,-3,-2,0,1,-11
1537907922421896,0,-8,-38,12,-2,-3,-1,2
1537907922421896,0,8,14,7,6,1,-2,1
1537907922436856,0,5,-9,0,3,2,-2,1
1537907922436856,-3,-17,1,-6,-9,-4,-3,-6
1537907922444835,3,12,0,6,4,2,2,3
1537907922444835,0,0,22,-3,1,-2,0,3
1537907922459795,-1,-4,-2,12,2,3,1,-2
1537907922459795,0,-7,-49,-14,-3,-2,-4,-8
1537907922466776,1,6,-4,4,5,0,0,5
1537907922466776,-3,-1,14,-22,-14,-5,-1,-1
1537907922475753,0,-4,15,17,7,4,-1,2
1537907922475753,-2,7,5,20,2,-1,-2,-2
1537907922481736,-3,-8,-3,-33,-8,-2,-2,-2
1537907922481736,3,5,12,6,2,1,-1,-1
1537907922496696,-5,-18,-20,4,-1,2,-2,-3
1537907922496696,1,8,24,4,-1,-1,-1,-3
1537907922504675,4,11,15,9,2,1,1,2
1537907922504675,-3,-2,-4,0,-2,-1,-1,-2
1537907922519635,-1,-2,-21,-1,-1,0,-2,3
1537907922519635,-2,-1,-16,-17,0,0,0,-2
1537907922535592,-2,1,28,7,-3,-2,0,-1
1537907922535592,-1,-3,-12,11,2,0,0,-1
1537907922537587,0,3,17,-13,-9,-4,0,-2
1537907922537587,-1,7,-5,-4,0,0,-2,-3
1537907922541576,0,-9,16,1,3,2,1,0
1537907922541576,-2,5,-22,-10,-4,-4,0,-2
1537907922565513,3,6,4,21,2,2,1,-1
1537907922565513,-1,0,6,-1,-5,-4,-3,-4
1537907922565513,1,3,7,7,3,2,0,4
1537907922565513,1,-13,5,0,7,1,0,1
1537907922588451,-1,10,11,5,1,-1,-1,1
1537907922588451,-2,-7,0,-1,-6,-2,-3,-3
1537907922589448,-4,-5,-11,-9,0,-2,-3,-2
1537907922589448,2,32,39,0,1,0,-1,-2
1537907922610392,0,-15,-37,-15,-6,-1,-2,-1
1537907922610392,4,0,0,1,5,3,1,1
1537907922611390,-2,2,-8,9,-2,-2,0,-1
1537907922611390,-3,-9,-15,3,-1,-1,-2,-2
1537907922633331,-1,1,12,-3,2,-1,-3,-1
1537907922633331,-4,8,4,0,-3,0,-1,-2
1537907922634329,0,-20,-12,-8,-5,-3,0,2
1537907922634329,-2,3,30,-1,-1,-1,-2,-2
1537907922648292,-2,8,-28,-1,-1,-2,-1,-4
1537907922648292,-2,-5,-20,-12,-2,0,1,-1
1537907922649290,-1,-1,5,3,-3,-1,-2,-2
1537907922649290,0,-2,25,10,2,0,-1,1
1537907922671230,0,-4,-4,2,0,0,0,0
1537907922671230,2,4,-1,-8,1,-1,0,2
1537907922671230,-2,-6,-8,-2,3,3,1,-1
1537907922671230,-3,-3,-35,-16,-9,-5,-1,-1
1537907922685193,4,26,31,14,-4,-1,-1,-1
1537907922685193,4,0,-11,7,6,2,3,3
1537907922686191,-3,-8,-1,-4,-3,-2,0,1
1537907922686191,-2,-11,-11,-8,-2,-3,-1,-1
1537907922708132,0,-7,9,2,-2,0,0,-1
1537907922708132,-4,-5,-1,-15,-5,-2,-2,-2
1537907922709130,0,14,11,15,1,-2,-3,-4
1537907922709130,10,-3,-41,-11,7,4,3,7
1537907922731070,0,-8,15,-6,-2,-1,2,5
1537907922731070,-8,6,-14,7,-2,-1,-3,-8
1537907922732068,-7,9,47,-4,-2,-1,-5,-10
1537907922732068,-7,-27,30,8,-1,0,-3,-5
1537907922753012,3,12,-30,-12,1,0,-1,1
1537907922753012,3,-7,21,-3,-2,-1,2,3
1537907922754009,2,-1,-23,-1,0,-2,1,3
1537907922754009,1,9,-1,5,0,-1,-1,0
1537907922767972,-1,-8,7,1,1,1,0,0
1537907922767972,0,-3,-36,-3,-1,-1,0,0
1537907922768969,0,5,49,-6,-4,-2,-3,-4
1537907922768969,3,5,-62,2,4,4,2,2
1537907922790911,-5,-12,6,-8,-3,-2,-2,-2
1537907922790911,3,-3,20,-1,-2,-1,-1,5
1537907922791908,7,1,-42,-5,0,2,5,10
1537907922791908,-2,-8,-1,18,3,-1,0,-2
1537907922804873,-13,10,55,7,3,-1,-6,-16
1537907922804873,-5,-5,-35,-2,-1,-4,-8,-14
1537907922805871,7,1,7,-1,0,2,3,5
1537907922805871,-6,2,19,-15,-4,-1,-2,-4
1537907922828810,1,-10,-30,-1,-1,0,0,-2
1537907922828810,3,10,52,7,2,0,3,8
1537907922828810,-2,0,-41,-8,-1,0,2,-1
1537907922828810,-4,-5,-19,-3,-4,-3,-2,-6
1537907922850751,-1,-9,23,0,1,0,2,3
1537907922850751,6,4,2,4,1,0,0,4
1537907922851749,2,-4,-11,-1,-3,0,0,3
1537907922851749,-1,6,25,3,-3,-2,-1,1
1537907922864714,2,-2,-21,-11,0,0,1,1
1537907922864714,24,5,14,12,1,1,5,16
1537907922865711,-12,-1,-1,3,0,-2,-6,-14
1537907922865711,-23,-11,15,-8,-4,-5,-9,-22
1537907922888649,-4,-6,-19,-9,-5,-2,-2,-1
1537907922888649,12,6,-1,-3,2,2,6,13
1537907922889646,1,-6,-3,2,-1,-1,2,4
1537907922889646,-20,-10,2,10,10,2,-6,-14
1537907922910590,2,2,-4,0,-12,-5,-3,-2
1537907922910590,9,2,-11,-14,7,6,10,14
1537907922911587,46,-7,-2,9,1,2,11,30
1537907922911587,-19,17,-12,4,-6,-1,5,8
1537907922925550,-21,-30,14,-37,-20,-13,-17,-27
1537907922925550,-87,-28,-46,29,4,-11,-41,-75
1537907922925550,4,-15,24,-34,22,6,-6,-2
1537907922925550,14,-45,25,25,-4,3,13,24
1537907922947491,45,78,28,8,-1,9,76,75
1537907922947491,1,-27,-90,-50,-4,-3,-48,-33
1537907922948489,-18,37,52,69,29,0,14,0
1537907922948489,18,9,-63,-23,0,-9,-46,-52
1537907922970430,-11,3,83,-1,8,18,19,21
1537907922970430,-17,10,-5,25,10,1,-1,-21
1537907922971427,-5,-7,-13,-46,-47,-30,-2,-15
1537907922971427,49,-46,0,15,11,8,52,58
1537907922985390,-7,-55,-96,-43,-8,-11,-51,-43
1537907922985390,26,103,64,22,-12,-5,-53,-11
1537907922986387,0,-34,-20,48,20,1,0,16
1537907922986387,49,43,-21,-53,-37,-1,25,7
1537907923007331,-11,9,9,108,33,7,51,110
1537907923007331,-24,-89,-14,-38,-4,-7,2,-76
1537907923008329,-128,-55,-14,-49,-48,-45,-128,-104
1537907923008329,88,110,61,71,50,29,72,77
1537907923031268,-61,-19,-78,-84,-25,-27,-74,-58
1537907923031268,118,1,44,18,24,17,33,123
1537907923031268,45,38,1,69,37,37,108,23
1537907923031268,-81,-39,11,-128,-72,-19,15,30
1537907923044233,47,-7,15,59,26,-10,-89,-76
1537907923044233,-59,-96,-24,-35,-27,-17,-3,-59
1537907923053209,-9,-11,-65,-38,9,-7,-48,62
1537907923053209,53,42,47,107,36,22,-6,4
1537907923068169,-21,10,21,-18,-16,9,52,-25
1537907923068169,-20,19,73,-11,-7,3,52,26
1537907923068169,25,17,-21,-2,-4,8,-30,33
1537907923068169,-69,-32,19,22,7,-13,-19,-36
1537907923091107,71,23,-26,-3,22,16,38,75
1537907923091107,-52,-18,-22,45,-14,-28,-94,-69
1537907923091107,-9,7,12,-55,-25,0,50,-28
1537907923091107,-17,-3,-25,-22,-3,1,-47,-4
1537907923104072,-25,-30,-8,-10,-8,-16,-84,-91
1537907923104072,14,34,2,10,8,12,78,65
1537907923113049,43,16,8,27,15,9,6,21
1537907923113049,-4,-24,-16,-34,-13,-15,-27,-16
1537907923127011,-33,-2,10,-4,-9,-2,12,6
1537907923127011,35,23,-6,13,9,6,5,37
1537907923135987,-17,-7,9,-7,-9,-3,-6,-19
1537907923135987,-19,-9,-11,-10,0,0,-10,-27
1537907923150947,-1,7,5,22,6,3,13,17
1537907923150947,0,13,5,-9,-7,1,3,12
1537907923151945,6,-12,-4,-4,-1,10,9,-19
1537907923151945,-11,-3,-7,5,0,-14,-4,-9
1537907923164910,17,3,2,6,-1,10,9,15
1537907923164910,2,-5,1,-10,0,14,6,3
1537907923173887,0,-2,7,-12,-15,-25,-2,-5
1537907923173887,-8,-5,-6,11,4,-29,-3,-7
1537907923186852,1,4,0,-1,-9,-17,-10,-31
1537907923186852,6,9,-7,-7,8,31,24,60
1537907923195828,-18,-1,1,-1,0,8,-16,-53
1537907923195828,-4,-6,-29,-11,-8,-3,-4,-16
1537907923210788,14,0,41,21,7,9,23,45
1537907923210788,-28,0,-26,-11,-2,-34,-14,-46
1537907923212783,22,8,7,19,3,24,16,23
1537907923212783,-4,-5,16,-16,-4,-10,-15,-21
1537907923224751,-4,3,46,10,-4,-9,7,1
1537907923224751,10,1,-89,-5,2,16,-2,16
1537907923233727,-1,0,-9,-5,0,-4,4,19
1537907923233727,-5,2,23,1,1,10,-1,-19
1537907923247690,-1,3,5,-3,1,9,8,16
1537907923247690,-3,5,32,10,-3,-3,0,-6
1537907923254672,-2,-13,-38,-28,-4,0,3,-13
1537907923254672,4,5,23,27,4,-6,-1,22
1537907923270630,-3,3,-13,-7,-1,5,-2,-8
1537907923270630,2,6,-8,6,-1,-9,-5,-2
1537907923272625,-1,-28,-31,-1,-1,3,0,2
1537907923272625,3,10,55,0,0,9,-3,5
1537907923284592,-5,-2,-58,-10,-2,-6,-4,-6
1537907923284592,-4,6,22,-5,-4,-2,-2,-7
1537907923293568,4,6,31,6,1,-2,6,15
1537907923293568,-6,-10,-36,4,2,5,-3,-6
1537907923307531,-4,-18,-10,-14,-2,-4,-3,-6
1537907923307531,0,-1,28,0,-4,0,3,7
1537907923314510,1,4,-28,-4,1,-2,3,-4
1537907923314510,-4,2,10,-1,-9,-4,-5,0
1537907923330468,-4,-8,-1,9,2,4,0,-5
1537907923330468,3,0,-17,-1,0,0,0,2
1537907923332463,-1,1,37,9,4,-4,-1,2
1537907923332463,-1,-1,-35,-1,-1,5,-1,-3
1537907923360388,2,-3,7,-1,-1,2,0,3
1537907923360388,3,21,24,0,1,0,2,0
1537907923362383,1,2,22,3,-5,-3,-2,-1
1537907923362383,2,-3,-36,-2,6,4,1,5
1537907923367370,2,-5,10,-8,-5,-2,-2,-1
1537907923367370,-6,-5,13,2,3,-1,-2,-3
1537907923374351,4,10,-18,2,-6,-1,1,0
1537907923374351,0,8,-6,-5,6,4,1,3
1537907923391305,-6,-6,-16,6,0,-1,-2,-5
1537907923391305,2,-1,1,-8,-1,0,0,0
1537907923392302,1,0,1,2,0,-2,0,3
1537907923392302,-1,-2,-8,3,0,1,-3,-4
1537907923413246,1,4,6,-1,-1,-2,-2,0
1537907923413246,0,-5,2,-3,-1,-1,0,2
1537907923415241,-2,2,3,4,-1,-4,-1,-1
1537907923415241,-2,-8,7,0,-1,-1,-1,0
1537907923428206,0,7,-22,-17,-2,0,-1,-4
1537907923428206,0,-3,6,12,-2,-2,0,-1
1537907923430201,-1,0,15,13,3,-2,1,0
1537907923430201,-1,-1,-7,-12,-2,-1,-1,-2
1537907923451145,-2,-7,26,1,-1,-1,1,2
1537907923451145,-2,2,-24,-4,-2,-2,-2,-2
1537907923452142,0,3,2,-3,-2,-2,0,-2
1537907923452142,0,-1,8,0,1,2,0,1
1537907923472090,0,-9,-17,3,-3,-2,-1,-2
1537907923472090,-3,-6,17,-5,-1,-2,-3,-1
1537907923481065,-1,4,22,-1,-1,1,1,-1
1537907923481065,-1,-11,-34,4,0,-2,-1,-1
1537907923488046,-2,0,-2,6,2,-3,-2,-2
1537907923488046,-5,0,2,-4,-7,-3,-2,-3
1537907923494030,0,-7,-18,-12,0,0,0,-1
1537907923494030,2,3,14,-1,-1,0,-1,1
1537907923510985,-4,2,6,3,2,2,0,-1
1537907923510985,1,-6,-10,1,-1,-1,-1,1
1537907923511982,-2,3,33,-6,-2,-2,-2,-2
1537907923511982,0,-3,-11,9,3,-1,-1,1
1537907923532926,3,5,-15,1,-1,-1,-2,1
1537907923532926,1,1,14,-1,1,0,0,-1
1537907923534921,-5,-7,-1,2,-1,-2,-2,-2
1537907923534921,-1,6,-11,-10,-3,-2,-2,-1
1537907923547886,-5,0,-1,1,-2,-1,-1,-2
1537907923547886,1,-5,-11,-6,0,-1,-1,1
1537907923554867,3,0,3,13,2,0,1,1
1537907923554867,-3,-3,6,-13,-6,-2,-2,-3
1537907923570825,0,3,-12,-4,0,-1,1,0
1537907923570825,-2,-12,6,4,-2,-1,-2,-2
1537907923571822,2,21,-2,5,1,0,0,0
1537907923571822,-2,-2,-5,-2,1,-1,-3,0
1537907923593764,1,-4,-1,-5,-4,-2,-2,0
1537907923593764,0,1,0,-4,1,1,1,1
1537907923594761,-2,-2,0,9,-1,-2,-3,0
1537907923594761,-1,0,5,7,-8,-3,-2,-3
1537907923607727,-1,-3,14,-9,-3,-1,-1,-1
1537907923607727,-2,-5,-3,8,1,-1,0,-2
1537907923614708,1,20,-26,-10,-1,0,0,0
1537907923614708,3,1,-14,8,1,1,1,2
1537907923630667,-6,-2,1,-7,1,0,-1,-4
1537907923630667,-2,0,15,2,-6,-5,-3,-2
1537907923632662,-4,-8,-3,-8,-3,1,-1,-2
1537907923632662,-1,-10,10,1,1,-1,-2,-2
1537907923653605,2,6,-7,-2,0,-1,-1,0
1537907923653605,-2,-3,-3,-5,-1,-1,-1,0
1537907923654603,1,-4,-7,2,-4,-1,-2,-1
1537907923654603,-2,-2,5,-6,-1,1,-1,-1
1537907923667568,-1,0,-11,3,-1,-2,-1,-3
1537907923667568,-3,-3,-9,-7,1,0,-1,-2
1537907923675547,0,-7,4,-2,2,-1,0,-1
1537907923675547,-1,1,4,9,6,-1,2,0
1537907923690508,1,5,7,-20,-9,-2,-3,2
1537907923690508,6,9,24,11,1,-1,0,0
1537907923692503,-3,-14,19,-1,-4,-3,-1,-2
1537907923692503,-3,0,-52,-12,-2,0,-2,-2
1537907923713447,3,8,-3,25,6,2,1,2
1537907923713447,-4,-5,35,-7,-5,-2,-2,-3
1537907923714444,-5,-3,9,1,3,1,-2,-4
1537907923714444,-5,-7,-60,-12,-7,-2,0,0
1537907923727407,3,-4,-18,-1,1,-2,0,1
1537907923727407,1,4,2,-3,0,0,1,1
1537907923734388,1,0,-2,1,-4,-2,-1,1
1537907923734388,-4,-1,56,4,1,0,-2,-3
1537907923751343,-5,-2,-32,-4,-1,-1,-2,-4
1537907923751343,3,0,-17,4,1,-1,0,2
1537907923752340,2,5,-13,-1,-1,0,0,3
1537907923752340,1,-2,4,-3,0,-1,1,0
1537907923773284,-4,-4,22,4,-2,-2,-1,-6
1537907923773284,-4,-3,-5,-3,0,0,-1,-4
1537907923774281,-4,-5,-19,-6,-3,-4,-4,-7
1537907923774281,2,3,23,7,2,0,1,2
1537907923787246,2,0,6,2,1,1,1,2
1537907923787246,4,1,-23,-11,-4,1,1,4
1537907923794228,4,-3,-25,3,0,-2,1,2
1537907923794228,-1,-2,19,22,6,1,-1,-2
1537907923811183,-9,-2,-3,-25,-10,-6,-3,-5
1537907923811183,-5,1,45,-4,-3,-1,-3,-4
1537907923812180,4,-9,-56,-1,4,2,0,4
1537907923812180,7,-1,4,9,3,0,3,10
1537907923833125,4,3,9,0,5,3,2,3
1537907923833125,-9,0,-3,-3,-5,-6,-8,-9
1537907923835121,-9,-18,9,-2,-4,0,-3,-12
1537907923835121,4,7,-4,-6,-6,-3,-1,-2
1537907923847088,11,3,-2,10,5,2,7,18
1537907923847088,-13,-2,-14,4,5,3,-2,-14
1537907923856065,-4,2,18,0,-1,-3,-4,-4
1537907923856065,-34,-11,-9,-6,-2,-3,-10,-27
1537907923871024,9,-1,5,-2,-2,1,7,16
1537907923871024,53,8,-8,5,7,9,21,46
1537907923872022,-4,9,16,16,-4,-7,-7,-1
1537907923872022,5,-15,-8,-30,4,4,4,-1
1537907923892965,-77,-17,-40,-23,-37,-27,-35,-46
1537907923892965,28,12,34,30,26,22,24,12
1537907923894959,30,21,29,-58,-50,-13,-9,15
1537907923894959,-53,-37,-50,6,-17,-15,-36,-17
1537907923922884,7,-82,-80,-49,6,1,0,-25
1537907923922884,-27,55,65,-3,-20,-23,-44,-48
1537907923924879,20,5,3,49,19,9,22,30
1537907923924879,59,23,62,89,47,19,56,76
1537907923930863,-9,89,-35,28,-1,9,-3,-7
1537907923930863,-21,-119,-128,-70,-3,-3,-20,-29
1537907923931860,-8,31,117,45,29,-3,-7,21
1537907923931860,67,13,-24,-33,7,23,-21,-6
1537907923952804,-19,-13,-7,-19,-30,-17,-11,-49
1537907923952804,-3,13,-20,34,31,23,91,10
1537907923960783,-44,33,-29,4,-13,4,-24,-34
1537907923960783,23,-8,7,47,36,-3,6,26
1537907923966767,-2,0,65,31,15,10,-39,8
1537907923966767,-10,23,-35,-42,-41,-20,-51,3
1537907923975743,86,-19,31,29,25,26,105,55
1537907923975743,-38,12,11,-40,-27,-10,-7,-19
1537907923990702,18,11,13,-5,3,-3,2,5
1537907923990702,-27,-17,5,27,-3,-9,-6,4
1537907923992697,-4,-20,-24,-23,7,3,-7,-1
1537907923992697,-13,0,-17,-22,-15,-4,3,-12
1537907924013641,1,-5,69,-1,-1,-3,6,2
1537907924013641,8,-21,-91,2,9,6,-15,6
1537907924019625,-12,-4,-16,-19,-3,7,-2,-7
1537907924019625,-14,7,4,-39,-24,-2,-21,-79
1537907924026606,13,-12,91,44,16,-9,42,100
1537907924026606,0,11,72,24,4,69,-16,-85
1537907924035583,-41,0,-5,-52,-25,-89,-36,-16
1537907924035583,6,8,-72,-3,-14,-78,-24,74
1537907924050542,19,-29,-52,8,4,-19,-39,-31
1537907924050542,4,34,127,3,5,26,26,49
1537907924056527,-38,-9,-11,3,4,33,-24,-100
1537907924056527,3,7,99,49,1,4,11,9
1537907924073481,6,10,31,0,0,10,29,36
1537907924073481,-14,-17,-112,-35,-8,16,-23,-3
1537907924074479,-4,-32,-75,-32,-9,-29,-14,-25
1537907924074479,11,8,86,-16,-8,8,13,41
1537907924087444,17,26,-14,10,8,8,14,9
1537907924087444,-9,-4,45,8,-7,-30,-2,-16
1537907924095422,6,5,-74,-8,5,20,5,29
1537907924095422,-12,-7,20,11,-2,-5,-6,-30
1537907924110383,-4,6,2,6,0,4,-9,-12
1537907924110383,0,0,-84,7,0,-10,9,15
1537907924117364,4,0,-39,12,7,-4,-10,8
1537907924117364,-4,5,66,3,1,6,2,-10
1537907924133321,-4,-18,-38,-11,7,24,5,-15
1537907924133321,21,21,22,5,2,-27,6,30
1537907924134319,2,-25,7,3,-7,2,0,7
1537907924134319,-27,-3,-82,-36,-31,3,-17,-41
1537907924147284,24,40,-17,14,12,5,16,23
1537907924147284,-8,-19,9,-7,6,-21,0,4
1537907924156260,18,-58,0,-34,-13,3,-12,12
1537907924156260,-22,-15,-31,-27,-19,4,-1,-8
1537907924170223,29,65,33,-22,-21,-13,-14,-28
1537907924170223,-10,-21,-35,-17,14,-6,25,41
1537907924177204,-35,46,1,40,-8,7,30,-53
1537907924177204,78,19,-26,-10,24,5,-94,-28
1537907924194159,-10,-15,-23,74,28,-6,-48,29
1537907924194159,30,89,2,-97,-81,-27,40,7
1537907924195157,-45,-24,6,53,19,-13,-59,34
1537907924195157,31,-7,-39,50,9,8,61,1
1537907924207125,0,-31,40,75,8,8,-33,-56
1537907924207125,26,-39,31,-21,44,31,38,16
1537907924216103,-16,4,46,66,-12,-28,-94,62
1537907924216103,-76,69,-67,-69,-72,-29,104,-75
1537907924230064,72,-32,-48,-17,10,14,-43,-27
1537907924230064,2,63,28,37,-3,-13,-77,-36
1537907924237045,-20,-19,-49,-73,-39,-4,76,-88
1537907924237045,71,-9,31,-18,55,24,-8,127
1537907924253002,-122,29,-24,-36,-44,-21,2,-50
1537907924253002,-5,-19,56,62,21,3,-18,-9
1537907924254999,0,23,-7,14,28,11,-51,12
1537907924254999,67,-13,-3,-1,-4,11,40,47
1537907924275942,-37,-15,-3,-64,-4,-1,81,-17
1537907924275942,-24,-24,4,1,-12,-5,-8,-12
1537907924276940,21,-24,-31,-25,6,10,5,3
1537907924276940,-37,-19,-27,-4,-2,5,10,-29
1537907924289904,19,6,-7,5,12,8,19,54
1537907924289904,8,-27,-13,18,-8,-16,-23,-10
1537907924298881,19,23,48,-30,-8,8,34,-10
1537907924298881,-41,-19,-3,30,13,14,-33,-13
1537907924313840,14,-22,24,-24,-6,-15,3,18
1537907924313840,-8,8,-15,-8,6,76,4,-34
1537907924314839,2,-7,-29,35,14,35,32,49
1537907924314839,-26,-14,-59,-15,-13,-95,-39,-11
1537907924335782,26,-14,43,-21,-8,99,20,12
1537907924335782,0,-4,30,24,10,-4,24,51
1537907924337776,-15,-1,9,-5,-2,-19,-3,-84
1537907924337776,-8,11,17,51,34,124,16,-33
1537907924349743,4,-2,-76,-33,-10,-39,-5,76
1537907924349743,2,-9,40,18,-4,-102,5,47
1537907924356725,4,22,127,-7,-2,71,6,-41
1537907924356725,-22,-13,-97,-31,-5,-14,-16,-116
1537907924373679,-6,-1,30,-10,4,36,8,27
1537907924373679,3,3,12,23,15,50,5,-5
1537907924374676,18,5,-97,17,11,-46,15,69
1537907924374676,-6,-4,70,2,-3,1,10,16
1537907924395620,-1,-12,-3,15,7,0,5,10
1537907924395620,0,9,-9,-7,-16,-28,-18,-16
1537907924397615,5,-14,24,-18,0,-10,3,4
1537907924397615,-1,26,-13,-1,-10,2,-10,29
1537907924409583,-6,-16,-30,11,5,-19,-7,-27
1537907924409583,-8,-10,5,9,-19,-21,-9,-10
1537907924418559,3,-6,-17,36,4,5,0,-9
1537907924418559,6,-12,24,-31,6,8,-6,32
1537907924433519,-7,16,27,18,0,-26,-4,-21
1537907924433519,-4,-3,-44,2,12,14,5,-19
1537907924434517,12,25,-8,-34,-15,8,2,26
1537907924434517,-2,-4,16,4,-6,-16,-13,9
1537907924455460,-2,2,6,0,-1,-9,1,-18
1537907924455460,-2,-15,-42,-11,-2,9,-2,4
1537907924457455,3,0,2,3,11,3,-2,4
1537907924457455,-14,1,50,7,-8,-11,-7,1
1537907924469423,2,4,-58,2,1,-3,4,-14
1537907924469423,2,-17,22,7,-1,6,1,7
1537907924478399,13,-1,-55,-29,-3,-6,-1,9
1537907924478399,0,-17,8,2,1,1,2,-1
1537907924494356,-3,16,25,12,-4,11,-5,1
1537907924494356,-2,-5,-32,-3,4,-12,-1,-3
1537907924495354,0,-2,53,-1,-6,-2,1,-1
1537907924495354,-3,-6,-20,11,0,-5,-5,6
1537907924516298,0,-6,27,-5,-3,-8,-3,-4
1537907924516298,-1,5,-15,-12,3,8,-1,-2
1537907924517295,-2,4,8,-1,-8,-3,-9,-22
1537907924517295,-2,-5,-10,0,0,0,-2,5
1537907924529263,-1,-2,-11,-7,0,0,0,-6
1537907924529263,-6,-1,-40,8,3,2,0,-3
1537907924538240,4,4,9,-15,2,3,1,5
1537907924538240,0,-3,29,10,-4,-2,-2,3
1537907924553200,-4,0,-32,-1,-2,-7,0,-5
1537907924553200,-1,6,33,-4,-3,2,-2,-6
1537907924555195,1,-6,-17,-2,3,-3,-2,4
1537907924555195,-2,-10,27,13,5,2,-1,0
1537907924576139,0,3,-30,-23,-4,-5,0,-2
1537907924576139,-1,-10,9,3,1,1,-1,1
1537907924577136,1,-2,9,0,4,3,2,6
1537907924577136,0,5,-1,-14,-3,-2,0,1
1537907924589103,1,-2,-1,14,-2,-5,-2,-3
1537907924589103,1,6,0,-6,-4,-1,-2,-2
1537907924598079,-1,2,-3,22,0,1,0,3
1537907924598079,-2,4,3,-19,0,0,-3,-5
1537907924613039,1,-5,7,0,-2,-2,-2,-1
1537907924613039,0,-1,-15,-13,-4,-1,-3,1
1537907924619023,4,-2,19,-4,1,0,1,5
1537907924619023,-1,6,-20,2,3,0,-1,2
1537907924635978,-10,-13,15,8,1,-1,-1,-9
1537907924635978,0,3,8,1,-2,-1,1,1
1537907924636976,2,2,-48,-5,-1,-2,-1,2
1537907924636976,3,-1,57,4,-1,-1,-3,2
1537907924649941,-3,-10,-4,1,-3,-4,-1,-1
1537907924649941,-2,12,4,-9,-6,-3,-1,-3
1537907924657919,2,-4,-24,-2,5,1,2,4
1537907924657919,-4,1,-5,-7,-7,-2,-2,-1
1537907924673878,-2,-8,29,7,6,2,1,0
1537907924673878,-4,19,-36,14,0,-2,0,-1
1537907924680860,-2,3,53,-19,-13,-3,0,-3
1537907924680860,3,-6,-13,7,4,2,1,0
1537907924688837,0,8,-8,-12,0,1,-1,-1
1537907924688837,-3,-7,-21,-1,4,-1,-2,-4
1537907924695819,0,-6,5,7,1,1,2,1
1537907924695819,-3,-6,6,4,3,-1,-1,0
1537907924701803,3,8,-14,-2,-2,-2,0,0
1537907924701803,1,-6,1,-4,-1,0,-1,1
1537907924710779,-2,4,18,-4,-2,-3,-3,-2
1537907924710779,-1,-12,-48,-5,-3,-2,-3,-1
1537907924724741,0,5,-12,14,-1,-4,-5,-3
1537907924724741,-4,-7,56,-17,-8,-3,-4,-4
1537907924731722,1,1,-34,4,2,0,-2,1
1537907924731722,-3,-3,-3,-1,-4,-1,0,1
1537907924748677,-1,0,-3,1,0,0,0,-1
1537907924748677,-1,6,-1,0,-2,-2,-4,-5
1537907924749675,-4,0,27,2,0,-2,-2,0
1537907924749675,5,-12,-19,-2,1,-2,3,9
1537907924761642,9,3,14,-1,3,2,7,13
1537907924761642,0,-5,3,34,-2,-3,-1,1
1537907924770618,-12,19,-23,-27,-5,-5,-9,-20
1537907924770618,-16,-12,-31,28,12,-1,-4,-8
1537907924785578,-37,-6,9,-36,-11,-4,-4,-12
1537907924785578,51,23,3,-18,-26,-9,8,27
1537907924791563,14,-15,12,5,-22,-12,-25,11
1537907924791563,-30,16,-3,2,0,-1,0,-43
1537907924808518,29,-35,-17,53,68,21,16,45
1537907924808518,-69,-12,8,-93,-80,-41,-93,-63
1537907924809515,71,15,-13,62,56,31,102,0
1537907924809515,3,-23,6,13,35,14,-26,14
1537907924821482,45,47,3,-96,-111,-45,5,3
1537907924821482,12,-10,-27,18,61,37,-11,121
1537907924830459,-43,-95,22,60,8,-12,-63,-68
1537907924830459,-31,24,21,-68,-3,-10,-23,50
1537907924844421,23,-35,-49,-30,10,-2,-16,-106
1537907924844421,-14,23,10,-10,-12,5,46,-23
1537907924853397,-25,27,-16,-11,-21,-9,6,1
1537907924853397,20,3,-12,41,11,5,6,4
1537907924868357,-73,-8,1,4,-1,-4,4,37
1537907924868357,62,22,-13,2,2,-3,15,12
1537907924869355,-16,-9,-6,-6,13,6,-5,14
1537907924869355,13,10,23,13,-15,-4,6,3
1537907924882320,11,0,54,-30,-19,-8,-26,4
1537907924882320,-20,-54,-50,23,20,8,19,-35
1537907924891296,9,31,22,14,12,21,2,43
1537907924891296,-2,-5,-34,-42,-23,-3,-13,-43
1537907924905259,4,-3,-61,21,12,32,37,45
1537907924905259,-25,-5,121,70,30,-11,-27,-88
1537907924912240,-6,11,64,-36,-27,-30,-13,68
1537907924912240,14,-16,-56,-12,-11,-6,1,-50
1537907924928198,-18,-8,51,13,7,-13,-4,-2
1537907924928198,10,4,31,24,17,76,26,89
1537907924930193,19,17,-34,-70,-17,-58,-15,-14
1537907924930193,-16,5,103,44,-3,-43,-11,91
1537907924942161,-11,3,38,49,11,24,-11,-76
1537907924942161,9,-5,39,-61,-23,3,5,12
1537907924951138,24,42,127,36,25,46,34,41
1537907924951138,-2,-3,-123,-28,0,43,28,10
1537907924965099,3,-7,9,1,1,-16,-5,29
1537907924965099,-9,-7,28,15,-7,-25,3,-6
1537907924972082,-18,2,-48,-16,-1,14,-1,-30
1537907924972082,14,3,-26,-20,1,-10,3,-12
1537907924988037,6,15,17,33,7,-4,-11,-8
1537907924988037,-12,-23,-11,3,-1,-10,3,-21
1537907924990032,-11,-16,-34,-25,-21,-22,-13,-19
1537907924990032,10,5,7,23,20,9,-2,-11
1537907925002000,11,-1,-22,7,11,4,9,28
1537907925002000,4,23,-33,25,-22,-17,-4,0
1537907925010975,-30,-31,-38,14,2,8,-4,-9
1537907925010975,24,9,22,-9,-16,-4,3,2
1537907925025935,-27,-33,20,59,42,3,-25,25
1537907925025935,64,13,-34,-23,43,20,15,17
1537907925031919,27,-37,0,3,-62,-43,-93,-79
1537907925031919,-106,39,30,-53,41,22,48,-74
1537907925047876,8,-8,-22,-40,-51,-32,-60,-71
1537907925047876,81,36,-63,-35,-11,-18,-49,75
1537907925049871,107,96,-9,-49,17,21,124,59
1537907925049871,-71,-87,14,90,16,-6,-108,-76
1537907925069818,-31,72,-28,-75,-17,10,86,31
1537907925069818,32,63,17,-125,-88,-21,20,-77
1537907925078794,24,-24,9,127,-1,-23,-93,65
1537907925078794,127,10,-2,25,62,18,19,114
1537907925084778,-110,-24,7,-48,-29,-2,84,-82
1537907925084778,-70,-48,20,37,-11,-21,-74,-67
1537907925091759,-31,-12,-1,7,26,30,12,-10
1537907925091759,55,74,13,-106,-75,-24,-20,53
1537907925108714,62,-20,-32,14,24,19,64,44
1537907925108714,-81,-48,-56,-27,-12,-18,-24,-57
1537907925109711,-32,-21,1,-21,6,8,0,-8
1537907925109711,-17,-37,-92,32,3,1,-14,31
1537907925121679,60,42,99,39,16,10,-16,54
1537907925121679,-14,-14,-39,18,11,2,26,14
1537907925130656,-22,-6,0,-26,2,0,-8,-21
1537907925130656,2,-11,-41,-4,-21,-4,24,-9
1537907925145615,12,-11,11,-13,-12,6,-39,8
1537907925145615,-5,-10,32,40,30,-16,24,12
1537907925151599,-36,-16,31,-1,11,75,-2,-65
1537907925151599,-2,0,34,-21,-25,-41,22,-39
1537907925168554,12,-30,-121,-12,-10,-58,-44,11
1537907925168554,15,13,74,78,45,-8,-7,-10
1537907925169552,-10,-13,84,-24,-14,48,11,-32
1537907925169552,-33,-31,58,17,-16,-57,23,-7
1537907925182518,36,3,-4,-22,0,75,5,66
1537907925182518,-6,27,-35,29,18,-12,67,7
1537907925190497,-2,7,-74,-22,-2,54,-83,18
1537907925190497,-20,-14,116,26,-5,47,-6,-73
1537907925205456,-10,26,-110,-1,21,-24,-21,-69
1537907925205456,38,1,-2,-12,0,-38,30,81
1537907925211440,2,8,4,-34,-1,-2,47,40
1537907925211440,11,-18,18,17,-2,12,2,47
1537907925228394,-1,27,118,19,-1,17,-10,1
1537907925228394,-27,-4,46,10,-1,34,-2,-38
1537907925229392,-5,-4,-100,17,25,-40,11,-5
1537907925229392,10,-5,87,-52,-33,-4,-6,3
1537907925242357,-3,1,-13,25,11,-15,-6,-11
1537907925242357,-12,-13,21,-25,-13,19,-18,-14
1537907925251334,-11,-17,-4,-29,-43,-60,-6,7
1537907925251334,14,12,-32,11,11,13,11,10
1537907925265296,-3,-6,23,9,7,5,-7,-11
1537907925265296,-6,-28,-43,4,3,4,-12,16
1537907925272277,6,25,17,-1,16,-9,16,6
1537907925272277,4,5,-46,13,-7,2,6,-8
1537907925287238,-9,-12,-10,-26,-9,-13,-13,-2
1537907925287238,-13,3,-4,11,6,10,-10,-10
1537907925294219,5,-8,-17,13,0,-15,15,-4
1537907925294219,3,39,12,15,11,10,1,-2
1537907925302198,5,-10,-1,10,5,-5,-8,12
1537907925302198,4,-8,-6,-35,-13,8,2,11
1537907925311175,0,24,6,-1,3,-6,9,-6
1537907925311175,-8,-23,18,21,4,-5,-4,4
1537907925325138,2,-8,-70,22,1,0,-2,2
1537907925325138,-2,8,46,-38,-13,4,3,-3
1537907925332118,-3,-5,16,-7,1,-5,-2,1
1537907925332118,3,8,-23,-2,7,30,4,2
1537907925348075,-3,-3,-35,4,-4,-49,-18,-6
1537907925348075,-1,2,34,10,4,3,0,-23
1537907925354060,0,-5,4,10,2,-4,9,27
1537907925354060,4,13,1,0,-2,4,9,21
1537907925362038,-1,-8,43,-4,0,14,-12,-19
1537907925362038,-3,9,-53,-7,1,3,-9,-16
1537907925371015,1,-2,7,7,-1,-7,6,-5
1537907925371015,-4,-2,-22,12,5,-1,0,-12
1537907925384977,-2,2,31,-11,-9,5,5,14
1537907925384977,0,-11,-39,-3,2,-1,-1,15
1537907925391958,1,1,-1,-8,-4,-4,3,-4
1537907925391958,-2,0,60,7,-2,-7,-5,-2
1537907925407914,1,3,-55,10,3,3,2,-2
1537907925407914,-1,-13,19,-10,-7,1,-1,5
1537907925414896,-2,5,-59,-4,2,-4,-1,-4
1537907925414896,0,-19,40,-4,-7,-10,-6,-3
1537907925421877,0,-1,24,-21,-12,-2,-1,-3
1537907925421877,-4,-13,-34,-1,11,7,4,5
1537907925430853,-4,-5,50,-7,-28,-11,-6,-5
1537907925430853,4,18,-63,-15,2,-3,-1,-2
1537907925444816,-3,0,14,10,5,9,4,2
1537907925444816,2,-3,-20,3,5,2,1,8
1537907925451797,-1,2,44,5,2,-5,-2,-3
1537907925451797,2,-1,-27,1,3,1,-2,-3
1537907925467754,-5,6,27,-3,-2,-1,-1,-2
1537907925467754,3,-2,-10,4,1,0,-2,3
1537907925474736,2,-21,-6,1,4,-1,-1,-2
1537907925474736,-5,2,-7,2,-1,0,-2,-2
1537907925490696,-2,6,34,4,3,2,-2,0
1537907925490696,-2,5,-42,3,-2,-1,0,4
1537907925492690,-1,-4,-7,1,2,0,-2,-2
1537907925492690,-1,-18,-11,-14,0,-4,0,1
1537907925505655,0,-3,39,4,1,1,0,1
1537907925505655,0,8,-2,4,-4,-2,0,0
1537907925511638,-3,-6,-1,16,6,1,2,-2
1537907925511638,1,8,-17,-17,0,-2,-1,0
1537907925528592,0,-5,-2,9,-6,-2,-1,-3
1537907925528592,-2,1,14,-18,-5,-3,-3,-1
1537907925541557,-4,-4,-12,-1,5,0,-1,-2
1537907925541557,3,10,8,9,-3,-1,1,-1
1537907925550533,-1,2,-18,-2,-1,0,0,0
1537907925550533,0,-4,1,10,2,1,-2,3
1537907925552528,-1,1,4,1,-2,-3,-1,0
1537907925552528,-4,-5,-11,4,1,0,-1,-3
1537907925580453,-1,4,1,-14,-2,0,1,-2
1537907925580453,-2,-15,-13,3,-4,-3,-1,0
1537907925582448,1,12,-1,-6,2,0,0,-1
1537907925582448,-2,-13,0,0,2,0,-1,0
1537907925595415,1,-13,-8,-2,-3,-2,-1,1
1537907925595415,-4,7,31,6,5,1,0,-2
1537907925597410,-1,2,-39,1,-3,-1,-1,-3
1537907925597410,0,-1,-20,-18,-5,-3,-1,-1
1537907925618353,-5,-6,-8,7,-4,-2,-3,-2
1537907925618353,1,6,46,9,-4,-2,-1,2
1537907925624336,7,0,-7,-5,-1,-1,0,1
1537907925624336,-2,11,23,13,5,1,-2,-1
1537907925632315,-3,-11,-20,-18,-7,-3,-2,-3
1537907925632315,-7,-5,-38,4,0,2,0,-3
1537907925639304,1,6,47,3,2,0,0,0
1537907925639304,3,4,0,0,-3,-3,-2,1
1537907925656250,1,5,25,7,1,1,0,0
1537907925656250,4,28,-7,-5,0,-2,-2,-1
1537907925657248,-10,-59,-3,-9,-4,-2,-1,-2
1537907925657248,-2,3,1,4,1,0,-1,-2
1537907925678191,-1,-9,-45,-5,1,0,1,-1
1537907925678191,3,12,7,4,2,1,0,-2
1537907925684175,0,11,-2,-3,1,0,0,0
1537907925684175,-3,-4,21,0,-4,-2,0,-1
1537907925692154,-2,-2,6,3,2,0,0,-2
1537907925692154,2,-1,-13,-5,0,0,1,-1
1537907925701130,-1,7,3,0,1,0,0,0
1537907925701130,-2,-9,-6,8,-3,-1,-1,0
1537907925716091,3,16,-6,-5,3,2,2,1
1537907925716091,-1,-8,5,8,4,-2,-2,1
1537907925717088,-3,-1,-1,1,-2,-2,0,-1
1537907925717088,-1,-5,-4,3,-1,-1,-2,1
1537907925738032,-4,10,1,-16,0,2,-1,-1
1537907925738032,1,-6,27,-18,-8,-2,1,1
1537907925740027,-2,10,-39,7,-1,-2,-1,-3
1537907925740027,2,-18,-17,-1,3,-1,-1,1
1537907925751995,3,6,50,16,-2,-2,0,1
1537907925751995,-1,-6,-63,-7,3,1,-1,0
1537907925760973,3,13,44,-5,-2,0,-1,0
1537907925760973,-3,-6,-2,-8,-2,-1,0,-2
1537907925775932,-3,-8,2,2,2,-1,-1,-1
1537907925775932,-5,7,-18,7,-2,0,-3,-2
1537907925776930,0,-14,16,-1,-2,-1,-1,-1
1537907925776930,-1,10,-17,4,-1,-2,-1,-1
1537907925797874,0,2,0,-16,0,-1,0,0
1537907925797874,0,-9,13,14,-3,-2,0,1
1537907925799869,-1,1,-28,-6,-2,0,-2,0
1537907925799869,1,1,21,-6,3,1,0,-1
1537907925811836,1,1,-17,11,1,-2,-1,-1
1537907925811836,0,-9,3,0,-2,-2,-3,0
1537907925820811,-3,5,21,7,-1,-2,-1,-3
1537907925820811,0,-3,-10,-10,0,-1,1,-1
1537907925835770,0,-3,-15,-9,-5,-2,-2,0
1537907925835770,-3,-16,-13,1,5,1,0,0
1537907925836768,0,13,14,5,0,-1,-1,0
1537907925836768,-1,1,5,-9,-3,-1,-2,-2
1537907925858709,0,-9,7,10,0,-1,0,1
1537907925858709,1,6,5,-12,-2,0,-1,0
1537907925859706,-3,-10,1,4,-3,-3,-2,-3
1537907925859706,-2,6,-11,-6,-4,-1,-3,-2
1537907925871674,1,0,8,7,0,0,-1,-1
1537907925871674,2,8,7,4,1,0,0,-1
1537907925880650,-3,-11,-17,-7,2,0,0,-1
1537907925880650,-1,1,12,8,-3,-2,-1,-1
1537907925895610,-3,-9,-16,-3,-2,0,1,-1
1537907925895610,-1,6,8,-15,-13,-3,-2,-2
1537907925897605,0,5,-8,-2,1,-1,-2,0
1537907925897605,2,4,-2,4,2,3,-1,0
1537907925918549,-2,-4,9,-5,0,1,-1,-1
1537907925918549,-2,-7,11,14,5,0,0,-1
1537907925919547,0,5,-1,-10,-6,-1,-1,-1
1537907925919547,0,15,17,3,-2,-1,0,-2
1537907925931515,-4,-26,-54,-4,0,0,1,-1
1537907925931515,4,6,0,14,4,0,1,1
1537907925940491,-2,-10,3,-18,-4,0,-1,0
1537907925940491,-1,-3,10,5,2,0,-2,-1
1537907925955452,-3,6,22,4,1,0,1,-2
1537907925955452,-5,-16,-15,-2,-4,-1,1,-1
1537907925962432,0,13,6,9,2,-1,-1,-2
1537907925962432,1,4,-16,-8,-1,0,0,0
1537907925978390,2,-1,2,4,1,-1,-1,-3
1537907925978390,-1,-5,-12,-23,-12,-2,-2,-1
1537907925979388,1,4,-3,1,1,2,0,1
1537907925979388,0,-9,-4,-5,-1,2,-1,-1
1537907926000332,-4,9,18,1,-1,-2,-3,-4
1537907926000332,0,1,-3,21,7,0,1,1
1537907926002328,1,-6,-33,-3,0,-2,-1,-1
1537907926002328,2,5,21,-7,-1,-2,1,2
1537907926016289,7,25,27,2,-2,0,2,5
1537907926016289,-7,-35,-27,-5,4,1,-1,-3
1537907926017288,11,-10,32,23,3,3,6,14
1537907926017288,-2,6,-31,-37,-22,-6,1,9
1537907926038230,18,4,-25,2,18,6,-7,-12
1537907926038230,-8,69,78,5,-9,-5,0,3
1537907926040224,-11,-10,-9,21,18,1,4,-18
1537907926040224,24,21,1,18,24,3,-11,17
1537907926052192,18,-32,36,-4,-47,1,80,0
1537907926052192,-54,-52,-55,-13,9,-9,-55,-63
1537907926061169,35,12,-8,-12,-10,1,36,37
1537907926061169,-57,13,60,39,20,5,-56,-58
1537907926075131,89,23,-42,58,54,13,19,98
1537907926075131,39,28,7,-103,-75,-8,71,27
1537907926082112,-54,-57,-63,33,-9,-23,-88,-94
1537907926082112,68,29,30,51,55,35,127,89
1537907926098069,-6,-37,-87,-102,-90,-37,-48,-85
1537907926098069,54,-11,39,108,42,17,7,18
1537907926100064,54,35,-67,22,30,24,69,62
1537907926100064,-55,-3,-80,-7,-26,-9,23,-14
1537907926112032,-40,21,41,2,38,-21,-90,6
1537907926112032,-67,-4,-21,51,-30,-16,5,-27
1537907926121008,-22,-13,2,-51,-23,-6,-18,-58
1537907926121008,20,-17,3,12,2,3,-25,18
1537907926134970,-31,3,-3,-9,11,16,65,28
1537907926134970,27,19,72,-13,6,-5,-3,27
1537907926142949,0,10,32,30,22,8,-9,32
1537907926142949,-9,-18,6,-30,-23,-10,-10,-20
1537907926157910,-24,-13,10,0,-7,-4,-26,-21
1537907926157910,15,-8,-40,-22,19,8,-14,-4
1537907926159904,6,3,62,2,-14,-2,32,35
1537907926159904,-11,-28,-89,-32,-12,2,-45,-54
1537907926180849,16,13,92,24,5,1,17,50
1537907926180849,1,4,-39,20,18,47,14,-37
1537907926181846,-24,-6,-1,-45,-20,-43,-32,-44
1537907926181846,-7,-9,-24,-8,-8,17,-12,6
1537907926194812,17,21,79,33,11,16,9,64
1537907926194812,24,-9,-109,-14,17,-18,34,47
1537907926201793,-35,3,93,12,-7,6,8,-43
1537907926201793,-12,-11,27,-45,-14,21,-58,-113
1537907926218747,16,-2,-113,1,-10,-81,-30,34
1537907926218747,-2,-5,-18,28,18,0,-20,20
1537907926219745,16,9,-17,-27,-3,54,38,46
1537907926219745,12,8,-18,28,-9,-80,19,9
1537907926240691,-21,-12,-37,-26,-3,38,13,-26
1537907926240691,-17,-19,24,-31,-14,-19,-36,-73
1537907926242686,16,26,19,41,13,5,-14,51
1537907926242686,-4,-6,-23,-21,-6,16,6,16
1537907926254652,-18,-13,76,31,-1,6,-5,-36
1537907926254652,5,11,35,-4,-1,-17,3,23
1537907926263627,-3,-26,-103,-17,-1,12,-2,-15
1537907926263627,14,14,42,5,-5,-4,3,35
1537907926278587,-7,-17,-74,-22,4,-11,6,-31
1537907926278587,-7,-10,38,3,-2,19,-2,6
1537907926279584,6,37,60,10,-2,-13,-15,0
1537907926279584,-8,-37,1,5,4,-16,2,-2
1537907926300528,-5,3,8,3,-1,14,-6,-18
1537907926300528,10,10,20,15,17,9,3,18
1537907926302523,18,-13,-48,-50,-36,-22,4,22
1537907926302523,-4,18,17,-36,-24,-15,-41,44
1537907926314491,7,20,-16,59,37,30,56,-22
1537907926314491,-34,-12,-12,19,-29,-8,18,13
1537907926323467,-48,2,17,14,20,-10,-67,-56
1537907926323467,97,-50,-36,-3,0,-3,-57,32
1537907926338427,-105,49,27,48,20,-1,14,-66
1537907926338427,80,25,-12,-46,-5,4,45,11
1537907926339425,20,-70,-11,12,1,13,66,25
1537907926339425,70,114,47,100,23,-6,-54,13
1537907926360370,88,-58,-10,99,67,13,-27,59
1537907926360370,-76,-86,-85,-52,-89,-27,26,-115
1537907926362365,96,118,83,29,21,32,22,100
1537907926362365,-81,8,11,55,36,25,122,-49
1537907926374332,4,-82,-17,-67,-69,-35,-57,-25
1537907926374332,67,95,-11,20,59,18,-14,47
1537907926383308,-30,-79,-46,-123,-26,-19,-48,-47
1537907926383308,31,26,-17,-43,38,20,92,62
1537907926398268,-50,18,-18,47,-2,3,22,-15
1537907926398268,-25,-22,21,-33,-41,-11,5,-30
1537907926400263,-3,-5,-37,32,16,-2,-31,12
1537907926400263,39,-20,30,0,-3,1,-9,27
1537907926421206,8,7,-2,-35,-15,2,24,10
1537907926421206,7,-9,20,9,19,2,-43,25
1537907926422205,-10,-14,-22,31,-6,-13,13,-18
1537907926422205,-38,-31,-8,-19,-26,-11,-27,-34
1537907926434172,-1,5,94,-45,-23,-1,-16,-15
1537907926434172,-20,12,-41,31,21,16,-11,18
1537907926443148,0,5,74,25,10,-15,-14,10
1537907926443148,-51,-28,60,-43,-29,34,36,-39
1537907926458108,10,4,-117,-27,-10,-46,-30,-2
1537907926458108,18,5,58,24,0,-52,-8,62
1537907926460104,-17,-25,-84,-28,-12,-62,-13,-28
1537907926460104,-2,0,71,47,15,63,3,-67
1537907926480049,-16,-17,59,-8,-26,-63,-4,-35
1537907926480049,18,-4,-22,-53,10,47,1,92
1537907926481047,-10,-2,-44,3,-37,-18,15,-80
1537907926481047,-22,-15,-128,-20,9,-32,-36,-70
1537907926502987,30,34,24,19,3,-34,-3,87
1537907926502987,-29,34,71,4,1,26,8,-84
1537907926502987,0,24,127,16,8,50,14,45
1537907926502987,-16,-16,-74,-15,-4,30,16,0
1537907926518945,26,28,35,1,9,53,24,-1
1537907926518945,9,29,13,-26,17,-11,-13,17
1537907926519942,-10,-41,-33,25,-10,0,-2,-3
1537907926519942,-11,15,38,12,-7,-18,-5,1
1537907926539888,-16,-16,-75,3,-1,-2,-19,-6
1537907926539888,-5,-6,59,-13,0,-9,-13,2
1537907926540887,0,45,-57,-22,0,12,-2,-32
1537907926540887,-2,-30,-83,0,-3,-35,-5,34
1537907926562827,4,2,33,-57,3,30,0,7
1537907926562827,1,0,53,33,-15,-3,-7,-26
1537907926562827,-2,1,-2,15,13,-2,6,0
1537907926562827,1,6,13,-40,-24,-29,-15,26
1537907926577787,1,22,3,-10,6,23,0,-12
1537907926577787,-9,-43,-32,67,19,7,-4,-23
1537907926577787,-12,5,-4,-8,-6,-14,-9,3
1537907926577787,12,18,41,20,-3,-4,-1,28
1537907926599729,-5,-12,4,-27,-2,18,3,-21
1537907926599729,-5,-4,-78,-10,-3,-11,-2,0
1537907926600726,5,-5,-35,7,4,6,3,14
1537907926600726,5,11,61,10,3,0,0,4
1537907926622667,-6,-24,-11,-1,-3,6,3,-7
1537907926622667,-3,-9,19,-7,-7,-8,-6,0
1537907926623666,-3,1,-2,6,16,6,3,1
1537907926623666,-3,4,-2,-6,-6,12,2,0
1537907926637628,4,7,6,6,-3,14,0,0
1537907926637628,-5,-3,1,7,1,-37,-33,-31
1537907926638626,-2,2,-9,-16,-7,-26,6,10
1537907926638626,-1,-11,-13,-1,-7,-8,7,48
1537907926660567,-1,-1,17,7,-1,8,-13,-67
1537907926660567,-1,1,-19,-3,5,20,1,-10
1537907926660567,-4,-7,-3,-11,-2,5,-4,-6
1537907926660567,0,10,67,15,1,-11,-5,2
1537907926683504,2,2,-51,4,3,10,7,22
1537907926683504,-3,10,-15,14,10,4,9,8
1537907926683504,1,3,-2,-25,-13,-5,-5,-9
1537907926683504,1,-7,-23,-3,-1,-3,1,11
1537907926697467,-6,-31,10,-5,-3,-2,-1,2
1537907926697467,-3,5,22,9,-2,-6,0,-3
1537907926698465,-4,-10,6,6,-1,5,-2,9
1537907926698465,5,3,-39,9,8,3,-3,-14
1537907926720406,0,3,31,-7,-1,-6,-2,7
1537907926720406,-5,-8,-8,-2,-11,-2,-2,4
1537907926720406,2,-1,18,18,9,13,3,-1
1537907926720406,-5,-12,8,-11,-8,-8,-4,-11
1537907926743344,-2,7,-15,-2,1,-4,-2,-1
1537907926743344,0,-5,-7,-13,-4,2,4,9
1537907926744342,1,10,14,1,1,4,-3,-5
1537907926744342,-4,-5,1,-1,-3,-4,-3,-9
1537907926757308,4,5,-14,3,0,-4,2,13
1537907926757308,-1,-6,-3,-10,-3,1,0,-5
1537907926758305,-4,-7,12,3,0,-2,-3,-3
1537907926758305,-2,-3,-3,-1,-1,-4,-2,-2
1537907926780246,0,-4,-12,-8,-2,2,-1,4
1537907926780246,-4,1,27,4,-4,-1,0,-3
1537907926781243,0,8,18,0,0,-1,-2,-4
1537907926781243,5,-3,-44,-3,1,2,2,6
1537907926803185,-3,-7,-12,-5,-3,-1,-1,-1
1537907926803185,-1,-18,21,-1,-1,-2,0,-1
1537907926804184,4,29,59,-7,2,3,2,3
1537907926804184,-2,-12,7,26,1,-2,-1,-3
1537907926817148,0,6,8,-5,-6,-3,-1,1
1537907926817148,-3,-11,-23,-1,2,1,1,3
1537907926818146,0,-2,-5,-1,-6,0,-2,-3
1537907926818146,-3,-5,17,-2,1,0,-1,-5
1537907926840086,2,7,-22,5,4,0,0,2
1537907926840086,-1,-1,16,-15,-2,-1,1,0
1537907926841085,-2,-2,-25,14,2,1,0,-3
1537907926841085,0,3,42,7,-2,-3,-3,-3
1537907926854051,-4,-11,-88,-24,-6,-2,-1,0
1537907926854051,3,16,70,7,-1,0,1,0
1537907926863025,0,-12,-80,-20,-2,-1,0,-1
1537907926863025,-2,-15,32,16,1,-1,1,0
1537907926877985,0,22,32,8,0,0,-2,0
1537907926877985,-4,-1,-11,0,-1,0,-1,-2
1537907926877985,-3,-13,-5,-5,-3,-2,0,-2
1537907926877985,-3,-4,0,-12,-3,-2,-2,-4
1537907926899926,7,8,-6,2,3,1,2,4
1537907926899926,6,4,-38,-4,2,1,5,6
1537907926900923,-1,-10,10,10,-2,-3,-2,-3
1537907926900923,-17,-2,-23,-25,-3,-1,-5,-13
1537907926913888,-7,18,49,30,6,1,1,-6
1537907926913888,-2,-30,-11,-2,5,3,3,4
1537907926922864,27,9,-7,3,3,3,5,19
1537907926922864,0,6,-2,-3,11,2,4,3
1537907926937824,-15,-8,11,22,-1,-2,-7,-4
1537907926937824,18,39,-26,21,17,3,5,32
1537907926937824,1,-15,27,-76,-69,-26,-39,-30
1537907926937824,-22,-1,-74,-9,-7,-4,12,-1
1537907926968742,50,8,99,-7,-4,9,28,-6
1537907926968742,-71,-62,-67,65,36,6,-44,-43
1537907926968742,55,-27,15,59,29,5,44,35
1537907926968742,-21,-7,13,-39,-8,-9,-70,-50
1537907926983702,15,-10,-86,31,-38,-9,-14,9
1537907926983702,28,44,-2,-110,1,14,30,61
1537907926983702,-54,-83,-16,54,7,-20,-29,-57
1537907926983702,65,46,-37,32,66,17,-29,67
1537907926997666,-85,-17,14,56,-41,-12,21,-101
1537907926997666,127,1,-14,-85,-7,6,21,63
1537907926998664,-100,-40,-30,-13,-9,7,-18,7
1537907926998664,53,22,4,-2,-38,-25,-42,-53
1537907927020604,56,19,-16,-16,34,12,-31,32
1537907927020604,-22,0,33,42,8,-2,47,38
1537907927020604,-64,47,49,-64,23,21,42,27
1537907927020604,38,17,10,31,-15,-2,24,-12
1537907927034567,-23,-5,-10,-25,7,-2,6,19
1537907927034567,2,14,19,30,-19,-5,-11,-36
1537907927042545,-9,10,-37,9,5,-2,-11,26
1537907927042545,-25,-23,42,18,2,4,17,8
1537907927057505,0,-11,-10,-32,4,0,-4,15
1537907927057505,-33,-7,-7,-9,-15,-7,-9,-19
1537907927058503,37,15,9,16,4,2,9,-12
1537907927058503,-21,-15,2,-25,-17,-3,-1,-9
1537907927080443,23,-2,-26,4,14,5,15,24
1537907927080443,-27,-19,-47,-2,-17,-2,-7,10
1537907927080443,31,36,9,28,19,6,-28,-69
1537907927080443,-2,-1,73,-9,-5,23,33,15
1537907927103382,-40,-17,-27,-8,-5,3,-13,-37
1537907927103382,8,-23,-29,32,-6,-45,-17,15
1537907927104379,32,20,-5,-29,-7,18,17,9
1537907927104379,-27,13,40,-1,8,-9,-4,-34
1537907927117345,-13,-3,127,36,-7,-65,-34,-61
1537907927117345,-30,-19,-112,-59,-16,25,-9,-78
1537907927118342,65,23,49,19,-2,-13,-4,125
1537907927118342,-23,-20,-113,-34,1,40,20,-45
1537907927140283,26,12,-22,-8,16,29,17,25
1537907927140283,-18,12,121,28,-11,-12,-13,-10
1537907927140283,-9,-24,-108,-19,-3,13,-3,-14
1537907927140283,-1,7,127,48,6,-38,9,23
1537907927163222,25,55,43,31,11,19,-9,33
1537907927163222,-3,9,28,8,2,-12,3,-13
1537907927164219,-10,-33,-105,-31,-5,29,10,-25
1537907927164219,0,19,-73,-23,-10,1,-4,32
1537907927177184,-5,-15,63,-21,-4,-11,7,19
1537907927177184,4,0,-54,26,12,15,2,7
1537907927178182,-6,38,45,12,-8,-22,-10,-16
1537907927178182,0,-34,-28,7,-1,-7,4,5
1537907927200123,-8,-9,-1,-29,-9,-10,-3,13
1537907927200123,-7,12,31,10,-15,-2,-13,-30
1537907927201121,-1,0,-49,-4,-4,-5,-2,-15
1537907927201121,0,-10,-51,-26,0,-11,4,19
1537907927223063,3,4,1,15,12,21,7,9
1537907927223063,11,-13,-12,1,11,4,0,12
1537907927224061,-17,12,54,-2,-9,-16,-8,-30
1537907927224061,-22,-4,30,4,-2,2,-5,-5
1537907927246001,-7,-12,-34,-31,-7,-5,-9,-11
1537907927246001,3,11,-29,-17,-4,-2,3,-5
1537907927246001,16,6,61,24,8,-4,5,17
1537907927246001,1,-14,-14,13,-1,4,2,5
1537907927259965,-4,-2,-39,17,9,5,-1,0
1537907927259965,-3,-17,3,-1,-10,-9,-1,-3
1537907927260963,1,10,32,-20,-1,4,4,-3
1537907927260963,2,-7,15,-2,-3,-1,-2,6
1537907927282903,-3,-7,-95,-25,-6,-1,2,5
1537907927282903,0,6,111,27,8,2,-2,-3
1537907927283900,0,11,18,4,3,-4,-2,-4
1537907927283900,3,-4,-2,-1,-5,1,3,3
1537907927297862,-2,-7,3,-6,-1,-3,-3,2
1537907927297862,-6,10,-7,-2,0,1,-4,-10
1537907927297862,0,-23,-1,-5,-3,-1,-1,0
1537907927297862,5,21,-2,1,-1,-4,-3,4
1537907927319803,-7,-25,-15,-2,2,5,2,3
1537907927319803,-5,13,-7,-11,-1,-3,-6,-9
1537907927320801,3,-4,10,15,1,-4,-1,-1
1537907927320801,1,-1,-23,-7,1,3,5,14
1537907927342742,-2,-13,-6,1,-3,-1,-1,-5
1537907927342742,3,17,32,-4,-2,-3,-1,-4
1537907927349723,-5,-5,20,4,0,-2,-1,1
1537907927349723,-7,-38,-71,-5,-1,0,-3,-14
1537907927357702,0,19,-11,-14,-2,-2,-2,-3
1537907927357702,5,4,28,21,9,2,3,6
1537907927358699,0,4,-16,11,2,1,0,-1
1537907927358699,2,-2,32,-1,-7,-1,-1,6
1537907927380641,-1,5,22,-5,-5,-3,-3,0
1537907927380641,-2,-18,-47,1,0,2,0,0
1537907927380641,5,0,-2,-34,15,5,3,0
1537907927380641,6,20,39,16,-37,-18,-6,-2
1537907927403580,-16,-28,-37,-22,2,1,-2,-5
1537907927403580,2,17,-9,-13,-7,-1,-2,-6
1537907927403580,0,28,11,31,11,1,0,-4
1537907927403580,6,9,-8,-8,11,3,2,5
1537907927417542,6,2,13,5,-2,-1,1,6
1537907927417542,0,-12,-9,3,2,1,0,4
1537907927418540,-4,-6,-10,-23,-12,-5,-4,-11
1537907927418540,-12,-3,6,6,2,-1,-3,-4
1537907927440482,10,8,57,17,-5,-3,-4,-5
1537907927440482,-13,-24,-111,-30,5,2,0,-5
1537907927440482,9,3,78,12,-3,0,4,10
1537907927440482,0,8,12,4,3,1,2,0
1537907927463421,-3,-3,8,1,0,1,0,0
1537907927463421,3,1,36,2,-2,-1,1,0
1537907927464418,-3,-6,-35,3,-3,-3,-2,-2
1537907927464418,-2,0,2,-8,4,2,-1,0
1537907927477382,1,3,-15,0,3,0,1,4
1537907927477382,0,-1,3,0,-3,-1,-2,-2
1537907927478380,-4,-7,-20,2,-1,-2,-1,0
1537907927478380,1,-2,13,-2,7,1,2,1
1537907927500321,1,-4,-7,4,-3,-4,-2,-3
1537907927500321,-2,4,11,3,-4,-1,0,-3
1537907927500321,-3,-13,-16,2,-1,-1,0,1
1537907927500321,7,-1,-12,-13,4,2,1,4
1537907927523259,-9,2,32,16,-6,-3,-2,-9
1537907927523259,-2,2,15,2,1,-1,-1,-3
1537907927524257,3,-8,-42,-26,-10,-3,0,1
1537907927524257,8,-9,-52,4,9,3,3,5
1537907927537222,1,14,-12,12,5,1,2,3
1537907927537222,4,-10,70,10,-1,-1,0,1
1537907927538219,-9,-14,-21,0,1,-1,-3,-8
1537907927538219,-10,5,32,-5,-4,-3,-2,-5
1537907927560161,9,0,-24,-28,-6,0,0,2
1537907927560161,-2,0,7,1,-4,-4,-4,-6
1537907927561159,7,4,-38,3,4,2,2,5
1537907927561159,-2,-1,6,2,-1,-1,3,3
1537907927583099,14,1,15,3,3,1,5,15
1537907927583099,-7,3,15,-3,1,0,-5,0
1537907927584097,33,12,23,11,-2,1,4,14
1537907927584097,-69,-21,-9,9,2,-5,-12,-36
1537907927597062,-6,1,0,-2,-14,-11,-14,-11
1537907927597062,7,11,-28,-6,14,7,7,14
1537907927598060,56,4,10,-37,-20,3,16,9
1537907927598060,-59,-19,-7,79,-6,-5,-25,-32
1537907927620001,-1,4,1,-114,-57,-17,-38,-43
1537907927620001,18,48,-28,53,22,13,17,9
1537907927620999,79,-18,26,70,38,18,27,67
1537907927620999,-73,-31,57,11,27,-4,-22,-31
1537907927642940,66,71,-59,-27,-63,-6,46,15
1537907927642940,16,37,-12,15,27,15,36,49
1537907927643939,-104,-48,91,24,-61,-6,-65,-59
1537907927643939,-42,6,-68,29,18,-8,8,0
1537907927657901,29,-114,-51,33,51,14,-79,-11
1537907927657901,24,29,8,-84,-32,-15,46,5
1537907927657901,11,77,-33,98,82,36,-1,28
1537907927657901,-21,-51,21,-44,-58,-26,-34,-74
1537907927679843,-65,-35,12,34,25,14,36,96
1537907927679843,30,57,10,35,12,18,30,-80
1537907927680841,-98,-47,-48,-61,-33,-41,-55,-73
1537907927680841,55,32,-27,3,2,7,8,41
1537907927702780,-5,36,7,9,20,10,32,37
1537907927702780,26,-61,17,-24,-11,2,68,61
1537907927703777,-4,24,9,-14,-6,-8,10,-9
1537907927703777,37,1,-62,-59,-17,-1,0,5
1537907927716742,-8,1,26,1,1,-3,-7,-8
1537907927716742,-27,-41,28,33,2,0,-26,-6
1537907927724721,-11,-5,-3,-22,-6,-9,6,-24
1537907927724721,41,25,13,-12,4,7,12,25
1537907927739681,5,-2,-6,43,18,3,-2,-7
1537907927739681,-29,-21,-21,-9,-8,-11,-50,-26
1537907927747660,-1,3,24,-18,3,-1,4,-8
1537907927747660,43,7,6,1,1,11,28,36
1537907927763617,-6,5,-11,21,8,3,12,-10
1537907927763617,-28,-14,-8,-15,-9,-21,-54,-44
1537907927763617,11,-12,-72,-12,4,62,30,-32
1537907927763617,24,8,112,3,-6,-26,21,114
1537907927776583,-18,9,63,-2,-6,-85,-24,-89
1537907927776583,-8,-18,-109,-18,-10,-4,-43,29
1537907927785559,12,6,85,13,1,-11,-10,-3
1537907927785559,24,13,-34,26,11,31,13,-31
1537907927800519,-11,8,46,-18,3,13,13,22
1537907927800519,-33,-25,22,14,-12,-42,-19,-96
1537907927800519,22,12,38,-2,3,32,31,78
1537907927800519,-16,-7,-28,-46,-18,-71,-34,-32
1537907927823458,11,10,-14,25,15,43,32,37
1537907927823458,-1,-28,-18,0,-5,13,-12,6
1537907927823458,-14,-13,51,12,3,10,0,-28
1537907927823458,8,13,127,-13,1,27,11,-7
1537907927845399,-5,-21,-124,17,1,0,-11,-9
1537907927845399,-5,-5,-40,-5,7,11,-2,14
1537907927846398,-3,-1,-17,-9,-6,-26,-3,4
1537907927846398,17,9,27,4,7,6,3,18
1537907927860360,-10,0,-13,-29,-19,-13,-16,-33
1537907927860360,-5,-16,18,1,-1,4,-5,12
1537907927860360,2,12,39,10,-3,-24,-1,14
1537907927860360,4,7,-85,5,-6,2,-7,-18
1537907927883301,-7,1,65,1,3,13,1,-9
1537907927883301,3,-5,-79,-18,-3,1,1,8
1537907927884297,4,4,-15,-3,8,-10,-3,9
1537907927884297,-1,-4,0,-1,0,8,-1,-8
1537907927905240,1,-15,-6,-7,-4,1,0,-7
1537907927905240,2,17,40,2,-4,-4,-3,16
1537907927907235,0,10,-90,-12,1,-9,-5,-10
1537907927907235,6,17,18,15,3,9,1,0
1537907927919201,0,-2,13,-14,-6,-5,1,2
1537907927919201,-7,-5,30,11,-4,-4,-6,-4
1537907927928177,-5,-8,34,4,-1,-2,-2,1
1537907927928177,0,-19,-120,-37,-1,4,1,0
1537907927942140,8,33,59,13,7,3,0,0
1537907927942140,2,4,-6,8,1,2,-1,4
1537907927951116,-3,1,12,-1,-8,-9,-1,0
1537907927951116,1,-2,26,12,0,0,-1,1
1537907927966076,-2,-5,-34,-18,0,2,-1,-6
1537907927966076,3,-2,-16,3,4,5,3,5
1537907927967074,-3,-13,-13,19,-5,-7,-1,1
1537907927967074,6,9,-51,-10,6,2,1,-1
1537907927979042,-5,0,2,19,1,1,-3,-6
1537907927979042,3,-3,21,-12,-4,-1,0,3
1537907927988018,-5,-8,16,-7,1,-3,-2,2
1537907927988018,-3,1,-40,-4,2,3,0,-4
1537907928010957,-4,4,84,26,-3,-4,-2,-5
1537907928010957,2,17,2,-12,0,1,-1,1
1537907928011954,-2,-41,-51,-21,-1,-2,0,3
1537907928011954,-1,0,30,7,-1,1,-3,-7
1537907928025917,6,-3,11,-7,4,4,15,40
1537907928025917,-1,13,15,-14,-7,-1,1,6
1537907928026915,-1,13,44,16,0,-3,-5,-9
1537907928026915,4,-13,26,8,2,3,3,4
1537907928039879,1,9,-59,-15,-2,1,-2,-3
1537907928039879,-4,-8,1,-5,-4,-4,-5,-9
1537907928055837,-3,21,50,2,-1,0,4,5
1537907928055837,0,-15,1,15,5,2,0,3
1537907928062817,26,1,-74,-27,-3,1,2,10
1537907928062817,-7,1,23,13,2,-1,-4,-2
1537907928064813,17,25,-18,-1,6,4,0,-2
1537907928064813,-60,-53,-4,-16,-1,-6,-3,-18
1537907928085757,-21,23,37,37,-3,-7,-32,-34
1537907928085757,72,25,2,5,-5,-2,26,28
1537907928086755,28,-9,-18,5,25,10,11,30
1537907928086755,-15,19,11,51,1,6,33,-43
1537907928099719,-24,-70,-10,-75,-29,-9,-6,-5
1537907928099719,48,34,-22,-48,-19,-16,-71,-36
1537907928108695,48,17,2,77,52,15,-58,33
1537907928108695,-68,36,-4,-6,-6,-1,79,43
1537907928123655,80,25,-30,-33,-38,-1,-18,-25
1537907928123655,-93,-45,40,95,53,30,61,41
1537907928124652,83,18,-33,-75,-42,-52,-74,48
1537907928124652,-81,-54,-4,-79,-67,-15,-78,-91
1537907928145596,30,-42,-37,20,14,15,13,-44
1537907928145596,56,-14,-6,-7,5,5,-4,17
1537907928147591,-21,26,-34,17,32,10,-36,-17
1537907928147591,51,44,15,22,17,13,64,61
1537907928159558,-4,-17,-22,-48,-18,-17,-29,-18
1537907928159558,5,14,11,14,-2,2,-33,31
1537907928168535,-47,-37,12,-21,-9,0,93,8
1537907928168535,17,30,0,-5,7,-1,-75,-25
1537907928182497,-27,-14,12,7,4,-1,-16,1
1537907928182497,-44,-22,34,9,-6,-7,-32,-56
1537907928189478,-6,-6,-102,2,-18,-4,4,-3
1537907928189478,14,-31,27,-28,7,0,-28,4
1537907928205436,5,9,11,41,9,0,9,39
1537907928205436,-17,4,25,-8,2,-2,3,0
1537907928207431,-35,-30,-35,-12,-19,-1,0,-38
1537907928207431,38,-8,-11,17,8,-1,1,6
1537907928219398,-6,25,32,25,18,4,20,21
1537907928219398,-2,-9,-11,-25,-12,-6,17,-8
1537907928228374,-29,-15,-4,-16,-18,-2,15,-33
1537907928228374,32,18,58,37,21,6,6,27
1537907928243335,-12,7,-67,-13,11,5,13,9
1537907928243335,-14,-11,-29,-8,-12,-5,-1,-17
1537907928244332,7,11,48,-6,-8,6,13,-1
1537907928244332,13,4,0,34,20,13,-20,-35
1537907928265277,-4,-5,40,11,-5,-28,4,52
1537907928265277,1,-2,74,-18,-15,15,13,-24
1537907928272259,-38,4,-18,1,7,17,14,-35
1537907928272259,21,2,-36,-20,-18,-62,-20,20
1537907928279240,-5,-1,-53,32,22,4,8,-21
1537907928279240,10,8,30,0,-1,7,0,10
1537907928288218,-17,-16,76,15,-11,11,-12,-23
1537907928288218,5,9,40,7,-2,19,30,-1
1537907928303176,-10,11,-2,-11,2,-2,-8,-69
1537907928303176,-2,-21,-71,-18,-5,-19,-8,72
1537907928305171,23,-15,11,-21,-10,19,-2,37
1537907928305171,6,-17,-77,2,6,-25,10,17
1537907928326113,-15,23,52,1,-2,12,4,-4
1537907928326113,2,13,-45,-7,5,9,10,-21
1537907928327111,-13,11,16,24,1,-13,-1,-16
1537907928327111,10,-5,8,-11,1,20,0,29
1537907928339079,-7,-34,28,13,-4,-1,3,3
1537907928339079,-12,25,0,-10,-7,2,-3,-20
1537907928348054,3,14,-8,11,-2,-18,1,9
1537907928348054,6,-4,-27,-8,0,2,-1,-7
1537907928363014,-9,-3,33,-17,1,8,-4,8
1537907928363014,-3,-10,-36,-9,-3,-17,-2,-9
1537907928365010,-1,-11,-44,-33,-7,-6,3,-2
1537907928365010,3,3,26,46,6,5,-3,-2
1537907928385953,-2,16,63,-7,-7,-4,-2,4
1537907928385953,3,-18,-59,21,10,2,5,6
1537907928386951,-2,-9,21,-4,-2,-6,3,-5
1537907928386951,4,41,36,-23,-2,8,-3,1
1537907928398919,0,-7,-33,1,1,0,0,13
1537907928398919,-4,11,41,21,1,-4,2,-12
1537907928407896,-1,2,-28,-14,1,0,0,-4
1537907928407896,-2,-22,-39,1,-2,-4,-3,2
1537907928422856,-1,-8,23,6,0,2,2,5
1537907928422856,5,11,5,-2,2,-1,2,-3
1537907928424852,-3,-12,4,3,-4,-6,-1,-5
1537907928424852,-4,2,9,-2,0,6,-3,-4
1537907928445795,0,-1,-96,-19,6,2,3,2
1537907928445795,-5,-3,57,22,-4,1,-1,-3
1537907928446793,4,-3,-16,-13,-1,-3,1,7
1537907928446793,3,6,18,-26,-6,0,0,2
1537907928459757,-4,-7,4,20,0,1,-2,-1
1537907928459757,-2,7,-24,10,5,-2,0,-4
1537907928468734,-1,0,0,1,0,-2,2,2
1537907928468734,2,-17,10,-1,-2,1,-1,5
1537907928483694,-2,1,-18,-1,1,-3,-1,-1
1537907928483694,-3,-4,-7,-8,-4,-1,-4,-10
1537907928484691,-3,6,7,2,-3,-3,-2,-4
1537907928484691,-2,-4,-16,-9,-5,2,-3,-14
1537907928505635,1,6,12,0,-3,1,14,40
1537907928505635,2,-7,0,-1,0,-1,2,2
1537907928507630,-2,0,-2,8,0,-1,-1,-3
1537907928507630,1,23,2,-6,0,-2,-2,0
1537907928519597,0,-5,43,7,1,-1,-4,-15
1537907928519597,-1,1,-30,-1,-1,1,-1,19
1537907928528573,1,-9,-43,-13,-1,0,3,9
1537907928528573,1,-6,-11,2,0,0,0,2
1537907928543532,-1,-1,14,-6,-3,-2,-2,-3
1537907928543532,-5,7,19,-6,-3,-2,-1,-12
1537907928544530,-2,-20,2,6,2,-1,-2,-8
1537907928544530,6,29,16,0,-2,-1,0,7
1537907928565473,-6,-2,-46,-4,0,-3,-6,-16
1537907928565473,0,-12,17,-10,-1,0,0,-1
1537907928567468,1,12,-7,-1,-2,-3,-2,0
1537907928567468,-1,-8,28,3,1,2,1,-3
1537907928579436,-2,-2,-4,10,-1,-1,-1,-1
1537907928579436,-1,-4,-13,-2,2,-1,0,-2
1537907928588412,-2,7,6,-5,-3,-1,-1,-1
1537907928588412,-2,-10,-7,-5,-5,-2,-2,1
1537907928603372,5,8,9,0,1,1,-2,-1
1537907928603372,-6,-13,-14,0,2,-1,-1,-1
1537907928604369,-2,4,54,2,-5,-3,-2,-5
1537907928604369,-1,1,-53,-8,-4,-2,-2,-2
1537907928625313,1,2,-13,0,-2,1,0,0
1537907928625313,2,6,23,-1,-3,-2,-2,-4
1537907928627308,1,1,-8,12,6,2,0,0
1537907928627308,-1,-10,-1,3,4,1,2,0
1537907928639276,-1,8,8,-12,-7,-2,-1,-2
1537907928639276,0,1,-2,1,-2,-1,-2,-1
1537907928648253,3,13,-5,-5,-1,-3,-1,-1
1537907928648253,-2,-17,15,4,1,0,-1,1
1537907928663213,-3,-2,-14,-5,0,-1,0,-4
1537907928663213,-1,-19,-30,3,0,-3,-1,-1
1537907928665208,1,13,10,-18,-5,-1,0,-1
1537907928665208,-1,9,10,31,5,-1,-1,0
1537907928686151,-1,-3,-27,-8,3,-1,-1,0
1537907928686151,2,16,31,-4,-6,-3,-2,0
1537907928687150,-2,-10,-11,3,0,-1,-1,-2
1537907928687150,-2,-10,-6,-10,-1,0,-1,0
1537907928699118,2,-11,22,3,-1,-1,-3,-3
1537907928699118,-1,10,-4,3,1,0,0,-1
1537907928708093,-1,-8,-17,-4,0,0,-2,-1
1537907928708093,-3,-14,5,2,0,-1,-1,-2
1537907928722055,0,11,7,1,0,1,0,1
1537907928722055,-2,-7,-10,-8,-2,0,-3,-2
1537907928729036,0,-1,20,4,1,0,1,0
1537907928729036,-1,-1,-35,-1,-3,-1,-2,0
1537907928752972,1,7,61,-1,-3,-2,0,-1
1537907928752972,-2,-27,-49,-14,-3,0,0,2
1537907928754967,0,6,0,6,2,2,-2,0
1537907928754967,-3,-7,-12,4,3,-3,-1,-2
1537907928758956,2,8,-11,-3,2,1,-1,1
1537907928758956,0,13,76,5,-2,-1,-2,-2
1537907928767932,-2,-18,-85,-7,-4,-2,-1,-1
1537907928767932,0,20,59,-10,-4,-2,1,-1
1537907928782892,-1,-7,-26,10,2,1,0,1
1537907928782892,-4,-3,5,2,1,-1,-1,-2
1537907928784887,0,-13,-2,-4,-1,-2,0,0
1537907928784887,-3,-2,5,-3,-2,-2,-2,-2
1537907928805831,2,16,-11,-6,-3,-3,0,-1
1537907928805831,1,4,3,4,-1,0,0,-1
1537907928806828,-4,0,4,0,0,1,-1,-1
1537907928806828,2,-2,-4,-5,-4,-1,0,-1
1537907928819794,-4,-9,-8,-4,1,0,1,-2
1537907928819794,-1,0,30,0,-3,-3,-1,-4
1537907928828772,-2,-7,-60,-12,0,0,-1,2
1537907928828772,-1,-1,-5,-9,-2,-1,-1,0
1537907928843730,-1,-7,19,9,-2,-1,-2,1
1537907928843730,0,6,29,3,-3,0,0,0
1537907928844728,-2,-5,-17,-1,-1,-1,-1,-3
1537907928844728,1,-10,23,1,1,0,0,0
1537907928865672,-2,4,12,16,3,0,-2,-1
1537907928865672,0,0,-12,6,-1,0,0,-1
1537907928867667,-1,15,30,-10,-10,-5,-4,-2
1537907928867667,-1,-38,-110,-23,1,2,2,1
1537907928879635,-1,5,15,-16,-5,-1,-3,-2
1537907928879635,2,-5,-19,23,8,2,3,6
1537907928888612,13,4,44,8,2,1,2,6
1537907928888612,-8,22,15,7,0,-3,-3,-4
1537907928902574,2,-29,-4,1,-9,-5,-2,0
1537907928902574,26,50,-27,-37,-2,2,3,6
1537907928910553,-17,-13,19,22,-2,-5,-5,-5
1537907928910553,-9,8,17,54,22,0,-48,8
1537907928925512,6,-12,0,-33,-9,-5,25,-10
1537907928925512,-13,-19,-4,41,1,-6,-68,-25
1537907928927507,48,30,17,-22,30,17,54,10
1537907928927507,-95,-39,-28,-75,-73,-33,-54,-58
1537907928939474,44,-7,-8,43,60,19,24,24
1537907928939474,-3,54,-33,-44,-27,3,16,19
1537907928948450,-29,-73,-3,-26,-67,-46,-41,-48
1537907928948450,2,47,41,66,31,8,-43,23
1537907928962412,39,17,34,-47,-22,-5,83,23
1537907928962412,15,5,-4,-70,12,12,-5,-3
1537907928969393,32,57,-22,27,16,28,20,15
1537907928969393,-17,-10,-3,22,-21,-4,38,2
1537907928984354,-75,1,-6,55,7,-13,-106,-75
1537907928984354,11,-15,13,-24,5,-7,-48,40
1537907928993330,11,39,55,66,26,26,103,48
1537907928993330,18,-50,21,-63,0,6,-9,27
1537907929008290,75,46,-50,12,3,3,-50,8
1537907929008290,-62,-38,10,-16,-11,-19,-30,-58
1537907929014274,-47,-6,-23,-9,-4,-5,-54,-42
1537907929014274,22,6,2,43,27,14,56,32
1537907929022253,-11,-28,-1,-9,-13,1,34,22
1537907929022253,-23,-21,27,7,-5,-4,22,0
1537907929029235,5,-14,-46,-8,7,-7,-37,12
1537907929029235,32,11,45,-9,2,3,36,-8
1537907929046189,-40,-17,-53,-28,-23,-9,-24,-15
1537907929046189,29,12,47,33,11,14,20,37
1537907929047188,-5,-2,-98,6,19,-4,-5,-11
1537907929047188,11,-6,48,-35,-11,34,-26,-33
1537907929068131,-10,1,36,7,-5,-31,-15,-43
1537907929068131,-13,-31,-28,9,-7,-37,34,97
1537907929070125,12,8,19,21,16,93,12,-67
1537907929070125,-14,26,-34,-13,-5,-108,-39,-40
1537907929082092,-13,8,59,7,-12,73,-33,-30
1537907929082092,28,-40,-128,-59,-15,-12,18,64
1537907929091069,-38,16,63,-21,-10,-90,-57,-88
1537907929091069,32,2,25,65,30,53,30,110
1537907929106029,3,-1,70,2,-4,-3,15,-5
1537907929106029,-4,-10,-74,28,5,16,-17,-48
1537907929107026,4,4,76,-23,-8,50,16,57
1537907929107026,14,6,-18,-24,5,7,18,-22
1537907929127970,-5,18,-76,-8,7,-7,21,31
1537907929127970,-3,-6,-10,19,2,23,14,-25
1537907929129965,1,-22,81,-14,-12,-36,-22,14
1537907929129965,-5,-12,-63,-5,-5,-7,8,-24
1537907929141932,-2,13,31,24,11,-5,0,28
1537907929141932,-3,3,-33,-24,-4,0,-10,-40
1537907929150908,2,13,31,7,-10,-20,-2,14
1537907929150908,-1,8,40,10,-17,-8,-7,-6
1537907929165868,-8,4,-34,-28,-4,4,-3,5
1537907929165868,-1,-14,46,32,12,-6,0,-29
1537907929166866,3,-33,-40,24,4,-3,1,19
1537907929166866,3,1,-24,15,11,18,5,-1
1537907929188807,-14,-16,-11,-44,-21,-21,-10,-2
1537907929188807,6,50,65,20,13,5,10,-15
1537907929189805,-4,-23,-26,-9,-7,-3,-3,19
1537907929189805,4,-21,-26,5,2,4,3,5
1537907929201772,-21,14,14,13,11,-7,-7,-17
1537907929201772,-4,-4,58,6,-21,-11,-8,-20
1537907929210749,-3,3,-56,-12,1,5,-4,-2
1537907929210749,-3,-13,5,-20,-2,-3,2,-7
1537907929225708,13,-15,-84,-8,11,4,13,20
1537907929225708,2,9,55,9,2,7,3,1
1537907929226706,3,4,22,14,-1,-8,-5,6
1537907929226706,1,1,32,-9,-6,-3,1,-5
1537907929248647,0,-2,7,-2,-5,3,3,6
1537907929248647,-3,-4,-24,5,0,-9,-6,-10
1537907929249644,2,0,-11,-23,-4,10,-1,6
1537907929249644,-3,3,-16,-4,-3,-8,4,-4
1537907929261612,4,-6,7,12,1,-5,-5,-4
1537907929261612,-4,-9,-17,7,-2,-2,-4,-9
1537907929270589,-3,-2,8,-17,-4,-5,-2,20
1537907929270589,0,11,-35,-14,-4,11,-3,-23
1537907929293527,-8,6,5,10,0,-1,-3,2
1537907929293527,5,-17,21,8,4,4,4,-5
1537907929294526,1,4,-16,-10,-4,-4,-3,1
1537907929294526,2,15,4,-6,0,3,-2,5
1537907929308489,-1,-22,44,8,-6,-8,0,-1
1537907929308489,1,29,-104,-21,3,1,3,3
1537907929309486,2,-10,-12,7,8,3,5,9
1537907929309486,-1,8,4,8,9,-3,-3,-4
1537907929321454,0,-23,15,-14,-11,-6,0,2
1537907929321454,-7,-1,28,18,1,1,0,-3
1537907929330430,-1,5,1,-10,-8,-5,-3,-9
1537907929330430,3,1,-1,20,5,2,0,2
1537907929345390,2,2,-6,-9,3,-1,-3,4
1537907929345390,1,-6,16,-3,2,5,2,-3
1537907929347387,-3,3,-8,11,0,-5,-2,-4
1537907929347387,-2,-7,10,-12,-3,-2,-4,0
1537907929367330,1,5,-1,5,1,2,1,1
1537907929367330,0,-1,8,-5,-4,-4,0,-1
1537907929375309,0,9,5,16,1,-2,-1,-1
1537907929375309,-5,-21,-6,-30,-7,-2,-1,0
1537907929381292,1,5,-24,12,0,-4,-1,-1
1537907929381292,0,-3,11,3,-1,0,1,2
1537907929390268,-1,-1,16,-6,-3,-2,0,-2
1537907929390268,-2,3,7,-1,-5,-1,-2,-1
1537907929405229,0,-5,-10,-2,0,0,-2,-2
1537907929405229,-1,0,57,4,-2,-1,-1,-2
1537907929407223,4,24,-49,-15,-3,-1,-1,-2
1537907929407223,0,-20,-1,11,5,2,-1,3
1537907929428167,-1,-13,3,29,9,2,2,0
1537907929428167,0,-1,-2,-28,-7,-2,-1,-1
1537907929429165,-3,-10,-6,-8,-5,-1,-3,-3
1537907929429165,-2,1,-9,3,-6,-4,-1,-2
1537907929442130,-1,3,9,-2,2,1,-3,0
1537907929442130,0,-4,-16,13,5,1,1,-1
1537907929451108,-1,-7,40,10,1,-2,-1,-3
1537907929451108,-2,2,-22,-17,-4,-1,0,0
1537907929466067,-1,2,-13,1,-4,-2,1,2
1537907929466067,-2,3,-8,-1,-2,-1,-2,-1
1537907929467066,-3,-12,11,6,2,-3,-1,0
1537907929467066,0,7,32,8,0,-1,-3,-1
1537907929488009,0,2,-4,-6,-1,0,-1,-3
1537907929488009,1,4,-12,-14,-5,-3,0,1
1537907929490005,-1,0,0,-5,-1,1,1,0
1537907929490005,0,5,-17,2,-1,-1,0,-1
1537907929501971,-1,-3,12,-5,-1,-1,2,0
1537907929501971,-1,-1,10,4,3,1,0,-2
1537907929510948,2,3,-45,1,2,0,1,3
1537907929510948,0,-2,13,3,-1,-2,-1,-2
1537907929525908,2,-3,2,-15,-3,0,0,0
1537907929525908,0,-4,6,11,-1,-2,0,0
1537907929526905,-4,3,50,-10,-5,-2,1,-1
1537907929526905,-1,2,-66,5,1,-1,-1,0
1537907929547849,0,4,7,-3,-9,-3,-3,-1
1537907929547849,-1,-11,4,-2,0,2,-1,-1
1537907929549843,1,-6,1,5,3,2,-2,0
1537907929549843,-1,5,8,-11,-1,0,-1,1
1537907929570786,-2,2,2,-15,-12,-7,-3,-3
1537907929570786,0,-4,-19,-1,1,-1,1,-1
1537907929571784,-1,-1,10,-6,-2,0,-2,0
1537907929571784,-2,11,32,6,0,-2,0,-3
1537907929585746,2,-1,-52,9,5,3,2,2
1537907929585746,-1,-4,-19,-2,3,1,2,1
1537907929586743,0,-3,-6,-7,-1,-2,0,-1
1537907929586743,0,1,9,-1,-2,-2,-1,-2
1537907929607687,-2,6,62,6,-1,-2,-2,-3
1537907929607687,-5,-22,-81,-27,-6,-2,-2,-2
1537907929609682,1,2,19,27,5,0,-2,1
1537907929609682,-2,-13,-4,-9,-3,0,-2,-1
1537907929621650,-2,4,8,-2,0,1,-1,0
1537907929621650,0,1,16,6,-1,1,-2,-1
1537907929630626,-1,-12,-10,-5,-10,-6,-2,-2
1537907929630626,2,10,4,-15,-2,0,-1,1
1537907929645586,2,1,-6,8,7,1,-3,0
1537907929645586,-3,3,3,11,4,0,-1,-2
1537907929647581,3,-1,-4,-13,-4,-1,-1,2
1537907929647581,-4,0,4,16,2,-1,3,2
1537907929668526,14,-6,-11,-7,2,-1,5,13
1537907929668526,-3,21,30,3,5,5,-2,-2
1537907929669525,-17,-30,-19,-4,-8,-5,-2,-10
1537907929669525,-8,5,-8,63,24,7,12,18
1537907929692463,-42,-30,-14,-93,-51,-20,-30,-46
1537907929692463,26,5,29,66,9,-2,9,13
1537907929694457,-17,22,19,11,10,12,-7,0
1537907929694457,-38,-32,-13,19,18,0,-2,-42
1537907929697449,22,17,4,6,6,-19,8,17
1537907929697449,-32,46,10,-10,-10,0,-69,-76
1537907929707423,18,-29,-31,33,7,-13,-12,6
1537907929707423,35,-6,-51,-68,-19,25,73,95
1537907929720388,30,23,39,-63,-21,-20,-4,23
1537907929720388,-24,38,42,-31,9,7,8,49
1537907929722383,-11,-3,-26,86,55,15,-71,0
1537907929722383,-84,-15,30,21,-27,-12,12,-89
1537907929734350,104,-22,-24,14,-6,-5,-66,16
