timestamp,emg1,emg2,emg3,emg4,emg5,emg6,emg7,emg8
1537918940854722,0,-2,-2,-1,2,2,-3,-2
1537918940854722,0,-1,-2,-1,-1,-5,-1,0
1537918940854722,-1,-2,-2,0,5,2,-2,0
1537918940854722,-3,-2,-2,-3,-11,-10,-2,-5
1537918940855720,-3,0,0,-1,-1,3,-1,0
1537918940855720,-1,-3,-2,-2,-5,-14,0,-2
1537918940857714,-1,-2,1,1,0,4,-2,-2
1537918940857714,0,-1,0,1,4,5,-1,-2
1537918940858712,-1,0,-1,1,2,12,1,-1
1537918940858712,-3,0,0,1,8,18,2,1
1537918940871677,-1,0,-2,-2,-2,-8,1,0
1537918940871677,-1,0,-1,-1,-9,-9,-1,1
1537918940880653,-1,-2,-2,-1,-3,-10,-1,0
1537918940880653,-2,0,1,-1,-1,-6,-1,-4
1537918940888632,3,1,2,1,2,5,0,6
1537918940888632,-1,0,1,3,7,6,2,0
1537918940902594,0,0,-3,-2,-4,-7,-2,0
1537918940902594,0,-1,-2,-1,1,3,-1,0
1537918940917554,-1,-2,-1,-3,-2,-3,-2,-3
1537918940917554,1,-1,-1,-2,-1,0,-1,0
1537918940918552,2,-2,-1,0,-1,-3,-1,-1
1537918940918552,-2,-2,-2,0,0,1,-2,-1
1537918940965427,-1,-1,-2,-2,-4,-3,-2,-3
1537918940965427,0,0,-1,-3,-2,-1,0,0
1537918940965427,-1,-2,-1,0,0,0,-1,-3
1537918940965427,2,-1,1,1,4,1,0,0
1537918940966424,-2,-2,0,0,0,2,0,5
1537918940966424,-4,-1,0,4,7,-4,-14,-7
1537918940970413,2,1,0,4,5,9,24,3
1537918940970413,-1,-1,1,7,23,-1,-12,-1
1537918940976397,1,1,0,2,-13,4,-10,-7
1537918940976397,-4,-3,-3,-22,-80,-78,-22,-11
1537918940985374,-7,-3,-5,-6,15,66,30,3
1537918940985374,-16,-3,1,12,35,-55,-48,-27
1537918940991357,55,6,8,7,-34,-9,10,62
1537918940991357,-33,-5,-7,-13,-69,-13,77,-34
1537918941008312,19,6,-2,6,22,-53,-64,-38
1537918941008312,-53,-7,1,19,66,119,4,-67
1537918941014296,28,2,-8,-48,-68,-109,-11,10
1537918941014296,11,-13,-7,9,119,51,34,-30
1537918941045214,8,14,3,19,61,84,-8,69
1537918941045214,51,-1,-24,-53,-51,-128,-59,39
1537918941046211,-33,-4,6,-25,-69,113,47,-60
1537918941046211,8,3,7,3,-77,35,-27,-12
1537918941060173,-6,-5,-6,9,14,-92,50,46
1537918941060173,12,-2,28,54,104,21,35,23
1537918941060173,30,101,34,56,100,81,-13,-40
1537918941060173,27,-17,9,-19,-8,-67,-4,86
1537918941075133,-124,-73,-23,-11,29,8,-14,-110
1537918941075133,97,50,-7,-25,-48,-124,-18,36
1537918941075133,-68,-47,-32,-87,-77,-108,10,40
1537918941075133,70,3,-1,16,80,117,6,39
1537918941106050,-23,-42,18,-18,-128,-91,2,-53
1537918941106050,-61,86,62,21,10,82,-10,-56
1537918941106050,-13,-31,-59,16,71,-28,10,5
1537918941106050,-27,-60,-67,27,120,-75,-2,28
1537918941112034,40,26,8,-24,-82,11,32,36
1537918941112034,44,-128,-36,-27,-48,10,-18,73
1537918941113032,-84,101,118,53,44,3,-27,-53
1537918941113032,43,96,68,13,7,45,-18,-32
1537918941142952,24,-59,43,35,58,47,2,7
1537918941142952,-41,117,7,-10,-31,73,5,-30
1537918941143950,10,-72,-64,3,-4,-18,38,-2
1537918941143950,-18,-15,-48,-19,6,-17,-12,13
1537918941156914,-6,55,-10,-13,44,53,-21,11
1537918941156914,-24,-53,-12,5,-53,-13,29,1
1537918941164893,21,-37,-31,-19,9,-50,-17,24
1537918941164893,-35,6,13,-10,-39,20,27,-50
1537918941172872,42,33,5,-11,-4,-39,-17,37
1537918941172872,-36,-47,-24,-9,2,79,18,-29
1537918941172872,13,-8,-2,4,-27,-46,4,23
1537918941172872,-6,-4,13,15,-4,-18,26,-12
1537918941194813,-16,-2,-13,6,11,-16,-2,-13
1537918941194813,23,3,1,-1,13,-20,10,16
1537918941195811,8,-4,9,16,38,37,-16,1
1537918941195811,-9,6,13,-5,-48,1,-25,-9
1537918941217752,-4,-2,-16,-16,-9,-25,-15,-9
1537918941217752,-6,0,-12,-2,-9,-7,28,17
1537918941217752,16,1,12,3,4,32,-7,0
1537918941217752,-23,-15,-3,-3,-10,-28,-22,0
1537918941232713,7,13,-1,7,3,7,-7,-4
1537918941232713,-8,-14,1,4,0,-14,10,1
1537918941232713,3,-5,1,0,12,3,-14,-8
1537918941232713,2,1,-2,-8,-10,-12,-11,-5
1537918941254653,2,4,-5,2,-6,-6,-26,-2
1537918941254653,-11,-4,1,-5,0,-4,16,-5
1537918941255651,47,-1,-3,-1,-3,7,-23,0
1537918941255651,1,-8,1,6,7,3,44,10
1537918941277592,2,10,-3,-4,-6,6,0,0
1537918941277592,-3,-5,-2,-4,-8,-15,-8,-3
1537918941278589,-14,-1,-2,2,6,5,8,-2
1537918941278589,7,-7,4,-3,-3,-7,-19,2
1537918941292552,-4,4,3,-1,-1,10,-4,-5
1537918941292552,-4,-4,-1,-2,-5,-17,-4,-5
1537918941299533,-12,-4,0,3,2,18,-12,-1
1537918941299533,-5,1,-3,-5,-3,-8,-8,-1
1537918941323469,-12,-8,-5,0,-6,-10,-6,-4
1537918941323469,14,16,4,-1,0,8,23,5
1537918941323469,-2,-2,-1,-1,-1,-24,-32,-6
1537918941323469,-13,-5,-4,-4,-8,-5,-40,1
1537918941337432,8,-8,-2,0,-2,3,33,3
1537918941337432,3,1,-1,1,2,20,13,2
1537918941338429,-13,-7,1,2,6,23,-3,-4
1537918941338429,0,13,-6,1,2,-13,-71,-7
1537918941351394,21,9,9,-1,-6,-20,-19,-2
1537918941351394,-7,-7,-2,-3,-3,-18,14,3
1537918941359373,-7,-3,-6,-5,-4,-7,-32,-10
1537918941359373,-10,-5,-3,-1,3,20,71,7
1537918941383309,6,5,-1,0,-1,-1,-6,-3
1537918941383309,-2,-7,-3,1,-2,-16,-16,0
1537918941384307,-18,1,2,1,1,13,1,-13
1537918941384307,11,3,3,-2,-2,-4,-23,3
1537918941397272,-6,-2,-3,3,0,-10,-8,0
1537918941397272,25,3,0,-1,5,8,-36,-12
1537918941398269,-35,-7,3,9,34,19,41,-14
1537918941398269,2,3,-6,19,65,56,2,-12
1537918941411235,34,6,-14,-38,-68,-78,46,14
1537918941411235,-22,-18,-9,12,5,84,-13,8
1537918941419213,-10,-22,-5,14,79,-72,-56,-32
1537918941419213,24,30,41,-17,-63,-10,66,34
1537918941435170,6,7,-17,27,56,-1,-42,-19
1537918941435170,13,-23,-35,-52,-76,17,40,49
1537918941442153,26,10,9,-52,-78,-23,26,33
1537918941442153,-52,73,16,6,35,73,-35,-87
1537918941457113,-5,-37,-17,-4,18,-29,57,59
1537918941457113,3,-24,16,76,108,62,25,34
1537918941458110,-31,-18,-19,-25,-103,-62,12,-48
1537918941458110,10,-17,4,30,64,-123,-60,15
1537918941472072,7,62,22,-57,-74,76,4,42
1537918941472072,-19,-110,-60,-14,10,-16,-36,-55
1537918941479053,-6,111,63,26,37,125,30,40
1537918941479053,-34,-123,-24,-15,-80,-60,-24,-3
1537918941502990,75,94,22,7,25,-60,-80,-7
1537918941502990,16,42,48,26,108,65,49,40
1537918941503987,-26,-73,-67,-5,-30,67,-10,-15
1537918941503987,45,24,-8,-15,13,-19,-36,48
1537918941516952,-46,9,27,27,17,100,54,39
1537918941516952,54,76,19,-23,-49,-128,-54,-58
1537918941517950,36,4,6,15,77,-28,24,22
1537918941517950,-16,-55,-44,-37,-88,-81,25,-10
1537918941542883,-38,-74,-24,5,56,20,12,-34
1537918941542883,-25,-6,8,-5,16,-80,-17,-11
1537918941542883,-15,-32,0,29,2,7,-15,-31
1537918941542883,37,16,-7,20,63,97,38,60
1537918941548867,-41,-47,-17,-12,-78,-122,-47,-40
1537918941548867,-33,56,23,8,35,32,22,-1
1537918941556845,57,-8,2,-28,-77,-43,-26,47
1537918941556845,-33,23,-8,-19,-42,25,4,-19
1537918941568813,11,-32,-2,21,15,42,-7,-10
1537918941568813,3,8,-13,-5,22,5,-15,7
1537918941576792,-10,-12,-7,-29,-4,7,50,-10
1537918941576792,1,1,5,4,-1,-20,-34,9
1537918941585768,-2,7,6,13,14,34,42,2
1537918941585768,-6,-18,-4,-6,-43,-22,-7,-9
1537918941598734,12,16,12,15,36,-1,5,13
1537918941598734,-11,-5,10,8,0,16,-16,-25
1537918941607709,-6,-4,-3,3,24,9,32,-21
1537918941607709,0,7,3,-13,-44,-19,-15,-2
1537918941614691,-5,-7,-2,4,-2,14,12,1
1537918941614691,-3,4,5,6,23,10,4,-5
1537918941629651,3,-1,0,-6,-8,10,-1,-7
1537918941629651,5,-3,-6,-9,-22,-15,7,-2
1537918941636632,-3,2,-1,6,13,0,-13,7
1537918941636632,9,-2,3,-2,10,5,9,-9
1537918941653587,-3,1,1,-3,0,-13,-16,-4
1537918941653587,-13,-5,0,-4,-28,-1,-2,-7
1537918941659571,-4,-6,1,5,17,9,21,-6
1537918941659571,9,11,8,0,1,7,7,-2
1537918941668547,-6,-9,-2,-1,-4,-4,-9,-5
1537918941668547,1,3,-3,-4,-9,-3,-11,0
1537918941674531,1,-2,0,-1,-4,-9,-18,-4
1537918941674531,-2,-2,1,0,3,1,16,-5
1537918941689490,-2,-2,-1,-2,0,3,-12,-4
1537918941689490,-4,-6,-2,-3,-8,-2,2,-5
1537918941696472,2,2,1,3,8,-12,-12,2
1537918941696472,-11,-3,0,-2,-7,-20,-1,-4
1537918941705448,-3,-1,-3,-4,3,29,-15,-9
1537918941705448,-3,0,1,-2,-7,-6,16,0
1537918941719411,3,-1,-1,0,-3,7,5,1
1537918941719411,-2,0,3,3,6,-6,13,1
1537918941728387,-2,-4,1,1,-5,-19,-24,-3
1537918941728387,2,-2,-1,-2,-5,-10,-14,-2
1537918941734371,0,1,-3,0,5,11,1,-3
1537918941734371,-10,-2,-2,-2,-2,-1,-8,-7
1537918941749331,20,1,1,0,-1,-16,11,3
1537918941749331,-14,-3,0,3,-2,17,1,-7
1537918941756312,23,5,0,2,3,-2,-22,2
1537918941756312,-4,-1,0,-2,2,3,4,-1
1537918941773267,-12,-2,-3,-2,1,10,2,-3
1537918941773267,6,1,0,0,-2,-9,3,3
1537918941779251,-5,-4,-1,0,-1,1,-3,-3
1537918941779251,-1,0,-2,1,0,6,5,-1
1537918941788227,0,1,0,1,1,1,7,1
1537918941788227,1,-3,0,-2,1,-5,-3,-1
1537918941794211,-8,0,1,-3,-3,-6,-8,-3
1537918941794211,2,-1,0,-3,-4,2,8,0
1537918941809171,-4,-2,-1,1,0,-8,-9,-4
1537918941809171,-1,0,0,0,-1,0,1,2
1537918941817150,-3,-1,-1,-1,0,4,-3,-9
1537918941817150,0,1,0,1,4,12,26,2
1537918941825128,0,-1,-1,-2,2,3,-4,-2
1537918941825128,-1,-1,-1,1,-2,0,-2,-2
1537918941839091,-1,0,-1,0,1,-5,5,-1
1537918941839091,-5,-3,-2,-4,1,10,-6,-2
1537918941848067,-1,-2,-3,-1,-1,0,0,0
1537918941848067,0,-2,-3,-3,-10,-14,-9,-2
1537918941854051,0,-2,-1,-1,0,-5,-1,3
1537918941854051,0,0,0,2,2,5,0,1
1537918941876990,-2,0,0,-1,5,2,2,0
1537918941876990,0,0,-2,-1,4,9,-1,-1
1537918941877988,-1,-1,-2,-2,-11,-12,2,0
1537918941877988,0,-1,-1,-2,-3,-25,-18,-5
1537918941885966,-3,0,-1,0,7,35,20,-4
1537918941885966,1,0,-1,-3,-10,0,-5,2
1537918941899928,-1,1,0,-1,9,8,5,2
1537918941899928,0,-1,0,0,-1,-6,3,-1
1537918941906910,-2,-1,-1,0,-1,-15,-10,-2
1537918941906910,-1,0,-1,-1,7,8,1,1
1537918941913891,-2,-1,-3,-2,-4,-5,0,0
1537918941913891,-1,-1,-1,-1,-5,4,-5,0
1537918941930847,0,-1,-2,-3,-5,-12,-19,-2
1537918941930847,0,0,1,2,4,16,46,0
1537918941936830,1,-1,-2,0,3,-9,-6,0
1537918941936830,-1,-1,-1,-4,-7,-4,-7,-1
1537918941951790,-2,-2,-2,-1,-7,-4,-6,0
1537918941951790,0,-3,-1,-1,4,2,-10,-1
1537918941959769,-2,-2,-1,1,-1,1,-1,-2
1537918941959769,-1,0,0,1,4,8,7,1
1537918941974730,-1,0,-2,-2,3,-6,-1,-2
1537918941974730,-1,0,-1,0,-2,-3,-10,-2
1537918941975727,-1,-1,-2,0,-3,-2,-2,-2
1537918941975727,0,-2,0,2,1,-4,-2,-1
1537918941989689,0,-3,-1,-5,-15,-5,2,0
1537918941989689,-3,-3,-2,-1,2,-1,-1,-2
1537918941996671,-1,0,1,0,3,9,0,-3
1537918941996671,-1,-1,-1,0,2,-2,0,-2
1537918942011631,-1,0,-1,2,2,0,1,1
1537918942011631,1,1,1,-1,-4,-15,-5,1
1537918942019610,0,-2,-3,-1,-1,12,-1,1
1537918942019610,-1,-2,-2,1,-1,2,2,-3
1537918942034570,0,1,0,1,2,1,2,-1
1537918942034570,-2,0,0,-2,-3,-6,-7,-1
1537918942035567,-1,-1,-1,0,-2,-11,-2,-1
1537918942035567,-1,-1,-1,-4,0,10,0,0
1537918942049530,0,-3,0,1,0,0,0,0
1537918942049530,0,-1,-2,-4,-5,-11,-3,-2
1537918942056511,-2,-3,-1,0,3,4,1,-1
1537918942056511,-2,-1,-1,-1,-2,2,0,-1
1537918942071470,-2,0,0,0,-3,-2,-2,1
1537918942071470,-2,0,-1,0,6,3,-2,-1
1537918942079449,-1,0,-1,-5,-17,-23,-1,0
1537918942079449,-2,-1,-2,-1,4,9,0,-1
1537918942095406,-1,-1,0,1,-4,-8,-2,-2
1537918942095406,-2,-2,-1,-3,-4,-2,-2,-1
1537918942095406,-1,-3,-2,1,6,7,-1,1
1537918942095406,1,1,1,1,1,-4,0,0
1537918942109369,-1,-1,-1,0,1,-1,-2,-1
1537918942109369,1,0,-1,0,-2,2,-1,1
1537918942116351,-2,0,0,-1,3,-3,-2,-2
1537918942116351,-1,0,-1,1,-2,-3,-1,-1
1537918942131311,-5,-1,-1,-5,0,6,0,-1
1537918942131311,0,-1,-2,1,-6,-4,0,0
1537918942140286,1,-1,-1,-1,0,1,0,1
1537918942140286,-2,-1,0,-2,-1,0,-1,-3
1537918942155246,-1,-2,0,0,-2,-4,-2,-1
1537918942155246,1,-1,-1,-1,-3,-2,-3,0
1537918942156244,0,0,-2,0,2,2,-1,-2
1537918942156244,-6,-3,0,0,2,0,0,-2
1537918942169209,-4,-1,-1,-1,4,1,0,-3
1537918942169209,4,2,0,-1,-8,-9,-2,2
1537918942177188,-19,-1,1,-1,9,4,0,-2
1537918942177188,31,1,0,1,2,-12,-7,7
1537918942192148,0,-2,-2,-11,-36,8,19,2
1537918942192148,-2,-1,-2,1,0,2,-1,-2
1537918942200126,4,0,0,2,12,13,-1,-1
1537918942200126,-12,1,0,5,23,11,-1,-1
1537918942215087,-5,0,-3,-5,-27,-50,-9,-6
1537918942215087,-5,-3,1,1,15,-4,-1,-2
1537918942216084,10,2,0,-4,-32,-24,-10,3
1537918942216084,11,0,4,14,83,88,-34,-5
1537918942229049,11,5,3,6,2,-8,23,8
1537918942229049,-37,-17,-19,-21,-29,19,-11,-17
1537918942237028,8,-5,-10,-14,-62,-42,26,5
1537918942237028,-22,-32,-21,-1,65,-4,-56,3
1537918942251988,-17,46,28,10,40,116,58,14
1537918942251988,46,4,11,-12,-84,-4,-17,38
1537918942259966,-14,-40,-60,-15,26,16,29,29
1537918942259966,8,20,47,11,14,77,77,-59
1537918942273929,21,49,-7,-34,-71,-64,-32,57
1537918942273929,-26,-63,12,16,-10,27,-18,-43
1537918942282905,14,32,28,30,64,-55,-12,11
1537918942282905,-3,-23,-14,36,61,64,-42,-66
1537918942288890,-32,-66,-77,-46,-36,-85,15,-12
1537918942288890,48,105,60,-69,-108,-5,-26,-8
1537918942296868,-69,-127,-101,-27,61,69,24,-76
1537918942296868,22,104,75,39,81,66,53,65
1537918942311828,-28,19,91,78,127,79,-47,-31
1537918942311828,64,78,7,21,0,-26,19,55
1537918942319806,-24,-74,-36,-2,-45,-31,-17,-19
1537918942319806,-6,97,34,-23,-128,-118,-31,8
1537918942333769,-27,-124,-81,-11,42,-33,-22,-52
1537918942333769,-3,-1,12,13,38,22,44,0
1537918942342745,11,90,65,-1,-49,124,1,31
1537918942342745,-18,-72,-78,-46,-71,-60,-11,-42
1537918942348729,19,15,11,5,15,-15,9,28
1537918942348729,-32,-39,-17,15,69,5,-17,-20
1537918942356708,14,8,5,13,25,-18,-11,-6
1537918942356708,-8,-27,-12,-17,-37,-49,-4,21
1537918942371668,6,23,15,-7,-41,30,-6,-30
1537918942371668,-23,-34,-27,15,60,-6,13,5
1537918942379646,9,29,26,0,-27,-2,1,7
1537918942379646,0,-6,-2,-10,-35,-25,5,9
1537918942394606,12,-5,0,8,14,8,3,18
1537918942394606,-12,-17,-10,3,2,18,7,-9
1537918942410563,20,27,23,1,0,-25,-26,6
1537918942410563,-2,-24,-13,-12,-18,-5,10,10
1537918942411561,7,1,-4,5,0,10,-1,-4
1537918942411561,-9,-3,-11,0,9,-14,-5,-4
1537918942416547,6,18,14,-5,-7,1,-6,-12
1537918942416547,-2,-20,-12,1,9,-15,1,18
1537918942448462,2,5,-3,-11,-28,20,1,-4
1537918942448462,-7,-1,-4,4,12,-12,-35,-11
1537918942449460,8,3,13,7,18,-12,52,13
1537918942449460,-4,-13,-11,-3,-15,-3,-3,2
1537918942463422,9,11,4,-3,-5,-43,-9,1
1537918942463422,-15,-10,-2,3,13,52,8,-5
1537918942464420,15,1,-7,-3,-4,-18,-94,-8
1537918942464420,-2,-7,-3,-3,3,31,74,11
1537918942485364,5,9,7,0,-12,-18,-21,-5
1537918942485364,-13,-8,-7,-3,5,-38,-26,-2
1537918942487359,-2,5,-7,0,3,56,73,2
1537918942487359,8,4,12,-1,-13,-20,-86,-10
1537918942499326,-3,-8,14,9,1,-9,43,6
1537918942499326,-3,-16,-4,-2,6,-13,6,-4
1537918942508302,-5,14,-17,-12,-1,-17,-22,-5
1537918942508302,11,-13,-4,2,1,8,7,13
1537918942530243,-20,-38,-14,-6,-3,14,-20,-10
1537918942530243,35,30,20,6,2,1,31,4
1537918942532238,-5,6,18,8,-5,-3,-14,-9
1537918942532238,-11,-6,-6,-7,-1,-8,-7,3
1537918942545203,10,8,-1,0,2,1,-16,2
1537918942545203,-8,-5,-11,0,3,5,23,-4
1537918942547198,0,-5,-1,-7,-3,-11,-50,0
1537918942547198,-3,2,0,3,-3,-6,28,6
1537918942559166,15,3,0,0,1,18,1,3
1537918942559166,-10,-7,-7,-3,2,-5,11,-1
1537918942568142,-7,1,5,3,0,-3,41,4
1537918942568142,8,-6,-3,2,-5,-13,-20,2
1537918942584100,2,9,1,-4,1,11,-1,-6
1537918942584100,-2,4,-5,-4,-1,11,2,-3
1537918942585097,-25,-9,10,15,31,-18,-71,-7
1537918942585097,1,-15,-17,3,34,20,13,-3
1537918942606041,21,28,14,8,-7,50,62,17
1537918942606041,-44,-28,-19,-28,-12,-55,30,10
1537918942607039,-11,-7,9,1,-8,-68,53,3
1537918942607039,-12,-10,-21,13,77,8,-29,-18
1537918942619008,52,-18,20,18,88,92,-12,3
1537918942619008,29,95,8,11,63,-77,-43,31
1537918942627984,-16,-35,19,-36,-76,112,2,-9
1537918942627984,-36,-36,-22,-22,-36,-128,74,19
1537918942650922,-27,-3,-25,29,102,-91,-24,-15
1537918942650922,-6,36,6,-18,-50,109,33,-35
1537918942651921,-34,-22,-6,52,100,-19,-13,8
1537918942651921,93,85,24,8,-53,-48,7,51
1537918942665884,-58,-33,-16,-94,-84,-58,-86,-93
1537918942665884,-16,-108,-65,55,111,116,39,13
1537918942666881,50,116,33,-41,-114,-76,-16,52
1537918942666881,-19,20,36,53,106,127,-29,-49
1537918942678849,-8,-6,-20,-41,-92,-60,16,59
1537918942678849,-15,-64,-6,-16,-27,-116,-59,-35
1537918942687825,-4,-52,-43,12,15,-8,-10,-32
1537918942687825,-3,-14,14,29,41,-8,36,43
1537918942702782,5,111,34,46,107,-13,4,-17
1537918942702782,-17,-94,-76,-49,-95,-48,-18,-10
1537918942704778,57,102,54,-17,-76,78,29,37
1537918942704778,46,-63,-8,-40,-64,-85,-38,-39
1537918942725721,-49,-60,25,34,76,112,-3,49
1537918942725721,26,59,27,-13,-93,-78,-2,9
1537918942726718,-20,8,-13,22,109,83,4,-34
1537918942726718,-5,24,-25,-31,-33,-82,-20,7
1537918942739683,11,-29,-12,10,5,93,-5,-21
1537918942739683,4,-3,14,5,-14,-38,-13,-7
1537918942747662,-4,-16,-4,13,100,45,12,6
1537918942747662,-24,-8,0,-14,-39,0,-13,-29
1537918942762622,8,-6,-18,-11,-30,60,7,7
1537918942762622,2,31,37,28,60,28,4,3
1537918942764617,5,-19,-9,-5,-12,-55,-12,-22
1537918942764617,-13,-4,-4,-5,-2,38,14,9
1537918942785561,8,4,-2,4,-13,-56,7,-4
1537918942785561,6,20,8,-6,24,36,-2,6
1537918942786559,1,-31,-14,-11,-18,-46,0,-3
1537918942786559,-14,-5,-4,-9,-13,28,-3,-9
1537918942799523,7,15,4,3,-41,-25,4,9
1537918942799523,3,4,12,13,20,10,-6,-7
1537918942808500,0,-19,-11,-3,0,-14,-2,-2
1537918942808500,-11,8,5,0,1,12,-2,2
1537918942823460,-2,-5,-7,-2,-15,-26,3,-13
1537918942823460,21,13,11,6,23,25,4,12
1537918942824457,-1,-8,-2,2,4,-25,-1,-4
1537918942824457,-7,3,-5,-8,-9,10,-7,-2
1537918942845401,12,0,-3,-2,-8,-20,4,4
1537918942845401,-12,-7,4,3,11,24,5,-5
1537918942847396,-6,-5,-3,-5,-14,-11,-5,0
1537918942847396,3,4,0,-1,-2,-15,-8,-5
1537918942859364,-5,-7,-4,-1,-8,2,-5,-1
1537918942859364,-2,3,4,0,3,-5,7,2
1537918942868340,1,-4,-2,0,-2,9,0,-5
1537918942868340,-21,-9,-2,0,9,19,7,-1
1537918942883299,21,7,-1,-3,-5,-22,-1,0
1537918942883299,4,12,0,-4,-7,10,-5,2
1537918942884297,4,-16,-3,1,4,-16,2,4
1537918942884297,-10,-6,-3,3,3,5,-3,-6
1537918942905241,-6,1,-1,-3,-13,-6,4,-2
1537918942905241,3,2,0,0,3,0,-6,-3
1537918942907236,-5,-8,-3,0,-1,-11,4,0
1537918942907236,2,4,1,-1,1,16,-3,1
1537918942919204,-21,-7,-1,-2,-8,-15,-10,-1
1537918942919204,18,4,0,3,11,-5,9,-9
1537918942928180,-1,-7,-2,-1,1,10,-3,3
1537918942928180,0,2,-2,-3,-5,0,-5,10
1537918942942142,3,2,-1,-2,-5,-5,2,-11
1537918942942142,-12,-4,0,2,1,-8,-25,-9
1537918942949124,-1,2,-1,1,0,6,36,3
1537918942949124,5,1,0,0,1,1,-6,-5
1537918942965082,-4,-3,-3,0,-5,8,10,1
1537918942965082,-7,-1,-1,-3,-1,-13,-25,-2
1537918942967077,3,3,-1,-1,-3,-18,-37,-7
1537918942967077,-5,0,-2,-4,-4,8,12,-4
1537918942979044,0,0,0,3,2,-5,-16,-2
1537918942979044,-5,-5,-1,1,-1,11,-9,0
1537918942988021,1,1,-2,-1,1,-6,46,2
1537918942988021,0,-2,0,1,-1,-22,-2,3
1537918943001983,4,4,0,1,-4,39,4,1
1537918943001983,0,0,1,1,2,-2,6,6
1537918943008964,-4,-4,-3,-3,-5,-6,-39,-7
1537918943008964,1,1,-1,-4,-1,-23,-9,-4
1537918943025919,5,0,1,0,0,-7,28,1
1537918943025919,-4,-3,-1,0,2,14,12,3
1537918943026916,-3,0,-3,0,1,-4,-11,-4
1537918943026916,-3,-1,-1,2,0,11,5,-6
1537918943038884,2,-1,-1,-2,-3,-17,8,6
1537918943038884,-3,-2,1,0,-1,9,6,-2
1537918943047860,0,-2,-2,-2,-2,-11,-42,-6
1537918943047860,-1,-2,-1,-1,4,-4,33,3
1537918943062821,0,0,-1,-2,-3,-6,-8,1
1537918943062821,-3,-1,1,-2,0,12,8,-4
1537918943068806,1,0,-1,-1,0,0,-2,0
1537918943068806,-2,-1,0,-1,0,3,-32,-4
1537918943085760,0,-1,-2,-2,0,0,14,0
1537918943085760,-1,-1,-1,-2,-2,-9,8,3
1537918943086757,-1,-1,0,-2,-1,6,8,0
1537918943086757,0,-3,-2,-1,0,34,20,1
1537918943099722,-2,1,0,2,-1,-25,-25,-5
1537918943099722,0,-1,0,1,0,-3,-15,-2
1537918943107701,-1,-1,0,1,-2,5,15,3
1537918943107701,0,-2,-1,-1,-5,-15,-4,-2
1537918943122661,-1,-1,-1,-1,-1,-2,-11,-3
1537918943122661,-1,-1,-3,-3,0,-2,2,2
1537918943130641,-1,0,2,0,-1,-5,4,-1
1537918943130641,0,0,1,1,3,18,9,-1
1537918943136625,-3,-3,0,-1,-1,1,-1,0
1537918943136625,-2,-1,-1,-1,-1,2,0,0
1537918943145599,0,-1,-3,-3,-4,-8,6,-2
1537918943145599,-1,-1,2,0,-1,-4,-11,0
1537918943151583,2,0,0,-1,-1,2,-1,-1
1537918943151583,-1,-3,-3,-3,-2,-3,0,-2
1537918943160559,0,0,-1,1,0,-3,-1,0
1537918943160559,0,-2,-2,-1,-4,2,-4,1
1537918943174521,-2,0,0,1,0,-6,-1,-1
1537918943174521,-2,-2,-1,0,0,7,5,-1
1537918943183498,0,-1,-1,-1,0,1,0,0
1537918943183498,1,-1,-2,-2,0,-6,-5,0
1537918943196462,-1,0,-2,-6,-6,-2,2,-1
1537918943196462,-1,0,1,-1,0,1,0,-1
1537918943205439,-3,-1,1,2,1,-1,-1,-1
1537918943205439,-2,-1,-1,2,2,4,-2,-2
1537918943211423,1,-1,-3,-2,0,-3,-2,-1
1537918943211423,-1,0,-2,0,-2,1,0,0
1537918943220398,0,-2,-1,1,-2,0,0,0
1537918943220398,0,1,0,-1,-2,-17,-7,-2
1537918943234362,-1,-1,1,2,2,13,4,-1
1537918943234362,0,0,-2,-3,-1,0,1,0
1537918943243338,-2,-1,-1,1,0,1,3,0
1537918943243338,1,-3,-3,-3,-2,0,-3,1
1537918943256303,-1,-1,0,1,-1,-7,-4,0
1537918943256303,-2,-3,-2,-1,-2,-3,-3,-4
1537918943265279,1,-1,-1,-1,-1,10,3,6
1537918943265279,0,-1,2,1,0,-1,0,-1
1537918943271263,1,0,-2,-2,-3,-10,-2,0
1537918943271263,0,0,1,1,-2,1,-1,1
1537918943280239,-2,1,0,-2,0,-4,-3,-5
1537918943280239,-2,0,0,1,-1,1,-1,0
1537918943294202,-2,-2,-3,-2,-2,1,-2,-1
1537918943294202,0,-1,-1,-1,0,-2,-3,-1
1537918943303178,0,-1,-1,1,-1,-5,-11,0
1537918943303178,-2,-1,-2,-3,-1,2,8,0
1537918943317140,-1,0,1,0,1,2,-1,-3
1537918943317140,1,1,0,0,0,-12,15,6
1537918943325119,0,-1,-2,-1,0,1,-1,-2
1537918943325119,1,2,1,3,4,15,1,-1
1537918943332101,-3,-3,-2,-4,-4,-6,-13,-3
1537918943332101,3,0,0,1,1,9,5,1
1537918943341076,1,0,-1,-2,0,-10,-3,0
1537918943341076,-4,-1,-3,-1,-4,-15,-12,-4
1537918943354043,2,9,0,0,3,16,-10,4
1537918943354043,2,-10,2,1,0,-19,-25,-2
1537918943363019,-7,-10,-3,-4,-4,6,-1,-5
1537918943363019,-8,-6,0,-1,-3,-8,-13,-5
1537918943376980,13,17,18,3,3,2,39,10
1537918943376980,0,9,-15,-2,-3,5,-24,-1
1537918943385957,1,9,-2,0,1,9,-5,0
1537918943385957,-2,-1,-2,-3,-3,-6,-8,-2
1537918943391941,-8,-21,-3,-3,-7,-38,-39,-8
1537918943391941,-2,2,7,6,10,42,1,0
1537918943400917,-9,-1,-1,-2,-1,10,17,-1
1537918943400917,11,-5,-2,0,-3,4,3,6
1537918943413882,-7,-3,-3,1,0,-10,20,1
1537918943413882,1,-5,-2,-5,-8,-15,-18,-2
1537918943422857,-3,-3,-5,-3,-3,-2,-2,0
1537918943422857,-4,-2,3,-1,1,0,7,-2
1537918943437818,1,-4,-5,-2,-1,15,10,-2
1537918943437818,-3,4,-1,-1,-4,-17,-8,-3
1537918943443802,5,0,2,1,-2,0,-8,0
1537918943443802,0,4,1,-2,-2,-12,6,-1
1537918943460757,-3,2,-3,-2,-1,21,-14,-6
1537918943460757,-6,-8,0,-2,-1,-11,-5,-5
1537918943461754,3,0,2,2,2,7,19,3
1537918943461754,2,0,-1,2,1,2,21,7
1537918943482698,-5,-3,-5,-4,-3,3,-9,-4
1537918943482698,-1,-3,-2,-4,-1,-4,3,-3
1537918943484693,0,-2,-2,-4,-4,-4,-25,-4
1537918943484693,3,5,2,3,4,-13,2,1
1537918943497658,-11,-2,-1,-1,-1,-4,-30,0
1537918943497658,5,-1,1,0,-2,-1,15,3
1537918943504639,-4,0,1,2,2,-4,1,-3
1537918943504639,-2,-2,-5,-7,-6,-4,-15,-5
1537918943521595,14,1,0,-1,1,13,62,7
1537918943521595,-8,0,0,-3,-1,-2,-10,0
1537918943523589,19,3,-3,-4,-3,-4,1,-5
1537918943523589,-25,-11,1,7,13,16,-43,-6
1537918943534561,3,14,0,13,61,13,22,-3
1537918943534561,18,1,-1,8,12,10,34,17
1537918943543537,-11,-3,-11,0,65,-74,-12,-11
1537918943543537,12,-1,13,5,-41,69,5,6
1537918943556501,-11,-36,-33,-26,-57,-2,-30,-14
1537918943556501,-25,5,11,20,85,58,0,-40
1537918943565477,-51,43,34,16,46,-28,2,16
1537918943565477,55,-28,-16,-46,-70,-56,42,41
1537918943580436,-28,14,2,1,92,7,-30,21
1537918943580436,21,26,-5,-28,-125,-28,39,-4
1537918943582431,27,-62,-84,3,83,115,-39,-70
1537918943582431,-11,2,61,66,120,86,9,37
1537918943595396,18,-70,-31,-47,-128,-98,36,16
1537918943595396,15,63,22,14,121,97,-35,-29
1537918943603375,53,66,62,49,-25,4,5,31
1537918943603375,-70,-100,-36,-61,-110,-98,-31,-63
1537918943616340,21,53,1,17,68,127,-3,-16
1537918943616340,-73,-15,-35,9,52,42,13,43
1537918943625316,103,-2,31,-21,-49,-26,-7,17
1537918943625316,-16,68,19,0,67,55,13,-25
1537918943640276,16,-57,-18,-16,-10,-11,-22,69
1537918943640276,-29,8,-15,-12,-16,43,-14,-36
1537918943642271,-62,-21,-18,-7,-72,-72,17,9
1537918943642271,-4,-39,-16,18,-10,-39,7,-2
1537918943654239,1,42,31,16,4,-12,-9,-13
1537918943654239,34,-27,-4,5,-13,-47,0,21
1537918943663215,-12,8,1,-4,-6,14,6,7
1537918943663215,4,3,-3,-9,-13,-20,-7,-21
1537918943676180,-5,7,-9,6,2,2,2,-18
1537918943676180,-13,-3,16,5,-26,-45,1,7
1537918943685156,-22,-23,0,-17,-27,-12,10,-11
1537918943685156,3,18,-10,9,21,25,-2,3
1537918943700116,-9,19,20,13,4,-14,3,-6
1537918943700116,19,-23,-7,-8,-27,-39,3,9
1537918943702111,-17,-17,-4,-10,-8,22,0,-5
1537918943702111,18,23,-12,1,14,5,-2,10
1537918943714079,-1,7,8,9,-2,-7,-17,-4
1537918943714079,1,-20,8,-9,-21,-23,18,-11
1537918943723055,-4,0,-1,-1,4,24,6,7
1537918943723055,-3,20,-13,2,7,2,-17,3
1537918943737017,-10,-10,11,-2,-12,-16,-2,-26
1537918943737017,4,-10,-6,3,-6,0,-9,3
1537918943745994,-6,2,-3,-10,2,8,43,6
1537918943745994,12,7,22,3,1,-7,2,5
1537918943760954,-7,-6,-20,-1,-2,-2,-13,-12
1537918943760954,6,-5,-9,-12,-11,-12,-16,0
1537918943761951,-1,1,-3,5,1,6,-8,6
1537918943761951,-2,1,1,2,-8,-6,-6,-2
1537918943773919,-1,2,-10,3,3,4,9,2
1537918943773919,-1,2,11,-8,-5,-14,-6,3
1537918943782895,-15,-16,-4,17,-11,-4,1,-5
1537918943782895,7,16,-19,-17,11,10,-1,-1
1537918943796857,-13,0,3,-1,0,10,16,-3
1537918943796857,8,-2,0,3,-6,-6,3,5
1537918943805834,-1,0,2,-4,-1,0,-10,-3
1537918943805834,-2,0,7,16,3,5,25,2
1537918943820793,5,0,5,-2,-1,-12,-23,-4
1537918943820793,-6,2,-16,-7,-9,-12,11,-3
1537918943821791,-13,-12,-6,-3,2,4,-17,-1
1537918943821791,-7,1,-2,-3,-3,-5,16,0
1537918943833759,14,3,7,4,-1,7,13,-2
1537918943833759,5,-2,9,2,0,2,0,-3
1537918943842735,-1,-1,-2,-5,-1,-3,-14,0
1537918943842735,1,6,-5,-4,-3,-5,-1,-5
1537918943856698,-2,-6,5,1,-2,-1,9,3
1537918943856698,-10,-18,-9,-3,-6,2,1,0
1537918943865674,2,5,4,-4,1,-2,3,2
1537918943865674,2,-2,-8,-1,2,0,-7,1
1537918943880633,-8,3,18,8,1,-1,-10,-6
1537918943880633,28,24,3,6,1,0,-33,0
1537918943881631,0,-1,-1,-5,-2,0,73,1
1537918943881631,6,-2,4,9,4,1,21,5
1537918943894596,-4,-1,-16,-19,-6,-3,-26,-3
1537918943894596,-5,-8,1,4,1,2,55,5
1537918943903572,3,-3,2,-5,0,6,-31,-5
1537918943903572,3,0,-2,0,-3,0,-39,-5
1537918943916538,0,1,3,6,2,-16,35,2
1537918943916538,-1,-7,-5,-8,-4,0,-45,-4
1537918943925514,0,5,-2,0,1,13,32,3
1537918943925514,-4,-3,-1,0,1,-7,-9,0
1537918943940474,-2,-2,-2,1,-1,8,13,-4
1537918943940474,-4,-3,2,0,0,-15,-29,-1
1537918943941471,-2,-1,-2,4,0,-6,-40,-8
1537918943941471,-1,-2,-6,-15,-3,-2,-41,-4
1537918943954436,3,0,1,1,1,4,17,4
1537918943954436,-1,0,4,3,1,12,92,2
1537918943963412,-12,0,1,-1,-2,4,-18,4
1537918943963412,11,0,0,-2,-2,-3,22,3
1537918943977375,-34,14,-11,0,5,-2,-9,-28
1537918943977375,64,5,22,14,24,13,-57,40
1537918943984356,-12,-29,-7,13,82,-32,-23,-30
1537918943984356,-79,-8,-8,-10,-34,107,30,0
1537918944000313,60,5,12,-12,-65,-80,7,9
1537918944000313,-32,66,-7,7,34,-28,-28,-21
1537918944002308,42,-17,26,8,77,10,42,50
1537918944002308,-25,14,21,-7,-59,-108,-9,-33
1537918944021258,38,-27,-27,-2,-21,-93,-22,7
1537918944021258,17,-50,-102,-59,-64,123,26,49
1537918944030234,9,107,87,18,4,-59,-29,-1
1537918944030234,-41,-42,20,-1,-26,-11,50,-3
1537918944045194,-39,-59,-7,21,96,80,11,-13
1537918944045194,38,6,-55,11,31,-61,-9,-8
1537918944051178,-80,-12,-27,-11,30,127,-9,-26
1537918944051178,35,1,-12,16,74,-59,13,24
1537918944068133,-30,-25,0,-30,-128,-54,-1,-2
1537918944068133,-9,37,47,13,8,-8,-33,-25
1537918944069130,-9,-126,-63,-6,-50,20,12,-37
1537918944069130,50,127,-14,4,5,-12,-17,5
1537918944090074,31,-61,-10,-19,120,127,-15,30
1537918944090074,36,-18,35,-15,-105,-120,12,-30
1537918944092069,-8,102,0,-27,-57,-120,2,20
1537918944092069,39,15,60,16,-21,78,-15,52
1537918944105034,-58,-37,-37,7,36,5,-18,-37
1537918944105034,-9,19,32,10,63,61,38,39
1537918944112015,42,-84,-59,-5,-47,29,-3,9
1537918944112015,-78,-76,-40,20,54,34,-11,-46
1537918944127973,69,127,97,21,16,-23,16,27
1537918944127973,-56,-8,2,-24,-74,-96,-16,-27
1537918944129967,-7,67,76,20,-7,32,-2,1
1537918944129967,-14,-17,-31,-7,5,-23,-12,-15
1537918944150912,5,-18,-8,23,34,38,16,16
1537918944150912,-10,-34,-51,-5,0,-4,3,-17
1537918944151909,15,3,-23,-29,18,0,0,3
1537918944151909,23,-16,-5,-17,5,10,-10,-4
1537918944164874,-23,26,16,-2,-31,-27,-10,-20
1537918944164874,-5,-19,33,28,6,8,-1,0
1537918944171855,-19,-9,-58,-20,-13,-12,1,0
1537918944171855,13,-5,8,-12,1,-14,1,7
1537918944187813,-1,9,4,11,-12,-4,-4,-5
1537918944187813,-23,-1,3,3,18,28,2,2
1537918944189807,14,-9,-13,-3,-4,-13,-4,7
1537918944189807,16,4,9,-2,-9,-19,-1,-9
1537918944210751,-4,16,-13,11,-5,-5,1,5
1537918944210751,-6,-10,3,-13,15,16,1,2
1537918944211749,1,3,17,7,-20,-24,-2,-6
1537918944211749,12,-7,-13,-4,9,6,-2,1
1537918944223716,-20,1,-14,-4,-11,-7,-3,-5
1537918944223716,-8,-5,15,7,10,8,2,-1
1537918944232692,5,-4,-2,-2,-7,-3,2,-5
1537918944232692,0,2,-4,1,-2,-2,-5,2
1537918944248650,0,4,7,1,-3,-7,1,5
1537918944248650,-5,-3,-13,-5,8,2,0,-10
1537918944249647,1,1,-3,-6,-5,-3,-4,-5
1537918944249647,2,-2,-2,5,1,3,-1,1
1537918944270592,-1,8,5,-5,-8,-8,-2,0
1537918944270592,-3,-4,-6,1,8,10,-1,-1
1537918944271589,-6,-2,20,5,-1,-1,0,6
1537918944271589,3,-3,-1,-15,-7,-7,-1,5
1537918944284554,-3,-2,-12,-7,-7,-4,-2,5
1537918944284554,-7,0,7,4,2,1,-3,5
1537918944293531,3,-2,1,12,0,-5,-6,-1
1537918944293531,3,1,7,6,-1,-1,3,1
1537918944308491,-2,1,-14,-17,-4,4,4,-2
1537918944308491,-3,-2,1,5,4,1,-4,-4
1537918944309489,-1,2,0,-1,-2,-4,-1,-4
1537918944309489,2,-3,-4,-3,-1,-8,-4,-2
1537918944329435,-5,-1,-8,-5,-5,-2,2,-1
1537918944329435,-2,-2,6,3,4,6,5,-2
1537918944338412,1,-2,-5,2,0,-1,-2,2
1537918944338412,1,0,-1,0,1,-3,-3,-3
1537918944344396,2,0,1,2,-4,-6,-3,0
1537918944344396,-2,0,3,-2,-2,-2,-3,0
1537918944353373,-1,0,1,-4,-2,0,0,-1
1537918944353373,1,0,-5,0,1,1,1,-1
1537918944368332,-2,0,0,0,-2,-1,1,-4
1537918944368332,0,-2,3,1,3,1,-1,-2
1537918944369330,0,-2,-6,-3,-5,-2,-2,-2
1537918944369330,1,0,0,2,-1,1,4,3
1537918944390271,-2,0,-1,-1,0,-3,-5,-4
1537918944390271,-3,-2,-4,-2,-1,0,-3,-3
1537918944392266,1,0,2,2,-3,6,14,5
1537918944392266,-1,-1,-2,-4,-4,-24,-18,-4
1537918944405232,-2,-1,-2,1,1,20,4,-2
1537918944405232,0,0,-4,3,2,1,7,1
1537918944411216,-4,-2,3,-1,-1,1,-4,-2
1537918944411216,0,-3,-8,-5,-1,0,0,-2
1537918944428170,-2,0,-3,-4,-2,-14,-12,-1
1537918944428170,-1,-2,2,1,0,-3,0,-1
1537918944429167,1,-1,-4,2,2,2,3,1
1537918944429167,2,0,3,-1,-2,4,8,2
1537918944450111,0,-1,-3,-3,-2,-7,-3,-2
1537918944450111,-1,0,0,0,1,8,11,-2
1537918944452106,-2,1,2,-1,-1,-7,-8,-1
1537918944452106,1,-1,2,2,2,-1,-12,0
1537918944464074,-1,-2,-4,-2,-3,-3,-1,-6
1537918944464074,2,0,1,0,1,-3,-5,6
1537918944473050,-2,-2,-2,-2,-2,-6,-13,0
1537918944473050,-1,-1,-2,-1,0,7,17,-1
1537918944488010,0,-1,1,1,1,1,-2,1
1537918944488010,-2,-1,3,-1,-3,0,1,-1
1537918944489008,1,-2,-15,-2,0,-5,-10,-2
1537918944489008,-1,1,8,1,1,2,-3,-1
1537918944510949,-1,0,5,2,-1,2,7,-2
1537918944510949,-2,1,-1,0,1,-4,0,0
1537918944511947,1,-2,5,2,-3,-4,0,-2
1537918944511947,-1,-4,-12,-6,-1,2,-3,-3
1537918944534886,1,-1,-1,2,2,-1,5,5
1537918944534886,-1,-2,-2,-3,-1,0,-15,-4
1537918944536880,-1,2,3,1,1,-4,18,0
1537918944536880,-1,-1,0,0,-2,1,3,0
1537918944539872,-2,0,2,-2,0,-2,1,-1
1537918944539872,-2,-2,-2,-1,-1,0,-6,-3
1537918944548848,-1,-1,-2,-6,-4,-8,-34,-2
1537918944548848,-2,-1,0,2,2,8,8,-2
1537918944562812,-2,0,-5,-5,-2,-4,-22,-4
1537918944562812,1,0,-4,-2,-3,4,44,3
1537918944564806,-1,-1,0,0,1,0,13,-1
1537918944564806,-1,-2,2,2,0,-2,-8,-1
1537918944577771,-2,-1,0,1,-2,3,-13,0
1537918944577771,-1,-2,1,0,0,-8,-26,-6
1537918944583755,-1,-1,1,-3,1,2,5,0
1537918944583755,1,0,-3,-1,-1,-1,-4,2
1537918944599712,0,-1,2,-1,-2,-3,26,-1
1537918944599712,1,0,-1,-3,-2,0,14,0
1537918944606692,0,0,0,0,1,3,0,-2
1537918944606692,-1,-2,0,0,-1,-3,-7,-3
1537918944622650,0,0,-2,-2,-1,-1,3,0
1537918944622650,0,-1,-2,-2,-2,-2,-8,-1
1537918944624645,0,-1,-3,-1,0,3,1,1
1537918944624645,-1,0,-1,-2,-1,-1,1,0
1537918944637610,0,0,0,0,0,-2,-3,1
1537918944637610,0,-1,1,1,-1,0,-8,0
1537918944644591,0,-1,0,-3,-1,2,-5,-2
1537918944644591,0,2,0,1,0,0,2,1
1537918944659551,3,0,0,-1,0,-2,1,0
1537918944659551,-14,0,1,0,2,-3,-6,-5
1537918944668527,2,-3,0,-1,-1,0,4,3
1537918944668527,-3,-2,-1,0,-2,-1,3,4
1537918944683487,-3,-4,0,-1,0,0,-13,-6
1537918944683487,2,-1,0,-1,1,2,28,1
1537918944684485,-17,-1,-1,-1,-4,-2,13,-10
1537918944684485,-8,-1,0,-2,2,-6,0,-4
1537918944696452,18,-3,-4,1,0,5,-5,4
1537918944696452,-2,-2,-2,-3,-7,-9,-54,16
1537918944705429,10,2,0,-1,0,3,66,9
1537918944705429,-26,18,-8,-7,9,15,-11,-13
1537918944719391,8,0,10,12,70,-19,-4,14
1537918944719391,-19,-51,-32,-32,-99,-38,3,-16
1537918944726373,5,-3,23,7,17,-23,-24,-1
1537918944726373,-21,4,8,0,-3,17,-9,0
1537918944743327,22,18,-35,-11,51,57,-16,-14
1537918944743327,7,8,10,28,98,47,-12,-15
1537918944744325,-41,-3,-15,-41,-102,-108,-13,-18
1537918944744325,-47,15,21,10,96,-30,-16,-23
1537918944756293,17,-36,0,-22,-128,-62,10,40
1537918944756293,-64,36,-19,10,111,34,-30,-32
1537918944765269,118,-18,1,29,-9,68,35,55
1537918944765269,-30,-49,-64,-54,-86,-80,-6,-21
1537918944779231,-11,37,46,41,117,-46,-32,-38
1537918944779231,-26,-26,-59,-37,-125,77,66,31
1537918944788208,51,38,37,24,48,-8,-42,16
1537918944788208,-89,3,56,53,82,44,5,-38
1537918944803167,24,-71,35,-15,-128,-68,45,35
1537918944803167,19,33,-29,-6,70,10,-34,-6
1537918944804165,-28,98,29,12,31,87,-4,-6
1537918944804165,35,-35,-93,-20,80,106,-2,11
1537918944817130,12,-72,-37,-17,-45,-12,19,29
1537918944817130,15,-3,72,13,4,-55,-15,10
1537918944825109,22,25,-26,-31,-49,-24,-13,4
1537918944825109,-46,51,40,11,-60,-46,-17,6
1537918944840069,49,22,-56,-12,14,48,-6,-55
1537918944840069,32,-35,6,7,-14,-40,15,58
1537918944847050,-69,-43,-6,6,24,-4,-5,-33
1537918944847050,50,-15,-4,4,-3,33,8,-12
1537918944863007,-62,11,7,-2,-2,2,-9,-6
1537918944863007,13,1,16,3,-7,-16,3,-5
1537918944864005,-13,-9,0,8,30,25,-5,-14
1537918944864005,24,-1,3,-8,-41,-22,13,17
1537918944876970,-19,17,6,7,12,15,5,0
1537918944876970,16,23,34,10,4,0,6,-9
1537918944885946,-23,-27,-30,-9,7,1,-2,-7
1537918944885946,40,-6,9,-2,-30,-28,7,20
1537918944899909,-9,19,12,-6,9,9,-7,-4
1537918944899909,4,5,4,11,6,18,-2,-19
1537918944906890,-15,-22,-11,-1,-7,-12,-4,-2
1537918944906890,30,0,11,-1,-7,-3,3,15
1537918944930826,-14,24,20,14,23,31,0,-4
1537918944930826,-13,-7,-52,-16,-14,-12,-1,-9
1537918944931825,-2,-8,67,9,8,-1,2,1
1537918944931825,23,2,-18,-14,-8,-3,4,5
1537918944936810,-20,3,-4,-2,0,7,0,-5
1537918944936810,4,-2,-7,1,-11,-8,-15,-3
1537918944945786,-23,-16,12,5,6,2,13,0
1537918944945786,38,8,14,8,1,9,32,5
1537918944959749,3,19,2,2,3,6,1,2
1537918944959749,-2,-6,19,0,-4,-11,-11,-1
1537918944966731,-26,-19,-22,-9,-1,-6,-29,-9
1537918944966731,-2,-6,3,2,-9,2,-28,2
1537918944982688,-4,4,-9,-6,4,4,-35,-3
1537918944982688,-2,5,10,3,3,11,112,4
1537918944984683,8,0,-10,4,2,-2,-1,3
1537918944984683,3,-5,-1,-5,-7,-14,-28,4
1537918944996650,3,5,-3,-1,2,1,-34,-4
1537918944996650,0,-1,-3,-12,-1,5,-37,-9
1537918945005626,-1,-7,-38,2,0,-1,0,-4
1537918945005626,20,9,16,-13,1,8,47,9
1537918945019589,-13,-2,19,2,4,3,-13,0
1537918945019589,-4,2,6,-2,-6,-2,34,-3
1537918945026571,-2,-2,-13,-5,-4,-4,-35,-5
1537918945026571,4,4,-2,6,-4,5,-1,-4
1537918945042528,-10,-11,1,4,6,-20,-46,3
1537918945042528,0,-4,-2,-3,-7,-5,-51,-12
1537918945044522,8,5,2,1,5,3,28,20
1537918945044522,-8,-1,-1,4,-2,9,28,-3
1537918945056490,-3,3,-3,-6,0,0,43,2
1537918945056490,3,-2,0,4,-3,-15,-32,4
1537918945065466,-1,1,-1,-7,-3,0,-29,-17
1537918945065466,0,1,-1,-1,-5,-4,14,-5
1537918945080426,-4,2,-16,-12,-6,10,-10,-10
1537918945080426,3,11,-3,1,25,-2,68,23
1537918945088405,13,-55,-29,8,38,70,62,2
1537918945088405,17,60,21,15,73,-109,-56,5
1537918945102368,-34,-3,36,1,-83,90,45,-4
1537918945102368,-70,-15,-31,0,57,-45,-43,-38
1537918945109349,97,17,36,4,25,76,40,62
1537918945109349,-84,-87,-33,-6,-98,79,-5,-20
1537918945116330,-18,96,-4,-9,59,93,-14,-28
1537918945116330,100,45,65,11,-97,-97,33,10
1537918945125306,-42,-94,-110,-58,-53,-77,-9,57
1537918945125306,29,106,94,66,124,42,-46,-2
1537918945140266,101,-24,18,1,-86,-48,24,25
1537918945140266,-76,-74,-38,23,122,98,-46,-37
1537918945146250,-106,18,-27,-15,-86,-52,21,-70
1537918945146250,80,17,25,-24,-35,7,-4,-4
1537918945162208,-8,-89,-96,-17,39,19,23,50
1537918945162208,-32,127,19,8,78,20,-36,-73
1537918945169189,-21,-128,20,2,-67,-46,-7,14
1537918945169189,-128,35,4,17,69,16,4,19
1537918945176170,43,96,47,3,94,-70,-10,-19
1537918945176170,44,-34,14,-41,-128,-83,-11,9
1537918945185146,-62,47,43,34,127,2,-35,-50
1537918945185146,13,-126,-75,-34,-128,-49,27,-30
1537918945200106,-48,49,17,12,8,-20,-4,21
1537918945200106,-63,-11,1,6,3,26,-10,37
1537918945207087,18,39,21,8,13,2,-10,-52
1537918945207087,29,-60,-30,-18,-2,-20,6,10
1537918945222048,-11,-59,-26,1,10,-26,-7,2
1537918945222048,-1,-44,-17,-14,-26,28,8,-26
1537918945229029,39,48,35,8,-30,-2,0,2
1537918945229029,18,-25,-20,36,19,7,-7,20
1537918945237008,-30,-16,-67,-57,-13,8,9,-21
1537918945237008,31,16,35,16,-10,2,2,18
1537918945245984,19,-8,-15,-8,0,8,-16,17
1537918945245984,-9,17,-2,-11,-7,-10,2,8
1537918945259946,-7,-6,51,48,-2,-24,-2,-25
1537918945259946,17,-29,-41,-30,-8,-1,9,25
1537918945266928,5,19,-3,3,10,-4,-12,7
1537918945266928,-10,2,15,12,2,10,3,-19
1537918945281888,-4,-15,0,-11,-15,-8,8,2
1537918945281888,10,-27,-16,-4,3,12,0,18
1537918945288869,-2,21,10,2,-9,12,4,-2
1537918945288869,10,15,2,-14,2,-5,5,1
1537918945305824,-8,-33,-14,8,6,-4,-11,1
1537918945305824,-3,-5,-13,7,-1,11,44,16
1537918945306821,7,18,16,-6,-4,-10,-22,-2
1537918945306821,3,-3,0,-6,-2,-8,-4,7
1537918945327765,-4,-13,-7,7,4,-6,-19,2
1537918945327765,-4,-7,1,2,-3,6,-10,-14
1537918945329760,9,10,-3,-1,-6,8,9,-8
1537918945329760,1,-10,-12,-12,6,0,-10,-5
1537918945342725,-5,-2,17,12,-5,-16,-16,-9
1537918945342725,7,2,9,-1,-2,2,-13,-4
1537918945348709,0,-5,-14,-13,-3,1,-6,6
1537918945348709,-4,2,-6,-8,0,3,-3,10
1537918945365664,0,-3,2,-1,-1,-7,48,4
1537918945365664,3,-8,10,6,-4,-3,4,10
1537918945366661,0,3,-3,4,2,-7,-12,2
1537918945366661,-3,-1,-2,-5,0,4,-7,-7
1537918945379626,-2,-6,-2,-5,-5,0,0,-2
1537918945379626,3,-6,-1,0,0,-2,-14,4
1537918945386608,0,2,-3,1,-4,4,7,0
1537918945386608,1,3,4,0,0,-5,3,-1
1537918945402565,-2,-7,2,3,0,2,-5,2
1537918945402565,-2,-2,-1,-1,-3,2,-4,0
1537918945409547,2,2,0,-1,-1,-2,0,1
1537918945409547,1,-2,1,-3,-2,-1,6,-1
1537918945432486,-2,-2,3,-2,1,4,9,-1
1537918945432486,-2,-3,-2,-2,-3,-2,-15,-3
1537918945433482,-1,1,-1,1,-2,-15,-11,-2
1537918945433482,1,0,-4,-1,1,-1,0,1
1537918945454427,-3,-2,0,-1,-1,7,0,-2
1537918945454427,1,1,3,1,-1,7,11,4
1537918945455424,-3,-1,-1,-3,-3,2,-52,-10
1537918945455424,2,0,0,4,-1,-16,58,10
1537918945469386,1,3,2,1,-4,-3,-9,-2
1537918945469386,-1,-5,-14,-6,1,2,56,7
1537918945470384,2,0,4,-1,3,16,-8,0
1537918945470384,-1,-2,0,-2,-2,-11,-27,-5
1537918945492325,-3,-2,2,3,-1,15,-26,-7
1537918945492325,-1,0,12,15,0,-23,-13,1
1537918945493323,-10,-6,-14,-10,-5,-28,-57,-17
1537918945493323,10,11,10,9,14,90,109,20
1537918945515264,-13,-3,-23,3,4,3,32,0
1537918945515264,45,9,-10,-17,-9,-9,-29,-7
1537918945515264,-39,-15,-9,-24,-13,-7,-60,-8
1537918945515264,5,-14,-11,-7,-15,-73,-91,-8
1537918945530224,1,4,25,5,8,41,91,16
1537918945530224,-15,-11,-16,13,8,10,-87,-15
1537918945530224,5,13,18,11,-3,-12,29,4
1537918945530224,-4,2,-25,-5,-1,19,-92,-4
1537918945552165,-9,-3,-5,-4,-4,-5,16,-4
1537918945552165,-10,-20,7,-14,-15,-74,-117,-17
1537918945553163,13,3,10,6,12,67,127,44
1537918945553163,-4,8,16,5,4,34,31,-5
1537918945575104,-8,-3,-16,-1,-6,-57,-108,12
1537918945575104,12,13,9,1,3,25,24,7
1537918945575104,2,-3,-13,3,-5,-23,12,19
1537918945575104,1,-2,9,-2,-2,-12,-41,-5
1537918945590065,-9,-1,1,-4,-5,12,-36,-34
1537918945590065,-18,-8,-7,-8,-7,-28,-97,-31
1537918945590065,10,-7,8,10,9,30,79,28
1537918945590065,3,-2,-14,-7,1,7,-34,12
1537918945612006,-1,-6,-3,-6,-7,-27,-4,-18
1537918945612006,11,9,1,14,10,24,-21,19
1537918945619984,-5,5,-3,-1,-6,-17,33,-18
1537918945619984,-12,-2,-3,-8,-6,2,45,-16
1537918945634944,10,3,3,1,3,-14,-11,23
1537918945634944,-5,12,4,-2,0,11,45,14
1537918945635941,8,-24,-2,3,-1,-14,-57,-25
1537918945635941,27,8,-4,0,-1,-12,33,17
1537918945658880,-1,-7,5,0,0,5,38,6
1537918945658880,-7,7,7,1,-2,-5,74,-23
1537918945659878,8,9,-9,-3,-1,-22,-1,25
1537918945659878,-21,-10,4,2,5,19,26,0
1537918945664864,5,0,-4,-2,-2,56,16,-23
1537918945664864,4,-4,3,-3,-4,-15,-16,16
1537918945665862,2,5,2,6,3,-29,44,-13
1537918945665862,-3,1,-2,-6,-7,-43,-19,4
1537918945680821,13,2,3,-1,4,70,-20,25
1537918945680821,-4,-8,-1,-3,-2,36,25,-30
1537918945686805,11,13,4,0,5,-4,-35,4
1537918945686805,-7,-5,-7,-5,-7,-49,13,15
1537918945702763,8,-3,0,-2,-6,9,-10,-25
1537918945702763,-15,-5,7,2,4,14,36,10
1537918945708747,11,4,-13,-2,-7,-5,-50,-12
1537918945708747,-3,-2,5,6,9,27,-7,-16
1537918945724704,-14,1,-3,-4,-3,-45,-33,4
1537918945724704,-2,-1,0,3,4,4,-31,-5
1537918945725701,3,0,0,0,1,20,31,51
1537918945725701,-6,-1,2,-3,-5,-10,-7,-19
1537918945747642,-4,-2,0,-1,-1,-16,-11,-52
1537918945747642,-3,-1,0,-1,-8,22,46,20
1537918945747642,0,-4,-2,-1,2,-60,-53,-34
1537918945747642,2,0,1,-1,0,39,-1,6
1537918945761606,1,-1,1,8,10,4,9,-4
1537918945761606,-1,-1,-2,-1,-2,-56,3,-3
1537918945769584,-21,1,-1,-5,8,44,-2,-19
1537918945769584,7,0,1,-3,-20,-24,10,5
1537918945784544,-4,-4,-2,-6,-2,-38,8,5
1537918945784544,-4,-1,1,5,12,55,10,9
1537918945785542,2,-1,1,0,-8,-12,-20,-6
1537918945785542,-4,-3,-1,1,10,4,-37,5
1537918945800502,2,1,5,1,-3,-29,-13,-2
1537918945800502,22,1,-7,-5,-6,-3,6,31
1537918945806485,-3,-5,-3,-4,-4,19,29,31
1537918945806485,-2,1,1,3,4,-19,-32,-35
1537918945821445,1,-1,-6,-4,-9,-4,-30,-25
1537918945821445,-7,-2,0,2,-1,-29,-38,49
1537918945829424,-2,2,1,3,5,32,87,-10
1537918945829424,-6,-4,-5,0,-3,-12,-23,1
1537918945844384,-1,1,12,-2,-3,-1,-1,24
1537918945844384,-7,-2,5,3,-1,-11,-19,-21
1537918945845381,-2,-3,-6,1,-2,7,-42,0
1537918945845381,-2,0,-6,-7,4,2,21,7
1537918945860341,0,-1,-7,0,-1,-11,2,0
1537918945860341,-5,-4,-1,-6,-4,49,34,-15
1537918945866325,0,1,6,4,7,-30,-30,-9
1537918945866325,-2,-2,1,4,10,45,22,-11
1537918945881286,6,0,-2,-2,3,7,9,24
1537918945881286,-4,-2,-5,-3,-6,0,42,-8
1537918945889264,-4,-3,-1,-7,-12,-23,-26,-11
1537918945889264,-4,-1,2,-1,-3,1,-26,-18
1537918945905221,7,2,0,6,7,23,1,30
1537918945905221,3,0,-5,-4,-2,7,24,8
1537918945905221,8,-2,-4,-3,4,24,25,-4
1537918945905221,-1,-1,1,-2,-2,-46,-35,7
1537918945920181,2,1,0,0,1,9,36,4
1537918945920181,-1,0,-4,-1,2,-5,-12,-32
1537918945926165,-1,-2,1,-1,-4,-14,-18,-1
1537918945926165,-9,-5,1,-1,-5,10,23,-2
1537918945941125,3,7,-4,0,-6,-18,-31,9
1537918945941125,9,3,0,1,4,-4,-23,-13
1537918945949104,-1,-3,0,0,-3,-15,8,-7
1537918945949104,2,2,-2,0,-1,29,3,2
1537918945965061,-11,-6,-4,-5,-5,-44,-13,-8
1537918945965061,-10,-1,3,2,5,45,-1,-8
1537918945965061,-1,4,1,1,2,2,-30,-26
1537918945965061,6,-3,-2,-5,-8,-43,-2,13
1537918945981020,0,-3,-3,-4,4,52,-25,-14
1537918945981020,-2,-2,-3,-1,-7,-28,29,1
1537918945987003,0,-2,9,0,0,2,-16,3
1537918945987003,0,0,2,2,3,9,26,0
1537918946001963,-10,4,4,-2,-3,-6,34,-4
1537918946001963,9,-1,-6,-3,-4,-11,6,15
1537918946008944,-6,0,-12,-1,-1,8,-29,1
1537918946008944,-3,-3,10,0,1,-19,-13,3
1537918946023904,-5,-13,-13,-2,-2,1,-2,9
1537918946023904,-2,-4,7,-1,0,6,19,8
1537918946031883,-22,-6,-5,0,-3,-24,7,-16
1537918946031883,32,24,3,2,4,10,13,18
1537918946048838,5,4,-5,-4,-1,6,2,11
1537918946048838,-8,-6,-5,2,1,-29,-13,-9
1537918946049836,0,-11,7,-2,3,45,4,2
1537918946049836,-12,3,-9,-3,-5,8,-25,-13
1537918946061803,1,4,4,3,1,-26,7,0
1537918946061803,0,-6,1,1,5,-14,13,3
1537918946068784,1,2,1,-6,-8,1,1,3
1537918946068784,3,-23,0,-2,5,8,-6,24
1537918946083744,0,2,6,0,-10,4,-4,-28
1537918946083744,5,3,-2,-2,-1,-34,-27,4
1537918946091723,-4,-6,-4,0,-1,7,9,24
1537918946091723,11,4,1,-3,-8,-14,-6,-29
1537918946100699,10,-7,-6,-1,4,28,13,32
1537918946100699,-11,-3,3,2,1,-9,12,-17
1537918946106683,7,4,2,1,4,3,8,15
1537918946106683,6,1,-3,-5,-4,12,-8,10
1537918946121643,-1,-1,-1,-1,1,-27,19,-6
1537918946121643,-8,1,-4,-2,-2,12,-14,-5
1537918946128624,4,2,-4,-3,-1,-3,2,-5
1537918946128624,-10,-3,-1,1,-4,-3,-4,-6
1537918946144582,-12,-3,2,-3,-12,-47,9,-2
1537918946144582,27,10,5,3,11,92,-5,42
1537918946151563,-5,5,-2,1,-1,19,4,-2
1537918946151563,-9,-6,-1,-1,3,-8,-7,-6
1537918946160539,0,-6,1,4,5,3,16,6
1537918946160539,-12,6,-3,-5,-13,-45,-6,-24
1537918946166523,-9,-1,2,0,3,14,39,-19
1537918946166523,-6,-1,-2,1,1,16,-6,-11
1537918946181483,22,8,7,-1,-1,-4,-5,2
1537918946181483,-14,-5,16,-3,-6,-24,-36,-13
1537918946189461,7,25,11,6,3,-39,8,11
1537918946189461,0,-44,-54,-8,-8,14,-3,-10
1537918946204422,-36,-1,-7,-1,1,-7,-18,-41
1537918946204422,9,-5,-3,0,2,32,22,14
1537918946211403,1,-7,-5,-1,2,-18,2,-10
1537918946211403,-3,15,16,4,7,-10,6,3
1537918946227360,2,-2,-4,-4,-11,-6,6,8
1537918946227360,2,2,-1,-7,-10,18,-13,4
1537918946228358,0,1,5,-3,-7,7,1,-11
1537918946228358,-22,-2,6,4,-3,-53,-6,-10
1537918946241323,17,-3,-4,-1,1,-11,8,27
1537918946241323,-6,2,5,3,8,19,-9,-16
1537918946249302,0,-9,-8,-2,-1,16,-7,-11
1537918946249302,-2,-1,0,-2,1,-1,15,39
1537918946264262,-3,-1,5,1,0,-42,-26,0
1537918946264262,-4,-4,-8,-2,-3,32,12,2
1537918946271243,10,-3,-7,-2,3,-15,-13,1
1537918946271243,4,8,7,1,0,26,36,-9
1537918946287200,-1,-1,8,1,-1,-3,-28,-8
1537918946287200,-18,-1,-2,-1,-1,-39,28,-4
1537918946288198,8,-3,-9,-4,-7,14,-49,-2
1537918946288198,-10,-5,11,0,0,15,-12,-17
1537918946301163,4,2,-3,-1,-1,26,31,-3
1537918946301163,-18,-8,-10,3,4,-26,-4,-33
1537918946317120,8,7,13,2,1,2,2,6
1537918946317120,-2,3,2,-4,-2,10,21,19
1537918946324102,-4,4,-8,-3,0,6,-34,-14
1537918946324102,6,-9,-14,2,-1,-9,19,-17
1537918946332081,-2,4,13,0,-4,-12,-20,29
1537918946332081,16,4,-5,-3,-3,-10,5,6
1537918946347040,-6,-9,-5,-1,1,22,7,-16
1537918946347040,22,1,-6,-5,-3,-9,1,-6
1537918946348038,-11,-23,-14,3,-3,-18,-35,7
1537918946348038,3,3,1,0,-3,-7,20,1
1537918946362000,-3,-4,0,-7,-10,-22,-2,-9
1537918946362000,-5,2,1,-4,-5,19,-17,11
1537918946368982,8,5,-3,-3,5,24,-8,-11
1537918946368982,8,4,2,-6,-6,72,50,1
1537918946383942,-7,-2,7,13,22,26,-23,-6
1537918946383942,8,-4,-3,-4,-9,0,21,18
1537918946391920,-13,0,0,1,6,52,-7,-12
1537918946391920,-10,0,-4,1,1,-58,-40,-26
1537918946406880,1,1,1,0,-4,85,-15,20
1537918946406880,-2,0,1,-1,-3,-41,24,11
1537918946407878,-4,5,-1,-2,-5,-25,25,0
1537918946407878,9,-2,-1,-5,-10,-34,-23,-13
1537918946421841,-5,-6,-16,-4,-1,-13,-12,6
1537918946421841,-3,3,15,2,5,-6,-12,2
1537918946428822,-8,-14,-2,-2,-6,5,21,-15
1537918946428822,11,11,-3,2,6,6,-6,3
1537918946443782,2,1,0,3,3,-24,-13,-2
1537918946443782,4,0,-5,0,-1,25,-4,17
1537918946451760,-10,-7,-1,-3,3,-31,2,-12
1537918946451760,-10,-12,1,-1,8,23,33,4
1537918946467718,9,14,2,-8,-25,-33,-52,30
1537918946467718,-7,0,1,0,-7,-26,19,-11
1537918946467718,5,5,-3,-2,-9,27,10,-6
1537918946467718,-4,-4,1,4,8,-18,-34,-8
1537918946481681,-1,-3,-3,-2,9,15,22,8
1537918946481681,9,13,10,2,6,12,0,-2
1537918946488662,-13,-31,6,4,2,-14,-30,-8
1537918946488662,-3,-4,-16,-2,-4,-1,53,-25
1537918946503622,-4,7,3,-1,-1,-3,44,-20
1537918946503622,12,9,-2,-2,0,-17,-27,25
1537918946511601,-7,2,7,3,3,30,14,-18
1537918946511601,-9,-3,0,-2,-9,-43,-39,17
1537918946527558,0,-7,-3,-3,-3,-28,-11,-23
1537918946527558,6,3,-2,2,11,86,26,1
1537918946527558,-4,9,-3,-2,-4,-34,-25,-18
1537918946527558,8,0,5,0,0,-3,1,30
1537918946549499,3,2,-1,-1,0,-23,27,1
1537918946549499,-13,-9,-2,-3,0,-21,-39,-16
1537918946550497,16,-16,-7,-6,-8,3,-6,3
1537918946550497,-21,3,-3,0,-4,-10,-7,-25
1537918946572438,-1,-7,0,0,-1,-7,-2,-8
1537918946572438,3,-3,1,3,11,46,3,24
1537918946573435,-3,1,-4,-4,-9,-17,5,17
1537918946573435,2,1,-3,-2,-1,-5,-16,-1
1537918946595377,-11,-3,0,0,1,-18,9,-4
1537918946595377,2,0,-4,-3,-5,-23,-19,-19
1537918946596374,13,4,-3,-1,5,-6,-1,31
1537918946596374,-10,-8,-8,-2,-2,-8,7,-18
1537918946609339,-1,0,1,2,2,13,1,-15
1537918946609339,-12,-7,-4,-3,-7,-27,-2,-12
1537918946617318,11,12,0,-1,-1,10,47,19
1537918946617318,6,6,12,-1,-1,44,-2,21
1537918946632278,-7,-11,-8,2,3,30,-4,5
1537918946632278,-4,0,-2,-2,-8,-12,4,-4
1537918946633276,-6,8,-4,-1,-5,-24,-5,-12
1537918946633276,4,-5,0,0,-1,-17,5,8
1537918946655216,11,5,-1,1,7,41,-6,30
1537918946655216,4,0,-1,-1,-4,13,7,2
1537918946656214,-14,0,-2,2,5,-17,-14,-17
1537918946656214,1,4,0,-2,-3,1,-8,7
1537918946669179,3,3,7,-1,-2,0,9,-6
1537918946669179,0,-23,-9,-2,-1,-19,2,5
1537918946677158,-8,3,1,1,0,1,-18,-11
1537918946677158,12,9,1,0,-1,10,28,13
1537918946692118,-2,0,2,-3,0,3,-3,5
1537918946692118,-5,0,1,-1,0,-10,2,-37
1537918946693115,11,-7,-3,-1,-2,31,6,0
1537918946693115,10,1,1,1,-2,-33,-16,13
1537918946715057,1,1,-1,2,8,60,-6,-33
1537918946715057,0,-2,-1,0,-6,-35,-16,52
1537918946716054,-8,1,-2,-5,-3,-14,-11,-7
1537918946716054,7,-1,-2,-5,-3,40,-17,9
1537918946729019,-10,-7,-1,-3,-9,-31,3,-9
1537918946729019,6,1,-1,1,2,-5,-12,10
1537918946736998,6,7,1,3,-1,-27,1,2
1537918946736998,-10,0,4,2,1,31,4,8
1537918946751958,-4,-16,-18,-7,-3,-12,-15,-7
1537918946751958,-13,12,16,-2,-4,-2,2,-9
1537918946752956,9,-26,-3,-3,-4,-3,-3,4
1537918946752956,-8,17,-11,-3,1,4,-6,-28
1537918946775894,22,8,-2,0,-2,-4,25,30
1537918946775894,-11,3,-9,-3,2,-7,-14,-43
1537918946775894,10,3,3,0,2,17,29,16
1537918946775894,-11,-10,1,2,0,1,-10,-11
1537918946788859,-5,-2,2,-3,-6,-39,0,6
1537918946788859,6,0,13,3,1,12,2,11
1537918946797835,-18,-4,-25,-7,0,-16,-1,-24
1537918946797835,3,-5,1,2,-1,29,-6,9
1537918946812795,-4,7,-1,-1,-3,-15,25,19
1537918946812795,-6,-8,1,-1,-2,-22,-6,-20
1537918946813793,3,7,2,-1,3,-27,16,21
1537918946813793,-3,3,1,3,10,32,6,-19
1537918946835734,0,-7,3,-3,-4,-21,-4,3
1537918946835734,7,5,-1,5,21,94,23,5
1537918946835734,-2,3,-4,-3,-9,-2,-14,1
1537918946835734,9,-2,-2,-2,-6,-95,2,-4
1537918946848700,3,-7,4,3,9,83,29,-4
1537918946848700,-1,-5,-7,-2,-6,-26,-36,-24
1537918946857675,-7,-4,-1,1,-3,-17,-26,0
1537918946857675,-2,2,4,-1,-2,5,48,0
1537918946872635,-11,-3,-8,-4,-12,-28,-4,-3
1537918946872635,4,-2,-8,-3,-5,-12,21,2
1537918946873633,-1,3,10,4,9,44,17,12
1537918946873633,1,-5,2,-3,-3,-47,-26,-5
