timestamp,emg1,emg2,emg3,emg4,emg5,emg6,emg7,emg8
1537905232133126,-3,-4,43,6,0,-1,-2,-3
1537905232133126,3,10,-32,-5,3,1,1,3
1537905232133126,-3,-17,-2,-6,-3,-1,-1,-2
1537905232133126,1,22,1,0,0,1,0,0
1537905232136117,-1,-4,-7,1,5,2,2,0
1537905232136117,-1,-5,12,4,-4,-3,-1,-1
1537905232137115,-2,5,4,1,0,0,0,-2
1537905232137115,0,-2,-6,2,0,-1,-2,0
1537905232145093,0,2,-3,-5,-3,0,-2,0
1537905232145093,-1,-4,5,10,5,-1,-3,-3
1537905232160054,3,7,16,-7,-3,-2,-1,2
1537905232160054,-4,-15,-9,-1,-2,-2,-1,-2
1537905232164043,-1,2,-27,3,-2,2,1,-2
1537905232164043,-3,-2,33,4,0,0,1,0
1537905232174018,1,3,-4,9,3,0,-1,0
1537905232174018,-2,-8,5,-13,1,-2,-2,-2
1537905232188977,1,2,21,1,0,0,-1,0
1537905232188977,0,-1,-53,-19,-9,-4,-2,-1
1537905232210918,-2,-6,-9,-3,-1,-1,0,-1
1537905232210918,-1,-1,-3,4,0,-2,0,-2
1537905232211915,-2,-4,-6,3,4,-1,0,-2
1537905232211915,-2,-2,22,-3,-1,-1,0,-3
1537905232223883,-2,9,29,12,2,-1,-2,-1
1537905232223883,-1,-13,-52,-9,-7,-3,0,0
1537905232263777,-2,-4,-2,-9,6,2,0,1
1537905232263777,-1,2,4,33,6,0,0,-2
1537905232264775,-1,-2,0,-27,-16,-7,-4,-3
1537905232264775,-3,-7,-1,2,1,1,0,-2
1537905232264775,-1,1,-11,2,-3,-2,-1,-1
1537905232264775,0,-1,9,-8,1,1,0,0
1537905232265772,-1,-3,5,13,6,1,1,-2
1537905232265772,-2,1,41,1,-5,-3,0,-2
1537905232268764,1,2,-23,-4,-3,-3,-1,-3
1537905232268764,-1,-3,-1,-4,3,1,0,-1
1537905232283723,-2,-1,0,3,-2,-1,0,-1
1537905232283723,1,-1,-2,-3,0,2,0,-1
1537905232291701,-2,-6,7,4,2,-1,0,-1
1537905232291701,0,-4,-1,-6,-2,-2,-1,-1
1537905232300677,0,-7,-10,7,6,3,1,1
1537905232300677,-1,4,-12,-11,-15,-9,-5,-4
1537905232314640,-1,-7,9,-6,-2,1,0,0
1537905232314640,0,6,-3,-7,-3,0,-1,0
1537905232329600,0,-1,7,9,4,3,-1,0
1537905232329600,0,-1,9,6,3,0,-1,0
1537905232337579,2,5,-32,-6,0,0,0,0
1537905232337579,-1,5,11,2,-5,-2,-1,-1
1537905232352539,-1,6,3,2,2,-2,0,-1
1537905232352539,-2,-3,-12,-1,0,0,-1,0
1537905232352539,-3,6,24,3,0,-1,-1,-3
1537905232352539,-2,-11,-8,-14,2,1,-2,-1
1537905232375477,2,20,-18,15,-2,1,0,0
1537905232375477,2,8,43,0,-2,-2,0,0
1537905232376475,-1,-5,-9,-12,0,0,1,-2
1537905232376475,-2,0,-10,-5,-6,-3,-1,-1
1537905232389440,-2,-6,4,-2,2,0,-1,-1
1537905232389440,0,-3,-18,-1,4,2,0,-2
1537905232390437,1,4,12,11,-2,-2,-3,1
1537905232390437,-2,-2,-10,-2,-2,-2,-1,0
1537905232412379,-1,-2,1,-10,-2,-1,-2,-1
1537905232412379,0,-5,-8,5,3,1,0,-2
1537905232413377,-3,-6,-1,2,-1,-2,0,-3
1537905232413377,0,-3,0,-7,-5,-2,-1,-1
1537905232435318,-4,-4,4,-6,-3,-2,-2,-2
1537905232435318,2,6,-5,-2,2,0,1,1
1537905232436316,-1,-2,0,-1,-1,0,-2,0
1537905232436316,0,6,9,3,1,0,0,-1
1537905232449282,-2,-4,-2,-6,2,1,1,0
1537905232449282,0,0,-23,-6,-4,0,0,-1
1537905232457260,-1,0,10,5,-2,-1,-2,-1
1537905232457260,-2,-5,-6,3,1,-1,0,0
1537905232472223,1,2,-2,-12,0,1,-1,0
1537905232472223,-3,-6,-6,10,2,-1,-2,0
1537905232473219,0,3,6,1,-5,-4,-1,0
1537905232473219,1,6,-11,3,0,1,-1,0
1537905232495159,-1,-8,-2,0,-2,0,-1,1
1537905232495159,-2,0,1,-5,6,4,0,0
1537905232496155,-3,-3,-2,2,1,-2,-2,-3
1537905232496155,-2,-3,3,-4,-4,-1,-1,-2
1537905232509120,-1,4,5,0,-1,-1,0,-1
1537905232509120,0,-3,-6,-5,-3,-2,0,0
1537905232517099,1,1,0,0,-3,-1,-3,0
1537905232517099,0,0,-12,0,1,0,-1,0
1537905232532059,-2,-5,1,-3,-2,0,-1,-1
1537905232532059,-3,-3,2,-4,-5,-3,-3,-1
1537905232533056,0,2,13,3,2,0,1,1
1537905232533056,-2,-3,3,12,5,1,-1,0
1537905232555995,-1,-3,7,-8,-3,1,-1,-1
1537905232555995,-2,-4,-31,-11,-3,-3,-1,0
1537905232555995,2,6,-7,1,3,1,1,0
1537905232555995,-1,-5,7,-2,-1,-2,0,-1
1537905232568961,-1,-2,2,15,6,1,0,-1
1537905232568961,-2,-5,9,-2,-2,-2,-1,-1
1537905232576939,-2,6,-10,-6,-3,0,-1,-2
1537905232576939,0,-2,-2,3,1,0,1,-1
1537905232591899,0,2,1,-8,-9,-5,-3,0
1537905232591899,1,3,1,0,-1,0,-1,0
1537905232592898,-4,-6,-5,3,2,-1,-1,0
1537905232592898,-2,-1,-7,-3,1,0,0,-2
1537905232615836,-4,-4,17,0,7,2,1,-1
1537905232615836,-6,-15,-12,-24,-7,-4,-3,-4
1537905232615836,3,26,-10,91,14,0,-2,1
1537905232615836,3,-34,56,-73,-1,3,3,2
1537905232637777,-4,-7,-7,-19,-7,-9,-6,-3
1537905232637777,0,2,-17,67,45,15,5,3
1537905232639772,10,-6,53,-41,-20,1,8,7
1537905232639772,-1,7,-14,5,8,-4,-3,-2
1537905232652737,4,65,49,67,-2,2,4,3
1537905232652737,-18,-83,-100,-70,-22,0,-3,-9
1537905232652737,2,-6,26,71,40,2,-2,-4
1537905232652737,1,31,77,-99,-41,-3,2,2
1537905232674678,3,-28,-91,92,-3,-8,-3,2
1537905232674678,10,52,104,-17,-21,-4,2,6
1537905232682657,-13,-38,-87,65,20,3,-3,-6
1537905232682657,-3,3,85,15,21,1,-3,-5
1537905232697618,-6,-20,70,-51,-15,-3,-1,-6
1537905232697618,11,30,-33,46,28,20,10,6
1537905232698615,-3,8,6,-53,-6,-1,-2,-2
1537905232698615,1,-7,-44,49,-17,-7,1,3
1537905232711581,1,-6,43,-5,24,9,1,2
1537905232711581,-15,-9,-120,-74,-33,-17,-10,-11
1537905232720556,-6,61,127,-15,-15,-8,-7,-7
1537905232720556,3,-4,-128,-14,14,6,3,7
1537905232735515,-2,-2,7,-32,-5,-3,-4,-2
1537905232735515,6,-20,55,-1,-2,-10,-2,2
1537905232736513,-11,-37,-9,-35,-7,-4,-4,-7
1537905232736513,-3,0,64,15,4,3,-3,-2
1537905232749478,7,-6,-91,-16,-2,1,2,2
1537905232749478,-5,-16,26,13,-3,-3,-4,-4
1537905232758454,4,-9,-17,-27,-10,-1,2,4
1537905232758454,3,2,-21,19,0,-1,-2,-5
1537905232771419,-1,-7,-2,-13,-1,1,0,-1
1537905232771419,-1,16,27,21,7,-1,-1,0
1537905232780395,3,8,-30,-24,-11,-1,0,2
1537905232780395,-2,-4,-2,5,-1,-2,-2,-2
1537905232794358,-7,-5,-1,-11,0,0,-2,-5
1537905232794358,3,13,25,3,-5,-5,0,0
1537905232803334,4,-10,-21,-17,-2,2,1,3
1537905232803334,-5,-13,0,12,-8,-5,-2,-4
1537905232809318,1,-7,-11,-20,-6,-3,-1,-1
1537905232809318,4,9,10,8,3,1,-1,2
1537905232818294,-1,-20,-13,-11,-5,0,1,1
1537905232818294,-3,3,-4,13,4,1,-2,-2
1537905232840236,0,6,-1,-4,1,0,0,-1
1537905232840236,2,6,15,2,3,1,-2,-1
1537905232842231,-1,4,-8,-16,-8,-3,-4,-1
1537905232842231,-1,-1,-1,4,0,-2,-2,-2
1537905232855195,0,8,0,-5,1,1,0,1
1537905232855195,-3,1,10,-6,0,1,0,1
1537905232857190,0,2,-4,13,-3,-2,0,0
1537905232857190,-1,5,-12,-18,-7,-2,-2,-3
1537905232878134,-1,3,11,10,-7,-5,-2,-2
1537905232878134,-2,-2,3,10,3,1,-1,-3
1537905232879131,0,-2,-4,-11,-1,0,0,0
1537905232879131,0,2,-1,3,3,0,-1,0
1537905232893094,-3,-6,0,-9,23,8,2,-1
1537905232893094,0,4,14,-23,-56,-21,-6,-1
1537905232899079,-2,-10,-68,-9,-1,-1,0,-2
1537905232899079,0,1,17,10,0,0,0,0
1537905232915035,-1,-2,-2,-7,2,-1,0,0
1537905232915035,2,0,7,8,16,6,1,0
1537905232917030,-3,-2,11,-11,-2,-1,-2,0
1537905232917030,-3,-5,-26,1,-2,-3,-2,-1
1537905232937974,0,4,5,0,-5,-2,1,-1
1537905232937974,0,0,0,10,4,0,1,1
1537905232939969,0,-1,0,-4,-5,-1,-1,-1
1537905232939969,0,2,7,4,9,3,-1,-1
1537905232951937,-1,2,5,1,-6,-4,-3,-1
1537905232951937,-2,-2,-11,1,6,2,-2,0
1537905232958918,0,6,13,-1,3,2,0,0
1537905232958918,-1,2,0,3,2,-1,2,-1
1537905232975872,1,-1,-5,-7,-4,0,-2,0
1537905232975872,-1,1,-5,4,4,1,0,-2
1537905232976870,1,2,8,0,1,1,0,0
1537905232976870,0,0,1,-3,-5,-2,-3,0
1537905232997814,0,-3,-2,2,-3,0,-1,-1
1537905232997814,1,0,5,-1,8,1,1,-1
1537905232999809,0,-2,7,-4,-1,1,-1,1
1537905232999809,-1,-5,-4,-2,-1,-4,-2,-2
1537905233011776,-2,-1,0,5,1,1,-1,-1
1537905233011776,2,0,0,-3,-2,-5,-2,0
1537905233020752,-1,-3,7,-4,-1,1,0,-1
1537905233020752,-1,-3,-6,-1,-8,-5,0,0
1537905233035713,-1,-2,-11,1,0,-3,0,-1
1537905233035713,-1,-1,-5,6,6,2,-2,-1
1537905233036710,-1,2,35,-3,-1,-2,-2,-2
1537905233036710,-1,-1,-11,-1,-2,-1,0,-2
1537905233057654,-1,-3,-10,2,-2,-1,-1,-1
1537905233057654,0,1,-7,-6,-2,0,-1,0
1537905233059649,1,1,-14,2,2,-1,0,0
1537905233059649,-1,-1,9,-1,1,0,-2,-2
1537905233080592,-1,3,3,-7,-4,0,1,-1
1537905233080592,-1,1,5,-4,3,2,0,0
1537905233081590,-1,-2,16,14,0,-3,-2,-2
1537905233081590,-1,-1,-15,-1,-11,-4,-1,-3
1537905233095553,1,0,-6,-7,-4,-1,-2,-1
1537905233095553,-2,-2,-6,-10,0,0,0,1
1537905233096550,0,2,7,6,3,2,1,0
1537905233096550,-1,0,4,4,1,0,-2,-3
1537905233117494,-1,0,30,-2,-1,0,-1,-2
1537905233117494,2,0,-20,4,3,0,-1,0
1537905233119489,0,0,-2,3,-2,1,0,1
1537905233119489,-2,-3,14,-14,-2,0,1,1
1537905233131456,0,2,-20,-7,-4,-4,-2,-1
1537905233131456,-1,-6,7,-14,-4,0,-1,-3
1537905233140433,-2,-1,-17,1,-3,-5,-1,-1
1537905233140433,0,2,18,3,6,3,1,1
1537905233155393,-2,-2,10,7,-1,-2,-1,-2
1537905233155393,1,0,14,10,4,2,1,0
1537905233157387,0,0,-15,-10,-2,-1,-2,-2
1537905233157387,-2,-3,-4,8,3,-1,-2,-2
1537905233178331,-1,0,-13,-25,-19,-6,-2,-1
1537905233178331,1,2,-5,26,7,1,0,-1
1537905233179328,-1,-4,0,-17,-3,-1,0,-1
1537905233179328,1,2,-7,-3,-2,-1,-2,1
1537905233191296,-1,-3,0,5,2,1,0,0
1537905233191296,-2,-2,-7,-2,-2,-2,-1,-3
1537905233200272,-2,-1,-5,-1,-1,0,2,-1
1537905233200272,1,0,5,0,1,0,-1,0
1537905233215232,1,-3,-9,0,0,0,0,0
1537905233215232,-2,-1,10,-2,-4,-1,-1,-2
1537905233217227,-1,-1,-4,-1,4,1,-1,-1
1537905233217227,0,0,-7,-2,-2,-2,0,0
1537905233237174,-2,0,7,3,2,-1,-3,-1
1537905233237174,1,-1,0,2,1,-2,0,0
1537905233251137,-1,1,-2,7,-1,-1,-2,0
1537905233251137,-2,0,-4,-3,-3,-3,-1,0
1537905233260112,-3,0,1,4,5,1,0,0
1537905233260112,-1,-1,6,-8,-2,0,-2,0
1537905233262107,-1,-2,-7,-10,-1,-2,-1,-2
1537905233262107,0,0,5,17,-1,0,-1,-2
1537905233274075,0,0,-1,3,0,-1,1,2
1537905233274075,-2,2,-2,-3,0,-1,0,-1
1537905233283051,2,-2,2,0,-1,-2,-2,-1
1537905233283051,-1,-2,-1,9,6,1,0,-1
1537905233297015,0,-2,-2,1,0,1,-2,-4
1537905233297015,0,-1,-2,1,-1,-1,0,1
1537905233303995,0,-1,-4,-8,-4,0,0,0
1537905233303995,2,-1,0,-4,0,-1,-1,1
1537905233320950,-2,-1,-2,0,0,-1,-1,0
1537905233320950,-1,0,0,-6,-3,-2,0,0
1537905233321948,-1,0,0,2,-1,0,0,-2
1537905233321948,-2,-1,-4,0,0,0,-2,-2
1537905233333915,-1,-2,-1,-10,-5,-1,0,-1
1537905233333915,-1,-1,-2,-3,0,-1,-1,-2
1537905233342891,-1,0,2,5,1,-1,0,-1
1537905233342891,1,-1,-14,-3,-1,-1,-1,1
1537905233357851,-1,0,12,-3,-1,-1,-3,-1
1537905233357851,-2,-1,5,0,-6,-3,-2,-2
1537905233359846,0,0,-5,1,0,0,1,-1
1537905233359846,0,-4,7,-8,-6,-3,-1,-3
1537905233381787,-1,-1,-18,0,0,-1,-1,1
1537905233381787,-1,0,6,-1,-1,0,-1,0
1537905233388769,0,1,4,-1,3,0,-2,0
1537905233388769,-1,-2,6,7,2,-2,-1,-2
1537905233389766,-1,-1,3,-2,4,2,2,0
1537905233389766,3,1,-15,-5,-10,-6,-2,0
1537905233397745,0,1,17,-15,3,4,-1,-1
1537905233397745,-1,-2,-5,6,-4,-5,-2,-1
1537905233408715,-1,-4,-22,1,-9,-3,-1,-2
1537905233408715,0,-1,-18,-8,1,2,0,1
1537905233417691,-1,0,4,5,0,-2,0,1
1537905233417691,-1,4,7,-1,1,1,0,-1
1537905233440630,0,2,19,15,5,-4,-1,-1
1537905233440630,-1,2,-9,-18,-10,0,-1,-2
1537905233441628,1,5,7,-1,-3,-4,0,0
1537905233441628,1,2,-11,-4,11,4,1,1
1537905233446614,-1,-1,9,1,-5,0,-1,-2
1537905233446614,-1,-1,-1,2,8,2,0,-2
1537905233455590,1,-2,-6,6,0,-6,-3,-1
1537905233455590,-3,4,19,-24,-17,-4,-3,-2
1537905233469553,1,5,-16,9,2,1,-1,-1
1537905233469553,0,1,-8,6,7,1,0,2
1537905233477531,-3,1,2,-3,-1,1,-2,-2
1537905233477531,0,-3,-23,20,10,3,1,-1
1537905233492491,0,3,-13,1,-5,-3,-2,0
1537905233492491,0,5,58,21,8,0,-3,-1
1537905233499473,-1,-2,-14,2,-5,-2,-3,-2
1537905233499473,0,-1,-26,9,13,4,0,-1
1537905233506454,-1,2,38,-47,-16,-6,-4,-2
1537905233506454,-2,-6,-17,10,-2,-4,-2,-1
1537905233515430,-1,-5,-25,6,-2,-3,-2,0
1537905233515430,-4,2,43,-25,-20,-5,-3,-1
1537905233529393,-2,1,-17,-1,17,5,1,-1
1537905233529393,0,0,-1,23,7,-1,-2,1
1537905233538369,-2,0,9,-41,-28,-9,-3,-5
1537905233538369,0,-4,-13,14,-5,-1,-1,0
1537905233552332,-1,-3,5,-2,-3,-2,0,0
1537905233552332,-2,-2,0,-9,-1,-1,-1,-3
1537905233567292,-1,-3,-2,-4,9,5,1,1
1537905233567292,-1,1,-18,1,1,-3,-1,-2
1537905233568289,-3,-1,18,-13,-6,-3,-1,-1
1537905233568289,-3,0,-13,9,-4,-2,-2,-1
1537905233575270,0,0,2,27,6,0,-1,1
1537905233575270,0,0,20,-40,7,6,2,-1
1537905233598209,-1,-8,-43,13,-25,-11,-5,-6
1537905233598209,-4,8,20,-1,8,2,-1,-3
1537905233599206,-5,-17,21,-12,-12,-4,-2,-1
1537905233599206,-1,-3,-8,1,3,1,0,-2
1537905233612171,-1,2,19,5,13,4,1,0
1537905233612171,0,-8,-22,-14,-7,-2,-1,-1
1537905233619153,0,1,-4,-4,4,0,-1,-2
1537905233619153,2,6,-1,-6,-10,-3,0,-1
1537905233626134,0,-4,4,9,11,0,0,0
1537905233626134,1,-3,-21,-10,-9,-4,-1,-3
1537905233635110,0,6,23,11,7,4,1,1
1537905233635110,-2,-7,1,-1,-2,1,-2,-1
1537905233649073,-1,4,-13,3,3,2,1,0
1537905233649073,4,5,-13,9,6,1,0,2
1537905233658049,-1,-1,-36,-15,-5,-3,-1,1
1537905233658049,-1,-3,15,2,-4,-5,-1,1
1537905233672011,-1,-2,1,6,-5,-2,-2,-1
1537905233672011,-1,-3,13,-13,-3,-1,0,-1
1537905233678993,0,-1,-10,10,4,-1,-3,0
1537905233678993,-1,0,-6,4,-10,-6,-1,-1
1537905233694950,0,0,0,-5,7,2,1,1
1537905233694950,0,-3,4,-1,-1,0,1,-1
1537905233701932,0,3,-3,6,2,0,0,-2
1537905233701932,0,1,-2,-9,-6,-1,-2,-1
1537905233708913,-1,0,-1,0,3,1,0,1
1537905233708913,-2,-4,0,-6,-7,-2,-2,-1
1537905233717889,0,1,-3,7,0,2,2,0
1537905233717889,0,-1,3,6,0,-1,-1,-3
1537905233731851,-1,-4,-13,-2,-1,1,2,1
1537905233731851,-1,0,5,-5,8,3,-1,0
1537905233738833,-2,-2,18,-1,5,-1,-2,-2
1537905233738833,-1,1,-18,9,-3,-1,-2,0
1537905233755787,2,3,-8,3,4,1,-1,0
1537905233755787,1,-2,-8,-15,-4,-1,-1,-1
1537905233756785,1,0,7,26,10,1,0,0
1537905233756785,1,0,-6,-15,-10,-3,-2,0
1537905233770748,-2,-1,29,2,-3,0,-1,-1
1537905233770748,-1,-4,-43,-3,-2,0,0,0
1537905233777729,-2,-1,5,0,-1,-1,0,-3
1537905233777729,0,5,15,-4,-3,-3,-2,-1
1537905233792689,0,-3,-8,-5,-2,-2,-2,0
1537905233792689,1,-1,14,3,-1,-1,-1,-2
1537905233806652,-2,1,-5,-1,0,1,0,0
1537905233806652,-1,0,-6,-3,0,-3,0,-1
1537905233815627,0,-2,3,6,-1,0,1,-2
1537905233815627,0,0,5,3,-1,-2,-1,2
1537905233816625,0,3,-5,-6,0,-1,-1,0
1537905233816625,-2,-2,-1,19,12,3,0,-2
1537905233828593,0,1,-9,-13,-7,-6,-3,-1
1537905233828593,-1,3,6,1,-6,-3,-1,-11
1537905233843553,0,-1,-4,-1,0,2,-1,3
1537905233843553,0,0,4,-1,-3,0,-3,-3
1537905233852529,-1,-3,-3,-1,2,3,0,1
1537905233852529,-3,-1,11,1,-4,-4,-2,1
1537905233859510,-1,-1,-3,-9,-5,-5,-5,0
1537905233859510,-1,6,-3,-1,1,3,0,3
1537905233875468,-1,8,-17,-3,-1,-1,0,1
1537905233875468,-3,23,26,6,0,0,-1,0
1537905233876465,-3,-22,-25,-7,-1,0,0,-3
1537905233876465,-3,-7,3,2,-1,-2,-1,2
1537905233889430,-5,-21,2,4,-2,-2,-3,-4
1537905233889430,-1,-16,2,-8,-1,0,1,0
1537905233898406,-2,-5,3,-1,-6,-2,-2,-2
1537905233898406,1,-2,-5,2,2,0,-2,-4
1537905233912369,3,12,2,-6,-1,-3,-1,-1
1537905233912369,-6,11,-11,-5,0,-2,-1,2
1537905233919350,-12,7,8,2,1,4,2,0
1537905233919350,-11,-8,-8,-2,-4,-4,-3,-8
1537905233935309,-2,4,7,-1,2,-2,1,-15
1537905233935309,10,-5,11,3,2,-1,-1,-23
1537905233937303,17,4,-17,5,1,-1,1,-2
1537905233937303,17,5,-2,-11,-5,-4,-2,19
1537905233949270,10,3,-4,-2,0,0,-1,29
1537905233949270,8,4,-5,2,-4,-1,-1,23
1537905233958247,3,11,2,-5,-1,0,0,8
1537905233958247,1,10,10,1,4,1,1,-1
1537905233972209,-3,-1,-12,4,-7,-3,-3,-7
1537905233972209,-5,-7,-4,-2,-3,-3,-1,-4
1537905233979190,-5,-2,7,1,-6,-3,-2,-9
1537905233979190,-4,-7,-8,2,2,2,1,-7
1537905233995148,-5,-7,6,0,2,2,-1,-8
1537905233995148,-5,-7,-2,-1,7,0,-1,-3
1537905233997142,-2,2,-12,-3,-6,-4,-2,-2
1537905233997142,-3,-3,5,-2,0,1,0,-3
1537905234009110,-2,-1,10,14,8,6,2,-3
1537905234009110,-3,-3,-4,-7,-2,-2,-1,0
1537905234018086,-1,0,21,8,0,-2,2,0
1537905234018086,-4,-2,-16,-7,2,-2,0,-1
1537905234032049,-2,-1,-14,-1,-1,0,0,-1
1537905234032049,-4,1,19,-5,-12,-3,0,0
1537905234039031,-1,1,-15,-9,-4,-2,0,-3
1537905234039031,-3,0,18,7,7,1,1,-2
1537905234055985,-2,-1,-9,-3,-2,-3,-1,-1
1537905234055985,-1,-3,-1,-2,1,-1,-2,0
1537905234056982,-1,-2,0,-2,1,0,0,0
1537905234056982,-1,0,11,1,-1,-2,-1,0
1537905234068951,0,-1,-8,-8,-3,-2,-4,-1
1537905234068951,-1,-3,2,5,5,2,1,-1
1537905234077926,1,-1,3,4,-5,-2,-3,1
1537905234077926,-1,-2,-17,1,-1,0,1,-2
1537905234091889,0,-3,2,-8,-5,0,1,0
1537905234091889,-2,-4,-13,-1,-6,-2,-2,-1
1537905234098870,-1,-2,8,-4,1,3,1,1
1537905234098870,-1,-3,-2,-9,2,0,1,-1
1537905234115825,1,0,11,13,2,-2,0,-2
1537905234115825,0,-3,-5,-5,-8,-4,-1,0
1537905234116822,0,-2,-7,1,-3,-2,-2,-2
1537905234116822,-1,-2,3,-4,-4,0,-1,-1
1537905234128790,-2,-4,-12,-7,0,0,-1,0
1537905234128790,1,0,8,0,3,1,-1,-1
1537905234137766,0,3,-3,-1,-3,-3,-1,-3
1537905234137766,1,2,5,7,3,1,0,-4
1537905234152726,0,-5,9,-7,-5,-2,-4,-2
1537905234152726,0,-6,-15,2,0,1,-1,2
1537905234158710,-3,-8,2,-5,-1,-2,-2,1
1537905234158710,-2,-1,-1,2,-1,-1,0,-4
1537905234175665,-1,0,-3,-5,4,1,1,-11
1537905234175665,3,1,17,17,4,1,1,-9
1537905234176663,-1,-4,-22,-15,-14,-6,-2,-15
1537905234176663,0,-1,-3,2,-1,-1,0,-17
1537905234188630,-4,5,19,1,2,0,0,-10
1537905234188630,-3,3,-5,0,7,4,-1,-18
1537905234197606,-5,2,6,-3,-1,-5,-3,-16
1537905234197606,-6,-1,-11,2,-5,-1,-2,-70
1537905234212566,-8,4,-6,-12,-4,-1,0,-115
1537905234212566,-14,7,-6,-5,0,-1,-2,-104
1537905234219548,-13,8,4,-5,5,1,1,-15
1537905234219548,-11,4,-6,3,2,0,-1,63
1537905234235505,-6,4,5,-1,2,-2,1,100
1537905234235505,0,1,-7,-5,-3,-3,-2,94
1537905234236503,1,0,-2,-1,6,3,-1,76
1537905234236503,7,1,3,-1,-1,-1,0,72
1537905234257446,7,0,0,4,0,-1,0,63
1537905234257446,6,-4,-5,-2,-6,-3,-1,55
1537905234259441,7,-5,4,1,0,-1,-2,36
1537905234259441,8,-3,1,2,2,2,1,29
1537905234279388,5,-6,-5,-1,-4,-2,-3,22
1537905234279388,6,-1,8,7,-1,-1,1,26
1537905234289361,5,-2,-3,-1,0,-1,-1,10
1537905234289361,1,-6,-5,-10,-9,-4,-2,1
1537905234303324,3,-2,1,3,-1,-2,-2,11
1537905234303324,0,-4,1,2,-2,-2,-2,8
1537905234304321,1,-2,-13,3,2,1,-2,-4
1537905234304321,2,-3,-2,5,3,-1,-2,-3
1537905234325265,1,-1,12,1,-2,-4,-1,4
1537905234325265,1,-4,-7,-5,-3,-3,-2,5
1537905234327260,2,-2,17,6,3,1,0,-4
1537905234327260,1,-2,1,-3,-1,0,0,-1
1537905234340225,-3,-5,-2,3,-1,-1,-1,2
1537905234340225,0,-1,2,2,1,1,-1,1
1537905234346209,-3,-4,-12,-7,-9,-2,-1,-2
1537905234346209,-5,-1,0,3,1,0,1,110
1537905234363164,-5,3,0,6,-1,1,-1,88
1537905234363164,-5,1,0,-5,1,2,3,25
1537905234364161,-3,3,2,7,-5,-1,0,-21
1537905234364161,-2,6,24,1,-1,-3,2,-55
1537905234385106,-1,1,-29,2,0,-4,1,-28
1537905234385106,0,3,8,-3,-3,-1,-4,-8
1537905234387100,0,4,-13,0,1,0,0,-3
1537905234387100,1,2,-2,-2,-1,-2,-4,-11
1537905234400065,0,4,12,1,2,0,0,-3
1537905234400065,-2,6,1,-7,0,-1,-2,-1
1537905234407046,-5,7,7,3,4,1,0,9
1537905234407046,-3,-3,-20,-6,-3,-2,-1,-1
1537905234423004,-3,1,11,2,1,1,1,-15
1537905234423004,-1,-5,-17,-2,-1,-1,0,-2
1537905234428988,-3,-12,4,-1,1,-1,-1,11
1537905234428988,-3,-19,-4,-8,-2,0,-4,-9
1537905234444945,-5,-18,9,11,-4,-1,-3,-10
1537905234444945,-3,-13,-12,-12,-3,-4,0,-1
1537905234446940,-1,0,15,6,-5,-3,-3,6
1537905234446940,5,-6,-23,-7,-4,-3,-1,-12
1537905234458908,4,-6,-11,-4,4,-1,1,-11
1537905234458908,1,0,18,4,1,-1,0,-2
1537905234467884,2,-2,-19,-9,-2,-3,-1,-5
1537905234467884,0,5,9,4,1,-1,0,-10
1537905234482844,0,6,3,-3,1,1,-1,-6
1537905234482844,1,6,-5,0,2,0,0,-2
1537905234484839,1,3,6,-5,-2,0,1,-4
1537905234484839,-1,5,3,7,0,2,0,-7
1537905234505783,-2,5,-5,-6,-4,-1,1,-4
1537905234505783,-4,2,23,4,-3,-1,-2,-6
1537905234506780,-1,-1,-30,-2,-1,-1,0,-4
1537905234506780,-2,-1,9,-1,-1,-2,0,-5
1537905234518748,-1,-2,-4,-3,-1,0,-2,-8
1537905234518748,-1,-3,1,-3,-4,-2,0,-5
1537905234527724,-2,-5,10,9,7,3,2,-1
1537905234527724,0,-2,-7,-12,-11,-9,-3,-7
1537905234542684,-1,-3,-1,-4,-2,-1,0,-4
1537905234542684,-2,-3,0,5,0,-1,-2,-3
1537905234544679,-1,-1,-2,-2,1,1,1,0
1537905234544679,-2,1,0,-1,5,2,0,-5
1537905234565623,-1,-1,4,0,-2,-5,-2,-6
1537905234565623,-1,0,-9,-2,1,2,0,0
1537905234566620,-1,1,1,1,-5,-1,2,1
1537905234566620,-2,2,1,-3,3,2,2,-2
1537905234578588,-6,-1,5,14,5,5,2,-2
1537905234578588,-8,15,-12,4,3,1,0,-2
1537905234587564,-1,20,0,-7,-4,-3,-3,-2
1537905234587564,-1,8,-5,7,1,1,0,-5
1537905234602524,4,14,8,-9,0,4,-1,-4
1537905234602524,5,-8,-1,0,4,1,-3,-2
1537905234604519,4,-8,3,-4,3,4,-1,-1
1537905234604519,4,-8,5,-6,-15,-5,-2,-1
1537905234625463,3,-16,-7,-5,-1,-2,0,-3
1537905234625463,2,-11,0,4,0,-1,3,1
1537905234626460,-1,-11,4,-10,-2,0,0,-2
1537905234626460,-1,-8,0,2,5,2,-2,-3
1537905234639425,0,-4,-4,-6,-8,-7,-3,-2
1537905234639425,-2,-3,0,4,0,-4,-1,-1
1537905234648402,-1,-5,-19,-8,-4,-1,-1,-2
1537905234648402,-4,-2,7,9,8,1,3,-3
1537905234663361,-2,6,2,5,-7,0,1,0
1537905234663361,-3,-5,-18,-7,0,1,1,-3
1537905234664359,-2,-4,13,0,1,-1,-2,-3
1537905234664359,-2,-1,-15,-6,0,0,0,-1
1537905234685303,-1,-1,-4,-1,1,-1,1,1
1537905234685303,0,0,7,-8,-4,-3,-1,-1
1537905234687298,-1,-2,0,6,3,2,1,0
1537905234687298,0,1,6,-2,-2,-1,1,-1
1537905234699266,-1,-1,3,4,5,-2,-3,-2
1537905234699266,-1,-2,-1,1,-5,-3,-3,-2
1537905234708241,-1,-4,-17,-7,-3,-4,-3,0
1537905234708241,-1,3,10,2,-2,-2,-1,-2
1537905234723202,0,-3,-7,-4,1,-2,2,-2
1537905234723202,0,0,1,3,3,4,1,-2
1537905234724199,-1,1,5,2,-1,-1,0,-2
1537905234724199,1,0,-1,-2,0,-7,-3,-1
1537905234745143,-1,2,-1,-3,2,3,1,-2
1537905234745143,1,3,12,1,4,-1,-2,-2
1537905234747138,-3,-1,-2,6,-4,-2,1,-3
1537905234747138,-3,-4,-10,-7,-5,-2,-2,-3
1537905234759106,0,-1,5,6,2,0,-2,-2
1537905234759106,-1,-1,-1,-2,-4,-2,-1,-1
1537905234774065,0,-1,8,2,9,1,1,1
1537905234774065,-4,-4,-7,-8,-10,-2,0,0
1537905234783041,-3,1,2,-10,-4,0,1,0
1537905234783041,-2,-4,-4,2,2,1,2,-2
1537905234784039,0,-2,0,0,1,-1,-2,-3
1537905234784039,0,0,3,1,-1,1,-3,-2
1537905234805980,0,-4,-9,-3,0,1,0,1
1537905234805980,3,-2,-1,-6,-5,-2,-1,1
1537905234806977,29,-2,9,1,-3,-1,-2,-3
1537905234806977,100,0,-12,-2,-10,-3,-2,-1
1537905234818946,123,-1,-6,4,-2,0,-3,-1
1537905234818946,127,-2,-4,8,3,0,-2,0
1537905234827922,127,-1,10,-9,-6,-2,-2,0
1537905234827922,121,1,12,7,10,3,-1,0
1537905234842881,29,-5,-26,-13,-1,-4,0,0
1537905234842881,-50,0,-8,-4,4,0,1,1
1537905234843879,-103,2,-6,7,13,1,0,2
1537905234843879,-128,7,8,-4,4,-1,0,2
1537905234865820,-111,6,10,-2,-3,1,-2,1
1537905234865820,-108,3,-5,-1,-1,2,-1,0
1537905234866818,-125,-5,-2,-1,-9,-6,-2,0
1537905234866818,44,1,-2,7,2,3,2,-2
1537905234878786,102,-1,5,2,-1,0,-2,-3
1537905234878786,121,1,2,-2,-9,-5,-1,-3
1537905234887761,48,1,-7,-4,0,5,1,0
1537905234887761,-62,2,-9,-5,3,-1,0,0
1537905234902721,-81,8,1,-15,-11,-9,-5,-1
1537905234902721,-58,8,3,-14,4,2,0,1
1537905234908705,-42,6,1,-5,-15,-2,-1,0
1537905234908705,-65,-2,-3,5,-1,1,-1,-1
1537905234925660,-51,-2,2,9,2,0,-2,-3
1537905234925660,-48,-6,2,-2,-6,1,1,-2
1537905234926658,-20,-4,3,3,8,5,1,-1
1537905234926658,-33,-3,-10,-1,-12,-4,-3,-1
1537905234938626,-27,0,7,5,0,0,-1,-2
1537905234938626,-25,-3,8,15,1,1,1,-3
1537905234947602,-5,-4,-26,-4,2,-2,-2,-2
1537905234947602,-75,-5,7,10,3,3,1,-1
1537905234962561,-123,-5,0,3,5,0,-1,-1
1537905234962561,-128,-1,-2,-6,4,0,-3,-4
1537905234969543,-106,0,9,6,-4,-4,-3,-3
1537905234969543,-84,-1,1,2,6,0,1,-2
1537905234985501,-57,0,-4,-4,-4,-3,0,-1
1537905234985501,-38,-3,-5,2,3,1,1,-1
1537905234986498,-6,-1,-1,-5,-10,-4,-2,-3
1537905234986498,0,-1,3,0,0,-2,-3,-2
1537905234999463,5,-5,-4,-3,-2,-2,2,-3
1537905234999463,16,-3,-1,-3,-8,-5,-1,-1
1537905235008439,17,1,16,7,4,2,2,0
1537905235008439,15,-1,-26,-5,-1,-1,0,0
1537905235021404,20,0,4,-5,-3,-1,-3,-1
1537905235021404,21,0,-5,3,-1,1,-1,-1
1537905235030380,20,-1,2,1,-1,-2,-2,-3
1537905235030380,13,0,11,0,0,0,0,-1
1537905235045341,18,-4,-6,-17,-3,0,2,-2
1537905235045341,21,-1,-11,8,-6,-5,-3,-4
1537905235047335,7,1,25,7,-2,-2,-3,-2
1537905235047335,8,-4,-16,-7,-4,1,-2,1
1537905235059303,11,1,-8,-1,0,-4,-4,0
1537905235059303,12,-1,3,-4,-3,0,-1,1
1537905235068280,12,-1,0,-6,-2,0,0,-1
1537905235068280,14,3,11,2,5,1,1,1
1537905235082242,11,-3,-4,4,-2,0,5,0
1537905235082242,12,0,-2,-5,-4,-2,-3,-2
1537905235089223,19,3,-3,-8,-2,-1,-1,1
1537905235089223,14,0,-8,1,-3,-3,-3,-1
1537905235104183,11,-1,-2,-1,4,2,0,-1
1537905235104183,10,-1,5,9,9,0,-3,-2
1537905235113159,11,-2,-11,-13,-6,-2,1,-1
1537905235113159,9,-2,6,-5,-3,-2,0,0
1537905235119143,10,1,10,12,1,1,-1,0
1537905235119143,9,0,-7,-7,-4,-4,-2,0
1537905235128119,9,-3,-7,10,7,2,-1,1
1537905235128119,11,0,6,-14,-5,-2,0,-1
1537905235142082,12,-1,1,2,3,1,0,-1
1537905235142082,6,-2,1,-12,-10,-7,-1,-2
1537905235143080,10,-2,-4,1,-1,-1,0,-1
1537905235143080,8,-2,1,4,2,1,2,-3
1537905235165021,3,0,0,-2,-4,-1,-2,-1
1537905235165021,4,1,14,-1,-5,1,1,0
1537905235166019,6,-1,-6,-5,-1,1,3,1
1537905235166019,8,1,4,8,1,-3,-4,-1
1537905235194940,5,-4,-6,-15,4,2,0,1
1537905235194940,5,-2,-6,8,-6,-5,-5,3
1537905235195938,5,-3,1,-7,-4,-2,-2,43
1537905235195938,4,-3,9,1,-5,-2,-3,115
1537905235201922,2,0,-4,-3,-4,-2,-3,127
1537905235201922,2,3,4,-7,1,0,1,127
1537905235209901,3,3,-14,7,6,1,-1,125
1537905235209901,2,3,-2,-14,-8,-4,-1,9
1537905235224860,4,3,-8,-7,-8,-5,-3,-66
1537905235224860,3,1,-3,1,1,-2,0,-123
1537905235231842,-2,-1,8,-4,-2,0,-1,-128
1537905235231842,-1,-3,-5,1,6,5,1,-119
1537905235246802,2,0,8,4,4,-2,-2,-105
1537905235246802,2,-1,-6,-8,3,2,-1,-96
1537905235247799,2,1,-9,-1,-6,-3,-5,-81
1537905235247799,1,1,4,5,5,2,0,-63
1537905235261762,2,3,1,5,-3,0,1,-57
1537905235261762,-1,-1,1,-4,6,3,-2,-32
1537905235269740,1,0,1,2,8,3,0,-30
1537905235269740,-2,-2,-7,-5,-8,-5,-2,-31
1537905235284701,-2,-4,0,3,5,3,-1,-15
1537905235284701,1,-3,-2,-4,-8,-2,2,-4
1537905235285698,-2,-1,0,1,-3,-2,-3,-13
1537905235285698,0,-3,4,9,6,4,4,-13
1537905235307639,-2,-3,2,5,2,-1,0,-1
1537905235307639,-2,-2,-19,-9,2,-1,-3,1
1537905235307639,-2,-1,-3,13,-6,-4,1,-10
1537905235307639,0,1,1,-3,2,1,-1,-3
1537905235321602,1,0,3,2,-9,-3,0,-33
1537905235321602,-3,-1,9,8,12,3,1,-90
1537905235329580,2,-1,1,5,4,2,0,-110
1537905235329580,1,1,1,-13,-8,-3,-2,-108
1537905235344540,-1,-3,-9,1,6,0,-1,-76
1537905235344540,0,-2,-2,-1,-7,-3,0,-50
1537905235345538,-1,-3,6,-5,-1,1,0,-32
1537905235345538,1,-2,-1,2,-3,-3,0,-12
1537905235367479,1,1,7,-5,5,2,0,-1
1537905235367479,1,-2,-7,10,2,2,0,12
1537905235367479,0,-1,-13,-10,-7,-5,-3,14
1537905235367479,1,-1,9,6,-2,-1,-1,16
1537905235381442,0,1,-2,-5,-7,-2,0,15
1537905235381442,-1,2,12,3,4,1,-1,19
1537905235389420,-1,-3,-4,-2,2,0,1,20
1537905235389420,1,1,-1,-1,3,-3,-2,17
1537905235404380,2,-2,-1,1,3,2,-1,12
1537905235404380,1,-3,-3,0,-9,-7,-3,19
1537905235405378,0,0,-7,-7,1,2,-1,18
1537905235405378,-3,-3,-4,1,0,0,-3,12
1537905235427319,0,-1,-1,5,4,4,6,18
1537905235427319,-2,-2,0,-1,5,4,3,17
1537905235428317,1,3,4,2,0,-2,-1,14
1537905235428317,0,2,-3,-9,-16,-4,1,13
1537905235442279,-1,2,-2,1,4,2,0,12
1537905235442279,0,0,-1,-5,3,-1,-3,10
1537905235443277,-1,-1,2,8,-10,-6,-2,8
1537905235443277,0,-1,3,5,6,3,-2,10
1537905235473196,-3,-4,-3,-4,-1,-2,-1,7
1537905235473196,-1,1,-6,-6,-8,1,0,11
1537905235473196,0,0,4,5,7,2,-2,8
1537905235473196,-1,-2,-4,1,3,-2,0,6
1537905235487159,-1,-1,2,3,-5,-4,-4,5
1537905235487159,-1,0,-2,-7,-3,-5,-2,8
1537905235488157,0,0,3,3,1,0,-1,8
1537905235488157,-3,-3,-2,3,9,2,-1,3
1537905235502119,0,0,-2,-6,-3,-1,1,7
1537905235502119,0,0,-4,-6,-5,-5,-4,4
1537905235503117,0,-3,3,1,-4,0,2,8
1537905235503117,0,0,-4,3,9,4,0,5
1537905235525058,-1,-1,-3,2,-4,-1,-3,3
1537905235525058,0,0,1,-6,-4,2,0,4
1537905235525058,0,1,2,-7,-2,-4,-4,3
1537905235525058,-2,-1,10,6,10,6,4,4
1537905235546999,0,-1,-7,2,-7,-5,-1,4
1537905235546999,1,-2,-6,9,0,1,2,3
1537905235547997,-2,1,7,-13,0,-4,0,2
1537905235547997,0,-3,-3,5,-8,-4,-4,3
1537905235561959,0,1,7,0,1,-1,-3,2
1537905235561959,-2,-3,-1,3,-1,-3,0,1
1537905235576919,0,-1,-9,-6,-3,-2,-2,2
1537905235576919,0,2,-1,-6,-3,-3,-2,-1
1537905235584899,1,0,-5,-3,-3,-4,-3,0
1537905235584899,-1,-2,2,0,4,6,2,3
1537905235585896,0,0,3,2,3,1,0,1
1537905235585896,1,3,-5,-1,1,-5,-2,2
1537905235606839,-2,-1,-4,-4,-10,-5,-3,-1
1537905235606839,-2,-1,11,1,-5,-5,-3,2
1537905235614818,-1,0,-6,-7,-4,1,0,1
1537905235614818,1,-2,-3,-3,-6,-3,-3,0
1537905235621799,-2,-1,0,1,3,0,-1,0
1537905235621799,-1,-1,5,-3,-2,0,-3,0
1537905235629778,-1,-1,-2,3,3,-1,-1,0
1537905235629778,-1,-3,-6,-4,-3,0,1,-1
1537905235644738,2,0,1,-5,-2,-2,0,2
1537905235644738,-1,0,-2,-2,0,-1,-3,1
1537905235645736,-1,-1,-1,-2,12,7,2,3
1537905235645736,-1,0,0,14,-6,-3,-2,-1
1537905235667677,-2,-1,1,-2,-2,0,-1,1
1537905235667677,2,-1,-2,-1,4,0,1,2
1537905235667677,-1,-2,1,2,3,0,2,-1
1537905235667677,1,0,-18,-8,-3,-3,-3,1
1537905235682637,0,2,5,-1,4,4,0,0
1537905235682637,-3,0,4,11,-6,0,-1,-1
1537905235689618,-1,-4,-17,-6,-8,-2,0,0
1537905235689618,0,-4,4,-6,2,1,1,2
1537905235704578,-1,-3,-1,-1,-3,-3,-2,-2
1537905235704578,-1,-2,-8,-3,-1,0,0,0
1537905235705575,-1,-4,8,11,-2,-3,-1,-1
1537905235705575,-2,-2,-4,-9,-6,-4,0,0
1537905235727517,-1,-2,1,2,4,0,-1,0
1537905235727517,-1,-3,4,-2,3,3,2,1
1537905235727517,0,-4,-6,-4,-10,-6,-2,-3
1537905235727517,-1,2,4,-8,-8,-3,1,-1
1537905235741479,-1,2,-1,1,0,1,-1,-2
1537905235741479,1,2,-5,-1,3,-1,-1,-5
1537905235749458,-1,3,-2,0,2,-1,-5,-3
1537905235749458,-2,1,2,-6,5,3,-2,-5
1537905235764418,1,3,-1,2,-9,-5,-3,-10
1537905235764418,0,4,-4,-1,-1,-4,-2,-7
1537905235765415,0,-1,5,-2,3,1,2,0
1537905235765415,1,-1,6,5,7,1,-4,5
1537905235787357,-2,-2,-1,-5,-7,-4,-2,5
1537905235787357,0,-2,-2,0,3,0,1,4
1537905235788354,0,-1,1,-1,2,-2,-3,1
1537905235788354,1,-1,-5,-6,-2,1,-3,-1
1537905235802317,0,-4,4,-11,11,5,0,0
1537905235802317,1,0,-11,6,-12,-6,-2,1
1537905235803314,1,0,0,-1,-2,-1,0,-1
1537905235803314,-2,1,0,6,2,0,-3,0
1537905235824259,0,-2,4,-3,0,3,0,1
1537905235824259,-2,-1,5,-1,3,-2,-1,-1
1537905235825256,0,3,-3,-5,-1,-1,-1,-1
1537905235825256,-2,1,-3,-3,-8,-5,-3,-3
1537905235847197,1,3,-2,8,4,-3,2,8
1537905235847197,-2,2,1,-4,2,1,0,15
1537905235848194,-3,1,-2,1,-2,2,1,15
1537905235848194,-2,-2,0,3,7,-2,1,-1
1537905235861159,0,-2,-5,-6,-11,-1,1,-10
1537905235861159,0,-4,-1,-1,2,-1,1,-14
1537905235870135,1,-1,3,-5,-7,-3,-2,-12
1537905235870135,2,-3,8,3,5,3,3,-6
1537905235885096,-3,-4,-3,0,2,0,0,-5
1537905235885096,-1,-3,-4,15,17,6,-2,-3
1537905235885096,-3,2,5,-4,-9,-6,-4,-3
1537905235885096,-3,-1,-7,1,-6,0,0,-1
1537905235907037,0,2,0,3,1,2,1,2
1537905235907037,0,-2,0,-9,-3,-1,-2,1
1537905235908036,0,-4,-2,4,5,1,1,0
1537905235908036,1,-2,1,3,-1,-1,1,3
1537905235921998,0,-5,-10,-6,7,1,-4,1
1537905235921998,-1,-6,3,-10,-9,-5,-1,-1
1537905235929977,0,-3,-3,1,-3,2,1,-1
1537905235929977,-2,-4,5,-5,-7,-3,-3,0
1537905235944937,0,0,2,7,1,-2,-2,1
1537905235944937,-2,3,1,-1,-4,-1,0,1
1537905235945935,-2,2,-1,4,7,0,-2,-1
1537905235945935,-1,2,-5,-1,4,3,1,0
1537905235966880,-3,2,3,0,-1,-2,-1,-2
1537905235966880,0,0,-4,1,-6,-3,-1,-1
1537905235967877,-1,-1,0,-7,-5,-1,1,1
1537905235967877,1,-1,-2,-1,-2,-2,0,-1
1537905235981837,-1,0,-1,-3,-7,-5,-1,-1
1537905235981837,0,-3,0,-1,-3,-2,0,1
1537905235989816,0,-5,-1,0,0,2,0,-1
1537905235989816,-2,-7,-4,3,1,1,0,-1
1537905236004776,1,-1,-2,1,-3,1,3,0
1537905236004776,0,-1,-2,-1,4,2,2,-1
1537905236005773,0,-1,0,-3,-5,-5,1,0
1537905236005773,-2,-2,-3,-1,3,5,2,-2
1537905236026717,-1,0,4,5,5,2,-3,0
1537905236026717,0,1,1,2,-2,-2,0,-1
1537905236027714,0,-1,-3,1,9,5,0,0
1537905236027714,-2,0,7,1,0,-1,-3,-2
1537905236050653,-1,-2,-6,-6,-4,-2,0,-1
1537905236050653,-2,2,-1,-3,-4,-2,-2,0
1537905236050653,-2,1,1,0,1,2,-1,-1
1537905236050653,-4,3,-2,-2,-2,-1,0,-1
1537905236064616,-3,-1,1,0,-2,-4,0,1
1537905236064616,0,-8,-4,-2,0,2,2,0
1537905236065613,-1,-4,0,3,7,-4,-2,-2
1537905236065613,0,-1,-2,-11,-23,-8,-3,-1
1537905236087554,-1,3,-2,2,2,2,-1,-2
1537905236087554,-6,7,2,3,2,0,0,-2
1537905236087554,-44,2,1,-4,-3,-2,-3,-2
1537905236087554,-95,3,-4,4,7,3,1,0
1537905236101517,-105,4,1,1,-3,-1,-4,1
1537905236101517,-92,6,-1,-8,-5,-8,-5,-1
1537905236109496,-43,6,4,3,5,3,0,1
1537905236109496,9,4,1,-2,-1,-4,-3,0
1537905236132434,31,-2,0,-1,-2,-1,1,1
1537905236132434,50,0,-2,-2,2,1,-1,-1
1537905236133432,57,-2,-2,-4,-1,-2,-2,-1
1537905236133432,59,-1,-8,-18,-3,3,-1,0
1537905236155373,53,0,2,7,-5,-3,-4,-2
1537905236155373,37,-1,1,3,4,3,-2,-1
1537905236162355,1,2,-6,-3,-6,-5,-4,-2
1537905236162355,-24,2,-2,-1,6,2,3,0
1537905236170333,-10,5,4,0,2,-2,-1,0
1537905236170333,11,-2,1,3,4,2,-1,-1
1537905236171331,32,-10,-1,3,1,5,3,-2
1537905236171331,44,-8,0,-5,-13,-10,-2,0
1537905236184296,34,-4,-1,-1,2,3,1,-2
1537905236184296,27,-5,-2,-9,-2,-4,-1,-1
1537905236185294,24,-4,-2,-2,1,0,-1,-2
1537905236185294,21,-4,-2,5,3,3,2,-1
1537905236207234,15,-4,1,-4,0,-2,1,0
1537905236207234,7,2,4,0,0,0,2,-2
1537905236208232,5,0,-1,-2,-3,-1,-3,0
1537905236208232,0,-2,-1,2,4,0,0,-2
1537905236230174,3,-2,-5,-9,-7,-5,-3,-1
1537905236230174,-6,-4,-2,3,-1,1,1,-1
1537905236231170,-6,-2,0,-8,3,2,-2,0
1537905236231170,-4,-2,0,12,-9,-3,-1,-1
1537905236245133,-3,-3,-5,-2,2,0,-2,0
1537905236245133,-10,-4,2,-1,-4,0,-6,-1
1537905236245133,-6,1,0,-1,-3,-8,-2,-2
1537905236245133,0,-2,-7,0,9,3,0,2
1537905236268072,-5,-2,-2,-3,0,2,1,-2
1537905236268072,-4,3,0,-1,0,3,0,-1
1537905236269069,-6,0,5,2,-2,-1,-2,-2
1537905236269069,-4,-3,-1,-2,-3,-2,-3,-3
1537905236290013,-6,-3,1,-2,-7,-6,-5,-2
1537905236290013,-3,-6,-3,-2,-1,-1,0,-2
1537905236291010,-2,-3,-1,2,-3,-1,-1,-1
1537905236291010,-1,1,2,3,7,0,0,0
1537905236304973,-4,2,-1,-1,3,0,-1,0
1537905236304973,-5,4,-1,1,0,2,1,0
1537905236304973,-5,2,-6,2,-7,-7,1,1
1537905236304973,0,2,-3,-7,-8,-3,-1,0
1537905236327912,-2,0,5,2,3,2,2,0
1537905236327912,-2,-1,-8,-5,2,-4,-1,0
1537905236328909,-3,0,16,14,-2,3,1,0
1537905236328909,-3,0,-11,1,3,1,1,1
1537905236350851,0,-2,1,-2,1,-3,-1,1
1537905236350851,-3,-5,-3,2,-6,-2,-2,-3
1537905236350851,-2,-7,-2,-3,2,1,1,-1
1537905236350851,-1,-2,2,-7,-4,0,-2,-3
1537905236364813,-1,0,0,4,0,-2,-3,-2
1537905236364813,-2,2,-2,-7,-7,-4,-2,1
1537905236365811,-3,1,-5,1,3,4,1,-2
1537905236365811,-1,1,1,-4,-7,0,-2,0
1537905236387752,-4,-3,-5,-3,1,1,-1,-1
1537905236387752,-3,0,6,-3,0,1,-2,-1
1537905236388750,-3,-1,-3,1,12,4,2,-1
1537905236388750,-1,-3,4,15,-12,-7,-3,0
1537905236410691,-4,2,-3,-10,-2,1,1,-1
1537905236410691,-3,-13,-2,0,-9,-3,1,1
1537905236410691,0,-7,5,-6,0,2,0,1
1537905236410691,-1,-4,-14,2,9,0,2,-1
1537905236424653,2,-3,5,-3,-7,-3,0,-1
1537905236424653,5,4,0,1,0,0,0,0
1537905236425652,2,5,-3,-1,-4,-4,-3,-4
1537905236425652,6,8,4,-5,-1,0,-3,0
1537905236447592,3,10,-4,-3,1,2,-1,2
1537905236447592,1,10,-1,3,8,0,0,1
1537905236448590,-1,4,-2,-4,-5,-4,-3,-2
1537905236448590,1,3,1,0,4,-1,0,-2
1537905236477512,-3,1,-11,2,3,6,1,-2
1537905236477512,-5,2,8,-2,-2,-5,-1,-2
1537905236478510,-5,6,-5,0,-4,-1,-1,1
1537905236478510,-6,5,1,-1,2,1,-1,1
1537905236484494,-6,-1,-1,3,2,-1,-2,-1
1537905236484494,-18,3,-1,1,3,4,1,1
1537905236485491,-37,0,-6,-15,-2,-2,-1,-1
1537905236485491,-23,-6,4,-2,-13,-7,-4,-4
1537905236507432,-8,-14,11,-3,3,3,4,0
1537905236507432,11,-11,-13,1,0,-1,-1,-3
1537905236508429,17,-7,-4,0,-6,-1,1,1
1537905236508429,10,-5,6,-5,-1,0,2,1
1537905236530371,9,-4,-1,-7,-8,-7,-2,0
1537905236530371,7,-1,10,-1,-4,-3,0,-1
1537905236531369,7,-2,-10,1,3,-1,-2,-1
1537905236531369,4,-2,-6,-2,0,-2,-2,-2
1537905236544334,3,-1,3,0,-5,-3,-2,-1
1537905236544334,-1,-2,-1,13,-1,1,-1,-1
1537905236545332,3,-1,2,0,-5,-4,-4,-1
1537905236545332,2,-2,12,1,5,3,1,1
1537905236568271,-1,0,-12,1,6,4,-2,0
1537905236568271,-3,-2,-1,0,-1,-5,-3,-1
1537905236568271,0,-2,1,-5,-3,-3,-2,-1
1537905236568271,0,-3,0,0,3,0,0,-2
1537905236590212,-4,-3,4,0,1,2,1,1
1537905236590212,-1,-2,-4,-3,0,0,0,0
1537905236591210,0,-1,-1,2,-6,1,-1,-1
1537905236591210,-2,-2,-2,-4,-3,-2,1,1
1537905236605171,-4,-1,0,8,1,0,1,-2
1537905236605171,0,2,-9,-9,-10,-5,-4,1
1537905236605171,2,-2,9,-1,3,-1,-1,-1
1537905236605171,-3,-4,-2,1,3,0,1,-2
1537905236628109,-1,1,-1,1,2,-3,1,0
1537905236628109,-2,0,0,0,7,3,2,0
1537905236628109,0,4,-2,-3,0,-2,1,1
1537905236628109,-1,1,-3,-2,1,-1,0,-2
1537905236650050,0,-1,0,-1,-3,2,-1,0
1537905236650050,-3,1,2,-3,4,-5,-2,-1
1537905236651048,-1,-1,-4,1,-2,-1,-1,0
1537905236651048,1,-2,-4,-1,0,0,-3,1
1537905236672989,1,1,0,3,6,2,0,-1
1537905236672989,-1,-3,2,-1,-1,2,-1,-2
1537905236673987,-1,-2,0,3,4,1,0,0
1537905236673987,-1,-1,-2,-2,-3,-1,-2,0
1537905236687949,-1,-1,0,-1,-2,-4,-2,0
1537905236687949,-2,-1,1,2,1,2,-2,0
1537905236688947,0,0,-3,-10,0,-3,-1,1
1537905236688947,-1,4,1,9,-1,4,1,1
1537905236709891,-1,0,-3,-1,-3,-4,-1,-1
1537905236709891,0,-1,0,-2,-5,-1,1,-1
1537905236711886,0,0,-2,1,1,0,0,-2
1537905236711886,-2,1,-3,-6,1,1,-2,0
1537905236723855,0,0,1,-3,-5,-3,0,0
1537905236723855,-1,-2,1,3,0,0,0,-1
1537905236732832,0,-1,1,-2,-3,-3,-3,-1
1537905236732832,0,-2,-14,-1,4,-1,-2,-2
1537905236747790,-1,0,-2,-4,-7,-4,-5,-2
1537905236747790,-1,-2,2,-2,4,2,-1,0
1537905236749784,1,-2,1,1,-3,-1,-1,-1
1537905236749784,-2,-1,2,-1,4,2,-1,1
1537905236769731,-2,-3,-2,-3,3,-1,-1,0
1537905236769731,-1,0,-2,-2,-6,-1,0,1
1537905236777710,-1,-2,3,-2,-2,0,-1,-1
1537905236777710,1,1,-3,8,1,-1,0,-2
1537905236783693,-1,2,0,-4,4,2,0,1
1537905236783693,-1,4,-7,-3,-8,-2,-1,0
1537905236792670,0,-1,-5,3,0,-1,2,-1
1537905236792670,0,3,8,-1,-1,0,1,-1
1537905236806632,-1,-2,-1,-1,1,-2,0,-2
1537905236806632,0,-4,-6,-7,-8,-4,-1,-1
1537905236822590,-1,-4,1,-7,-1,-1,-1,-2
1537905236822590,-2,-6,-5,-6,-1,-1,-2,-3
1537905236830568,1,4,13,2,-4,-1,-1,-2
1537905236830568,-1,-4,-1,1,0,0,0,-1
1537905236831566,-3,-3,-10,3,3,1,0,0
1537905236831566,1,-3,18,-1,1,1,-1,1
1537905236844531,0,-1,-26,-5,-5,-2,-2,0
1537905236844531,-1,5,11,0,0,-1,-3,-2
1537905236852510,1,3,0,4,1,0,-1,2
1537905236852510,0,-2,0,-2,0,1,1,0
1537905236867470,-2,-15,2,6,0,-2,0,-1
1537905236867470,-2,-3,-5,-3,2,1,0,-1
1537905236869464,-1,0,1,0,-2,1,0,0
1537905236869464,-1,11,0,-2,-4,-3,-2,1
1537905236897389,-1,-4,-4,-3,-2,1,-1,-3
1537905236897389,-1,-4,-1,1,1,0,0,-3
1537905236899385,-1,1,0,-4,-5,-1,-4,-3
1537905236899385,5,23,1,2,0,0,1,0
1537905236904371,-3,-7,-1,-1,-1,-1,-1,0
1537905236904371,-3,-7,-2,-2,0,0,-3,-5
1537905236913347,-1,-7,0,3,-1,-1,0,0
1537905236913347,-5,-9,0,-2,-1,-1,-1,-2
1537905236928307,1,19,-6,-2,-1,-1,-1,-2
1537905236928307,1,2,1,-3,-1,-1,1,3
1537905236929305,0,1,-1,4,-1,-1,-1,0
1537905236929305,-2,-15,-5,-4,-3,-2,0,-4
1537905236950248,-3,-23,17,4,1,1,0,-2
1537905236950248,3,1,-19,-5,-1,-4,-2,1
1537905236952243,0,-3,0,1,2,1,0,-1
1537905236952243,-2,6,15,-7,-5,-4,-2,-2
1537905236964211,2,-2,-13,5,2,0,-2,-1
1537905236964211,-3,-8,-17,-5,-2,-1,-1,-1
1537905236973187,-2,-15,6,4,1,-1,0,0
1537905236973187,0,3,6,3,-1,0,-1,-2
1537905236987149,-2,18,16,-3,-4,-2,0,0
1537905236987149,-2,-22,8,4,1,1,0,-1
1537905236994131,0,20,-18,-7,-4,-2,-2,-4
1537905236994131,-2,12,-4,-5,0,-1,0,0
1537905237010088,-1,-51,-42,-6,-2,0,-2,0
1537905237010088,8,99,83,25,2,5,3,2
1537905237012083,-3,-21,-7,-1,2,-1,0,-2
1537905237012083,-1,-38,-36,-16,-6,-3,-3,0
1537905237024051,-1,39,17,5,0,-2,-1,-1
1537905237024051,-1,-19,9,0,1,1,0,1
1537905237033027,0,-3,13,2,1,2,0,-1
1537905237033027,-1,-9,-13,-2,2,-1,-3,-1
1537905237054968,-9,-30,-10,-7,-3,-2,0,-3
1537905237054968,5,62,35,9,1,0,0,2
1537905237056963,12,3,-62,-11,-2,0,2,2
1537905237056963,-1,12,4,7,-1,-2,-2,-2
1537905237069928,-1,-17,22,-3,3,2,1,0
1537905237069928,-7,27,-19,-5,-6,-5,-4,-18
1537905237071923,-3,3,16,-1,1,1,2,9
1537905237071923,-1,-6,-17,-2,1,-1,2,9
1537905237092867,0,13,9,-1,-7,-3,-2,-3
1537905237092867,0,-15,-18,-1,2,-1,-1,-4
1537905237098851,-5,-13,-7,-17,-6,-3,-3,-8
1537905237098851,4,25,39,19,-1,-5,1,0
1537905237106829,0,9,-6,8,6,-2,0,0
1537905237106829,-5,-45,-32,-22,-5,-1,-1,2
1537905237122787,-5,6,12,8,-9,-7,-4,-4
1537905237122787,-4,-35,-21,-8,-3,1,0,4
1537905237130766,4,21,44,-1,5,-1,0,0
1537905237130766,2,-10,-20,17,3,0,1,3
1537905237132760,-2,-26,-21,-20,-4,-1,1,-1
1537905237132760,1,8,54,4,-4,-4,-2,-6
1537905237152707,-3,8,-38,1,-5,0,-1,-4
1537905237152707,-1,-7,30,0,3,2,1,5
1537905237154702,-4,13,-9,9,7,0,-2,-9
1537905237154702,-1,7,-2,-2,1,2,1,-1
1537905237166670,0,-14,-16,-14,-3,0,0,-4
1537905237166670,0,10,27,-7,-1,2,1,4
1537905237175646,4,9,52,16,-3,-4,-2,4
1537905237175646,-3,0,-21,2,4,7,1,-1
1537905237190606,3,8,-1,8,3,-2,-1,6
1537905237190606,-5,-31,-52,-16,-1,-2,-1,-5
1537905237191603,4,13,44,7,-5,-3,0,0
1537905237191603,-1,3,-2,0,-4,1,-2,0
1537905237212548,6,22,14,-2,3,3,0,-1
1537905237212548,-8,-34,17,3,-3,-1,-2,-5
1537905237214542,-2,-37,-95,-25,5,5,1,2
1537905237214542,3,15,30,3,-4,-6,-2,-4
1537905237227507,-4,-11,-12,6,-4,0,0,-1
1537905237227507,2,20,10,-2,2,-2,-1,-1
1537905237235486,3,15,10,2,3,3,2,13
1537905237235486,-12,-35,-17,-12,-9,-6,-7,-14
1537905237250446,1,36,16,-3,1,1,-1,-4
1537905237250446,3,-12,-31,-2,-4,-2,-3,0
1537905237252441,-3,7,28,6,2,0,1,2
1537905237252441,3,10,-32,1,6,1,1,0
1537905237280366,-3,-11,11,-2,-2,-2,-4,-4
1537905237280366,-1,-7,1,0,-5,-3,-1,-1
1537905237281363,1,12,6,2,-8,-5,-2,-1
1537905237281363,1,-1,0,-9,-6,-5,-4,3
1537905237286349,-3,-13,-8,-1,-3,-1,-1,-12
1537905237286349,2,-9,4,-1,1,0,2,18
1537905237295326,-1,-8,-5,2,8,3,1,-2
1537905237295326,2,-13,-32,4,0,-2,-3,14
1537905237310286,-5,-14,-19,-11,-9,-2,0,-14
1537905237310286,1,-7,51,1,-1,0,1,0
1537905237312280,-2,-3,-41,4,1,2,-1,-5
1537905237312280,2,25,43,5,3,0,0,-1
1537905237333224,-1,-14,-40,16,3,0,-1,10
1537905237333224,-4,-6,-15,-15,0,-2,-2,-7
1537905237334222,-5,-11,23,-2,-10,-3,-4,-4
1537905237334222,3,9,-16,-13,3,6,4,-2
1537905237346190,-5,-12,0,12,-3,-3,-2,3
1537905237346190,2,9,-17,-18,-17,-4,-2,-4
1537905237355166,-3,-9,-6,-1,1,-2,-4,-5
1537905237355166,-6,-10,-17,-3,2,1,2,-4
1537905237369128,1,6,30,0,2,-2,-3,-1
1537905237369128,-2,-8,-15,8,5,1,-2,-1
1537905237378105,0,6,10,-2,-2,-2,0,2
1537905237378105,1,-2,18,4,1,2,1,-1
1537905237395059,0,-8,2,-8,-2,-2,-1,4
1537905237395059,-1,-8,-16,3,3,0,1,-2
1537905237397055,-2,2,29,4,-4,-3,-1,-5
1537905237397055,-3,-11,-28,5,5,0,-2,-5
1537905237400046,3,12,4,-12,-5,-2,2,2
1537905237400046,0,-9,-36,9,-5,-3,-3,-2
1537905237409022,-1,15,-1,-5,2,0,-1,-1
1537905237409022,-1,23,16,11,4,0,-2,-1
1537905237421987,1,6,-9,-12,-4,-1,1,3
1537905237421987,-1,5,-5,3,-1,-4,-4,-3
1537905237429966,3,1,16,-6,0,0,1,1
1537905237429966,-1,2,-18,9,-5,-2,2,-5
1537905237444926,0,-4,-6,-9,10,3,2,3
1537905237444926,0,8,20,0,-1,-1,0,-1
1537905237444926,-3,-10,-11,1,-6,-1,-1,0
1537905237444926,0,-7,-20,-5,6,0,0,0
1537905237460883,-3,-12,23,1,-8,-2,-1,0
1537905237460883,0,2,5,-8,4,2,0,1
1537905237466867,1,7,10,13,2,0,0,-1
1537905237466867,-1,-9,-3,1,7,1,1,0
1537905237481827,-1,1,50,9,-15,-7,-3,-2
1537905237481827,-1,4,-51,1,1,-2,-1,-5
1537905237489806,4,11,-5,-5,1,0,0,-2
1537905237489806,0,-19,14,0,0,1,0,1
1537905237505763,2,2,-19,17,13,3,-1,1
1537905237505763,-1,-18,5,-20,-9,-2,-2,0
1537905237505763,-1,-4,8,-4,0,-1,-1,-1
1537905237505763,-2,23,-12,-5,-6,-1,0,-2
1537905237527704,1,5,-9,1,2,-1,-1,0
1537905237527704,0,-3,53,6,2,0,-1,-1
1537905237528702,2,-8,-66,-5,-2,-3,-1,-1
1537905237528702,-1,2,27,-13,-6,-1,-3,-3
1537905237541680,0,5,7,4,3,3,1,0
1537905237541680,0,18,3,6,1,-1,-2,1
1537905237549646,-6,-24,13,7,-3,-2,-3,-1
1537905237549646,4,7,-2,3,-3,-2,-2,1
1537905237566601,-1,-5,-16,-7,0,0,0,-2
1537905237566601,1,2,9,-11,-6,0,-2,-2
1537905237567598,2,14,-18,2,2,1,0,3
1537905237567598,-1,-10,-12,-1,-2,-1,-1,-1
1537905237579566,2,7,1,-14,0,1,0,0
1537905237579566,-3,-1,10,10,2,-1,0,1
1537905237587544,-3,-1,-5,-5,-6,0,-1,0
1537905237587544,-1,2,-10,-2,0,-2,0,-1
1537905237601508,-1,5,23,-2,-3,-2,-2,0
1537905237601508,1,-8,-5,4,5,2,0,-1
1537905237610483,1,3,1,4,-1,-1,-2,1
1537905237610483,-1,-7,-2,-11,-1,0,-1,-1
1537905237632425,-2,-1,-7,11,-3,-5,-2,-1
1537905237632425,0,6,-8,-1,0,0,0,0
1537905237634419,-2,-5,12,-3,1,0,1,-1
1537905237634419,-1,-9,5,4,3,0,-1,-1
1537905237647385,1,16,0,-7,-5,-2,-2,-1
1537905237647385,-2,-7,-22,5,-2,-2,-2,-2
1537905237649379,1,14,25,-3,2,0,0,1
1537905237649379,-1,-11,0,-5,-4,-1,-1,0
1537905237670323,0,4,2,0,-2,-2,1,0
1537905237670323,-2,-6,-4,2,3,1,1,-1
1537905237672318,-1,-3,-9,-8,-6,-4,-2,-3
1537905237672318,-1,1,1,-7,-1,0,-2,0
1537905237684286,-2,-8,13,16,0,1,-1,-2
1537905237684286,-1,3,-32,-10,-1,-2,0,-1
1537905237693262,-1,-4,24,-9,-4,-2,-1,-1
1537905237693262,-1,5,-30,6,2,0,1,0
1537905237699246,0,-10,7,-19,-8,-1,0,1
1537905237699246,-1,0,6,4,-3,-3,-1,0
1537905237708222,-2,-3,-20,4,0,0,-2,0
1537905237708222,-2,1,8,5,6,1,-1,-1
1537905237721187,-2,-1,0,0,-4,-2,-2,-1
1537905237721187,-3,-18,-16,-4,0,-1,-1,-1
1537905237730164,-2,10,11,-9,-6,-2,0,-2
1537905237730164,-2,6,16,0,-2,-2,-1,-1
1537905237744127,-1,-8,-23,-2,5,0,-1,-1
1537905237744127,-1,6,12,0,-2,-1,-1,0
1537905237753104,-2,-1,-16,6,3,0,-1,0
1537905237753104,-1,6,18,-11,-6,-3,1,1
1537905237759087,0,6,2,24,9,0,2,1
1537905237759087,0,-15,-33,-14,-16,-6,-1,-2
1537905237768064,0,2,18,-5,3,3,0,-1
1537905237768064,-4,-7,-11,-5,-6,-2,-1,0
1537905237783081,2,-1,-9,5,1,2,-1,1
1537905237783081,1,6,17,3,6,2,-1,0
1537905237806958,-1,-3,2,9,1,-1,-2,-1
1537905237806958,0,-10,-22,-8,-7,-1,0,-2
1537905237807955,0,1,11,-6,6,1,0,-1
1537905237807955,1,4,-1,12,1,0,0,0
1537905237811945,-3,-7,-5,-9,-1,-2,-3,0
1537905237811945,-1,-1,13,12,5,2,-1,0
1537905237827902,-1,-4,-12,-12,-1,-1,0,-2
1537905237827902,0,4,4,-2,-1,-1,1,-1
1537905237828899,2,1,-1,9,1,0,0,1
1537905237828899,0,-2,5,-2,-3,-1,-1,-2
1537905237841865,-1,-3,-19,-6,-3,0,-1,-2
1537905237841865,-1,8,7,-1,0,0,0,-2
1537905237850841,-4,-14,-5,0,-1,1,1,-2
1537905237850841,1,0,7,3,-1,-2,-1,-1
1537905237865800,1,0,5,-11,1,1,0,1
1537905237865800,-3,-13,-29,-2,-8,-5,-3,-3
1537905237866798,2,23,43,1,2,-1,1,0
1537905237866798,1,0,-21,-18,-1,0,0,-1
1537905237887742,2,6,43,26,-3,-2,0,-1
1537905237887742,-3,-13,-12,-6,5,2,2,-1
1537905237889737,3,10,-13,20,7,2,0,1
1537905237889737,0,-3,43,-16,-14,-6,-3,-3
1537905237901705,-7,-21,-44,-14,3,1,1,-2
1537905237901705,0,-3,17,39,12,1,0,2
1537905237910681,-3,-15,65,-27,-4,-2,-1,-2
1537905237910681,-9,-8,-59,-24,-18,-8,-4,-1
1537905237923646,-2,-8,36,21,14,4,0,2
1537905237923646,-8,-5,42,18,-29,-14,-11,-8
1537905237932622,-1,-1,-10,28,28,6,2,0
1537905237932622,1,4,32,-41,-9,-2,-1,-2
1537905237947583,10,7,-7,21,6,7,5,5
1537905237947583,0,-15,-29,-9,14,5,3,1
1537905237949578,-2,16,26,-29,-14,-5,-4,-4
1537905237949578,1,8,0,38,-6,-3,-3,-3
1537905237961545,-4,11,-31,-8,-9,-8,-7,-8
1537905237961545,12,23,6,16,43,19,9,7
1537905237977503,1,-5,-75,-45,-38,-12,-3,1
1537905237977503,1,-6,84,23,12,3,2,3
1537905237983487,-6,-3,73,-7,26,4,-1,-3
1537905237983487,-5,6,-86,-33,-63,-21,-10,-8
1537905237992463,4,-29,-71,7,15,13,11,7
1537905237992463,0,-11,-2,35,1,-1,-3,-2
1537905237999444,5,31,74,2,14,3,1,2
1537905237999444,-5,8,22,10,16,3,-2,-3
1537905238008420,-4,-2,-4,67,18,2,-3,-3
1537905238008420,-8,-8,-95,-100,-76,-19,-6,-5
1537905238021385,0,-12,-47,15,-12,-2,-2,0
1537905238021385,3,8,58,-2,35,12,4,5
1537905238036345,-6,-17,-41,-18,-14,-9,-7,-7
1537905238036345,-3,4,64,19,34,6,1,-1
1537905238044324,4,15,-56,-8,-19,-6,-2,-2
1537905238044324,0,-7,-9,-41,-3,1,1,1
1537905238053300,-1,7,14,-6,-6,-2,-5,-3
1537905238053300,-3,4,-15,-7,-5,-1,-1,-1
1537905238059284,0,37,83,-8,-2,-2,0,1
1537905238059284,2,-4,-70,-3,-9,-2,-1,-1
1537905238075241,-3,2,-37,-54,0,0,-1,1
1537905238075241,3,31,46,58,-10,-3,-1,0
1537905238081225,-5,-20,-10,-22,-14,-4,-3,-4
1537905238081225,0,8,-17,15,4,-1,-2,-1
1537905238090201,1,7,36,18,13,2,1,0
1537905238090201,0,-8,-24,-6,16,3,1,0
1537905238105161,-1,-16,-17,-4,-6,-1,-2,0
1537905238105161,0,5,18,13,15,3,3,0
1537905238111145,-2,4,-1,-1,-25,-9,-2,-3
1537905238111145,1,1,-2,14,15,5,4,1
1537905238119124,-2,-11,-27,-7,-10,-4,-1,0
1537905238119124,-2,-12,19,-6,3,2,-2,0
1537905238128100,1,-3,18,6,2,1,-1,0
1537905238128100,1,-12,-10,11,9,4,1,0
1537905238141065,-2,-11,-26,-2,3,-2,-2,-1
1537905238141065,-2,-3,16,-8,-16,-4,-2,-3
1537905238150041,2,1,14,13,2,2,-1,0
1537905238150041,0,0,-3,1,6,-1,-2,-1
1537905238165003,-3,-17,-29,-6,-1,-2,0,-1
1537905238165003,-1,0,15,0,-7,-3,-1,0
1537905238171983,1,-4,13,7,-1,-2,-1,-2
1537905238171983,1,-2,-10,5,11,4,1,2
1537905238178966,-1,-9,-4,-2,-3,-1,-2,-2
1537905238178966,-2,0,7,-4,-7,-2,-2,-1
1537905238187943,2,12,-6,7,6,2,0,1
1537905238187943,-2,-28,-13,-10,3,2,1,-1
1537905238201905,-2,-34,-17,5,-1,-2,-1,-2
1537905238201905,-2,-41,22,-4,-17,-4,-1,-2
1537905238210880,0,-62,12,4,8,0,2,-1
1537905238210880,-1,-38,-20,2,3,-1,-3,-3
1537905238224843,-1,-37,-14,-15,-16,-3,-1,-1
1537905238224843,-2,-18,20,3,9,1,-1,-1
1537905238231823,-2,-17,-17,0,-2,-4,-1,-3
1537905238231823,3,-6,43,10,3,2,1,1
1537905238247780,4,12,-15,8,9,3,0,-1
1537905238247780,-3,33,13,-9,-3,-1,-2,1
1537905238249775,-4,21,9,-5,-6,-4,-3,-1
1537905238249775,0,51,-17,-4,4,0,-2,0
1537905238261742,-5,16,-1,7,4,0,1,-2
1537905238261742,1,14,-6,4,-4,-2,0,0
1537905238270718,-1,34,-1,-6,-3,1,-1,-1
1537905238270718,1,36,-4,-4,-2,-3,-2,1
1537905238292660,0,46,5,1,5,4,2,0
1537905238292660,0,7,-12,-6,-10,-5,-2,-1
1537905238294655,-1,-1,-5,-1,15,6,2,2
1537905238294655,-4,8,23,0,-26,-11,-4,-4
1537905238315598,1,12,53,-2,1,-2,-1,0
1537905238315598,0,1,-52,4,2,2,-1,-1
1537905238316596,2,10,-59,-4,3,3,1,2
1537905238316596,0,-8,59,-1,7,2,0,1
1537905238328564,-2,-6,-28,-6,-1,-2,-3,-2
1537905238328564,1,0,34,-4,-4,-3,-2,-2
1537905238337540,-5,1,5,-5,-5,-5,-1,-3
1537905238337540,-2,-14,-23,0,4,0,0,-2
1537905238353497,0,-15,0,2,-4,-2,-1,-1
1537905238353497,-2,-6,0,2,4,1,-1,-1
1537905238354494,2,41,3,4,0,-2,-2,-2
1537905238354494,1,-11,-20,-10,-4,1,-1,0
1537905238375438,-2,-3,10,-2,7,2,-1,-1
1537905238375438,-2,9,-3,3,-10,-4,-1,1
1537905238376436,0,-12,10,-1,-7,-3,-3,-1
1537905238376436,-1,1,7,8,5,2,-1,-2
1537905238397380,3,-7,-42,-3,-4,-1,-1,-1
1537905238397380,-1,-8,-14,0,6,1,1,0
1537905238399374,-1,-3,60,5,-3,-2,2,-1
1537905238399374,0,-1,-18,0,5,0,-3,-2
1537905238412340,-3,-4,13,-3,-3,-2,-2,-2
1537905238412340,1,-3,-38,-3,3,-1,-1,-1
1537905238420319,0,-5,-17,-2,-9,-2,-2,-1
1537905238420319,-1,2,27,2,2,2,1,-2
1537905238443257,0,7,-1,-3,-1,1,-1,0
1537905238443257,-3,-7,-4,-1,2,-2,-1,-2
1537905238444255,2,3,3,-6,1,1,0,1
1537905238444255,-2,0,-20,2,-8,-4,-1,-1
1537905238458217,-4,-5,0,0,-3,-2,-1,-2
1537905238458217,0,-3,7,0,1,2,1,0
1537905238459215,-1,0,14,2,1,0,-1,-1
1537905238459215,1,1,-16,1,7,2,1,1
1537905238473177,-2,-14,-6,-2,2,1,-1,-1
1537905238473177,-1,6,23,-1,-9,-4,-3,-2
1537905238474175,-4,-15,-8,3,4,1,0,-1
1537905238474175,-1,-1,7,0,-3,-1,-1,-1
1537905238496116,0,-7,-10,-9,-5,-1,-1,0
1537905238496116,0,3,12,7,8,4,2,0
1537905238497114,-4,-11,-6,2,-7,-5,-4,-4
1537905238497114,-1,3,-22,-1,-1,-2,1,-3
1537905238510079,-2,-24,31,-4,2,-1,1,2
1537905238510079,1,-1,-15,-6,1,0,-1,1
1537905238524042,1,12,4,-3,-1,-1,0,0
1537905238524042,-3,-13,-5,-7,-4,-3,-1,1
1537905238533018,-1,22,-2,1,4,1,-2,-1
1537905238533018,-2,-5,5,6,-9,-4,-3,-1
1537905238534016,-4,-9,9,-3,4,1,1,1
1537905238534016,0,8,-13,4,-1,0,1,0
1537905238554958,2,8,-1,2,0,1,-1,1
1537905238554958,0,-5,5,-7,-2,-1,-2,-2
1537905238556954,0,7,-3,15,4,-1,-1,-1
1537905238556954,-1,-2,-7,-10,-7,-3,-1,-2
1537905238568921,-3,-6,-13,-4,-3,-2,-2,-1
1537905238568921,-2,3,13,3,3,2,0,-1
1537905238577897,4,14,-2,-10,-5,-3,0,0
1537905238577897,0,-5,-1,3,4,0,-1,1
1537905238592857,-1,-7,10,2,0,-2,-1,-1
1537905238592857,0,3,16,-3,2,1,1,0
1537905238593854,2,-14,-21,-4,3,2,1,1
1537905238593854,0,0,-6,5,-1,-1,-1,0
1537905238615796,0,5,-15,-10,-7,-2,-2,-1
1537905238615796,-1,2,4,1,-1,1,1,-1
1537905238616793,-3,-7,10,1,-2,-2,-2,-2
1537905238616793,1,4,-6,-2,3,1,0,0
1537905238628761,0,3,-6,-8,-4,-3,0,-3
1537905238628761,-2,-6,-5,6,-5,-2,-1,-1
1537905238637738,-1,8,2,-4,-1,1,-4,0
1537905238637738,-2,-15,14,3,6,2,-1,0
1537905238660676,-1,3,-12,3,-4,-2,0,-1
1537905238660676,2,5,4,-2,5,0,-2,-1
1537905238661673,-1,-4,-2,-4,-8,-3,1,-1
1537905238661673,-1,4,14,1,-5,-2,-1,-2
1537905238674639,1,-3,-27,2,2,1,-2,0
1537905238674639,-3,-9,-7,2,2,-1,-2,-1
1537905238682617,-2,-10,12,-7,-12,-2,-3,-1
1537905238682617,-1,-7,-24,3,4,1,-1,-1
1537905238688601,1,12,10,-1,0,0,-1,-1
1537905238688601,-2,-11,-12,-3,-6,-3,-1,-1
1537905238697577,0,7,28,1,5,2,0,0
1537905238697577,0,-6,-16,-7,-2,0,-2,-2
1537905238712537,-1,0,1,2,-6,-2,-2,-1
1537905238712537,-2,-3,0,-7,2,1,-1,0
1537905238714532,-1,1,40,8,-2,-2,0,-2
1537905238714532,-1,-2,-40,-4,2,1,0,1
1537905238735477,3,4,7,8,-1,-2,-1,-1
1537905238735477,-1,1,-3,-12,-5,1,0,0
1537905238741460,-1,-3,2,5,3,-1,0,-2
1537905238741460,-1,3,1,-6,-6,-2,-1,0
1537905238749438,-2,-4,-3,4,1,-1,-1,-1
1537905238749438,-2,1,10,1,0,0,-1,-1
1537905238765396,-3,-1,-18,-2,3,3,-2,0
1537905238765396,0,6,12,-1,0,0,1,0
1537905238772378,0,-10,6,1,0,-3,0,-2
1537905238772378,-1,4,-30,4,2,-1,-2,-1
1537905238780356,-1,-9,-6,-24,-2,-1,0,0
1537905238780356,-3,16,16,12,-6,-4,-4,-2
1537905238795316,-2,2,6,-1,-2,-3,0,-1
1537905238795316,4,2,6,8,4,-1,2,-1
1537905238796313,0,-2,-9,3,1,0,-2,0
1537905238796313,0,-6,-11,-6,3,2,-1,-2
1537905238809279,-2,-4,-4,2,3,1,-1,0
1537905238809279,-1,3,11,2,-3,-1,-1,-2
1537905238818255,0,1,7,-1,-5,-4,0,-3
1537905238818255,0,-9,-10,-6,2,0,-1,-2
1537905238833215,-1,8,-10,-2,4,2,0,1
1537905238833215,-2,-10,9,-2,-5,-4,-2,0
1537905238834212,0,5,-13,2,-6,-2,-2,0
1537905238834212,-1,-20,1,-6,2,0,-1,0
1537905238855156,0,-10,4,-1,1,-1,-1,-2
1537905238855156,-2,13,1,-9,-10,-6,-3,-1
1537905238857151,-3,2,0,7,3,3,1,0
1537905238857151,0,-6,-11,-8,-4,-2,-2,1
1537905238869119,0,8,7,-3,1,0,0,0
1537905238869119,2,1,2,-6,0,1,-1,1
1537905238878095,1,0,-12,7,2,-2,-2,-2
1537905238878095,-3,-11,3,0,4,0,2,0
1537905238893055,3,15,6,-3,-9,-3,-2,-1
1537905238893055,-3,-11,-12,-1,3,0,-2,0
1537905238894052,-2,-4,17,2,0,1,-1,0
1537905238894052,0,8,-14,-5,3,1,2,0
1537905238914996,0,-1,-8,1,-3,-2,-1,-2
1537905238914996,1,1,-23,6,2,1,0,-1
1537905238916991,-2,-3,-6,-11,1,-1,-1,-3
1537905238916991,-2,4,23,10,1,0,-2,-2
1537905238928959,-2,-14,-7,-2,-6,-1,-1,0
1537905238928959,-1,-2,11,-2,-4,-2,0,-1
1537905238937935,-1,-20,-19,-2,-2,0,0,0
1537905238937935,2,-5,1,7,2,1,-1,0
1537905238952895,-4,8,10,1,2,1,-1,-1
1537905238952895,-3,-4,-10,-2,2,-1,-2,-1
1537905238953892,1,2,-5,-4,-3,-2,-2,0
1537905238953892,3,19,16,4,0,-1,1,0
1537905238974836,-1,-11,-4,-2,-1,-1,-1,0
1537905238974836,0,10,5,-2,-4,1,-2,-1
1537905238976831,-5,-9,-10,2,-2,-3,-1,-3
1537905238976831,2,12,6,-1,-2,0,0,0
1537905238988799,-1,-1,-8,3,0,0,0,0
1537905238988799,0,2,-7,1,1,-1,1,0
1537905238997775,-2,11,-1,-12,-1,2,0,0
1537905238997775,-2,-8,1,-3,-6,-5,-2,-2
1537905239012735,2,7,6,-2,-1,-1,-1,-2
1537905239012735,-1,1,15,6,4,0,-1,0
1537905239014730,1,-3,-25,-9,-2,-1,1,1
1537905239014730,-3,1,36,3,-5,-2,-1,0
1537905239035674,1,-17,-35,0,-5,-2,-1,-1
1537905239035674,1,11,3,-1,1,-2,-1,1
1537905239036671,-2,-14,9,-3,3,2,0,-2
1537905239036671,4,23,-12,6,0,-3,-1,-2
1537905239057615,-8,-2,42,-1,-2,-2,-3,-2
1537905239057615,5,-22,-14,5,3,1,2,0
1537905239059609,-3,0,-18,-15,-8,-4,-3,-1
1537905239059609,5,13,16,8,2,2,1,1
1537905239080553,-4,-14,-13,-7,-2,-1,0,-1
1537905239080553,1,2,19,-1,0,-1,-2,-1
1537905239081551,5,28,11,8,5,0,-1,0
1537905239081551,-10,-37,-34,-6,-5,-4,-2,-3
1537905239095514,-1,8,-4,0,3,3,1,0
1537905239095514,-5,-10,-2,-3,-2,-1,0,-2
1537905239096511,0,-4,-6,7,0,-1,-1,-2
1537905239096511,2,12,21,3,2,3,0,1
1537905239117455,-2,-4,-1,1,1,0,-2,-1
1537905239117455,-2,0,-1,-7,-2,-2,-1,-3
1537905239119450,2,3,9,8,-3,-1,-1,-2
1537905239119450,-3,-7,-19,-7,0,0,0,0
1537905239132415,4,6,10,5,0,-1,0,0
1537905239132415,-1,-3,-25,-7,-1,1,-1,-1
1537905239139396,0,16,15,1,-3,-3,-1,0
1537905239139396,0,0,-3,0,-1,0,-1,-1
1537905239155353,-3,-19,-2,-2,0,-3,-1,1
1537905239155353,-3,8,-1,-2,-3,-1,-1,-2
1537905239156351,2,-11,-3,3,1,-1,-1,-1
1537905239156351,3,-5,3,-9,-2,-2,0,1
1537905239177295,2,16,4,-2,-1,0,-2,-3
1537905239177295,0,5,4,5,2,-2,0,-1
1537905239179289,-2,-8,-5,1,-2,0,0,-2
1537905239179289,-1,-1,-4,6,0,1,-1,-1
1537905239192255,3,0,35,-5,1,1,1,0
1537905239192255,-3,-1,-25,-3,-2,-1,-2,-2
1537905239199236,-7,-9,-2,2,0,-1,-1,-2
1537905239199236,1,-2,-6,-9,-4,-3,-3,0
1537905239214196,-1,-11,-22,-4,-1,0,1,1
1537905239214196,2,16,21,6,1,1,0,0
1537905239223173,-4,-15,-11,-3,-4,-3,-2,0
1537905239223173,-5,5,11,-1,-1,2,-1,-1
1537905239238132,-4,-13,-21,-2,-2,-2,-1,-1
1537905239238132,8,2,11,1,-1,0,0,0
1537905239239130,0,5,-7,-2,3,1,0,0
1537905239239130,-3,-9,1,-5,0,-1,0,-1
1537905239252096,0,7,2,6,0,0,0,-2
1537905239252096,-4,-20,-9,-6,-3,-1,0,0
1537905239259076,4,29,5,-2,1,0,-1,2
1537905239259076,-3,-23,0,8,0,-2,-1,-1
1537905239275033,1,13,-20,2,1,-3,0,-2
1537905239275033,-2,-3,19,-4,0,0,0,-1
1537905239277028,1,-7,1,2,4,2,-1,-2
1537905239277028,1,16,11,1,-6,-3,-2,-2
1537905239297972,0,-6,-6,-5,-2,0,0,1
1537905239297972,-4,-13,-12,0,-1,0,-1,-1
1537905239298970,-2,-2,4,-6,-2,-2,0,-2
1537905239298970,0,20,9,-1,2,2,1,-1
1537905239311935,2,1,-14,-4,0,-2,-1,-1
1537905239311935,-2,-3,20,2,-4,-3,-2,-2
1537905239318917,0,5,-26,-6,-2,-1,-1,0
1537905239318917,-2,-8,14,0,2,1,1,-1
1537905239334874,-3,4,6,2,-4,-1,0,-2
1537905239334874,-4,3,-3,-7,0,-1,-2,-1
1537905239336868,-2,-6,11,5,-1,-3,-2,-1
1537905239336868,0,-3,-18,-10,1,1,0,0
1537905239357812,0,1,-2,6,-2,-1,-1,1
1537905239357812,0,-4,-13,-4,-1,0,1,-1
1537905239358810,0,1,17,14,-3,-2,-3,-1
1537905239358810,-2,-8,-20,-8,-3,-1,0,-1
1537905239371775,1,10,1,-5,5,1,1,1
1537905239371775,-4,-12,6,7,-3,-2,-1,-2
1537905239378756,5,16,-3,-3,-1,0,0,1
1537905239378756,-2,-10,-11,3,0,-2,-1,-1
1537905239395711,1,2,8,-1,0,-1,-2,-1
1537905239395711,-4,-11,-9,1,-2,-1,-2,-1
1537905239396708,1,18,0,-6,0,1,-2,-1
1537905239396708,2,4,6,1,0,-1,-1,-1
1537905239418651,-1,-8,10,0,0,1,-1,1
1537905239418651,1,14,-17,-4,0,0,2,0
1537905239423637,-4,-18,-2,5,-2,0,-1,-2
1537905239423637,-2,4,1,-2,-1,-1,0,-1
1537905239432613,-3,-3,13,-2,-2,-2,0,-1
1537905239432613,-1,-8,-10,-2,-4,-3,-3,-1
1537905239438597,0,-10,2,-2,1,-1,1,1
1537905239438597,-2,0,-11,0,0,1,-2,0
1537905239455551,-1,2,5,2,-1,-1,-2,-1
1537905239455551,1,5,6,-1,1,1,-1,-1
1537905239461535,-2,-6,-6,-5,2,-2,1,-2
1537905239461535,-1,1,4,6,-6,-3,-2,0
1537905239477492,3,-8,-12,1,1,2,1,1
1537905239477492,1,13,8,-5,2,-1,0,-1
1537905239479487,1,3,-9,4,1,-1,0,0
1537905239479487,1,5,14,-9,3,1,1,-1
1537905239492452,4,0,-10,-4,0,0,0,-1
1537905239492452,3,3,-2,4,-2,-1,-2,0
1537905239498437,2,-2,5,-4,3,3,0,0
1537905239498437,1,1,17,4,-3,-2,-2,1
1537905239515391,-3,17,3,2,-4,0,-3,-2
1537905239515391,2,2,-39,-9,1,2,0,1
1537905239516389,-2,-2,5,0,-3,-3,-3,-3
1537905239516389,-2,-9,-22,-3,1,-2,-3,-1
1537905239537332,2,8,20,-5,-3,-5,-2,-2
1537905239537332,-1,1,14,8,-2,-2,-2,-2
1537905239539327,-3,-1,-7,-7,-5,-2,-1,-1
1537905239539327,0,6,-7,-2,-2,0,-2,-2
1537905239552292,-3,-9,-3,6,4,-2,-2,-1
1537905239552292,0,2,7,-13,-5,0,0,-1
1537905239566255,-2,-5,-7,0,-2,-2,-2,-2
1537905239566255,1,15,10,-2,-1,-2,-1,-2
1537905239575231,-3,-6,-23,-4,1,0,-1,-1
1537905239575231,1,-3,13,4,2,0,-1,0
1537905239576228,-2,16,-1,2,-5,-1,-2,0
1537905239576228,-2,-14,-8,2,0,0,-1,-1
1537905239598170,2,5,7,-1,-1,-2,0,-1
1537905239598170,-3,-13,-20,3,-1,-4,-1,-1
1537905239599167,0,-3,0,-5,0,-1,-2,-1
1537905239599167,-1,7,-6,-1,-1,0,0,-1
1537905239611135,-1,-6,-7,-3,-2,0,-2,-1
1537905239611135,-1,2,28,2,-1,0,-2,0
1537905239620111,-3,-15,7,3,1,1,-1,-2
1537905239620111,-1,-1,-19,-8,0,-1,1,-1
1537905239635071,-1,-12,5,-1,-1,-1,0,-1
1537905239635071,1,6,4,4,0,1,-1,0
1537905239637066,0,6,2,-1,-3,-3,-1,-2
1537905239637066,-2,-9,-6,-3,1,-2,-1,-4
1537905239658010,-2,2,-5,-3,-2,-2,1,-1
1537905239658010,-2,2,-1,7,2,-2,-1,-1
1537905239663994,-1,-2,1,-21,-6,-3,0,0
1537905239663994,-2,-7,14,-2,1,0,-1,0
1537905239671973,1,-6,-24,4,-2,-2,0,0
1537905239671973,-2,2,8,0,-5,-2,-1,-2
1537905239679951,0,2,3,5,1,1,0,-1
1537905239679951,0,4,5,-3,1,0,-1,-1
1537905239694911,-4,-16,-11,-4,-2,1,-1,0
1537905239694911,-1,2,21,0,1,-1,0,-1
1537905239696906,-2,-3,-17,0,-3,-2,-1,-1
1537905239696906,3,-1,-6,2,-2,-1,0,0
1537905239717850,-2,-3,-1,0,0,0,-2,-1
1537905239717850,-1,-1,12,-4,-4,-1,-1,-1
1537905239718848,-2,-6,-14,-2,1,0,0,0
1537905239718848,0,3,10,6,-1,0,-1,-1
1537905239731813,-1,12,-22,3,-2,1,0,-1
1537905239731813,1,-6,-13,-12,-3,-2,-1,-1
1537905239740789,-1,-1,11,3,-1,-2,-1,0
1537905239740789,-2,-4,3,-1,-1,0,-1,1
1537905239755748,-1,0,9,-10,0,0,-1,-1
1537905239755748,1,-2,-19,12,0,0,-1,0
1537905239756746,-1,-3,13,3,-1,-1,0,1
1537905239756746,0,4,-7,-1,-3,-1,1,-2
1537905239777690,-3,-6,11,-1,0,-2,-2,-2
1537905239777690,-1,2,-11,-6,2,-1,-2,-1
1537905239779684,-1,-5,0,0,-5,-3,-2,-1
1537905239779684,-2,-9,0,3,-1,-1,-2,0
1537905239800628,0,5,1,-6,-2,-1,-2,0
1537905239800628,-1,-1,3,4,1,0,1,0
1537905239801626,1,0,-10,-1,1,1,-1,0
1537905239801626,-1,1,4,-3,-1,-2,-1,-1
1537905239815589,-2,0,4,2,0,0,1,-2
1537905239815589,-2,0,-8,-1,-1,-3,0,1
1537905239816586,-1,-6,-9,-1,2,0,-1,0
1537905239816586,-1,-5,-15,0,-3,-2,-1,1
1537905239837530,3,12,4,-2,2,0,-1,1
1537905239837530,-4,-14,17,-5,-4,-1,-2,-2
1537905239839525,0,18,13,2,-2,0,-1,-2
1537905239839525,0,-7,-8,-2,0,0,1,-1
1537905239851493,0,-23,7,2,3,1,1,0
1537905239851493,1,22,-3,1,-2,-2,0,-1
1537905239860469,0,-7,9,2,0,-1,-1,-2
1537905239860469,0,-9,-33,-1,0,-1,-1,-1
1537905239875429,0,8,25,3,-2,-1,-1,-1
1537905239875429,-1,-7,-9,-2,1,1,0,-1
1537905239877423,-2,-9,0,2,0,0,-1,0
1537905239877423,-2,3,8,-1,1,-2,-2,-2
1537905239897370,-3,-9,-22,5,0,0,1,-2
1537905239897370,2,2,12,-22,-4,0,-2,0
1537905239899365,2,5,5,10,-2,-1,0,0
1537905239899365,-2,-2,4,-3,2,0,0,0
1537905239912330,1,14,3,-1,-5,-2,-2,0
1537905239912330,-1,-19,-27,0,4,-1,-2,3
1537905239920309,-4,-2,-13,-2,-1,2,0,0
1537905239920309,0,5,1,-3,-3,-2,-1,-1
1537905239935269,0,1,13,-1,-1,0,0,0
1537905239935269,1,4,-4,5,-1,0,-1,-2
1537905239936266,-2,-4,-5,-8,-2,-1,-1,0
1537905239936266,-1,-1,10,4,0,-1,0,-1
1537905239958207,0,6,-11,-2,-3,-1,-1,-1
1537905239958207,1,5,8,1,-1,1,-2,-1
1537905239959205,0,-11,-9,-3,0,-1,1,-1
1537905239959205,-3,6,5,0,-1,-1,-1,-2
1537905239980149,-2,-4,-6,0,-1,-1,-2,-2
1537905239980149,-2,3,0,3,-1,-2,-1,0
1537905239982143,2,-4,8,-1,-2,-3,0,0
1537905239982143,-1,2,-1,-1,-1,0,-1,-1
1537905239994111,-2,-5,-4,-1,-2,-2,-1,-1
1537905239994111,-2,-1,-7,4,2,-1,0,-1
1537905240003088,-1,-3,-3,-5,1,1,1,0
1537905240003088,0,-6,-3,-2,-2,-2,-1,0
1537905240017050,0,-4,2,-3,-2,0,0,-2
1537905240017050,2,6,9,4,1,1,-1,-2
1537905240018048,0,10,20,-11,-7,-3,-1,-2
1537905240018048,-2,-2,-46,2,-2,-1,1,-1
1537905240039989,-1,-6,-5,-4,-1,-2,-1,-1
1537905240039989,0,1,4,16,1,-1,-1,-2
1537905240039989,0,-21,-3,-12,-8,-1,-2,-1
1537905240039989,-1,22,21,-9,2,2,-1,0
1537905240054949,-3,-4,-23,8,0,-2,0,-1
1537905240054949,1,-5,6,-17,16,8,3,2
1537905240054949,-4,-4,-5,-6,-9,-4,-1,-1
1537905240054949,4,8,54,53,9,-1,1,2
1537905240077888,-4,-18,-26,53,2,-1,-2,-3
1537905240077888,-1,5,-47,-46,-27,-9,-3,-5
1537905240077888,-1,-4,32,38,29,6,-1,0
1537905240077888,3,5,-13,-10,-11,-4,-4,1
1537905240107807,-4,-4,22,-26,18,2,0,-1
1537905240107807,-2,2,5,-24,-47,-15,-5,-3
1537905240107807,1,3,-22,2,20,7,3,2
1537905240107807,3,5,-27,-39,-7,-1,1,0
1537905240124762,4,-13,20,53,6,0,1,3
1537905240124762,-2,-7,-31,-24,4,2,-1,-1
1537905240125760,2,16,48,-4,-24,-6,-2,-2
1537905240125760,-5,-8,-1,28,-1,-2,-3,-4
1537905240136730,5,11,6,-22,-4,3,3,2
1537905240136730,-1,-1,-11,19,14,1,-1,-1
1537905240137728,-4,-7,-28,7,1,0,-3,-2
1537905240137728,-1,-15,9,-9,8,2,1,0
1537905240159669,1,18,34,8,-6,-1,-1,-2
1537905240159669,-2,-14,-36,24,6,2,3,1
1537905240160667,1,3,-56,-5,5,0,1,0
1537905240160667,0,-2,46,14,11,2,1,1
1537905240174629,-2,4,10,-41,-32,-9,-6,-1
1537905240174629,-2,-4,7,13,-2,-2,-1,-1
1537905240175627,-1,-5,7,-4,-5,-3,0,-2
1537905240175627,-2,-8,-22,-3,6,2,0,-1
1537905240197568,-3,-4,-23,-9,3,0,-1,-1
1537905240197568,0,5,12,5,5,1,-1,1
1537905240197568,-1,-9,35,-12,-3,-2,-2,0
1537905240197568,-2,16,-8,-9,-3,-2,-2,-2
1537905240219509,1,2,8,-5,-2,-2,-2,-1
1537905240219509,-3,-12,-14,-17,-5,-3,-3,-2
1537905240227488,1,-3,-22,-1,0,0,1,1
1537905240227488,0,8,22,-1,-5,0,-2,-1
1537905240234469,-2,-14,10,-8,-3,1,1,-1
1537905240234469,0,6,8,12,9,2,2,2
1537905240235467,-1,2,-10,-3,-4,-1,-1,-1
1537905240235467,-2,-14,1,-4,-7,-4,-2,-1
1537905240257408,0,13,-38,-8,2,-1,-2,-2
1537905240257408,0,-5,36,7,4,1,2,1
1537905240257408,0,2,1,1,-1,-2,0,-2
1537905240257408,-2,-19,-24,-16,-1,0,0,-1
1537905240279349,-1,8,8,-7,-13,-6,-4,-4
1537905240279349,3,-3,20,15,6,0,-3,0
1537905240280346,0,20,0,-2,-3,-2,1,0
1537905240280346,-1,-13,-11,-3,11,2,1,-1
1537905240294309,-3,1,-13,-1,-7,-5,-1,-1
1537905240294309,-2,-3,7,-2,0,-1,-1,-1
1537905240295306,-1,-16,0,-1,0,-2,0,-2
1537905240295306,0,11,-4,0,-1,-1,-2,-1
1537905240317247,-2,2,3,-2,7,3,3,-1
1537905240317247,2,-1,-32,-7,-2,-1,0,-1
1537905240318246,1,4,38,12,6,3,-1,1
1537905240318246,0,-13,0,6,-5,-3,-1,-2
1537905240339189,-1,0,-4,-1,3,0,-2,0
1537905240339189,-3,2,5,2,-2,0,-1,-1
1537905240340186,-4,-7,-20,-8,-3,0,-1,-2
1537905240340186,1,2,1,-2,-4,-2,-2,-1
1537905240354149,1,4,10,8,5,0,1,2
1537905240354149,0,6,1,-19,1,0,2,-1
1537905240355146,-2,-7,6,-4,0,-2,-3,-1
1537905240355146,-3,2,-6,1,-10,-4,-1,0
1537905240377087,-1,-7,-14,-12,1,0,1,-1
1537905240377087,0,-1,5,13,1,1,-1,0
1537905240378085,-3,1,18,-11,0,-2,0,-1
1537905240378085,-2,3,34,8,-6,-4,-2,-1
1537905240400026,0,-18,-67,-8,2,0,-3,0
1537905240400026,-1,-9,-11,-1,5,2,1,0
1537905240400026,-1,3,-21,1,-9,-4,0,0
1537905240400026,-2,-12,35,-5,-2,0,-1,0
1537905240413989,-1,8,-4,6,3,0,0,0
1537905240413989,-2,-6,35,-3,-3,-3,-2,-3
1537905240429946,2,0,-36,-3,2,-1,-2,0
1537905240429946,1,1,-8,8,6,2,2,-1
1537905240436928,2,-5,-7,-32,8,4,2,-1
1537905240436928,-4,18,49,44,-11,-8,-5,-4
1537905240437925,-1,-15,-1,18,7,2,1,-2
1537905240437925,2,15,-44,12,11,4,1,0
1537905240467847,-3,-25,-86,-70,-34,-12,-5,-3
1537905240467847,4,19,89,34,29,10,4,3
1537905240468843,-2,2,-2,16,-39,-14,-9,-4
1537905240468843,-4,-15,-65,8,28,5,1,-1
1537905240473830,0,14,75,67,-10,-5,-2,0
1537905240473830,0,-2,-58,-79,-29,-5,-1,-1
1537905240481807,-1,7,46,-23,4,4,1,0
1537905240481807,1,7,-46,5,1,-4,-1,-1
1537905240496768,-4,5,57,38,4,2,-1,-1
1537905240496768,-1,-6,-25,16,8,-2,-2,1
1537905240497765,-2,-3,-52,9,16,6,0,0
1537905240497765,0,4,54,-37,-22,-4,0,-2
1537905240519706,2,0,-36,10,21,6,5,2
1537905240519706,0,0,32,19,-12,-5,-3,-3
1537905240520704,0,-4,-31,-9,5,0,1,-1
1537905240520704,-2,-9,-15,-7,-6,-2,-4,-1
1537905240533669,-1,5,8,-8,-2,-1,-2,-1
1537905240533669,-2,-9,-5,0,4,0,0,-2
1537905240541647,-3,-3,-38,-21,-13,-4,-1,0
1537905240541647,2,12,51,18,-5,-2,0,0
1537905240556608,-2,-6,-9,1,5,3,2,0
1537905240556608,0,1,-14,-2,1,1,-3,-1
1537905240557605,0,-6,-6,-3,21,6,2,1
1537905240557605,-2,0,-6,-2,-40,-10,-4,-2
1537905240579546,2,10,46,3,2,0,-3,-2
1537905240579546,-1,-6,-25,-4,4,0,0,1
1537905240580544,1,5,20,1,-3,-2,-3,-1
1537905240580544,-2,-7,-7,5,11,2,-1,-1
1537905240602485,-1,3,24,-7,-2,-1,-1,-2
1537905240602485,-1,-5,-17,-4,-7,0,-1,-2
1537905240603482,2,-1,8,12,2,0,0,-2
1537905240603482,0,14,0,-14,0,0,-1,0
1537905240617445,-2,-3,-14,-2,0,-2,0,0
1537905240617445,-2,-1,-6,-12,-6,-1,0,-1
1537905240617445,0,3,12,0,-1,-2,-1,1
1537905240617445,-2,-9,-9,-1,4,2,0,-1
1537905240639386,0,2,25,-1,-2,-1,-1,-1
1537905240639386,-3,-1,-32,-4,2,-1,-1,0
1537905240640384,0,5,9,0,2,1,0,2
1537905240640384,0,-3,10,-5,-3,-2,-2,-2
1537905240654346,1,2,-9,-12,-1,-1,-1,-1
1537905240654346,-3,-5,-15,-6,4,-1,-2,-3
1537905240662325,-1,-5,29,11,-14,-2,-2,-1
1537905240662325,-1,-1,-24,-5,-9,-3,-1,-1
1537905240677286,0,-2,5,6,4,1,0,0
1537905240677286,1,3,-1,-20,-2,-1,-1,-1
1537905240677286,-2,-4,-13,-9,-2,-2,-1,-2
1537905240677286,-1,1,4,9,2,-2,0,-1
1537905240700224,-1,-7,0,-7,-4,-1,0,-3
1537905240700224,2,2,-3,6,-3,-1,-1,0
1537905240707205,-2,-5,-2,3,3,-1,0,0
1537905240707205,-1,-3,6,-6,-1,-1,-1,-1
1537905240714186,-2,-2,-17,-2,6,2,0,1
1537905240714186,-1,3,10,1,1,1,-1,0
1537905240722165,2,3,9,4,-1,-1,0,-2
1537905240722165,0,1,10,-1,5,1,0,-1
1537905240737125,-1,-5,-19,-3,3,2,1,-2
1537905240737125,-1,-5,-3,-11,-4,-2,1,-2
1537905240738122,-2,1,-19,-2,-19,-7,-5,-3
1537905240738122,1,16,51,34,14,3,2,2
1537905240759066,0,-8,-25,-5,-9,-5,-2,1
1537905240759066,1,5,53,3,5,3,0,1
1537905240760064,0,6,-52,-1,5,-1,1,1
1537905240760064,-2,-13,4,-12,4,-2,1,-1
1537905240774026,0,6,7,-1,-7,-3,-1,-1
1537905240774026,-1,-12,-24,0,-3,-2,0,-2
1537905240782005,1,9,0,2,7,3,1,-1
1537905240782005,-1,0,11,-1,1,-1,-1,-1
1537905240796965,-1,-3,2,-4,-1,-1,1,-1
1537905240796965,0,-2,-6,5,2,0,-1,-3
1537905240797963,-1,-1,8,-8,-5,0,-1,-1
1537905240797963,-3,-10,-39,-11,-6,-3,-2,-2
1537905240820902,0,9,7,4,-5,-2,-2,-1
1537905240820902,2,13,0,8,6,3,1,2
1537905240820902,-2,-8,26,6,-5,-5,-2,-2
1537905240820902,1,-2,-30,-8,4,1,-1,0
1537905240833867,-4,-1,19,-7,-9,-3,-2,-2
1537905240833867,-1,-7,11,5,1,0,0,-2
1537905240849824,1,7,-16,16,14,4,2,1
1537905240849824,-2,-15,-12,-34,-10,-1,-2,0
1537905240856805,-1,7,-38,-21,-8,-3,-3,-2
1537905240856805,-1,5,58,11,22,4,0,-1
1537905240857803,-3,-11,22,-13,-46,-11,-5,-4
1537905240857803,10,14,-14,62,26,11,8,6
1537905240880741,1,-2,14,-29,8,1,1,0
1537905240880741,-1,-10,-35,-20,-7,-2,0,2
1537905240880741,-4,8,9,-7,0,-5,-4,-4
1537905240880741,-5,-15,11,-5,0,-3,-1,-3
1537905240902684,3,9,18,45,5,-1,-1,-1
1537905240902684,0,1,-9,3,4,1,1,0
1537905240903680,0,-7,9,6,24,6,0,0
1537905240903680,-4,-3,-19,-73,-44,-13,-6,-5
1537905240916646,1,1,20,37,14,4,0,0
1537905240916646,-2,-6,-10,-3,-1,-4,-2,-2
1537905240917643,-2,-5,-55,-37,-13,-3,-3,-1
1537905240917643,0,18,53,52,17,2,0,1
1537905240939585,-3,-14,-40,-38,-18,-4,-1,-1
1537905240939585,-1,1,-14,14,-8,-3,-2,-3
1537905240940582,1,-2,-10,-10,-2,1,0,-2
1537905240940582,-2,1,35,-3,8,3,0,-3
1537905240962523,-3,-8,24,-11,-14,-4,-2,-2
1537905240962523,2,5,-20,15,-5,-1,-2,2
1537905240963520,-1,0,-1,4,12,1,3,1
1537905240963520,-2,-11,-4,10,1,-1,-2,-2
1537905240977483,0,5,17,6,0,-1,-1,0
1537905240977483,-1,-1,-10,-14,-4,-2,-3,-1
1537905240977483,0,1,18,11,4,1,1,-2
1537905240977483,-2,0,0,4,-3,-1,-1,-3
1537905241000421,-1,-4,-21,-2,2,-1,1,1
1537905241000421,0,0,-1,3,-3,-2,0,1
1537905241001419,0,1,9,10,6,2,1,1
1537905241001419,0,-3,-22,-12,-9,-2,-1,-2
1537905241022363,0,-2,-12,0,3,1,0,-2
1537905241022363,-2,-6,6,1,-3,-1,0,-2
1537905241023360,-2,2,11,-19,-8,-2,-1,-1
1537905241023360,0,3,-5,-8,0,-1,0,0
1537905241037323,-2,-5,-2,4,6,1,0,0
1537905241037323,1,6,7,4,-1,0,1,1
1537905241044304,-1,-8,-5,2,0,0,-1,-1
1537905241044304,-2,-5,-18,-6,-5,-3,-2,-1
1537905241060261,2,8,23,-2,-1,0,1,-2
1537905241060261,-5,-8,-8,-6,-4,-3,-4,-4
1537905241061259,2,9,-29,14,2,3,0,2
1537905241061259,-1,-6,-1,-4,-2,-1,0,1
1537905241083200,1,2,7,-2,3,0,-1,1
1537905241083200,-2,-6,-5,8,-3,-2,-1,-2
1537905241083200,-2,-1,16,-8,-1,-2,-2,0
1537905241083200,0,2,1,-3,-3,-1,-1,-1
1537905241097163,-4,-2,-14,-2,1,1,-1,-1
1537905241097163,0,2,-1,-9,-10,-5,-2,-2
1537905241098160,-1,-3,3,9,2,0,1,-2
1537905241098160,3,0,-9,3,4,0,-1,1
1537905241120101,-2,-11,-9,-11,-9,-4,-2,-1
1537905241120101,0,-3,1,-1,0,0,0,0
1537905241121099,-1,-2,10,-1,7,1,-1,-1
1537905241121099,-3,-4,-31,-4,-18,-5,-2,-2
1537905241142042,1,7,6,6,4,1,0,0
1537905241142042,-2,0,17,3,-1,1,-1,1
1537905241143040,1,-1,3,4,1,-1,0,-1
1537905241143040,-1,-3,-2,-2,4,1,-1,-2
1537905241157003,-2,-4,-5,-3,0,0,-2,-1
1537905241157003,0,-4,-18,4,-1,-1,0,-1
1537905241158000,0,6,9,-15,0,0,0,-1
1537905241158000,0,-1,15,-2,1,-2,-1,-2
1537905241179941,0,-1,-13,12,-1,0,1,0
1537905241179941,-1,-1,-5,-4,4,1,0,-1
1537905241180939,-2,-2,14,2,-4,-3,0,-2
1537905241180939,-1,-1,1,19,9,2,0,0
1537905241202880,-1,0,-38,-17,-10,-3,-2,-1
1537905241202880,-3,-2,7,8,-1,1,0,-1
1537905241203878,1,6,6,-9,0,1,-1,1
1537905241203878,-3,-6,-11,-12,2,-1,0,-1
1537905241216843,0,-5,24,20,3,0,-1,-3
1537905241216843,-1,1,-10,-10,-1,0,-1,0
1537905241217840,-2,-4,-19,1,-3,-2,-2,0
1537905241217840,0,2,-3,-3,0,-2,-1,0
1537905241239782,1,2,-9,-1,1,0,0,-1
1537905241239782,-1,3,41,-14,-9,-3,-2,-1
1537905241240779,-2,-6,-17,7,11,4,1,-1
1537905241240779,0,3,16,-9,-8,-2,-1,1
1537905241262720,-2,2,-21,3,3,0,1,1
1537905241262720,-1,-4,12,-10,-7,-3,-2,-2
1537905241263717,-2,-1,-6,0,-5,-2,-2,-2
1537905241263717,-1,3,31,14,12,3,0,-3
1537905241276683,-3,-11,-27,3,-17,-5,-3,-2
1537905241276683,1,-1,-8,-20,-2,-1,-1,-1
1537905241277680,-2,1,-13,-8,-11,-5,-3,-3
1537905241277680,-1,7,51,14,-3,-4,0,-1
1537905241300619,1,3,-12,14,13,4,1,2
1537905241300619,-1,-3,-37,-38,-6,-1,-2,-1
1537905241300619,0,-1,11,31,1,1,0,1
1537905241300619,1,5,-24,7,-6,-2,-1,1
1537905241322560,-2,-2,51,11,-1,-3,-1,-1
1537905241322560,0,6,-3,10,4,1,2,1
1537905241323558,-2,-4,-6,3,3,0,-1,-1
1537905241323558,-1,-3,-6,-12,3,0,-1,-2
1537905241337520,1,2,7,0,3,0,-1,-2
1537905241337520,0,-2,-12,9,5,2,2,0
1537905241344501,0,3,34,-1,-1,-2,-1,-1
1537905241344501,-1,-5,-39,5,-4,-1,0,-2
1537905241384395,-2,-3,5,-21,-3,-1,-1,-3
1537905241384395,-1,2,9,11,3,-1,-1,-1
1537905241384395,2,2,-13,-12,-4,-1,1,1
1537905241384395,-2,-2,0,-16,-1,-1,-2,0
1537905241386389,0,1,-24,-1,-3,-1,0,2
1537905241386389,-1,2,22,7,2,-2,-2,-1
1537905241389381,1,-4,-24,13,10,1,1,0
1537905241389381,0,-1,9,-2,-6,-4,-2,-1
1537905241397360,0,1,19,-2,-5,-3,-2,-3
1537905241397360,-1,-3,10,0,0,-1,-1,0
1537905241397360,-2,-7,-51,-11,-2,-1,-2,-1
1537905241397360,2,9,26,4,9,2,1,1
1537905241420299,-2,-4,-15,-13,-8,-3,-1,-1
1537905241420299,0,-1,5,-3,-6,-3,-2,-2
1537905241421297,0,2,14,0,1,-1,0,-1
1537905241421297,-1,-5,-13,8,1,1,1,0
1537905241443238,0,1,0,-14,-10,-3,-1,-1
1537905241443238,-3,-4,-28,1,4,1,0,-2
1537905241443238,0,9,64,10,-6,-1,-2,-2
1537905241443238,0,-4,-17,17,11,3,1,1
1537905241457202,0,0,7,-1,4,0,-1,-1
1537905241457202,-2,-3,26,1,-2,0,-2,-1
1537905241458200,-1,-4,-30,-16,-7,-2,-1,0
1537905241458200,-1,-1,-7,16,5,0,1,0
1537905241480141,-2,-1,23,-7,-12,-2,-3,-1
1537905241480141,-1,-2,-53,-4,-1,-2,0,0
1537905241481140,-1,1,50,-1,1,1,1,1
1537905241481140,0,-4,-27,-9,-5,0,0,0
1537905241503078,2,1,-3,9,8,2,-1,0
1537905241503078,-1,3,9,17,3,1,-1,1
1537905241503078,-2,-4,0,-28,-13,-4,-2,-2
1537905241503078,-4,-7,-9,-10,-5,-3,-2,-1
1537905241516044,-3,-1,7,-1,-1,0,0,-1
1537905241516044,1,1,23,1,-3,2,-2,0
1537905241525020,-1,-10,-58,4,6,-1,-1,-1
1537905241525020,0,6,16,10,-5,-3,-2,-3
1537905241539979,0,-1,15,-1,2,-1,-1,1
1537905241539979,-2,-1,-8,-6,4,0,0,-1
1537905241540976,-1,-1,13,6,1,1,-1,-1
1537905241540976,-2,-4,-11,-15,-4,-1,-2,-2
1537905241562917,-2,2,-8,0,3,0,1,0
1537905241562917,1,1,0,-6,-6,-3,-1,0
1537905241563915,0,-2,1,5,1,0,0,2
1537905241563915,1,2,5,-16,-9,0,-1,-1
1537905241576880,1,-3,-8,7,5,1,0,1
1537905241576880,-1,6,-7,0,1,-1,-2,-1
1537905241584859,-2,-1,6,-2,-3,-2,-1,-1
1537905241584859,-2,-5,2,-6,0,0,-1,-3
1537905241599819,-1,2,-12,-6,-7,-4,-1,0
1537905241599819,1,-1,-5,10,-1,1,-1,-1
1537905241601814,-1,0,-4,-1,4,1,0,1
1537905241601814,-3,-1,15,-6,-1,0,-3,-2
1537905241622758,-2,-1,-10,8,-6,-3,-2,-3
1537905241622758,-1,-4,-33,-5,4,1,2,0
1537905241623755,-2,1,10,-4,-10,-4,0,-1
1537905241623755,-1,-3,-6,-7,8,0,1,0
1537905241636721,-2,1,23,10,-6,-2,-4,-2
1537905241636721,1,-2,-8,3,3,-1,-1,0
1537905241645697,-1,-2,-10,2,1,1,-1,0
1537905241645697,0,-2,-8,-11,-6,-1,-3,0
1537905241660657,0,-3,0,-8,8,2,-1,1
1537905241660657,-1,3,9,6,-10,-5,-2,-4
1537905241661656,0,-3,-21,-1,5,1,1,-1
1537905241661656,-1,3,18,10,1,-2,-1,-1
1537905241682599,-1,4,5,-12,-1,0,-2,-1
1537905241682599,2,-1,2,1,2,1,1,2
1537905241684593,0,-8,-22,-15,1,-1,-3,-2
1537905241684593,-2,1,10,14,-3,-3,-1,-1
1537905241705537,1,7,21,-1,9,4,2,0
1537905241705537,-3,-13,-41,-21,-8,-4,-1,0
1537905241706535,-1,4,20,1,-2,-3,-1,-2
1537905241706535,-2,-4,-17,29,4,2,-1,-1
1537905241720498,-2,-6,-6,-12,-6,-4,-3,-3
1537905241720498,-2,4,49,1,-2,2,0,-2
1537905241721495,4,2,-72,-7,0,0,3,3
1537905241721495,0,2,4,-10,8,-1,0,0
1537905241742438,0,-2,3,-17,-22,-4,0,-2
1537905241742438,-3,-1,8,-3,5,0,0,-1
1537905241744433,-3,-3,5,5,-10,-3,-2,-4
1537905241744433,0,5,-3,-12,12,3,0,0
1537905241756400,-2,-4,8,74,0,-4,-3,-2
1537905241756400,1,-4,-45,17,22,3,1,-1
1537905241771360,-2,2,63,-14,-29,-7,-3,-3
1537905241771360,-2,-4,-25,-5,-3,-1,-1,2
1537905241787318,-2,-10,-2,8,14,3,1,0
1537905241787318,0,6,44,-5,-7,-2,0,-2
1537905241789312,0,-4,5,60,38,8,2,0
1537905241789312,-1,2,2,-36,-26,-7,-3,-4
1537905241802278,-1,-5,-59,-12,-1,1,1,1
1537905241802278,-2,-6,-1,-3,-9,-4,-2,-1
1537905241804272,0,10,14,11,7,2,2,0
1537905241804272,1,-7,-13,-5,-1,-2,-1,-1
1537905241825216,-1,0,22,-13,5,0,-1,-1
1537905241825216,1,0,-9,-9,-6,-1,-3,-1
1537905241826214,0,2,36,-7,-8,-3,-3,-2
1537905241826214,0,-2,-12,6,2,1,2,0
1537905241840177,-3,-2,-39,-18,-8,-4,-2,-1
1537905241840177,0,-6,-37,-4,2,1,0,0
1537905241842172,0,8,28,5,-2,-1,-2,-1
1537905241842172,-1,1,48,-3,2,1,0,-1
1537905241863116,0,0,-24,-26,-1,0,-1,0
1537905241863116,-3,0,14,1,-3,-1,0,1
1537905241864115,-2,-7,-23,-19,0,0,-1,1
1537905241864115,1,-2,-21,23,-6,-2,-1,-1
1537905241893036,1,0,12,-3,-2,1,0,0
1537905241893036,-1,2,12,5,-5,-2,-1,0
1537905241894034,0,-1,5,-14,-1,-1,-2,-1
1537905241894034,0,1,3,4,1,0,0,0
1537905241900018,0,0,13,10,4,1,-1,-1
1537905241900018,-2,0,-2,-10,-3,-1,-1,-1
1537905241907998,0,-2,-19,8,4,1,1,0
1537905241907998,-2,-3,0,-7,-6,-2,-1,-2
1537905241922957,0,1,2,1,2,0,-1,0
1537905241922957,1,3,12,-3,-1,-1,-1,-1
1537905241923955,-1,-3,23,-6,-5,-1,-1,-2
1537905241923955,-1,-8,-47,-15,4,2,-1,0
1537905241944897,0,3,25,-1,-11,-4,0,-1
1537905241944897,0,-1,2,6,5,-1,-1,-3
1537905241946892,0,0,-2,12,-9,-2,-1,0
1537905241946892,1,-1,19,-9,-4,-2,-1,-1
1537905241959856,-1,0,-1,5,11,2,2,0
1537905241959856,-3,-4,-15,-4,-1,-2,-1,-2
1537905241961851,0,-7,-13,-20,-9,-3,-2,-1
1537905241961851,-1,11,11,3,2,-1,0,-1
1537905241982795,-3,-5,-14,-14,-15,-4,-1,-1
1537905241982795,0,1,12,-4,0,0,-2,-1
1537905241983793,-2,0,-2,4,1,0,-2,-1
1537905241983793,-2,-1,-10,0,2,1,0,1
1537905242005734,1,5,48,7,5,1,-1,0
1537905242005734,0,-2,-45,-1,-3,-2,-2,-1
1537905242006731,0,3,7,8,6,0,-1,-1
1537905242006731,-1,1,4,3,-7,-4,0,-1
1537905242019697,2,-1,0,9,11,3,-1,0
1537905242019697,-2,-3,9,4,-6,-1,-2,-1
1537905242026678,0,0,-12,-2,4,0,0,0
1537905242026678,0,-5,-27,-1,-2,-1,-2,0
1537905242041638,-1,-2,19,2,-1,1,1,0
1537905242041638,1,10,21,-11,1,-1,2,0
1537905242050614,-1,-2,-33,-14,-6,-1,1,-2
1537905242050614,0,0,17,-15,2,0,-2,0
1537905242065574,-3,-4,-1,12,-3,-2,-1,-1
1537905242065574,-1,-3,-12,4,5,1,-1,-1
1537905242066572,-2,-5,-4,-5,-6,-2,-3,-2
1537905242066572,-1,-1,18,-1,0,0,-1,-2
1537905242079536,0,2,-18,8,8,0,0,0
1537905242079536,-2,-4,8,2,-3,-1,0,-2
1537905242086518,-1,-2,-4,-6,-1,0,0,0
1537905242086518,0,0,18,5,-1,-1,-2,0
1537905242102475,-3,-8,-58,-10,-2,-2,0,-3
1537905242102475,0,5,32,4,1,0,-1,-1
1537905242104470,0,-2,-11,-2,2,0,0,0
1537905242104470,-2,-1,9,-4,-1,1,1,0
1537905242132395,0,-1,-6,-5,5,1,0,-1
1537905242132395,-1,-6,-20,8,-17,-6,-3,-2
1537905242134390,-2,4,39,2,-1,-1,-3,-3
1537905242134390,-1,-6,-58,-5,-5,-2,-2,-1
1537905242139377,1,2,13,-8,3,0,0,-1
1537905242139377,0,-1,-2,-9,5,2,-1,0
1537905242146358,-1,-5,25,4,-4,-2,-1,-1
1537905242146358,-2,-2,-6,1,0,-1,1,-2
1537905242162315,-1,-1,-1,2,-2,-1,-1,0
1537905242162315,1,5,-7,8,10,2,0,-2
1537905242170294,-3,-3,38,-34,1,0,-1,-1
1537905242170294,-1,-3,-68,1,-6,-3,-3,-2
1537905242185255,-3,-6,16,1,6,0,-3,-1
1537905242185255,1,4,37,0,-14,-5,0,-1
1537905242186252,-2,5,27,3,3,0,0,-1
1537905242186252,-1,-3,-59,46,29,6,2,2
1537905242199218,-2,-4,30,-36,-41,-11,-5,-4
1537905242199218,-1,0,30,5,5,2,0,0
1537905242206199,-2,-5,-48,16,14,3,1,-1
1537905242206199,-1,2,40,-2,3,-2,0,-2
1537905242223154,1,3,-31,6,4,-1,-2,-2
1537905242223154,0,1,30,43,10,2,0,2
1537905242224153,6,-5,-84,-16,-10,-2,1,2
1537905242224153,0,-3,27,-16,-6,0,2,0
1537905242245095,1,4,27,26,13,2,1,2
1537905242245095,-3,-9,-24,-47,-5,-2,-2,-2
1537905242247091,0,4,6,29,-5,-3,-2,-1
1537905242247091,-3,-2,3,9,-4,-2,-1,-2
1537905242260055,-1,-3,-11,-9,-4,0,0,0
1537905242260055,-2,-3,-26,0,-1,-1,0,-2
1537905242274018,0,2,23,-10,3,1,1,-1
1537905242274018,-1,-7,-31,-5,-5,-1,-1,-1
1537905242282994,-1,0,15,13,3,-1,-2,-2
1537905242282994,0,-2,-23,-5,-2,-1,-1,0
1537905242283991,1,1,4,4,-1,0,0,-1
1537905242283991,1,5,45,-7,-3,-2,-2,0
1537905242304936,-1,1,-22,6,12,3,0,-1
1537905242304936,0,-3,-9,-1,-3,-3,2,-2
1537905242306931,-2,-2,0,-6,-4,-4,-1,-2
1537905242306931,-1,0,22,4,0,-2,-1,1
1537905242318899,1,-2,-15,-11,-4,-1,-2,0
1537905242318899,0,-3,0,-7,-8,-2,-1,0
1537905242327875,-1,-1,-1,4,-1,0,-1,0
1537905242327875,-1,0,10,-17,-9,-1,-1,-2
1537905242342835,-2,0,2,-2,-4,-1,-1,0
1537905242342835,-1,1,-3,-3,0,0,-2,1
1537905242343832,0,-2,-12,8,3,1,0,0
1537905242343832,-1,0,-6,-3,-4,-1,-1,-1
1537905242364774,0,0,9,-10,-3,1,-2,0
1537905242364774,-1,0,47,6,3,0,0,-1
1537905242366769,1,0,-17,3,1,-2,0,1
1537905242366769,0,-2,-7,-2,-4,0,0,-1
1537905242378737,-1,-2,-14,-17,-10,0,-1,-3
1537905242378737,0,1,0,-2,1,1,-1,1
1537905242387713,-1,2,15,2,-4,-1,-2,-2
1537905242387713,-2,1,18,4,-1,-2,0,0
1537905242410652,0,2,5,5,3,1,2,0
1537905242410652,-1,-5,-34,-13,-4,2,0,-2
1537905242411649,-1,-2,-4,-11,1,1,0,0
1537905242411649,-1,0,17,-6,-11,-3,-3,-2
1537905242425612,-1,-6,-15,13,14,2,0,-1
1537905242425612,-1,1,15,2,-14,-6,-3,-1
1537905242426610,1,0,-15,-13,1,2,1,0
1537905242426610,-1,-4,11,1,-4,-2,0,-1
1537905242438578,2,6,47,-7,-1,-1,0,1
1537905242438578,-1,-11,-82,19,10,1,0,0
1537905242447554,-2,6,22,12,-12,-3,-1,-2
1537905242447554,-3,-3,-21,-16,-2,0,-1,-2
1537905242462514,0,3,13,-4,-1,0,-1,-1
1537905242462514,1,6,36,1,5,1,1,0
1537905242464509,-3,-8,-30,0,3,-1,-2,1
1537905242464509,1,1,10,0,-4,0,-2,-1
1537905242485453,-1,-3,-2,11,3,1,-1,-1
1537905242485453,-1,3,-1,-7,-2,-1,0,-1
1537905242486450,-2,-5,-11,-5,2,0,0,0
1537905242486450,-1,-1,-15,2,0,-2,1,-1
1537905242498419,0,5,22,0,-1,0,-1,0
1537905242498419,-3,-4,-30,-15,-4,-2,-2,-3
1537905242507393,1,2,38,20,5,-3,-2,-1
1537905242507393,-1,-6,-13,-27,-3,0,0,-2
1537905242522354,-3,0,0,3,-10,-5,-1,-1
1537905242522354,1,-4,-22,2,3,0,-1,0
1537905242524348,0,0,10,-6,-3,1,-1,-1
1537905242524348,0,1,-1,7,3,-1,-1,-1
1537905242544294,0,-5,-20,-4,1,-1,1,0
1537905242544294,-2,3,17,1,4,-1,0,0
1537905242561249,-2,-1,1,-16,-9,-1,0,-4
1537905242561249,-2,-1,18,19,7,1,-2,-1
1537905242561249,0,7,0,-25,-9,-1,1,-1
1537905242561249,0,-1,1,4,-3,-3,-3,-1
1537905242568231,-1,-5,-29,-1,3,0,-2,0
1537905242568231,2,3,5,-4,1,-1,0,0
1537905242583190,-1,1,16,22,4,-1,-2,-1
1537905242583190,-1,-10,-43,-30,-3,0,1,-2
1537905242584188,-1,-3,-7,4,-1,-3,-1,-2
1537905242584188,1,8,50,10,0,-1,1,0
1537905242605132,-1,-4,-40,1,2,-1,-1,0
1537905242605132,0,3,26,-3,-4,-1,-1,-2
1537905242619094,-3,-3,-15,-9,-2,-2,-1,-2
1537905242619094,0,-2,-10,2,1,1,1,0
1537905242620092,-1,0,2,0,-4,0,-1,-2
1537905242620092,-3,-1,8,3,-5,-1,0,-1
1537905242628071,0,1,-10,1,-1,-2,-1,0
1537905242628071,-1,-1,-4,0,0,-1,-1,-1
1537905242650011,0,-1,-4,-1,0,-1,-1,-1
1537905242650011,0,0,10,9,0,0,0,0
1537905242652006,-1,-2,20,1,6,1,-1,0
1537905242652006,-1,-2,-25,5,-8,-3,-2,0
1537905242664972,-1,-7,-24,-10,5,1,-1,-1
1537905242664972,1,6,46,30,4,-1,-1,0
1537905242666966,-3,-7,-10,-11,-15,-6,-2,0
1537905242666966,1,3,-7,4,5,2,-1,0
1537905242687910,-3,-4,-17,-6,-3,-2,0,-1
1537905242687910,0,3,17,1,7,2,0,0
1537905242688908,1,3,4,-7,0,1,0,-2
1537905242688908,-2,0,16,-7,-1,0,0,-2
1537905242702871,-2,-3,-9,-7,-3,-1,-2,1
1537905242702871,1,-1,-23,-1,1,0,-2,0
1537905242703868,0,1,6,3,1,-1,0,-1
1537905242703868,0,-4,-8,-2,-2,-1,-1,0
1537905242724812,0,3,9,13,7,0,1,0
1537905242724812,-1,-3,-4,-19,-13,-3,-1,-2
1537905242726808,-1,2,7,3,-1,-1,1,5
1537905242726808,0,0,9,2,3,0,-1,-6
1537905242738776,0,-4,1,-11,0,0,-4,-10
1537905242738776,-5,-5,-20,0,-8,-3,-4,-3
1537905242753737,1,-1,-14,0,0,0,-1,-2
1537905242753737,-1,-2,-12,-7,-1,0,3,5
1537905242762713,0,-3,-13,3,0,0,-1,-3
1537905242762713,1,0,13,-5,-1,-2,0,-2
1537905242763710,-1,0,27,4,1,0,0,0
1537905242763710,-1,-4,-46,7,9,1,-2,-4
1537905242784652,-2,-5,-39,-45,-16,-3,-1,0
1537905242784652,-2,3,49,-1,-18,-7,-3,-3
1537905242791634,1,1,5,3,0,-1,0,2
1537905242791634,-1,3,35,8,3,0,0,0
1537905242807591,0,0,-20,8,9,3,3,2
1537905242807591,-2,-4,7,-18,-10,-4,-1,0
1537905242809586,-2,2,-2,-2,5,0,-1,-4
1537905242809586,-1,-3,3,-5,-3,-2,-2,-1
1537905242822551,0,1,0,1,0,0,-1,3
1537905242822551,0,1,-2,2,9,2,1,-1
1537905242824546,-1,-2,-2,6,0,-1,-1,-1
1537905242824546,0,-2,-6,-6,-3,-2,-2,1
1537905242845489,0,1,19,13,0,-1,0,2
1537905242845489,0,-1,-11,3,6,2,1,0
1537905242846487,-3,2,3,-7,-3,-1,-2,-2
1537905242846487,-1,-4,-39,-7,-9,-3,-1,0
1537905242868431,-1,1,20,3,-2,-1,-2,-3
1537905242868431,1,-1,-4,1,2,1,1,1
1537905242869428,3,-1,-1,-1,-1,-1,1,-1
1537905242869428,-1,-3,10,-4,-2,0,0,-2
1537905242882394,1,4,36,10,0,-1,-3,-1
1537905242882394,-1,-6,-40,-4,3,2,-2,0
1537905242884388,-3,-3,23,12,4,-1,0,-3
1537905242884388,0,0,-41,-28,-12,-3,-2,-2
1537905242905331,3,4,0,8,-8,-5,1,0
1537905242905331,-1,-2,6,3,3,0,0,0
1537905242906329,0,-1,-4,-15,1,2,0,-1
1537905242906329,-3,-4,13,16,-3,-4,-3,-1
1537905242927272,-1,-1,-13,0,-4,0,-1,-1
1537905242927272,-2,2,4,3,-5,-3,-2,-1
1537905242929268,0,0,-20,1,-1,-1,0,0
1537905242929268,-1,2,16,3,3,1,1,-1
1537905242942232,-3,-4,-5,-1,2,1,0,0
1537905242942232,-1,2,5,1,-1,-1,-1,-1
1537905242949214,-1,-4,-3,-2,-3,-2,-2,-2
1537905242949214,-2,0,8,1,2,-2,1,1
1537905242965171,-1,1,7,5,3,-2,-2,-1
1537905242965171,1,-2,-7,-8,-4,-1,-1,1
1537905242967165,-2,-1,-6,1,-1,-1,1,0
1537905242967165,-1,1,9,-1,0,1,-3,-1
1537905242988108,-2,-6,3,7,1,-1,0,-1
1537905242988108,0,-1,-28,-17,-3,-2,-2,0
1537905242989106,0,3,18,6,-1,0,-1,1
1537905242989106,1,-1,-7,2,2,0,0,-1
1537905243002072,0,-3,-21,-4,10,5,2,0
1537905243002072,-5,-4,11,9,-15,-6,-1,-4
1537905243009052,-2,0,12,-20,-9,-1,-1,-2
1537905243009052,0,-3,-12,4,-3,-1,0,0
1537905243025009,-2,-2,1,-3,4,1,0,-1
1537905243025009,2,4,11,-1,6,3,0,0
1537905243027004,-1,-1,-12,9,-3,-3,-2,-2
1537905243027004,-1,1,17,3,1,2,-2,-1
1537905243047948,0,-1,-6,-10,-3,-2,0,1
1537905243047948,0,-2,3,9,6,-1,1,1
1537905243048945,-1,1,-17,-2,-2,-2,-2,-1
1537905243048945,0,-3,4,4,3,-2,0,0
1537905243061910,0,2,8,3,-4,-3,-1,0
1537905243061910,0,-1,-3,-6,3,1,0,0
1537905243069889,0,-1,-2,-8,1,-1,0,-1
1537905243069889,-1,0,-3,-1,0,-3,-1,-1
1537905243084850,-1,2,39,2,-3,-1,0,-1
1537905243084850,1,-10,-52,-1,4,1,0,-1
1537905243086844,0,2,28,5,-3,-1,-2,0
1537905243086844,-1,4,10,-8,-4,0,-1,1
1537905243107788,0,-6,10,3,1,0,-1,-1
1537905243107788,-2,-4,-44,-10,-1,0,0,-1
1537905243108786,2,0,-4,4,4,-1,0,1
1537905243108786,0,2,1,-10,-2,-2,1,-1
1537905243121751,-1,2,16,6,-5,-3,-3,-1
1537905243121751,0,1,7,4,0,-1,0,-1
1537905243136711,-1,-2,-15,-1,4,2,0,-2
1537905243136711,-2,1,15,2,1,0,1,-1
1537905243145687,-2,-3,-57,-6,-3,-1,-2,1
1537905243145687,-1,2,56,-2,-1,0,-1,0
1537905243146686,-2,-2,-2,-1,1,-3,0,-1
1537905243146686,1,-3,-7,-4,-5,0,-1,-1
1537905243167630,0,3,-14,2,-8,-3,-1,-3
1537905243167630,0,4,14,12,5,2,0,0
1537905243169624,0,-4,-2,-10,0,1,-2,-2
1537905243169624,-1,-3,1,7,-3,-2,-1,-2
1537905243181591,-1,-2,0,-6,3,-1,0,-1
1537905243181591,0,2,6,-4,-2,-1,-1,0
1537905243188572,-2,-3,-2,3,-1,0,0,-2
1537905243188572,0,-5,-14,-2,2,0,-1,0
1537905243205527,0,-3,-14,6,-2,0,0,0
1537905243205527,-2,1,23,2,0,-1,-1,-1
1537905243206524,-3,-2,-14,-1,-3,-1,0,0
1537905243206524,-1,-2,-22,-5,3,0,0,-2
1537905243227468,0,-2,-1,-3,-4,-3,-1,-1
1537905243227468,0,0,7,-7,0,0,1,-1
1537905243229463,-1,2,11,8,-3,-2,0,-1
1537905243229463,0,0,-3,-1,1,0,-1,1
1537905243242428,1,-2,1,-5,-2,0,0,-1
1537905243242428,-1,-2,-2,1,-1,-1,-1,-1
1537905243248412,0,-2,-6,-3,-2,-2,-2,-2
1537905243248412,0,0,8,2,-2,-2,-1,-1
1537905243264369,-3,0,0,-10,0,1,-1,-1
1537905243264369,-2,-2,-2,4,-4,-1,-1,-1
1537905243272348,-1,2,21,-7,-3,-1,-1,-1
1537905243272348,-2,-7,-61,-5,7,2,0,-1
1537905243287309,0,5,43,0,-11,-5,-2,-1
1537905243287309,0,2,-12,7,0,0,-1,1
1537905243289304,-2,-1,21,-11,1,-1,-1,1
1537905243289304,-1,2,11,15,0,-1,0,0
1537905243310248,-3,-3,-9,-5,1,-2,0,-3
1537905243310248,-1,-4,-6,-3,-1,-2,-2,-2
1537905243311247,0,-2,6,12,1,0,0,-1
1537905243311247,-2,0,-8,-2,-3,-1,-2,-2
1537905243325208,0,0,-8,3,3,-1,0,0
1537905243325208,0,0,2,0,-1,-3,0,-1
1537905243327203,0,-1,-27,-12,-1,1,1,0
1537905243327203,-3,-1,13,0,-1,0,1,0
1537905243348147,-1,2,3,-2,-2,-2,-2,1
1537905243348147,-1,-3,-2,8,1,-2,-1,-1
1537905243349146,0,-3,-13,0,-4,-1,-2,-1
1537905243349146,1,1,19,4,-1,0,-1,-1
1537905243361113,-1,-2,-10,-3,4,3,0,0
1537905243361113,-1,-1,22,6,-1,-3,0,-2
1537905243370088,1,2,-27,-15,2,1,-1,1
1537905243370088,-1,0,30,9,-5,-2,0,0
1537905243385048,0,1,-5,3,3,0,1,-2
1537905243385048,1,-1,-4,-17,-3,0,-1,-1
1537905243387042,-2,-3,-6,11,2,1,1,-2
1537905243387042,1,1,16,-2,1,0,-1,0
1537905243407985,0,-4,-24,-7,-2,-2,-2,0
1537905243407985,0,0,-5,1,1,0,-1,0
1537905243408983,-1,0,-7,1,-4,-3,-1,-2
1537905243408983,-4,-1,22,-5,-3,-2,-1,0
1537905243420951,-1,-2,-3,3,2,2,-1,-1
1537905243420951,0,4,9,4,2,-1,0,1
1537905243429927,-1,-1,-12,3,-1,0,-2,-2
1537905243429927,0,-2,-2,-6,-1,-2,0,-1
1537905243444887,0,1,16,1,-3,0,-2,-1
1537905243444887,-2,-5,-33,1,2,0,-1,0
1537905243446882,-1,2,29,0,0,0,0,-2
1537905243446882,-1,-1,-4,1,1,1,-1,-2
1537905243467826,-2,-3,3,-6,0,-1,-1,-2
1537905243467826,0,-5,-27,-9,-5,0,-2,-2
1537905243468824,-1,-3,1,9,4,-1,0,0
1537905243468824,-1,2,0,-14,-6,-3,-1,0
1537905243481789,-1,-1,13,9,0,-2,0,0
1537905243481789,-3,-2,10,-12,-3,0,-1,-2
1537905243490765,0,-1,-7,-3,-2,-3,-1,-2
1537905243490765,1,0,-34,-10,-2,0,0,-1
1537905243505726,-1,-1,-3,-6,-1,1,0,0
1537905243505726,-1,2,11,-1,-2,1,-1,1
1537905243506725,-1,1,5,2,1,2,-2,-1
1537905243506725,-1,0,27,5,3,-1,0,-2
1537905243527667,0,-2,-9,-5,-5,-2,-2,0
1537905243527667,0,0,-2,6,2,-1,-1,-1
1537905243529662,-1,-2,-1,-5,-3,-2,-1,1
1537905243529662,0,-1,-11,6,1,-1,0,-2
1537905243541630,-3,2,11,3,0,-2,-1,-2
1537905243541630,-1,0,-2,-1,0,0,1,-1
1537905243556590,-1,0,0,-1,-2,-1,0,-1
1537905243556590,-1,-3,-10,-6,-6,-1,-3,-1
1537905243565566,-1,0,2,9,3,-1,-1,1
1537905243565566,0,-2,9,-4,1,1,-1,0
1537905243566564,-3,-6,-14,-6,-6,-3,-3,-3
1537905243566564,0,3,-10,-9,-2,0,0,-1
1537905243588505,0,-1,14,-2,1,0,0,-2
1537905243588505,0,-1,-6,0,-3,-2,-1,1
1537905243589502,-1,0,-10,3,2,0,1,-1
1537905243589502,0,-2,25,7,2,0,-1,0
1537905243601469,0,-2,-41,-10,-8,-2,-2,-2
1537905243601469,0,1,6,3,5,2,0,-2
1537905243610445,1,-2,-9,-8,-7,-3,-2,-1
1537905243610445,-1,-3,-7,2,-2,-1,-2,0
1537905243625404,-1,0,14,-9,0,-1,-1,-1
1537905243625404,-1,-1,-1,7,-2,-2,-1,-1
1537905243626402,0,0,0,1,0,1,-2,0
1537905243626402,-1,1,5,2,3,0,0,-3
1537905243647346,0,-1,-1,1,0,0,0,1
1537905243647346,0,-2,-11,-7,-2,-2,-2,1
1537905243654327,-1,3,21,3,1,2,2,0
1537905243654327,-3,-4,-15,-5,-5,-1,0,-1
1537905243661308,0,2,3,9,4,1,0,1
1537905243661308,-2,-3,-4,-7,-8,-3,-3,-3
1537905243670285,0,-1,0,-2,-2,-1,-1,-2
1537905243670285,-1,2,4,1,-2,0,-1,0
1537905243685244,0,-1,-10,-1,1,-1,1,0
1537905243685244,-1,-1,-7,7,2,1,1,-2
1537905243686242,2,-1,-12,-12,3,0,-1,1
1537905243686242,1,1,18,8,2,0,-2,-1
1537905243715164,-1,-3,0,5,-7,-3,-3,-3
1537905243715164,-1,-3,-10,-8,-1,0,-3,-1
1537905243716162,0,0,27,-1,-1,0,0,-1
1537905243716162,-1,-3,-35,0,4,0,1,-1
1537905243730124,-3,-1,14,1,0,-1,1,1
1537905243730124,0,3,13,0,-3,-2,-1,-1
1537905243732119,-1,-2,-10,3,1,1,-1,0
1537905243732119,0,-1,4,-1,-3,-1,-2,0
1537905243744087,-1,-1,-2,-1,-1,-2,-1,0
1537905243744087,0,0,7,-4,-2,0,-1,-1
1537905243759047,0,0,-11,8,2,-1,0,-1
1537905243759047,-2,-2,8,-12,-1,-1,-1,-2
1537905243768023,-2,-1,-14,-4,-6,-1,0,-1
1537905243768023,0,-1,0,4,1,0,0,0
1537905243769022,0,-5,-6,-9,5,2,1,-1
1537905243769022,-3,-1,7,19,-6,-5,-2,-3
1537905243789966,-1,1,7,-1,3,1,0,-1
1537905243789966,-2,-5,-21,-2,2,1,1,-1
1537905243791962,-2,1,9,-5,-11,-2,-2,-1
1537905243791962,-1,0,-7,-7,0,2,0,1
1537905243804926,-1,-1,0,7,0,0,-1,0
1537905243804926,1,4,20,2,1,-3,-1,0
1537905243806920,-1,-3,-23,0,-1,-2,-2,0
1537905243806920,0,-1,7,-10,0,-1,0,0
1537905243826866,0,-3,18,-2,0,0,-2,-1
1537905243826866,-1,-2,-27,5,0,1,0,1
1537905243834845,-2,1,5,-8,-4,-3,0,0
1537905243834845,-1,1,8,1,-1,-1,0,0
1537905243849805,0,0,-16,-7,0,-2,1,0
1537905243849805,0,1,14,2,2,0,0,-1
1537905243851800,0,-2,0,3,-3,-2,0,-1
1537905243851800,0,-3,-17,0,2,0,0,1
1537905243864765,0,0,11,-9,-3,0,-1,-2
1537905243864765,-1,-4,-2,-2,0,-1,-1,0
1537905243871746,-2,0,-2,-2,-2,-2,-2,-1
1537905243871746,0,-1,2,-3,1,0,-2,-1
1537905243887704,-2,-1,19,3,2,0,-1,-1
1537905243887704,1,3,-18,-15,-2,0,-1,2
1537905243888702,-2,-2,-12,7,-4,-4,-4,-1
1537905243888702,0,0,0,0,-1,0,0,1
1537905243910643,0,0,16,-2,0,-1,-2,-2
1537905243910643,-1,-5,-41,-4,-4,-2,-1,-1
1537905243911641,-1,3,37,-1,3,0,-1,0
1537905243911641,-1,-3,-11,-7,-3,0,0,0
1537905243924606,-1,0,6,6,3,-1,1,-1
1537905243924606,-1,4,8,-3,-2,-3,-1,-3
1537905243931587,-1,-3,-13,4,-1,0,0,0
1537905243931587,-2,-3,8,-4,-1,-1,0,-1
1537905243947544,-1,-4,-31,4,-3,0,-2,-1
1537905243947544,-2,0,16,3,3,0,-2,-1
1537905243949540,0,0,-1,2,2,0,1,-1
1537905243949540,0,0,16,6,1,1,-1,-1
1537905243970483,0,-3,-28,-15,-3,-2,-1,0
1537905243970483,-2,1,41,6,-2,-2,0,-1
1537905243976467,-2,-3,-19,3,0,1,-1,-2
1537905243976467,-1,1,-4,10,2,-1,-1,-1
1537905243984446,-2,2,7,-14,-2,-2,-1,-1
1537905243984446,-1,-5,-16,-4,-3,0,0,1
1537905243991427,0,-2,12,0,0,0,0,0
1537905243991427,0,2,4,2,0,-1,0,-1
1537905244007384,2,3,1,4,-1,-1,-2,0
1537905244007384,0,-1,-26,0,-1,-1,-1,-1
1537905244009380,-1,1,31,-10,3,2,0,0
1537905244009380,0,0,-25,5,-5,-3,-1,0
1537905244037304,0,-3,4,3,-1,-1,-1,-2
1537905244037304,-1,2,12,-3,1,0,-1,-1
1537905244039298,-1,-1,-20,-1,-2,0,-2,-2
1537905244039298,-1,-4,2,-5,-1,-1,0,-2
1537905244044285,-3,1,9,2,-1,0,-1,-1
1537905244044285,1,-4,-21,-15,-2,-1,0,-1
1537905244059244,-1,1,10,3,-2,-4,0,-2
1537905244059244,-2,-2,4,-11,-8,-2,-3,-1
1537905244067223,0,1,-1,7,2,1,1,0
1537905244067223,-2,-3,-1,5,0,-1,0,-2
1537905244069219,0,-2,3,1,3,0,-1,1
1537905244069219,-1,2,-5,-2,-2,0,-1,-1
1537905244090162,-1,-3,-21,2,0,0,-1,-1
1537905244090162,0,-1,14,-11,-5,-2,-1,-2
1537905244091160,0,2,-5,0,0,1,2,-2
1537905244091160,0,0,3,1,0,-1,0,-2
1537905244104125,-1,-4,-6,-5,0,-1,-1,-1
1537905244104125,-2,-3,15,5,-2,-4,-2,-2
1537905244113101,1,5,-10,3,-3,-3,-1,0
1537905244113101,1,-1,8,-3,1,0,-2,1
1537905244128061,2,1,-15,1,5,2,3,1
1537905244128061,-1,-2,7,14,-3,-3,-1,-1
1537905244129058,-3,-4,-7,-7,-2,-2,-1,0
1537905244129058,-1,-2,2,4,2,-1,0,-1
1537905244150002,0,0,5,-10,-3,-1,0,0
1537905244150002,0,2,6,2,1,2,-1,-2
1537905244151998,0,-2,-12,4,2,0,-2,2
1537905244151998,-1,-1,-11,-17,-2,-2,0,-2
1537905244179923,-3,-2,16,-1,-4,-2,-2,-2
1537905244179923,0,0,-6,1,1,0,0,-1
1537905244181918,-1,0,5,-3,-3,0,0,-3
1537905244181918,-1,-2,-7,-1,1,0,1,-1
1537905244187904,-3,-2,2,0,0,-1,0,-1
1537905244187904,0,-4,-10,-1,-7,-4,-2,-2
1537905244188899,0,-3,3,1,1,1,0,-1
1537905244188899,0,1,-7,0,-4,-1,0,-1
1537905244217822,-1,1,11,2,-1,0,-2,-1
1537905244217822,0,-1,-15,-2,3,1,1,1
1537905244219819,-1,-2,-28,-7,3,0,1,-2
1537905244219819,-1,-3,-6,-2,-5,-2,-1,-1
1537905244223806,0,-2,-1,-6,-4,-2,-2,-1
1537905244223806,-2,0,21,19,-1,-2,-2,0
1537905244232783,0,-3,2,-11,-5,-2,-3,-3
1537905244232783,-1,-2,0,14,3,0,-1,-2
1537905244247741,-2,-1,-13,-6,1,-2,-1,-1
1537905244247741,-1,0,-1,-6,-2,0,-1,-1
1537905244248740,1,1,0,2,-1,-3,-1,1
1537905244248740,0,-1,1,4,2,1,0,-1
1537905244269684,-1,0,2,1,-2,0,0,1
1537905244269684,-1,0,-6,-3,0,0,-1,-2
1537905244284643,-1,-2,-8,0,-2,0,-2,0
1537905244284643,-2,-1,-2,-6,-1,-1,-1,-2
1537905244285640,0,-3,-10,3,-1,-1,-1,-2
1537905244285640,0,1,10,-5,-1,0,0,0
1537905244292623,-3,0,11,-3,0,-2,1,-1
1537905244292623,0,-1,10,13,0,-4,-1,-2
1537905244307582,0,-2,-17,-5,-6,-1,-1,-1
1537905244307582,0,0,15,10,3,0,0,0
1537905244313565,0,-1,7,5,-3,2,-1,0
1537905244313565,-3,-3,-31,-7,-2,-1,0,-2
1537905244330520,0,2,3,1,1,-1,0,1
1537905244330520,2,2,-5,-5,-1,-1,-2,-2
1537905244331518,-2,3,31,6,1,-1,0,-1
1537905244331518,1,-1,-17,2,3,1,0,1
1537905244343486,0,-3,-11,2,4,1,-1,-1
1537905244343486,-2,-4,-6,-10,-10,-3,-3,0
1537905244352462,-1,1,14,3,3,0,0,0
1537905244352462,-3,-1,-7,-7,-4,-1,-2,-1
1537905244367422,-1,1,3,-1,0,-1,-1,-2
1537905244367422,0,1,4,-1,2,0,-1,-1
1537905244369417,-1,0,-7,-6,-3,-2,0,-1
1537905244369417,-1,-3,0,-2,-2,-1,-2,-1
1537905244390360,-1,-1,4,2,-2,0,-1,0
1537905244390360,0,0,4,-2,1,1,1,-2
1537905244391359,0,-3,-11,3,-4,-2,-2,-2
1537905244391359,-1,-1,20,-8,4,0,-1,-1
1537905244404323,-1,-5,-28,4,-1,-1,-1,-1
1537905244404323,1,5,31,2,2,-1,-1,-1
1537905244420282,0,-1,-18,-1,1,0,-1,0
1537905244420282,-1,-1,2,3,3,2,0,1
1537905244427261,0,-1,1,-11,-5,-2,1,-2
1537905244427261,-3,-4,-6,-1,1,1,-1,0
1537905244429256,1,-1,-12,-3,-5,-5,-1,-2
1537905244429256,-4,-4,5,-6,-4,-2,-2,-2
1537905244450200,-1,5,13,-2,0,-1,-1,-2
1537905244450200,-3,-3,1,-4,-3,0,0,-1
1537905244451197,0,-5,-27,-2,-1,-2,1,-1
1537905244451197,1,6,28,-1,0,2,0,0
1537905244464162,-1,-6,-6,10,-3,-4,0,-1
1537905244464162,1,-1,-3,1,-2,-1,-2,1
1537905244473139,-3,-1,1,-1,-1,-1,-1,-1
1537905244473139,1,-1,-9,-10,-4,-2,0,0
1537905244488099,-1,1,10,6,0,0,-1,-2
1537905244488099,-1,-3,-6,1,2,-1,-2,-2
1537905244489096,0,-2,-15,0,-2,-1,-1,-2
1537905244489096,-2,-2,0,-4,-3,-1,1,0
1537905244510040,1,5,35,2,0,-1,0,-1
1537905244510040,-2,-2,-18,-4,-2,-1,0,-1
1537905244512035,-2,-3,2,-2,3,0,-1,1
1537905244512035,-2,-2,15,8,4,0,0,-1
1537905244524004,0,-2,-26,-7,-1,-2,-2,0
1537905244524004,-1,-2,0,-4,-3,-3,1,1
1537905244532980,1,1,20,6,4,2,0,2
1537905244532980,1,-1,-13,-2,-3,-1,-2,1
1537905244547939,-2,-3,-3,-11,-3,1,-1,-1
1537905244547939,0,1,2,-2,-1,0,1,-1
1537905244548937,-2,-4,-8,3,-5,-3,-3,-3
1537905244548937,0,2,6,4,4,1,0,0
1537905244569882,0,-2,1,1,-6,-4,-2,-1
1537905244569882,-2,0,-8,-1,0,0,-1,-1
1537905244571877,0,0,6,-3,-1,-1,1,-1
1537905244571877,-1,-1,-5,0,-3,-2,0,-1
1537905244583843,-1,1,8,-2,1,0,-2,0
1537905244583843,-1,0,-20,1,3,0,0,0
1537905244592821,-1,0,17,-1,-2,-1,0,-2
1537905244592821,1,-1,-23,0,-3,-2,-2,-2
1537905244607780,-1,-1,8,2,4,0,-1,0
1537905244607780,0,1,12,-1,-1,-3,-1,-1
1537905244608778,0,-1,-14,-3,0,0,-2,-1
1537905244608778,-1,3,9,-2,0,-1,0,-1
1537905244629720,-1,-2,-14,-2,1,-1,-1,0
1537905244629720,-1,-1,1,2,-2,-1,-1,-1
1537905244631715,-2,-4,-11,-4,-1,-3,-1,-1
1537905244631715,0,-1,9,10,-5,0,-2,-3
1537905244652658,0,1,5,1,0,0,0,-1
1537905244652658,0,-3,-13,-9,0,-1,0,-1
1537905244653656,2,0,11,7,4,2,0,-2
1537905244653656,-1,-1,-1,2,-2,-1,-2,0
1537905244668616,-2,-3,-11,-1,-1,0,1,-1
1537905244668616,0,-2,-1,3,-2,0,-2,0
1537905244669613,-1,1,0,-1,1,1,0,-1
1537905244669613,-1,-1,4,-5,-1,-3,-1,0
1537905244697539,-3,0,8,4,-1,-2,-1,-1
1537905244697539,-1,-1,-3,-7,-1,1,1,0
1537905244699533,-2,4,11,-6,-2,-2,-1,-1
1537905244699533,1,-4,-9,3,-1,-1,2,-3
1537905244712498,1,-4,-6,-6,0,1,0,0
1537905244712498,-2,1,11,4,-1,-3,-2,-2
1537905244714493,-1,-2,-6,-5,0,0,0,0
1537905244714493,1,-1,-24,-2,-3,-3,-2,0
1537905244727458,-1,2,6,-2,2,-1,0,0
1537905244727458,0,0,-4,8,0,-1,0,0
1537905244729453,1,-1,12,-20,-3,0,-1,0
1537905244729453,0,-3,-1,-5,5,0,-1,0
1537905244750397,-1,-3,4,-2,-12,-4,-2,-1
1537905244750397,0,1,-3,2,-2,-2,0,-1
1537905244751394,-1,1,-1,2,0,1,0,0
1537905244751394,0,1,6,-9,4,0,0,-1
1537905244772338,2,-1,-7,8,-1,0,-1,-1
1537905244772338,0,-1,-2,-4,0,-2,-1,-1
1537905244774333,-1,-2,-9,1,-2,-1,0,0
1537905244774333,-1,0,3,0,-4,0,-2,-1
1537905244787298,0,0,-6,-3,1,-2,0,-1
1537905244787298,1,-1,8,4,-3,-2,-1,-2
1537905244794280,0,-1,-17,2,-1,-2,1,-1
1537905244794280,-1,-3,2,-3,-3,-1,-2,-1
1537905244810237,-1,0,3,-7,1,2,0,-1
1537905244810237,0,1,0,-2,2,-1,0,0
1537905244811235,-2,-1,-1,12,0,-1,-2,-1
1537905244811235,-1,-2,-8,-21,-8,-2,1,-1
1537905244833177,-3,0,20,4,-6,-4,-3,-1
1537905244833177,-2,-3,-32,-9,2,0,0,0
1537905244834175,0,1,4,-1,-5,-2,-2,0
1537905244834175,-1,-3,9,15,5,2,0,-1
1537905244847139,-1,3,13,-2,-2,-2,-1,-1
1537905244847139,-2,-4,-19,-10,-4,-1,0,-1
1537905244854121,-1,4,29,8,2,0,-1,-3
1537905244854121,-1,0,-13,6,0,-2,-1,0
1537905244870078,1,1,-4,-18,-2,-1,-1,-1
1537905244870078,-2,-7,-5,4,-1,-1,-1,-1
1537905244872072,1,2,0,-6,-1,0,-1,-1
1537905244872072,-1,-3,8,1,0,0,0,0
1537905244892019,-1,-2,-23,0,1,1,0,0
1537905244892019,0,0,6,9,2,-1,-2,-1
1537905244893017,-1,-1,-5,-8,-9,-2,-2,-1
1537905244893017,-2,-1,9,-4,0,0,-2,-1
1537905244905981,-1,-1,-10,24,6,1,1,1
1537905244905981,-1,0,7,-13,-7,-2,-1,-1
1537905244914958,-1,-2,3,4,4,-2,0,-2
1537905244914958,-2,-1,-4,1,0,-1,-1,-2
1537905244929918,-1,-3,-3,2,0,0,-1,-1
1537905244929918,-1,2,6,3,0,1,-1,-2
1537905244929918,1,-2,-1,-1,-2,-1,0,0
1537905244929918,-2,0,-4,-6,0,-1,0,0
1537905244951859,-2,-1,-4,5,-2,-1,-1,-1
1537905244951859,0,-4,16,1,1,-1,2,0
1537905244952857,0,3,-10,-5,-4,1,-1,-2
1537905244952857,1,-3,19,3,1,-1,1,1
1537905244974798,-1,-1,-43,-6,1,0,-1,0
1537905244974798,0,2,11,-1,0,-3,-1,-3
1537905244975795,0,0,-11,11,10,2,1,2
1537905244975795,-2,-6,16,-26,-16,-5,-3,-2
1537905244989758,-1,1,6,2,-3,-1,0,-1
1537905244989758,0,1,4,-6,-2,-1,-3,-1
1537905244989758,0,1,-4,-1,0,-2,-1,1
1537905244989758,0,2,-8,11,4,2,0,-2
1537905245011699,0,0,3,-7,0,-2,0,-3
1537905245011699,1,1,-12,3,-2,0,-1,0
1537905245012697,-1,-5,2,0,-1,-1,-1,0
1537905245012697,0,2,-1,-1,-1,1,-1,0
1537905245026659,-1,-3,6,-5,0,0,0,1
1537905245026659,0,3,1,2,1,0,-1,1
1537905245034638,1,-3,-7,-3,0,-1,-1,0
1537905245034638,-1,-2,-5,1,-2,-2,-1,0
1537905245049597,-1,1,8,-9,-3,0,0,1
1537905245049597,0,-1,-2,3,-1,-1,0,1
1537905245050595,-1,-1,2,-1,-2,-1,-2,0
1537905245050595,-1,-1,6,-7,1,1,1,-2
1537905245071539,0,-9,-9,2,4,0,-1,-2
1537905245071539,1,5,-23,-5,-1,0,0,0
1537905245072537,-1,10,-2,-6,-4,-1,-2,0
1537905245072537,1,-14,19,19,5,0,0,-1
1537905245086500,-1,1,-6,-11,-5,-2,-3,-3
1537905245086500,-3,-7,-11,0,-1,-2,-1,-1
1537905245094477,-2,-4,-7,-2,-1,-1,0,-3
1537905245094477,2,14,12,0,0,-1,0,1
1537905245117416,-2,-8,-7,7,0,-2,0,-1
1537905245117416,-2,-2,-9,-10,-2,0,0,-2
1537905245118413,-1,-2,11,1,-3,-2,-2,-1
1537905245118413,-2,-1,-4,-5,-3,-2,0,-1
1537905245132376,0,-4,-7,1,1,-1,-1,-1
1537905245132376,0,3,2,8,2,1,-1,-2
1537905245132376,0,-6,8,-10,1,0,0,-1
1537905245132376,1,0,-14,-5,-8,-2,-3,0
1537905245146338,1,1,3,-6,3,0,0,0
1537905245146338,-1,-4,13,8,-5,-3,-2,-1
1537905245154317,-4,1,-3,1,-1,-1,-1,-1
1537905245154317,0,7,-13,3,4,-1,-1,-1
1537905245169277,-1,7,12,-1,1,-1,0,-1
1537905245169277,-3,-20,0,-8,-2,0,0,-2
1537905245170275,3,24,10,5,2,-1,1,1
1537905245170275,-4,-11,-15,-1,-1,-2,-2,0
