timestamp,emg1,emg2,emg3,emg4,emg5,emg6,emg7,emg8
1537921663244757,-2,-11,-4,-2,-1,-3,6,-6
1537921663244757,5,10,8,2,-1,-3,0,-7
1537921663244757,19,18,0,0,0,3,4,3
1537921663244757,-48,-19,-6,-3,-1,3,-6,-22
1537921663245755,-20,1,-1,-1,0,-5,-5,-27
1537921663245755,19,4,-4,0,-4,-3,-2,-2
1537921663249744,-22,-10,1,-3,-2,2,0,-2
1537921663249744,22,7,-2,0,-1,-6,-1,-1
1537921663263707,31,5,-2,-1,0,0,-2,5
1537921663263707,-71,-19,-1,-2,3,9,2,-5
1537921663264704,11,-12,3,-2,0,-3,-1,-9
1537921663264704,16,1,1,1,2,1,-10,-13
1537921663274678,0,14,0,-1,-3,-10,1,18
1537921663274678,-4,6,1,-1,1,3,-1,-6
1537921663288640,22,-9,-2,1,-4,-5,-8,-36
1537921663288640,-29,16,4,-1,-1,1,-3,7
1537921663293627,21,5,3,1,-2,-1,0,24
1537921663293627,16,-11,-1,-1,-3,-4,2,18
1537921663303600,0,-2,-3,-2,0,0,0,-3
1537921663303600,-17,6,-1,0,-3,-1,10,-9
1537921663318560,-1,-23,-2,-1,1,3,2,-11
1537921663318560,3,-2,-2,-4,1,-3,-2,-4
1537921663323548,-1,15,6,1,2,5,19,9
1537921663323548,22,-25,0,0,-1,0,-3,-3
1537921663370422,22,0,-5,-1,-2,0,1,2
1537921663370422,10,-5,-2,-2,-3,-2,0,3
1537921663371419,4,-9,-1,-6,-2,-5,0,-2
1537921663371419,5,-10,2,-1,0,2,1,8
1537921663373414,-7,6,1,0,0,-2,-1,-1
1537921663373414,-2,-1,-2,-1,1,-3,-1,-4
1537921663375408,0,11,-2,3,-1,-2,-1,0
1537921663375408,-4,-8,-5,-3,-1,1,0,-2
1537921663383387,-9,-8,0,-2,-3,-3,-1,-2
1537921663383387,4,0,2,0,-1,0,-1,-1
1537921663392363,-42,-25,-2,-1,1,3,-1,-4
1537921663392363,8,4,-3,2,1,-1,-2,-1
1537921663398347,10,-4,-2,0,1,-2,0,6
1537921663398347,-18,-6,2,0,0,1,2,8
1537921663413307,3,-16,3,1,0,2,1,1
1537921663413307,-7,-3,-1,-1,-2,-3,-4,-11
1537921663420288,-18,-13,-5,-1,3,2,-1,0
1537921663420288,39,69,-11,-4,-5,-6,2,3
1537921663429264,-61,-65,14,3,5,3,0,-15
1537921663429264,-2,26,-1,0,-1,0,0,-2
1537921663443227,15,4,2,-1,-1,1,0,-2
1537921663443227,0,2,-5,0,0,-1,-3,-5
1537921663452203,35,21,-7,-2,-2,-4,-1,1
1537921663452203,1,11,2,1,0,-1,4,-4
1537921663458187,-17,0,0,-3,-4,1,-1,-7
1537921663458187,4,-15,1,0,-2,1,3,1
1537921663473147,15,22,-1,-1,1,0,-2,6
1537921663473147,-10,-20,1,-3,0,-1,-7,-1
1537921663481126,14,8,0,-2,-4,-3,0,-2
1537921663481126,-13,-9,1,1,0,1,-3,-2
1537921663490101,11,15,-3,0,-3,0,6,-8
1537921663490101,-1,0,-2,-2,-1,-2,-4,-3
1537921663503067,1,-2,1,-1,2,1,0,2
1537921663503067,-4,-11,4,-1,1,0,-1,-1
1537921663512043,4,11,-1,0,-1,-1,-1,-15
1537921663512043,14,7,-4,-1,-1,1,9,2
1537921663518027,-9,-6,-1,1,0,-1,-6,-12
1537921663518027,-9,-17,2,-2,-1,-1,-7,3
1537921663532987,11,9,-2,-3,-2,0,-3,-3
1537921663532987,-5,-1,0,-1,-1,0,-2,0
1537921663540966,-4,-3,1,1,0,-1,-4,-14
1537921663540966,3,1,-8,-1,0,-6,-11,33
1537921663549942,26,-11,-17,-9,-6,-5,14,7
1537921663549942,-2,-58,28,11,9,11,-23,-6
1537921663562907,-53,-67,-14,-5,-1,-5,-25,78
1537921663562907,2,-111,32,16,9,10,-4,79
1537921663571883,96,92,-7,3,-1,0,14,23
1537921663571883,-32,-71,4,-4,-3,-12,-17,-55
1537921663577867,3,31,41,9,4,11,8,55
1537921663577867,52,19,-28,-2,-2,0,19,68
1537921663592827,65,35,11,7,-1,-8,-6,3
1537921663592827,-38,76,-55,-16,-14,-19,-19,110
1537921663600805,-61,-82,53,12,8,12,-7,-105
1537921663600805,57,127,5,2,-2,11,6,10
1537921663609782,22,35,-48,-16,-9,-16,-10,-19
1537921663609782,127,58,15,-2,-6,-19,20,-19
1537921663622747,-76,24,-61,-13,-6,-19,3,-35
1537921663622747,-85,-69,29,-2,7,10,-8,-59
1537921663631723,38,46,46,3,-2,-4,13,-22
1537921663631723,57,4,58,26,12,23,-7,88
1537921663638704,-40,-62,-42,-12,-3,6,17,46
1537921663638704,-64,46,-3,-12,-5,-18,-49,-128
1537921663653664,1,0,2,4,4,8,0,7
1537921663653664,60,89,-50,-20,-13,-24,21,21
1537921663668624,57,-20,96,33,11,21,6,64
1537921663668624,-54,-4,-93,-25,-12,-6,5,33
1537921663675606,-44,-65,11,-2,0,4,13,124
1537921663675606,56,76,1,5,8,20,4,99
1537921663683584,23,79,-70,-21,-8,-8,-21,-44
1537921663683584,-27,-10,37,9,2,3,24,-99
1537921663692561,-128,-44,71,20,11,14,31,-118
1537921663692561,-41,-112,-11,-9,-11,-18,15,-78
1537921663698544,-21,-3,-42,-17,-13,-25,-15,-52
1537921663698544,42,-99,-16,-3,1,3,9,88
1537921663713504,5,13,-92,-29,-11,-23,-1,42
1537921663713504,-65,64,106,36,25,38,-8,-40
1537921663720486,-82,-100,10,2,1,9,7,0
1537921663720486,67,-20,5,0,2,9,8,0
1537921663735446,-39,18,-12,-6,-4,-2,-20,11
1537921663735446,6,-69,-45,-16,-3,-1,-5,-42
1537921663743425,-9,82,1,1,-3,-5,-2,52
1537921663743425,-31,-43,19,6,3,4,18,50
1537921663752400,3,-44,-8,2,0,-1,-29,10
1537921663752400,31,-128,-48,-12,-5,1,31,34
1537921663758385,-30,120,110,27,13,5,-2,3
1537921663758385,41,-6,-22,-2,-8,-9,11,7
1537921663773344,19,-46,-2,5,5,14,-5,-4
1537921663773344,-55,14,3,2,1,-1,-8,22
1537921663789302,126,-17,-37,-11,-4,-3,27,33
1537921663789302,-6,13,0,-3,-4,-9,-5,5
1537921663795285,32,-44,25,3,2,4,3,6
1537921663795285,-69,89,-6,-10,-4,-12,-20,-80
1537921663803264,59,-77,-33,-9,-5,-4,5,-3
1537921663803264,47,14,43,11,1,4,7,61
1537921663812240,2,-28,32,14,6,10,-22,7
1537921663812240,5,-56,-19,-7,-5,-3,2,28
1537921663818224,63,-12,-17,-2,-4,-10,-33,66
1537921663818224,-3,10,0,2,4,2,3,-14
1537921663833184,-4,-13,-14,-5,-5,-4,2,19
1537921663833184,-19,-19,6,5,4,32,-11,-10
1537921663840166,-18,29,7,2,0,-17,-3,-53
1537921663840166,5,5,-9,-3,-1,-12,-34,-21
1537921663856123,-13,26,0,0,1,19,-6,6
1537921663856123,-35,-12,-3,0,-2,-83,-37,20
1537921663863104,14,-4,-2,-2,-2,16,24,-15
1537921663863104,-3,16,-7,-2,8,7,-15,-33
1537921663872080,17,22,-7,-6,-13,-21,-2,-20
1537921663872080,3,18,5,3,5,34,14,-38
1537921663878064,-18,5,-11,0,8,8,-11,-23
1537921663878064,-39,3,3,-6,-15,-57,-24,31
1537921663893024,4,7,5,9,32,99,38,26
1537921663893024,39,0,-3,-4,-25,-67,-25,-21
1537921663901003,-44,15,-1,-2,6,14,25,-46
1537921663901003,23,26,-4,-2,-16,20,0,-41
1537921663915963,-66,-17,-3,-4,1,-16,12,12
1537921663915963,6,11,3,1,6,28,20,75
1537921663922944,1,-9,3,-3,1,22,-18,-47
1537921663922944,-15,-9,-1,0,4,-38,-5,11
1537921663931920,75,9,-1,-4,-18,-39,-6,59
1537921663931920,-22,-21,0,0,4,14,-54,17
1537921663945883,-28,-14,0,2,-4,-18,-3,46
1537921663945883,53,15,-1,2,0,37,18,-4
1537921663952864,-15,-2,-2,0,4,1,-12,-48
1537921663952864,-59,-14,0,-2,-5,-9,36,-19
1537921663960843,45,-21,11,3,-2,-1,-11,51
1537921663960843,5,13,1,0,5,5,-4,-5
1537921663975803,16,-11,-7,3,-1,-5,2,-17
1537921663975803,-35,-16,-10,-8,0,16,-29,-2
1537921663982784,23,23,-5,1,-3,-2,-6,-3
1537921663982784,-10,-9,2,3,5,1,-4,9
1537921663991760,-15,-1,2,-2,-5,-3,-1,-32
1537921663991760,16,0,3,3,9,8,36,24
1537921664006720,-36,-10,-8,-17,-1,6,0,-15
1537921664006720,-13,-44,-3,8,1,11,1,-39
1537921664012704,11,19,0,0,-5,-18,-10,13
1537921664012704,15,20,3,2,1,5,4,-14
1537921664020683,77,11,-6,13,0,2,2,8
1537921664020683,-87,1,-1,11,0,2,27,-55
1537921664035643,-28,-48,-6,-23,2,-5,-6,-14
1537921664035643,46,4,4,-28,0,0,15,-35
1537921664043622,-15,11,-13,-20,-3,-9,-4,-6
1537921664043622,9,18,2,2,2,1,-9,-40
1537921664052598,60,20,14,23,1,-13,-9,25
1537921664052598,-89,-7,-4,15,0,3,-2,-22
1537921664066561,18,-41,0,8,-5,9,15,86
1537921664066561,8,39,-8,-3,-3,-10,-21,24
1537921664073542,-21,-23,1,2,0,-5,-42,5
1537921664073542,8,-10,-8,-2,-5,10,33,-35
1537921664080523,2,-6,5,4,-1,-9,-11,-2
1537921664080523,-8,5,-1,-5,2,7,3,25
1537921664095483,30,12,-3,-8,-3,-8,-20,2
1537921664095483,-35,-20,-7,3,1,8,13,3
1537921664103462,6,28,2,0,-1,-14,-2,-81
1537921664103462,16,6,11,9,6,-9,-43,41
1537921664112438,4,7,0,-1,-2,1,-11,53
1537921664112438,10,-22,1,-6,-1,4,1,-85
1537921664126401,27,50,-5,-7,1,-4,16,-26
1537921664126401,-84,-43,0,-1,11,31,20,12
1537921664133382,-17,-14,-7,-1,-1,-8,-4,-48
1537921664133382,35,16,4,7,1,-4,-10,59
1537921664140364,24,15,8,3,-3,1,0,41
1537921664140364,14,1,-2,-6,-5,-3,1,-24
1537921664179259,-32,20,-3,-3,1,10,12,-42
1537921664179259,-11,43,10,7,1,10,19,-23
1537921664181254,30,-24,-8,-6,3,9,0,-21
1537921664181254,84,25,2,-6,-9,-31,-46,-16
1537921664194219,-103,-5,-3,-6,-8,-6,22,7
1537921664194219,-45,-61,-6,-5,-5,-12,-32,4
1537921664196214,11,12,8,8,9,19,-17,49
1537921664196214,33,0,-5,-2,-8,-52,4,30
1537921664209179,1,-24,2,2,8,14,18,-29
1537921664209179,-11,-8,-6,-5,2,5,4,16
1537921664211174,-58,-41,-1,19,-5,6,-10,-3
1537921664211174,1,0,-6,-19,-6,5,29,-17
1537921664224139,22,-13,-6,-5,-9,-10,18,82
1537921664224139,-22,-4,-1,3,-6,-13,0,18
1537921664224139,-1,-6,-6,-3,2,12,-4,28
1537921664224139,12,41,5,1,-2,14,43,-19
1537921664247078,48,10,-2,-2,-2,-31,8,-6
1537921664247078,-9,13,-4,1,-5,-25,-14,-32
1537921664248075,-28,-13,-5,-14,-9,-25,1,5
1537921664248075,-11,-24,-7,-5,2,18,18,-38
1537921664261040,81,12,2,-1,0,11,2,-13
1537921664261040,17,27,-9,2,0,5,6,3
1537921664262038,47,-7,-4,-3,-6,-17,3,42
1537921664262038,2,-19,-8,-1,-5,-20,8,-10
1537921664283979,-2,9,-7,-3,-3,4,-2,-29
1537921664283979,55,19,-5,0,1,2,6,5
1537921664284977,-71,17,8,2,0,-6,-6,-128
1537921664284977,-12,26,8,6,12,40,4,69
1537921664306918,4,3,-1,6,-2,-38,-42,-69
1537921664306918,48,-20,-3,-4,-8,-21,8,54
1537921664307915,-81,19,-13,-7,1,7,5,-38
1537921664307915,18,-58,-3,4,5,12,0,20
1537921664321878,-27,28,-5,-8,-3,12,23,-11
1537921664321878,24,-45,-3,-4,6,26,24,-31
1537921664321878,6,19,-5,-2,0,-24,-7,-59
1537921664321878,-50,-1,-2,3,1,-5,7,30
1537921664342822,30,3,-3,-2,3,10,0,14
1537921664342822,36,15,4,1,5,29,1,-7
1537921664351798,57,10,1,11,9,11,18,72
1537921664351798,-59,-41,-10,-8,-5,-4,-38,-3
1537921664366758,-5,19,1,2,2,18,-14,-32
1537921664366758,16,1,7,9,7,-6,-14,31
1537921664372743,-7,-2,-5,-7,2,4,15,-11
1537921664372743,5,-2,-8,-2,4,8,-7,57
1537921664389697,-6,-45,7,-1,0,15,5,16
1537921664389697,17,56,2,-3,5,-3,11,-10
1537921664390694,38,10,-3,-1,-1,-1,2,13
1537921664390694,38,14,-1,-2,-2,9,-8,-31
1537921664411638,-75,-21,2,2,12,20,4,-22
1537921664411638,-8,-1,1,1,0,2,-13,18
1537921664413633,-7,-7,4,2,0,3,8,66
1537921664413633,43,17,6,0,7,-7,-28,-6
1537921664426598,-8,21,-2,-4,-1,4,11,66
1537921664426598,17,-44,-3,-5,1,1,-6,10
1537921664433580,-40,1,1,3,3,16,-7,-2
1537921664433580,20,22,6,5,3,5,20,-22
1537921664449537,0,12,-1,4,2,21,17,52
1537921664449537,4,-12,2,-5,-14,-35,-19,-17
1537921664450534,40,7,4,-4,3,44,-29,38
1537921664450534,-12,-10,-2,0,-4,-31,22,-33
1537921664472476,64,11,4,10,7,-9,-6,-3
1537921664472476,5,0,4,1,2,-1,-2,6
1537921664473473,6,5,-5,-5,-1,2,12,-45
1537921664473473,38,24,0,-4,-1,-11,3,21
1537921664486438,11,3,-1,1,1,-2,-5,-30
1537921664486438,-81,-9,-1,1,3,24,9,-35
1537921664493419,39,22,8,5,-1,-37,-25,-11
1537921664493419,-15,8,1,-1,0,20,3,9
1537921664509377,3,6,0,-2,0,4,11,-46
1537921664509377,-16,3,-5,-3,-3,-24,-5,35
1537921664511372,7,-12,0,-1,-5,-16,-11,-38
1537921664511372,2,-6,-4,-5,-7,7,-12,-51
1537921664532315,-34,-35,-7,-4,-1,-12,-11,30
1537921664532315,17,47,4,14,-2,9,-32,21
1537921664533313,61,-13,-2,-4,6,-9,22,23
1537921664533313,-78,-35,-4,-7,-2,-12,-4,-27
1537921664546278,13,19,1,0,-2,-2,3,-34
1537921664546278,29,1,3,-3,2,1,0,32
1537921664553260,-9,11,-2,8,0,-1,12,-32
1537921664553260,37,32,-1,-6,1,10,-9,-10
1537921664569217,-65,-4,-1,-1,-3,9,4,-4
1537921664569217,9,-16,-2,-4,1,27,9,-22
1537921664571212,5,-1,5,-1,-9,-23,7,24
1537921664571212,50,7,3,-2,0,3,17,-9
1537921664592155,-79,-23,0,-4,2,-3,-29,5
1537921664592155,32,3,0,2,-3,-1,8,-63
1537921664593153,28,21,-6,-9,-4,-6,-4,19
1537921664593153,-93,-11,-4,0,-4,-14,-16,-35
1537921664606118,92,-9,2,0,-5,-23,-11,17
1537921664606118,32,2,0,1,2,30,1,12
1537921664613100,-19,-31,-7,-8,3,4,11,14
1537921664613100,1,-15,4,7,6,11,-5,-8
1537921664630054,9,4,-2,-1,-2,-4,-4,11
1537921664630054,-47,-8,-2,-2,-1,11,5,42
1537921664631052,-22,-16,-1,-2,-2,-9,-4,-1
1537921664631052,28,15,-2,2,0,19,5,-8
1537921664651996,-3,14,-1,-2,-4,-17,-3,5
1537921664651996,26,20,-1,-6,8,11,10,-10
1537921664653990,-38,12,-4,-7,-10,-6,-29,-56
1537921664653990,61,5,2,5,-1,-9,-1,57
1537921664665958,-32,7,-3,-5,1,8,1,-14
1537921664665958,-28,11,-3,7,-2,-7,13,-32
1537921664672939,29,4,1,4,3,4,11,33
1537921664672939,-41,-21,6,-4,2,2,11,-58
1537921664689894,91,21,5,3,-6,-9,-4,64
1537921664689894,-33,3,-9,-9,0,-10,-17,-79
1537921664690892,-35,-42,-3,-2,-2,21,34,-27
1537921664690892,60,-2,-3,5,-1,-3,20,41
1537921664711836,-32,-15,0,4,3,-24,17,-7
1537921664711836,51,-7,7,2,-1,-3,-22,66
1537921664713831,-12,42,0,1,4,10,0,-68
1537921664713831,-22,23,-2,4,4,13,-11,35
1537921664726796,-27,4,-6,-10,-2,14,-1,-33
1537921664726796,46,15,4,6,-1,3,-6,42
1537921664732780,-27,12,1,-1,-3,-10,-12,-4
1537921664732780,25,40,0,-11,-3,0,-5,-15
1537921664749734,10,37,-1,-2,-1,10,3,-3
1537921664749734,-28,11,-2,-5,1,4,0,-28
1537921664750732,-4,14,7,4,1,9,3,74
1537921664750732,3,15,8,5,-4,-13,-34,56
1537921664779654,-3,9,-5,-3,-2,-3,1,9
1537921664779654,2,33,7,-1,1,-19,-8,-3
1537921664780652,8,34,-4,3,-2,-23,15,1
1537921664780652,5,24,-3,-5,0,-2,-36,28
1537921664786636,1,10,1,5,2,23,-2,-13
1537921664786636,-14,10,-2,-4,-10,-26,12,30
1537921664793617,9,8,3,1,2,12,-7,32
1537921664793617,-1,11,-1,-9,-3,-30,-1,-21
1537921664809574,-12,9,-3,4,-4,4,-5,-5
1537921664809574,-36,2,-2,-1,-5,-7,-24,35
1537921664810572,20,-4,-4,-15,-10,-13,22,-33
1537921664810572,-3,21,0,0,-4,2,22,-33
1537921664832513,-8,13,1,-1,-4,-29,-9,-1
1537921664832513,-12,-15,-1,0,0,0,18,-14
1537921664833511,-3,-25,-1,-1,-3,2,-6,9
1537921664833511,-4,-11,-1,1,-6,-11,-6,17
1537921664846476,-10,-29,4,-3,0,8,-9,-23
1537921664846476,-11,-41,-7,4,-7,-40,4,-13
1537921664853457,-4,-34,-1,0,3,-11,-10,27
1537921664853457,-15,-60,-2,-1,-5,7,9,6
1537921664861436,-1,-43,6,6,5,-2,-2,-7
1537921664861436,9,-43,-3,-8,-7,-3,0,8
1537921664862433,-10,-42,-6,0,-5,-3,-15,-34
1537921664862433,0,-22,-6,0,-3,-2,23,-37
1537921664877393,-20,-19,-2,3,-5,-6,4,6
1537921664877393,-20,-15,-5,-2,-4,11,-10,-40
1537921664884374,-23,6,-5,-1,-4,-3,8,15
1537921664884374,38,38,-3,2,-4,-3,11,-45
1537921664898337,-10,13,-7,-4,-7,-3,6,-3
1537921664898337,-10,34,-3,-6,0,23,11,33
1537921664914294,26,18,5,5,5,-4,-22,82
1537921664914294,-3,14,-4,-2,-10,-28,-26,-58
1537921664944214,-31,16,-3,-1,-5,-9,-1,-15
1537921664944214,5,-19,-9,-7,0,9,12,-45
1537921664952193,-7,5,-6,2,2,3,-6,9
1537921664952193,20,-8,9,3,0,-8,12,9
1537921664959174,-18,2,-8,-8,-4,-7,-8,-14
1537921664959174,18,2,3,0,-1,-8,-6,31
1537921664959174,-10,-21,3,2,-1,1,-20,-28
1537921664959174,-40,-21,-8,7,3,11,8,-15
1537921664967153,24,-12,-6,-17,-6,2,10,0
1537921664967153,-9,0,-5,4,1,-1,2,-15
1537921664968150,1,-26,-4,-4,-5,-4,6,-17
1537921664968150,-45,-35,-4,-6,-2,2,-7,33
1537921665004054,0,-26,8,2,0,1,1,-30
1537921665004054,-18,-5,-5,-1,-3,1,1,-1
1537921665012033,18,-15,0,5,3,21,-16,24
1537921665012033,-9,-15,-3,-7,-9,-14,15,-8
1537921665026993,-7,3,-3,4,3,2,-35,-12
1537921665026993,-3,-14,0,-2,-4,-10,4,9
1537921665028987,7,0,1,1,-1,18,9,-10
1537921665028987,-22,-1,1,3,0,-2,-3,9
1537921665040956,63,-8,-1,-5,-1,-11,2,70
1537921665040956,-76,-21,-5,4,4,12,-22,-42
1537921665041953,15,7,-4,-7,-8,-20,5,-9
1537921665041953,0,-3,1,-2,6,8,6,9
1537921665055916,59,0,-4,-1,0,1,-6,38
1537921665055916,10,14,3,2,3,3,-7,12
1537921665064892,1,3,-6,-3,0,-10,-7,-13
1537921665064892,-18,-10,-6,-2,3,24,23,10
1537921665079852,-5,-5,0,4,5,7,20,-14
1537921665079852,27,8,1,0,4,3,13,-42
1537921665080849,-2,18,-1,-2,0,-2,1,-3
1537921665080849,26,14,-2,1,1,6,-7,3
1537921665094812,19,11,2,2,0,6,4,31
1537921665094812,-24,-27,1,3,3,-2,8,39
1537921665095809,4,7,-4,3,1,9,16,-18
1537921665095809,4,2,-1,-4,7,8,1,4
1537921665109772,-11,8,-2,2,1,-7,0,-8
1537921665109772,51,-2,-1,-8,4,45,9,26
1537921665110769,3,11,3,-4,1,-13,-25,6
1537921665110769,-2,-5,-2,-2,-10,-8,-7,35
1537921665131713,19,3,2,7,8,-1,-12,11
1537921665131713,20,8,1,-1,2,-4,-26,5
1537921665133708,-25,-8,-2,5,7,28,13,32
1537921665133708,23,7,7,-4,5,11,-19,-1
1537921665145676,4,4,2,-5,2,10,8,-7
1537921665145676,-18,12,3,4,2,-21,2,7
1537921665154652,31,13,2,-1,2,4,5,-4
1537921665154652,-3,11,0,-2,7,6,8,49
1537921665169612,3,-9,-3,8,-2,8,-13,-37
1537921665169612,3,14,1,-7,0,7,14,-26
1537921665170609,-13,6,-1,-2,1,8,1,-17
1537921665170609,-20,-23,0,-1,-1,-14,-16,25
1537921665191554,11,13,-1,-1,2,17,14,15
1537921665191554,11,4,-1,-1,0,-28,7,12
1537921665193548,0,-8,0,-2,-4,-10,-25,-13
1537921665193548,6,12,0,-1,6,18,-4,-10
1537921665198534,-36,7,1,-1,-3,-10,-17,-7
1537921665198534,1,11,6,2,-2,7,-5,11
1537921665207511,24,8,1,-7,-3,16,20,-10
1537921665207511,16,-4,3,3,0,-14,5,-35
1537921665243414,-33,6,-2,-5,-2,3,2,26
1537921665243414,-3,4,3,1,-1,-6,-10,-17
1537921665253388,34,-6,2,2,1,1,4,-8
1537921665253388,-27,24,0,-1,0,13,-9,-39
1537921665267350,-21,-11,0,-3,-1,-5,-11,-21
1537921665267350,37,-19,3,-1,-6,-2,28,-19
1537921665268348,-57,-5,0,-2,2,-1,2,42
1537921665268348,-38,-3,-6,-5,-7,-7,-6,-53
1537921665281313,18,-11,-3,1,2,-1,11,10
1537921665281313,19,-8,-5,-3,-4,-15,-12,29
1537921665282311,29,-3,0,-1,-6,-10,-1,69
1537921665282311,18,7,3,1,-1,0,5,28
1537921665296273,-36,-23,4,1,-4,0,17,-16
1537921665296273,27,9,-7,-5,-4,6,-10,-44
1537921665303254,1,-8,2,1,-7,-14,2,0
1537921665303254,-38,-16,-1,0,0,0,-18,-16
1537921665319212,30,-8,0,-4,-10,-16,8,-6
1537921665319212,-50,6,-3,1,-3,-5,-10,3
1537921665321207,-10,-13,-3,-2,-1,-10,-14,-38
1537921665321207,-13,-13,-6,-3,-3,-9,-10,8
1537921665334172,43,16,0,4,4,4,9,19
1537921665334172,-23,-6,-4,-8,-8,-10,-8,56
1537921665336167,-22,-13,-7,0,-3,-1,-13,-95
1537921665336167,51,8,-1,-1,-8,0,8,-23
1537921665349132,7,3,-3,-1,2,-2,-8,0
1537921665349132,-81,-7,-5,-1,-2,-4,0,-45
1537921665351127,28,22,2,0,0,-4,9,46
1537921665351127,11,-22,-7,-5,-7,-3,6,14
1537921665371073,-16,-1,-3,0,-5,-5,-6,20
1537921665371073,30,10,3,0,3,-4,-17,-52
1537921665380050,-19,-13,-7,5,-1,-7,-2,7
1537921665380050,-23,-4,-3,-3,2,13,7,-2
1537921665395009,6,-16,-2,-4,-6,-10,5,5
1537921665395009,-34,-31,-5,-3,1,9,7,36
1537921665396007,11,1,-1,-2,-2,-8,-8,-21
1537921665396007,11,-2,-1,1,-1,-10,-13,32
1537921665409969,-7,6,-1,3,-1,1,6,9
1537921665409969,23,-9,0,0,0,-4,-10,47
1537921665410967,-15,-8,-4,-5,0,3,-20,-16
1537921665410967,-6,-10,-1,3,-1,-9,12,31
1537921665431911,-4,-12,-2,-3,-2,8,1,26
1537921665431911,-15,-6,-6,-2,-4,-6,-6,-11
1537921665433906,-27,-20,-10,-6,-5,-5,-5,-15
1537921665433906,5,-27,-1,0,1,-1,-4,20
1537921665454849,-2,25,0,1,1,-3,5,-23
1537921665454849,17,-6,0,3,1,3,18,32
1537921665455847,-7,-21,-2,-8,-3,3,22,8
1537921665455847,18,16,2,6,2,4,-2,3
1537921665468812,-27,-16,-5,-4,1,2,-8,-24
1537921665468812,17,-5,5,0,2,2,6,-12
1537921665475793,17,19,1,4,4,5,22,4
1537921665475793,31,34,1,3,-4,2,-6,0
1537921665491751,-52,-41,-4,-3,4,9,-8,-17
1537921665491751,12,16,-5,1,3,3,10,-8
1537921665493745,20,22,2,4,2,3,14,28
1537921665493745,-34,-36,-3,-7,4,-2,-2,29
1537921665514689,42,-10,3,0,3,6,-6,-21
1537921665514689,6,35,-5,-2,-1,2,0,-38
1537921665515687,-26,4,3,2,6,5,1,24
1537921665515687,23,-10,0,-1,1,12,13,2
1537921665528652,23,18,0,-4,5,2,-10,-3
1537921665528652,-2,-3,3,-1,4,5,13,107
1537921665535633,28,10,2,3,-1,1,-14,19
1537921665535633,-102,-43,-8,-1,5,15,9,9
1537921665551591,53,8,2,0,1,7,-1,-3
1537921665551591,11,-5,3,-3,-4,1,-5,1
1537921665553586,-30,6,-5,-2,0,3,-7,-3
1537921665553586,31,5,-3,-4,4,8,9,-15
1537921665574529,2,10,5,-1,-3,-1,5,-26
1537921665574529,-19,-38,-8,-2,1,4,-3,-11
1537921665575527,22,34,4,3,2,-2,5,-10
1537921665575527,-77,-49,-2,-4,6,16,-12,-24
1537921665588492,-29,19,-4,2,0,17,2,-7
1537921665588492,-3,8,8,1,1,-53,-16,-49
1537921665595473,-35,-38,-5,13,11,0,-9,-4
1537921665595473,114,30,4,-22,-16,-5,6,33
1537921665612428,-78,2,-2,1,3,-2,-5,25
1537921665612428,16,25,3,-2,1,8,-9,-28
1537921665613426,-7,-34,-1,3,5,17,5,-53
1537921665613426,33,28,1,7,-5,-8,-11,0
1537921665634369,31,-10,1,0,-3,-12,8,14
1537921665634369,-2,-4,1,4,-1,9,5,10
1537921665636364,32,4,1,-4,-7,-10,0,22
1537921665636364,5,48,3,6,0,-6,-13,-5
1537921665649329,9,5,-6,-11,-5,-4,8,-14
1537921665649329,-27,16,2,10,5,5,4,17
1537921665655314,-10,-30,-2,-12,-7,-2,0,4
1537921665655314,-1,-7,1,2,-2,0,9,-17
1537921665672268,23,0,0,1,2,-9,-8,-5
1537921665672268,-1,-17,1,0,-2,22,-7,3
1537921665673266,48,19,2,-2,0,-16,1,-24
1537921665673266,-68,11,-2,-1,1,-2,-37,-91
1537921665694209,18,13,0,5,2,0,13,55
1537921665694209,50,11,-1,-2,-8,11,3,27
1537921665696204,4,2,-4,-10,-5,9,8,13
1537921665696204,-32,-10,1,2,0,-8,9,20
1537921665709169,64,8,2,-1,-6,-2,-14,-19
1537921665709169,-4,-8,0,-5,1,5,3,-11
1537921665715154,-23,0,2,6,0,3,5,-6
1537921665715154,46,25,1,4,-1,-7,3,32
1537921665732108,-60,-32,-3,-8,-4,-2,-12,-3
1537921665732108,29,3,-2,0,-1,-9,4,11
1537921665733105,-11,11,0,-5,-8,-7,1,-21
1537921665733105,-20,-22,-3,-2,4,5,-6,15
1537921665754050,17,14,-1,-4,-7,-6,13,17
1537921665754050,41,22,-1,2,2,-9,-16,-23
1537921665756044,-80,-9,-1,-2,0,9,-1,-60
1537921665756044,84,13,-2,-3,-5,4,11,27
1537921665792946,-55,11,-4,-7,-4,-14,-12,26
1537921665792946,-4,-14,-4,-1,-1,-7,17,9
1537921665794940,-18,-17,-3,1,-2,3,4,4
1537921665794940,49,18,1,4,-3,-3,0,-19
1537921665806908,-25,-25,-4,1,0,1,-1,63
1537921665806908,7,-29,-3,-4,-1,5,4,-11
1537921665808903,26,-1,9,2,1,1,-9,16
1537921665808903,-86,-61,-2,-5,5,2,4,-10
1537921665820871,56,-1,-6,-2,4,20,-3,-42
1537921665820871,21,18,-7,3,-1,-14,14,-42
1537921665821868,-34,12,-7,-8,-1,0,-12,33
1537921665821868,-48,-16,4,-3,6,16,9,4
1537921665835831,5,9,-1,8,7,7,-21,-2
1537921665835831,44,8,-4,-4,5,8,-6,14
1537921665842812,42,33,0,2,1,-4,5,9
1537921665842812,48,26,0,2,7,14,16,36
1537921665859767,29,5,1,0,4,-4,3,-45
1537921665859767,-45,25,-6,-1,0,-3,-28,-61
1537921665860765,42,10,0,0,3,-3,-9,43
1537921665860765,1,5,0,3,3,9,7,9
1537921665874727,39,20,3,1,-2,5,17,0
1537921665874727,-2,11,4,-3,-1,2,-21,17
1537921665875724,-6,-11,-1,-5,4,5,-1,-5
1537921665875724,40,32,-3,-2,2,-13,-8,-49
1537921665887692,-13,12,1,3,3,7,11,0
1537921665887692,-61,-21,3,4,4,13,4,35
1537921665896668,32,20,1,1,6,7,-2,14
1537921665896668,34,25,5,3,3,0,5,21
1537921665911628,-36,-1,1,-2,5,6,2,0
1537921665911628,-4,21,3,-1,2,5,-5,17
1537921665913623,43,1,3,5,5,8,-7,-18
1537921665913623,7,5,-2,0,-2,-6,-8,-7
1537921665934567,-2,3,4,-2,0,-3,-11,24
1537921665934567,55,12,-2,-4,-3,-5,-6,-17
1537921665935564,-90,6,-4,-5,3,4,-5,-55
1537921665935564,69,24,6,-1,-4,-6,-3,-4
1537921665948529,-33,13,1,2,2,8,-11,15
1537921665948529,-8,27,4,8,0,0,5,8
1537921665964487,42,5,5,-3,2,1,-10,-27
1537921665964487,-29,-8,1,-2,-3,-6,-2,3
1537921665972466,33,18,1,-7,-5,9,13,-4
1537921665972466,-62,-44,0,-7,1,6,13,13
1537921665973463,-4,-14,-3,3,2,-10,-8,32
1537921665973463,-11,20,-2,2,2,9,17,-21
1537921665994407,9,-12,7,-3,-3,6,-2,-3
1537921665994407,-24,-3,-2,-3,-4,-3,13,-11
1537921665996402,23,11,1,-2,-3,-6,4,23
1537921665996402,8,-13,5,-1,-5,-9,-16,5
1537921666008370,-27,28,1,5,-5,-4,-7,28
1537921666008370,53,6,0,-4,0,-5,-3,-23
1537921666017346,-14,-7,-2,1,-7,1,7,54
1537921666017346,-55,-6,-1,1,0,-5,-6,-34
1537921666032305,-12,-24,0,-2,3,-12,-8,-11
1537921666032305,38,24,6,-2,-2,-6,-11,21
1537921666033303,-11,-12,-1,-2,-7,-3,8,10
1537921666033303,-1,-12,-1,4,-1,5,6,26
1537921666054247,-18,-3,-4,2,0,-7,3,-23
1537921666054247,-33,-23,-1,-6,-5,13,-9,40
1537921666056242,38,-8,-1,-9,-6,-50,-9,-20
1537921666056242,-10,-5,-1,-2,0,-2,4,21
1537921666068210,-26,-2,-1,0,-2,1,21,-17
1537921666068210,5,-17,0,5,0,-3,-13,-26
1537921666077186,15,22,1,-2,-3,5,2,-23
1537921666077186,-9,20,-3,-2,-4,-16,-26,-25
1537921666092146,25,7,-2,-4,-5,-20,3,-4
1537921666092146,-15,-6,0,0,1,6,-6,-76
1537921666093143,7,8,-3,3,0,6,4,17
1537921666093143,-76,-27,-4,-3,-1,2,11,14
1537921666114087,47,-7,-2,2,-1,5,-8,4
1537921666114087,-42,-4,-4,-6,-1,-10,19,-33
1537921666116082,-31,-15,1,5,4,9,-6,6
1537921666116082,15,-8,-2,-6,-9,-1,13,1
1537921666128049,15,-10,-4,-2,3,4,8,43
1537921666128049,-18,0,0,3,-1,1,10,-1
1537921666137026,12,8,-1,-7,-4,9,3,-13
1537921666137026,-35,-9,-3,3,0,6,6,5
1537921666151985,-13,-15,1,-1,1,-3,-7,-9
1537921666151985,81,10,1,-4,-8,-10,-4,51
1537921666153980,-85,-59,-7,-2,4,3,-10,-20
1537921666153980,17,3,0,1,1,7,1,15
1537921666174924,33,11,-2,-2,-2,-6,5,-2
1537921666174924,4,15,-1,1,-3,-2,-32,88
1537921666175922,44,16,4,3,-7,0,-2,-41
1537921666175922,-61,-36,-8,-6,1,-3,1,22
1537921666187889,-28,-20,1,-1,-9,-2,-5,37
1537921666187889,21,-17,-1,3,2,16,7,18
1537921666196866,6,28,0,-8,-4,-6,-8,-16
1537921666196866,16,11,1,0,1,-3,-19,-2
1537921666211826,14,25,-1,-2,1,-2,0,-23
1537921666211826,-22,-5,-6,-8,-4,17,11,-28
1537921666213820,-1,24,4,2,-4,-3,-2,49
1537921666213820,54,22,1,-1,2,-1,-8,-42
1537921666234764,-46,-20,-2,-5,-1,-17,-10,-6
1537921666234764,-11,-21,-2,-1,1,-8,5,53
1537921666235762,-7,-8,-3,3,3,7,0,-96
1537921666235762,28,7,0,-8,-3,-8,4,23
1537921666256706,8,12,-2,3,0,6,11,0
1537921666256706,10,28,2,-2,-1,-14,-13,-107
1537921666258700,-3,10,-3,-2,-3,-5,-8,96
1537921666258700,12,16,6,3,2,2,-23,31
1537921666271666,10,8,0,3,-2,-1,-10,-18
1537921666271666,-41,-11,-2,-2,3,4,13,-2
1537921666277650,17,4,1,4,2,6,17,21
1537921666277650,15,6,0,4,-5,-6,3,-24
1537921666294604,-9,-23,0,-5,4,1,-9,13
1537921666294604,17,6,1,-5,-7,-7,-12,-17
1537921666295602,-5,-34,0,-1,-1,4,-3,27
1537921666295602,-6,-14,2,3,1,-6,3,15
1537921666316546,8,-11,1,5,-1,7,4,-46
1537921666316546,-32,-40,-5,-10,-4,-6,0,7
1537921666318540,18,-4,1,2,-3,-3,-1,20
1537921666318540,18,5,5,3,-3,-11,12,-31
1537921666331505,-16,2,-7,-6,-3,7,-10,11
1537921666331505,7,18,0,6,-1,-9,-5,20
1537921666333500,-28,5,-4,0,-3,-19,8,13
1537921666333500,-3,19,-3,-7,-4,0,-6,-42
1537921666369404,5,26,2,9,-3,6,-6,3
1537921666369404,17,11,-2,-11,-4,-16,6,10
1537921666375388,-28,6,-1,0,-1,3,6,-5
1537921666375388,-15,13,-1,4,2,5,2,-25
1537921666392343,-1,19,-4,-2,-1,-9,-3,3
1537921666392343,1,-2,-2,3,0,1,3,4
1537921666393340,9,28,8,0,1,5,4,-16
1537921666393340,-25,-4,-7,-4,-2,-6,-10,-2
1537921666407303,-1,4,-9,-2,-6,-6,13,22
1537921666407303,-10,-11,-2,8,0,8,-7,-1
1537921666408301,20,2,-1,-9,-14,-47,-8,-18
1537921666408301,17,5,2,-4,-9,-8,8,-5
1537921666421266,-38,-44,-2,-2,-3,14,4,23
1537921666421266,-10,14,-5,0,-5,-10,-2,-84
1537921666422263,8,-22,-1,0,-4,3,-17,-65
1537921666422263,21,-15,1,2,-1,0,4,48
1537921666437223,-36,-23,0,-1,-3,-11,5,-1
1537921666437223,3,-17,2,0,0,-1,-6,43
1537921666438220,-16,-1,-5,0,-2,11,15,-63
1537921666438220,17,3,-2,-5,-7,-7,-24,-1
1537921666450188,-4,-15,-3,-2,-2,-3,-7,-69
1537921666450188,28,6,-2,2,-2,-4,20,91
1537921666459164,-11,-21,-5,-4,-4,-5,-9,10
1537921666459164,-111,-47,-4,-1,-2,3,4,46
1537921666474125,41,-11,-1,-1,-2,-10,6,-57
1537921666474125,-8,8,-1,-3,-3,-7,-18,-106
1537921666476119,35,-10,-1,1,2,3,8,84
1537921666476119,-30,-5,0,0,-4,0,-1,-18
1537921666480108,-10,-9,-1,-1,0,-8,-9,9
1537921666480108,-45,-37,-4,-3,-4,-4,-1,65
1537921666490082,89,11,-1,1,-2,1,6,-48
1537921666490082,-34,15,-2,0,0,-3,-1,17
1537921666504045,23,20,-1,-3,-5,-6,-8,60
1537921666504045,-28,-15,-3,0,0,-3,5,-37
1537921666511026,-25,-12,-2,0,-3,-7,-5,52
1537921666511026,23,-16,-2,0,0,1,1,-17
1537921666525986,19,10,-1,1,-2,-3,18,17
1537921666525986,33,-14,-5,-5,1,4,-13,27
1537921666542941,-89,-2,-4,-3,-1,-2,-32,-81
1537921666542941,1,9,0,-2,-3,-3,9,14
1537921666543938,23,-6,3,2,2,-2,-11,15
1537921666543938,-33,-29,-8,0,2,6,-1,-18
1537921666549922,3,-6,1,1,1,14,17,21
1537921666549922,32,-5,2,0,-3,-13,0,-20
1537921666563884,-3,24,0,-1,-1,-5,-18,-37
1537921666563884,53,14,0,-1,-3,-3,40,-26
1537921666570866,-17,14,-3,-4,-1,-7,-53,-29
1537921666570866,-76,-34,-2,-1,1,7,10,-6
1537921666586823,36,1,1,-3,-4,-2,3,-27
1537921666586823,2,23,2,4,5,5,0,-47
1537921666588818,35,-7,0,-2,-6,-9,7,30
1537921666588818,6,4,-5,-4,-1,-3,-17,-18
1537921666600786,-33,-3,1,-1,0,-2,9,-25
1537921666600786,-19,-11,-1,-3,-1,4,-5,30
1537921666609762,23,11,2,0,1,4,16,5
1537921666609762,42,19,4,6,-1,2,8,54
1537921666623725,-54,-28,-5,-2,0,-1,-16,-18
1537921666623725,42,21,4,4,-2,-4,0,65
1537921666630707,-26,-21,0,1,2,5,11,15
1537921666630707,10,4,1,-1,-1,-7,3,0
1537921666646663,-73,-35,-8,-9,-5,8,1,52
1537921666646663,23,9,6,5,5,-4,-3,-62
1537921666648658,-18,-6,-6,-5,-1,-6,-2,-8
1537921666648658,44,11,3,2,5,1,-19,5
1537921666660626,51,5,3,1,-7,-10,4,16
1537921666660626,-116,-48,-9,-6,3,12,-24,-48
1537921666669602,13,-5,-1,2,-6,-16,10,24
1537921666669602,13,-10,1,-4,-2,2,-4,-33
1537921666715479,-19,-16,1,-2,-2,2,5,4
1537921666715479,2,19,1,1,-2,-3,5,46
1537921666717474,-12,-14,0,2,2,7,8,70
1537921666717474,-25,-29,-8,-7,2,5,-10,-94
1537921666729442,35,4,2,2,1,-8,-1,15
1537921666729442,17,24,2,2,-3,-2,6,23
1537921666731437,-26,-7,-4,-4,4,6,-4,8
1537921666731437,34,39,-2,-3,-9,-12,-4,-10
1537921666744402,3,-26,-3,-4,2,1,-4,22
1537921666744402,-50,-9,-7,4,-5,-10,-12,-56
1537921666746397,37,18,11,-1,-1,-1,-4,-52
1537921666746397,-26,-10,-2,-2,-1,1,14,35
1537921666758365,10,14,1,3,-2,-3,18,-37
1537921666758365,53,3,2,-1,-9,-8,-1,99
1537921666767341,-50,-7,-3,-1,-2,-7,2,-14
1537921666767341,22,-11,-3,2,-5,-4,7,41
1537921666781303,-27,11,0,-1,-2,-3,-1,-26
1537921666781303,17,10,2,-2,-4,-7,-6,25
1537921666782301,-11,-7,-1,1,0,1,15,-40
1537921666782301,3,-4,-2,0,-2,6,6,10
1537921666797260,-5,5,-2,1,-4,-10,-11,73
1537921666797260,-3,-14,-1,-1,-5,7,5,-5
1537921666798258,-1,-9,-3,-5,-4,-7,8,64
1537921666798258,-13,-9,0,2,-2,0,-10,-30
1537921666810226,0,6,-1,-1,-3,-6,-1,-18
1537921666810226,32,19,6,1,-2,-7,10,-14
1537921666819202,-49,-4,-6,2,1,3,-25,-60
1537921666819202,12,-14,-5,-6,-7,-11,4,48
1537921666834162,4,7,1,0,-2,0,-8,-4
1537921666834162,38,15,4,1,-4,-12,1,55
1537921666836157,-49,-37,-7,-7,-3,-3,-11,51
1537921666836157,9,-10,3,5,-1,-3,-4,-13
1537921666857101,40,17,-8,-1,-3,-8,-3,-94
1537921666857101,40,-14,5,1,1,-2,14,57
1537921666858098,51,22,-8,-1,-6,-7,-4,-31
1537921666858098,-73,-56,-5,-6,-4,2,5,94
1537921666871064,-47,-31,-7,-4,-3,-2,-27,-88
1537921666871064,118,28,2,-2,-6,-7,7,-79
1537921666880040,-64,-5,-7,0,-4,-4,-13,-6
1537921666880040,9,19,-11,-5,2,-1,4,-32
1537921666886024,83,28,8,1,-1,0,10,39
1537921666886024,43,2,2,8,1,-3,11,64
1537921666900984,44,20,-5,-7,-8,-6,-17,-67
1537921666900984,-77,1,0,0,-2,-6,-21,-86
1537921666909960,36,-62,-7,-5,-3,2,9,49
1537921666909960,-27,-21,-10,-7,-3,-1,-9,-22
1537921666910958,-19,-30,10,3,5,6,12,34
1537921666910958,-33,6,-3,1,2,0,8,11
1537921666923923,-12,65,4,0,-7,-12,4,2
1537921666923923,-128,-74,-11,-5,-3,-2,-24,-43
1537921666930904,49,-11,1,-2,2,1,4,18
1537921666930904,52,-7,1,4,0,-2,-1,-35
1537921666945864,-51,-55,-3,2,4,6,6,7
1537921666945864,42,66,-10,-3,-4,-5,-3,11
1537921666952845,-58,-27,9,7,-1,5,2,-32
1537921666952845,99,42,-16,-11,-1,-4,-18,6
1537921666969800,16,29,8,3,0,0,3,9
1537921666969800,50,-26,2,-1,0,-2,8,19
1537921666970798,-2,21,0,2,1,4,-6,-85
1537921666970798,19,31,12,4,-2,-3,4,26
1537921666983762,27,7,-16,-8,-4,-9,-9,51
1537921666983762,13,-3,19,5,1,1,-7,58
1537921666990744,127,63,0,0,-5,-7,2,8
1537921666990744,5,-41,-20,-6,1,3,16,-9
1537921667006703,-7,106,-3,-4,-5,-16,-21,-22
1537921667006703,-35,-46,0,-1,2,14,10,18
1537921667012685,-32,-100,-5,4,2,2,8,51
1537921667012685,60,17,46,10,1,-3,-5,-12
1537921667029640,-24,61,-25,-5,0,3,-20,-38
1537921667029640,-128,-80,30,8,9,14,-11,34
1537921667030637,4,111,-29,-11,-2,0,-19,-38
1537921667030637,96,-35,21,8,2,-4,13,-27
1537921667043602,-79,-20,-14,1,1,6,-1,108
1537921667043602,73,71,-46,-19,-18,-31,-20,-47
1537921667051581,84,-106,75,20,11,17,16,57
1537921667051581,-42,-69,8,8,3,11,0,-5
1537921667066541,39,-37,-50,-16,-9,-16,-19,-15
1537921667066541,-54,41,30,12,4,2,18,41
1537921667073522,54,5,-3,3,-1,6,9,75
1537921667073522,2,-12,-97,-41,-18,-28,-26,51
1537921667089480,-89,-128,127,54,26,40,25,33
1537921667089480,-69,-81,-84,-21,-7,-2,4,24
1537921667090477,-21,6,-34,-9,-6,-12,20,45
1537921667090477,-128,-123,67,22,15,31,14,29
1537921667103442,35,-62,-78,-30,-10,-16,-11,-93
1537921667103442,-35,37,94,9,8,6,-8,-128
1537921667112419,-97,-59,-30,-9,2,10,-18,-70
1537921667112419,24,11,0,0,-2,-1,7,25
1537921667126381,78,53,-39,-15,-11,-19,4,64
1537921667126381,59,32,-1,10,0,0,2,-12
1537921667134360,25,65,-19,-14,-6,-14,-1,-5
1537921667134360,35,111,19,5,-3,-3,-11,-24
1537921667149320,46,-62,-17,-6,-4,3,17,0
1537921667149320,-7,-110,16,6,6,7,-8,-38
1537921667151315,43,-39,-30,-6,-9,-17,4,62
1537921667151315,-100,10,-14,-6,0,2,-14,-61
1537921667163283,112,-30,35,10,4,10,39,104
1537921667163283,102,64,-22,-7,-5,-3,-7,-67
1537921667172259,-53,-5,23,11,5,5,5,52
1537921667172259,-67,-29,-35,-7,-1,4,25,116
1537921667186221,23,-70,25,11,4,6,-4,10
1537921667186221,65,92,-22,-6,-4,-14,-8,-14
1537921667193203,-73,123,5,-5,-9,-14,-27,-65
1537921667193203,90,-80,-5,1,1,7,11,38
1537921667209160,-15,97,10,0,-2,-4,13,-7
1537921667209160,31,101,-29,-6,-7,-15,-17,-13
1537921667211155,35,-60,34,9,7,14,8,-25
1537921667211155,-13,-44,20,4,4,3,12,-3
1537921667223123,0,30,-52,-16,-5,-8,-17,-15
1537921667223123,-101,-128,88,30,16,26,-9,107
1537921667232099,-14,-50,-9,-2,-3,-3,6,85
1537921667232099,127,58,7,2,-3,-12,12,44
1537921667246062,-39,4,-27,-12,-3,0,-25,-44
1537921667246062,15,-12,-1,-3,0,5,13,23
1537921667253043,34,-6,-33,-6,-1,-5,6,-8
1537921667253043,-2,-11,55,13,1,2,29,38
1537921667269000,46,-45,11,3,0,2,-4,-31
1537921667269000,-43,0,-30,-11,-4,-5,3,-43
1537921667275981,16,15,26,2,-3,0,4,-9
1537921667275981,81,101,-40,-9,-4,-11,-17,-79
1537921667283960,-117,49,28,5,3,-1,0,-5
1537921667283960,-7,-37,3,0,2,-1,5,-35
1537921667290941,77,-18,-5,-1,-2,3,20,46
1537921667290941,33,83,-15,-7,-10,-16,-20,0
1537921667327843,-67,-26,2,2,-1,2,-7,-21
1537921667327843,20,92,-19,-2,-3,0,6,48
1537921667338813,60,44,-41,-14,-9,-19,-24,-34
1537921667338813,-82,11,43,9,7,13,-22,-128
1537921667351778,-27,-46,9,2,3,11,9,-7
1537921667351778,23,-14,-33,-12,-7,-5,4,31
1537921667353773,35,-34,-14,-1,1,-4,-3,15
1537921667353773,-103,-58,-4,-1,2,4,-11,-13
1537921667366738,61,79,22,4,-2,-5,17,-3
1537921667366738,-41,9,-11,-7,0,1,-9,-12
1537921667372722,-57,12,33,3,4,8,-1,34
1537921667372722,25,-19,-19,-4,0,0,-16,17
1537921667396658,-17,-18,-2,-4,4,4,2,29
1537921667396658,47,-31,-11,-6,-1,-2,-6,38
1537921667398653,-60,-26,-5,1,4,7,14,21
1537921667398653,-18,-75,4,0,5,6,-10,-10
1537921667404637,-3,-14,17,2,7,12,-6,0
1537921667404637,29,-2,10,5,4,4,-8,-13
1537921667405635,-2,-12,-12,-5,0,3,-4,-29
1537921667405635,38,-1,-1,-2,-2,-6,3,24
1537921667418600,-79,72,0,-2,0,-7,-6,-16
1537921667418600,75,-97,-3,-5,5,16,18,17
1537921667419597,-25,-30,39,5,5,7,2,-3
1537921667419597,26,33,-13,-5,-3,-4,-20,-32
1537921667433560,61,-55,-36,-8,-1,2,3,-8
1537921667433560,-64,-11,2,6,-2,-8,-5,-8
1537921667441538,-22,-83,36,12,13,16,-34,29
1537921667441538,99,-69,-56,-14,-6,-3,8,3
1537921667456499,34,76,61,13,-1,-3,3,16
1537921667456499,-97,-116,-37,-11,1,15,5,20
1537921667458493,60,22,-49,-13,-9,-12,-2,-5
1537921667458493,56,88,16,3,-6,-18,-17,2
1537921667479437,-30,-94,17,12,8,16,27,14
1537921667479437,14,127,-25,-16,-11,-19,-9,-6
1537921667481432,-88,-41,55,24,7,12,12,-17
1537921667481432,58,-66,-13,-4,1,10,27,49
1537921667493400,-61,66,6,-12,-18,-35,-20,-34
1537921667493400,-3,-58,63,24,14,30,6,7
1537921667509357,108,-13,-29,-9,-8,-8,-4,14
1537921667509357,-77,-16,16,1,-3,-6,-2,-23
1537921667517336,56,-90,-23,-2,0,-1,10,36
1537921667517336,-25,6,-9,-8,-8,-14,-16,-7
1537921667518334,-81,78,31,5,-1,-7,-16,-31
1537921667518334,-12,38,2,6,0,0,5,11
1537921667539277,20,21,2,-3,-2,3,-8,10
1537921667539277,-36,10,-22,-9,-7,-8,5,7
1537921667541272,56,11,-2,-1,-2,-7,1,-42
1537921667541272,-22,47,1,-3,-4,-7,-4,-1
1537921667553240,2,-22,-15,-3,-1,4,0,-17
1537921667553240,62,1,13,2,-4,-8,1,8
1537921667562216,80,1,-15,-6,-5,-9,5,19
1537921667562216,-115,-35,-2,0,3,2,-9,-28
1537921667577176,30,5,2,4,-2,-3,-8,-5
1537921667577176,17,-11,7,1,-2,-5,-1,-5
1537921667578173,-18,20,-13,-9,-4,-6,-1,-1
1537921667578173,4,14,-8,-4,-8,-11,-2,0
1537921667599117,-16,-40,-3,1,4,6,1,0
1537921667599117,5,31,2,0,-5,-9,-4,-18
1537921667599117,-20,-12,-6,-4,0,-1,2,-11
1537921667599117,7,-5,-3,-1,-3,-2,5,15
1537921667621059,-22,-12,-9,-5,0,0,-6,-17
1537921667621059,-38,42,21,7,2,-7,-3,4
1537921667630035,-35,0,-3,-3,-6,-4,1,0
1537921667630035,16,-6,7,2,1,3,0,9
1537921667632029,37,17,-3,-4,-4,-4,-4,-3
1537921667632029,29,-14,-14,-7,-3,-5,-1,-9
1537921667632029,8,8,0,1,-4,-3,0,-4
1537921667632029,-11,-9,4,-2,0,-2,-3,2
1537921667650979,2,-17,-2,1,-1,0,1,-9
1537921667650979,6,-5,-5,1,-2,-2,-1,0
1537921667651976,-7,0,0,0,0,-4,-3,-5
1537921667651976,-3,-6,0,-3,0,3,2,7
1537921667666936,-6,-14,-3,-2,-2,-2,-3,-3
1537921667666936,-3,-14,-3,-3,-1,-1,1,-1
1537921667672920,-12,23,5,-1,0,-1,-1,1
1537921667672920,-5,15,-1,0,0,-5,0,1
1537921667689875,-6,-4,0,-1,3,19,-2,-5
1537921667689875,-7,-2,-2,-5,0,-12,-2,-1
1537921667690872,-7,-7,-5,-1,-1,-3,-2,-3
1537921667690872,0,6,1,2,5,1,2,5
1537921667710818,-7,7,1,-2,-9,-4,-1,-3
1537921667710818,6,-5,-2,-1,5,5,-2,-2
1537921667711816,0,-1,-2,5,-3,4,-2,-2
1537921667711816,1,3,3,2,2,-1,3,5
1537921667726776,3,1,-4,-5,5,6,-1,-3
1537921667726776,6,-7,-7,-2,-4,-2,-8,-7
1537921667732760,10,2,3,-12,-2,-12,-5,3
1537921667732760,-3,0,2,14,14,-11,3,0
1537921667747721,3,4,0,-3,-18,8,0,-3
1537921667747721,0,-9,2,1,17,1,2,0
1537921667755699,-2,-1,0,6,6,-3,4,4
1537921667755699,-11,-1,-2,-12,-31,31,-4,-7
1537921667771656,2,6,-2,4,29,14,7,0
1537921667771656,7,-4,5,10,1,-78,-5,4
1537921667771656,1,4,-3,-3,-14,30,7,2
1537921667771656,-7,-9,-1,-10,-4,10,-14,-3
1537921667786616,-2,-12,0,12,-7,-20,-8,-9
1537921667786616,2,-4,-6,-26,-26,16,7,10
1537921667793597,9,2,-1,-9,-1,27,0,22
1537921667793597,-3,1,-1,17,13,-24,0,-9
1537921667808557,18,24,5,-3,20,-63,-7,22
1537921667808557,-5,-8,5,24,-1,59,14,0
1537921667815539,-16,-14,-4,-6,18,2,-26,-19
1537921667815539,11,4,-7,-5,-28,117,50,29
1537921667831496,-5,2,7,-1,-4,-101,-19,-9
1537921667831496,-6,2,-3,23,-10,42,4,-25
1537921667832493,6,4,8,-11,-18,-32,-7,9
1537921667832493,1,7,-6,-2,43,-96,8,-5
1537921667855432,3,6,-7,-9,-24,37,-6,-2
1537921667855432,-5,-12,-2,-22,-12,-5,-1,-3
1537921667856429,-7,-2,-1,34,24,-1,-9,10
1537921667856429,-1,-6,1,1,-6,4,-5,-4
1537921667868397,-3,-3,-1,-1,-9,25,16,-4
1537921667868397,0,1,2,-5,8,-27,-13,3
1537921667875379,-2,-3,-3,-7,-10,3,18,-10
1537921667875379,4,1,1,3,-2,-27,-11,3
1537921667898317,-4,-6,-2,0,8,16,-4,-1
1537921667898317,1,0,-1,-7,-6,8,-3,7
1537921667899315,0,-1,-1,4,4,-12,10,-5
1537921667899315,0,-3,2,-3,-2,9,-9,12
1537921667907293,-3,0,-3,8,-4,11,2,2
1537921667907293,-1,0,-4,-9,1,-5,5,7
1537921667913277,0,-1,-1,-2,-3,-7,0,-10
1537921667913277,-2,-2,0,-3,1,-16,-12,-8
1537921667928238,-3,-2,-5,-5,-5,12,-1,1
1537921667928238,-2,-1,1,5,6,-13,-6,-12
1537921667935219,-5,-8,-3,3,2,22,2,-9
1537921667935219,0,-1,-1,-9,-3,12,5,1
1537921667952173,-1,-2,1,0,2,5,5,-4
1537921667952173,3,-1,0,0,3,5,1,-2
1537921667953171,-4,-2,-1,-10,-9,-2,-13,-5
1537921667953171,0,4,2,1,-2,-4,-1,-8
1537921667967134,0,-6,-2,1,2,2,-5,-3
1537921667967134,-1,-5,0,-14,4,19,5,0
1537921667973118,1,4,0,17,-9,-9,5,4
1537921667973118,1,4,-1,-1,-4,-4,-3,-3
1537921667988078,0,0,-2,-12,-3,-10,0,5
1537921667988078,-5,-5,-3,19,19,28,-5,-6
1537921667996057,1,2,0,5,-7,-34,7,2
1537921667996057,3,2,-2,-10,-4,-9,-7,-2
1537921668011016,-3,0,0,5,-6,13,2,-3
1537921668011016,2,5,2,9,1,-17,0,0
1537921668012014,-3,-6,0,2,-1,38,-3,2
1537921668012014,-1,0,3,9,15,6,3,-2
1537921668026975,2,-1,-1,-7,1,-17,-2,2
1537921668026975,2,3,-3,-8,-9,-4,2,6
1537921668032958,-3,0,-1,1,3,-1,-5,-15
1537921668032958,0,-1,-4,-7,-9,0,-6,0
1537921668047918,-3,-3,0,0,4,13,2,-2
1537921668047918,1,-1,-1,2,0,-3,2,3
1537921668055897,1,-2,-2,-12,-1,8,1,0
1537921668055897,-2,-3,-2,-3,-6,-21,-9,-7
1537921668070856,-1,2,-1,-1,1,-2,-2,4
1537921668070856,0,-3,-3,-2,-2,-13,-9,-7
1537921668071854,-1,0,2,1,2,-13,5,-3
1537921668071854,-2,-2,-1,1,1,2,-2,-1
1537921668093795,-1,2,0,1,-1,6,6,1
1537921668093795,2,2,2,-4,-4,-4,-1,6
1537921668094792,0,0,0,-3,1,-2,-6,-2
1537921668094792,0,3,1,3,-1,4,1,1
1537921668107757,-2,-1,-1,1,-3,2,-3,-1
1537921668107757,-3,-3,-1,-4,-2,-6,1,-1
1537921668115736,0,2,-1,-5,-6,-5,-5,7
1537921668115736,-4,-1,-1,3,6,-1,-1,1
1537921668131694,0,-3,-2,-10,-6,0,-3,-4
1537921668131694,-2,1,1,6,-2,-5,-2,-2
1537921668131694,1,-1,-1,-7,2,-1,3,-1
1537921668131694,2,4,-1,-2,-2,-2,-7,-2
1537921668145656,0,5,-1,2,0,1,-3,0
1537921668145656,0,2,-1,-4,0,-1,0,-2
1537921668152638,-1,-1,-1,-1,2,-2,-1,-1
1537921668152638,1,0,1,-1,-2,2,1,-2
1537921668167598,0,4,1,3,2,-3,0,-6
1537921668167598,1,0,0,-2,-2,-4,-4,-2
1537921668175577,1,2,-1,-4,0,-5,2,-3
1537921668175577,-1,-4,-3,-3,-1,2,-2,-1
1537921668191534,-3,-4,2,5,1,4,-1,0
1537921668191534,-1,1,0,0,0,-2,2,0
1537921668191534,-2,-1,-1,-5,1,-1,-4,0
1537921668191534,-2,-7,-7,-3,-3,-2,0,-2
1537921668205497,6,5,-11,-5,-1,-2,1,1
1537921668205497,1,15,9,-1,-3,-5,-4,-2
1537921668213475,-6,3,10,5,1,1,4,-1
1537921668213475,9,37,-3,-1,-5,1,0,0
1537921668228435,19,-75,-29,-7,-2,-4,2,8
1537921668228435,-10,47,-2,-3,3,-4,6,7
1537921668235416,14,105,-2,3,-1,1,22,58
1537921668235416,-18,-25,18,-3,-6,-4,-21,5
1537921668258355,-46,54,36,13,11,17,-24,3
1537921668258355,51,-78,17,5,-4,1,18,100
1537921668259352,-89,-118,-16,-1,11,12,-17,12
1537921668259352,99,70,-59,-8,-9,-7,0,-6
1537921668267331,-109,51,59,7,-6,-13,-5,-25
1537921668267331,38,98,29,12,2,15,14,91
1537921668273315,32,-4,-15,-13,-9,-9,-4,-67
1537921668273315,8,70,-23,-4,1,1,0,-68
1537921668288275,73,-35,-25,-9,-10,-13,4,80
1537921668288275,-17,-63,-17,-16,-6,-23,-31,-75
1537921668295257,4,-65,-27,-2,4,9,9,51
1537921668295257,-84,-128,32,9,14,22,-8,2
1537921668311214,45,-13,-15,-7,6,0,-4,0
1537921668311214,25,-38,-7,-14,-4,-5,-9,-41
1537921668312211,23,66,46,24,5,9,17,13
1537921668312211,11,-28,14,3,-12,-7,-7,-28
1537921668327172,39,60,-26,-4,1,-10,6,20
1537921668327172,-15,-74,-1,-5,-1,-1,-10,-23
1537921668333155,-7,-9,-18,-8,-19,-23,-18,55
1537921668333155,28,-7,8,2,-4,3,15,-46
1537921668348115,55,-96,-29,1,1,8,-7,-39
1537921668348115,-7,127,8,5,6,-12,-39,60
1537921668356094,54,-11,18,2,6,6,-4,13
1537921668356094,-110,-96,14,5,7,14,5,30
1537921668371054,37,-69,-28,-8,-5,-14,-40,10
1537921668371054,26,-24,-14,-2,0,7,33,-52
1537921668372051,-37,-106,3,-2,7,7,-10,-100
1537921668372051,-51,125,79,16,11,-1,18,55
1537921668387011,-5,-93,-20,-8,-6,7,3,-1
1537921668387011,57,-39,-59,-15,-10,-8,2,-14
1537921668392995,-68,-44,76,21,9,20,24,-27
1537921668392995,105,-88,-99,-32,-11,-14,6,45
1537921668407955,-128,127,127,41,20,20,9,-41
1537921668407955,-14,-83,-3,9,3,15,8,3
1537921668415934,73,-32,-40,-23,-9,-20,-5,0
1537921668415934,5,-5,-19,-2,1,1,1,3
1537921668430894,5,-67,-28,-5,-5,-5,-3,-66
1537921668430894,-13,-57,-21,-7,1,4,4,79
1537921668431891,15,66,26,8,-2,-17,-19,-24
1537921668431891,-51,-77,35,9,4,5,-26,44
1537921668446851,28,-64,-28,-15,-4,2,11,20
1537921668446851,-48,26,9,7,7,4,-12,-19
1537921668452835,10,40,-50,-16,-5,-7,-8,-15
1537921668452835,38,26,-2,-4,-4,-9,7,18
1537921668467795,13,34,-10,-1,-4,-2,7,-14
1537921668467795,-35,-45,11,2,-2,2,-2,-26
1537921668475774,3,12,-1,-1,-1,1,7,37
1537921668475774,10,45,5,0,-1,-3,0,-24
1537921668491731,-23,-10,-1,-2,3,2,9,10
1537921668491731,2,25,10,3,-2,-4,-1,-24
1537921668491731,-21,21,-2,-2,-2,0,-3,0
1537921668491731,18,36,2,1,-2,-4,-1,-3
1537921668505694,24,41,-3,-4,-4,-2,3,-32
1537921668505694,-1,14,4,-1,-1,0,-3,16
1537921668512675,-21,-4,-11,-3,-2,0,-4,-11
1537921668512675,6,-21,-3,2,-1,2,-4,-3
1537921668527635,-5,14,5,-1,-1,0,8,37
1537921668527635,-14,-1,-3,-1,0,2,2,-19
1537921668535614,-6,-9,-1,0,0,-2,-3,-11
1537921668535614,11,13,0,0,-1,-1,1,0
1537921668551572,-72,-16,-7,-4,-2,3,0,0
1537921668551572,-10,20,11,1,-2,-1,2,-10
1537921668551572,34,-19,-9,0,-1,1,0,12
1537921668551572,-42,-3,-7,-4,-4,-5,-2,-4
1537921668565534,28,0,-3,-1,1,0,0,10
1537921668565534,-17,-7,-1,3,-1,-1,-1,-11
1537921668573513,30,17,9,2,-1,-4,1,20
1537921668573513,-7,-2,-2,-3,-1,3,-1,-1
1537921668588473,1,-1,2,2,0,1,1,9
1537921668588473,-5,8,3,-3,-3,-3,-3,-9
1537921668595454,7,12,-3,-1,-1,0,0,-7
1537921668595454,-2,-11,0,-2,-1,-8,-1,-14
1537921668611412,-38,-6,-4,-4,-3,2,-3,-9
1537921668611412,12,9,2,-2,-3,-5,2,-5
1537921668612409,-6,-6,-6,-3,0,2,0,-13
1537921668612409,0,-6,0,-1,0,-1,-3,0
1537921668625374,12,7,4,2,0,-4,3,7
1537921668625374,6,0,-1,0,-2,-1,0,-12
1537921668633353,-9,3,0,-3,1,-3,-1,-5
1537921668633353,-3,3,-2,-1,-3,1,2,-4
1537921668648314,5,5,1,0,-4,-1,-1,-7
1537921668648314,-2,2,2,-3,2,2,-1,-4
1537921668655295,-3,1,-3,-2,-3,-4,0,-1
1537921668655295,14,6,-2,2,-1,-1,1,3
1537921668672249,37,10,3,-1,-2,0,1,7
1537921668672249,-53,-9,-2,1,3,2,-3,-8
1537921668679230,-4,-3,-2,-1,-2,-1,-2,4
1537921668679230,13,4,0,-2,1,11,0,-6
1537921668685214,-3,2,0,-1,-3,-12,0,-1
1537921668685214,14,2,-1,-3,0,-1,0,1
1537921668693192,-2,-3,-1,-5,-1,1,-2,-1
1537921668693192,-3,2,2,3,1,-1,-1,-3
1537921668708152,12,3,0,2,2,-5,2,7
1537921668708152,41,6,-1,-2,-5,12,1,0
1537921668715134,-48,5,-1,6,2,-2,-2,-9
1537921668715134,11,-1,-4,-6,-1,-6,-4,0
1537921668730094,-1,-8,-1,-3,1,4,-3,-3
1537921668730094,14,9,1,0,-1,-4,-3,7
1537921668739071,11,-3,2,1,-1,3,1,2
1537921668739071,8,3,0,0,-2,0,1,6
1537921668754030,20,9,-1,0,-3,2,1,9
1537921668754030,-37,6,1,2,0,0,-3,-12
1537921668754030,-32,-8,-3,-3,-3,-1,-3,-9
1537921668754030,17,20,-1,-1,-3,-3,-5,-3
1537921668767993,-15,-14,-1,0,1,0,0,-2
1537921668767993,41,8,2,1,-2,-2,2,7
1537921668775971,3,-8,-1,-1,0,1,2,9
1537921668775971,65,23,5,3,1,8,10,28
1537921668790932,-59,-21,2,1,1,12,-6,9
1537921668790932,77,41,1,-2,-7,-20,-7,-11
1537921668798910,41,7,0,2,2,-8,2,33
1537921668798910,-111,-21,-5,-4,-3,1,-17,-41
1537921668813870,51,-41,-18,1,8,18,22,15
1537921668813870,-21,-6,-11,-4,17,20,-4,-104
1537921668814868,81,-32,22,10,-5,2,17,83
1537921668814868,90,-7,-9,-11,-14,-25,-68,21
1537921668827833,-110,-53,8,4,14,8,43,-73
1537921668827833,37,23,-17,-6,14,16,17,92
1537921668835812,-23,-57,27,-14,-64,-10,-10,-123
1537921668835812,-49,93,29,11,-6,-13,83,-8
1537921668850772,71,39,-15,13,46,30,-89,38
1537921668850772,-113,-94,63,4,-51,0,8,37
1537921668858750,44,28,-37,17,57,-11,45,74
1537921668858750,59,2,-86,-46,0,25,-15,-27
1537921668873711,-44,66,22,-28,-119,-97,-17,-40
1537921668873711,6,-25,10,8,126,-31,-20,18
1537921668881689,32,93,6,-2,60,51,-8,83
1537921668881689,-11,-52,-23,3,11,-29,73,5
1537921668887673,-20,71,67,36,102,95,-29,45
1537921668887673,39,-95,-42,-8,-70,-1,-12,-1
1537921668895652,-78,69,48,-7,-50,-54,-13,-38
1537921668895652,43,-52,-18,13,80,54,8,-1
1537921668910612,4,8,-16,-3,-59,-15,-19,25
1537921668910612,-34,-17,7,-4,-45,-12,-10,23
1537921668918590,0,-20,-19,14,66,17,-32,-95
1537921668918590,-20,48,17,-10,-60,-39,-54,6
1537921668933551,4,-30,9,-10,9,-18,30,73
1537921668933551,11,66,-16,1,18,10,25,27
1537921668941529,-17,-33,-26,1,3,23,4,35
1537921668941529,-45,-36,30,5,-11,-6,-21,-4
1537921668948511,20,-11,-16,-6,6,0,12,-72
1537921668948511,4,-3,-21,-4,-45,7,30,-52
1537921668955493,-6,-1,-1,-11,-49,-13,-9,-57
1537921668955493,-32,-35,38,16,46,9,-6,-11
1537921668970452,31,-13,-20,-14,10,-12,22,-4
1537921668970452,-10,37,1,13,25,2,-6,-34
1537921668978431,-23,-30,10,-5,-6,-7,-9,-7
1537921668978431,2,15,0,-5,-20,2,-1,-3
1537921668993390,13,-11,-18,-6,3,0,16,2
1537921668993390,-18,-6,-3,1,-2,-11,-18,-14
1537921668994388,-1,4,-4,-5,-6,-2,-4,-14
1537921668994388,-2,-16,8,4,-9,3,13,28
1537921669008351,11,-3,-6,3,-4,-7,-1,4
1537921669008351,-12,-1,6,-2,7,4,-7,11
1537921669015332,2,-18,-13,-3,-9,-2,7,15
1537921669015332,-3,5,1,3,4,2,1,16
1537921669030292,-2,-13,2,-3,-10,-10,-5,-2
1537921669030292,3,13,1,-6,1,-3,2,10
1537921669039268,-2,-7,-6,-3,6,3,-2,7
1537921669039268,-8,-9,4,2,-8,-4,-6,-19
1537921669054228,14,0,-3,-1,-4,-1,8,-30
1537921669054228,-5,-2,-1,-3,3,5,3,-2
1537921669055225,-1,-3,-4,-3,1,1,2,-4
1537921669055225,-9,-6,5,2,-6,-4,-13,-5
1537921669068191,9,-2,-3,2,-5,-5,6,-8
1537921669068191,2,15,2,-2,4,-1,-4,-5
1537921669075172,-7,-10,-3,-3,1,0,-2,-2
1537921669075172,6,4,-2,1,-3,1,3,-2
1537921669090132,5,-9,-5,-1,2,1,-3,4
1537921669090132,-4,-4,3,-3,1,-2,-3,-4
1537921669099108,7,-1,-5,-1,-2,-3,-10,4
1537921669099108,-11,-6,0,2,0,0,5,2
1537921669114068,-3,4,1,-1,-2,-4,0,-1
1537921669114068,20,0,1,-1,3,1,-1,-2
1537921669114068,-23,-10,-3,-3,-4,-2,3,-8
1537921669114068,16,7,-2,-1,-2,1,2,-3
1537921669128030,-12,-5,1,1,2,0,-3,-1
1537921669128030,-21,6,4,0,-1,-2,-1,-2
1537921669136009,-9,-13,-4,-2,-2,3,-1,-6
1537921669136009,11,-1,1,-1,-4,-1,0,3
1537921669150970,-8,0,-1,-2,-3,-3,-1,2
1537921669150970,59,7,-2,0,2,-3,-2,8
1537921669158947,-21,0,-1,-2,1,-2,1,1
1537921669158947,-71,-5,-5,1,1,1,-4,-14
1537921669173907,67,2,-2,1,-4,-1,3,8
1537921669173907,-13,-6,1,-3,-1,0,-4,-13
1537921669174905,-17,13,2,0,-3,-1,0,2
1537921669174905,14,-7,-1,-3,1,1,1,5
1537921669187870,-16,14,-2,-3,-3,-2,-1,-3
1537921669187870,22,13,1,0,-1,-3,-1,7
1537921669195849,37,-4,1,2,-1,1,5,9
1537921669195849,-30,2,-1,0,0,1,-2,-15
1537921669210809,-19,-4,1,-2,0,-2,-1,-3
1537921669210809,-5,-8,-3,2,-2,-3,-1,-4
1537921669218787,-38,-10,-1,-5,0,1,1,2
1537921669218787,27,6,0,0,0,-2,2,12
1537921669233748,1,-5,0,1,1,4,3,2
1537921669233748,14,2,1,1,-3,-2,-6,-2
1537921669234745,-65,-12,-5,4,2,5,-11,-21
1537921669234745,19,15,4,6,7,10,21,3
1537921669247710,-11,-17,-9,-3,4,16,17,-3
1537921669247710,48,49,-6,3,6,-4,-9,15
1537921669255689,64,-20,8,3,27,36,47,26
1537921669255689,-52,-114,2,-8,-35,-65,-49,-76
1537921669270650,100,52,12,14,25,21,-17,108
1537921669270650,-46,24,7,16,62,51,60,-67
1537921669278628,86,122,-60,-11,13,2,-68,69
1537921669278628,-87,-93,63,-19,27,73,52,-52
1537921669293588,35,122,18,-21,-128,-107,7,-46
1537921669293588,77,68,-73,-11,37,-12,43,15
1537921669294585,-88,-115,81,6,-41,-1,-84,-89
1537921669294585,122,127,-24,15,-36,-15,6,124
1537921669308547,22,-79,-46,2,116,32,-15,-19
1537921669308547,-88,-57,46,-11,-128,-9,4,20
1537921669315529,39,8,-45,-8,80,47,43,-93
1537921669315529,29,47,-36,3,-19,-25,-62,-43
1537921669330489,-70,-128,52,-12,-5,-24,24,-42
1537921669330489,21,-1,-6,22,69,26,-7,47
1537921669338468,-3,-9,9,3,26,0,-16,9
1537921669338468,-29,-21,22,3,25,51,42,20
1537921669353428,17,49,-28,-9,-29,-52,-70,-44
1537921669353428,-23,-44,10,-2,-17,-37,-45,-7
1537921669354425,-8,5,10,0,-29,14,99,8
1537921669354425,10,25,-21,-2,23,-2,7,-5
1537921669368388,-20,-31,-7,5,-9,20,1,1
1537921669368388,-21,-17,5,-12,-21,-5,-21,-13
1537921669375369,-7,-14,4,10,-5,-18,-10,17
1537921669375369,19,14,-6,-10,-23,-22,-8,15
1537921669390330,-25,1,-3,-3,2,21,19,13
1537921669390330,-21,-41,9,-1,2,3,-12,-13
1537921669398308,26,31,-13,-4,-10,-25,4,17
1537921669398308,-1,-14,-1,5,6,-3,5,0
1537921669414266,-21,2,10,0,4,16,-1,8
1537921669414266,-4,13,-12,-10,6,2,-4,6
1537921669414266,11,-6,-2,-1,-27,-26,-2,20
1537921669414266,1,-4,1,-7,-2,-6,-8,7
1537921669428228,-17,-9,-2,9,19,18,3,-4
1537921669428228,3,10,7,1,-13,-11,-3,-7
1537921669435209,5,2,0,-5,-14,-13,2,8
1537921669435209,-9,-18,1,0,7,5,-5,5
1537921669450169,4,12,-9,1,9,9,5,3
1537921669450169,3,-7,0,-2,-1,-3,3,4
1537921669459145,-14,4,1,-2,-13,-7,-3,2
1537921669459145,24,4,-6,0,9,1,1,4
1537921669474105,0,-7,-3,0,-5,2,1,0
1537921669474105,-8,-2,-1,-2,-5,-1,-7,-1
1537921669474105,6,-3,3,2,-1,-5,-5,4
1537921669474105,-1,6,-1,2,-2,-6,2,4
1537921669488068,63,15,1,2,0,0,4,9
1537921669488068,-48,-36,-4,-4,0,3,-4,-3
1537921669496046,40,38,-4,-5,-5,-5,-3,0
1537921669496046,-36,-36,-6,-1,3,5,-4,5
1537921669511006,-36,8,3,3,-1,2,0,-7
1537921669511006,35,12,3,3,-2,-2,2,2
1537921669518985,-1,0,0,-3,-5,-6,2,6
1537921669518985,12,2,0,-16,-2,-4,-3,1
1537921669541924,56,7,1,19,3,3,5,22
1537921669541924,-46,-24,-4,2,0,7,-2,-15
1537921669542921,45,24,-3,2,-3,-11,-4,1
1537921669542921,-4,-5,0,-2,2,4,-3,-8
1537921669547908,-22,-7,-2,-2,1,8,-1,-1
1537921669547908,19,0,0,-4,-2,-3,0,3
1537921669555887,-36,-21,4,-2,-4,1,-1,8
1537921669555887,-1,14,1,6,1,-1,1,-1
1537921669570847,30,9,-1,0,2,-1,2,10
1537921669570847,51,-5,-1,-6,-6,-4,2,7
1537921669578826,-57,-9,-9,-7,-4,0,-13,-36
1537921669578826,22,1,-1,2,0,-3,-4,3
1537921669592788,-36,-17,-4,-5,2,4,-1,-8
1537921669592788,49,21,4,4,-2,-4,1,13
1537921669600767,27,2,2,3,1,1,6,17
1537921669600767,-15,-10,1,0,0,0,1,-4
1537921669616724,-19,14,-2,-2,-2,-3,-7,-15
1537921669616724,-6,-3,-4,-4,1,-1,-3,-5
1537921669616724,-2,-6,1,-2,-3,-1,2,6
1537921669616724,5,2,1,6,-2,-1,1,4
1537921669630687,-7,-7,2,-7,0,2,3,5
1537921669630687,-26,3,-2,-3,-1,-4,-3,-10
1537921669638666,4,-6,0,-1,-3,1,-1,1
1537921669638666,14,6,1,-1,-1,1,-1,1
1537921669652628,-11,-5,-3,-4,0,1,0,-4
1537921669652628,-13,10,0,1,-2,0,-3,-3
1537921669661604,2,-10,-1,2,1,0,1,5
1537921669661604,91,20,-1,0,1,-1,0,9
1537921669676564,-83,-8,-1,-3,0,-2,-3,-15
1537921669676564,13,16,-3,0,-3,-2,-5,-6
1537921669676564,2,-2,2,-1,-1,-2,1,3
1537921669676564,-10,0,-2,1,-3,-1,-2,-3
1537921669690527,38,1,3,2,-1,0,2,5
1537921669690527,-3,-3,2,-1,-1,-1,0,3
1537921669698505,-6,7,0,0,-1,-3,-3,-9
1537921669698505,2,-5,-5,-2,0,-1,-4,-2
1537921669713465,3,1,-3,-4,-2,-2,-2,2
1537921669713465,-20,-5,3,0,2,0,1,-2
1537921669721444,20,-1,1,-3,-1,-3,0,0
1537921669721444,-27,-9,-1,0,-1,0,-1,-1
1537921669736404,6,-2,2,-1,-1,-1,-1,-1
1537921669736404,-2,0,-2,0,-1,0,0,-1
1537921669737401,-7,-3,0,1,-1,-2,2,3
1537921669737401,-4,-6,-1,-1,1,-2,-2,-4
1537921669750366,-82,-24,-3,-1,-2,1,-3,-14
1537921669750366,14,3,3,2,-2,-1,0,0
1537921669758345,31,8,-1,1,-1,-3,-1,5
1537921669758345,36,-3,1,1,-1,0,3,10
1537921669773305,-42,-10,-7,-6,-1,0,-6,-13
1537921669773305,-6,1,-1,-2,1,-1,-2,-9
1537921669781284,-10,0,-1,-3,-2,-1,-1,-2
1537921669781284,16,7,2,4,0,-1,4,4
1537921669820180,45,-1,3,0,-3,-2,5,16
1537921669820180,-50,-18,-5,-2,-1,-1,-2,-10
1537921669821178,24,0,3,-1,1,4,1,7
1537921669821178,55,21,2,2,-1,6,-2,13
1537921669834143,-68,-26,-11,-6,-3,-12,-9,-43
1537921669834143,95,10,3,1,3,-1,0,11
1537921669834143,40,-17,0,11,28,34,12,3
1537921669834143,2,9,-15,-16,-21,-27,-14,-14
1537921669841124,50,25,16,10,16,14,14,47
1537921669841124,-64,-57,3,3,36,11,-15,4
1537921669849103,-96,-20,-30,-2,-35,-17,-14,-34
1537921669849103,11,-46,12,-7,10,8,-10,-69
1537921669856084,46,-25,-12,-8,-7,-60,5,81
1537921669856084,18,-40,-4,-13,-79,-17,-4,-33
1537921669857082,-30,69,36,27,93,31,-49,-91
1537921669857082,-23,100,-16,-13,6,-5,52,60
1537921669871044,16,26,-13,-11,-62,-6,31,-75
1537921669871044,-7,-66,8,-19,39,-24,-90,-52
1537921669879024,31,23,-10,4,-58,-47,11,2
1537921669879024,-46,39,-22,-12,-11,31,14,-6
1537921669892986,23,15,21,36,80,-26,-25,-2
1537921669892986,84,110,-79,10,-7,83,79,14
1537921669901962,-99,-112,79,-17,7,-46,-56,115
1537921669901962,0,-23,6,15,22,-8,-7,30
1537921669915924,40,28,-25,-33,-27,18,8,17
1537921669915924,-7,2,8,13,36,10,-7,-2
1537921669916922,29,-29,-19,16,44,31,28,19
1537921669916922,-15,-24,-1,11,-10,26,12,-19
1537921669930884,-22,-78,11,-7,-68,-5,28,-3
1537921669930884,2,21,7,-6,-6,-71,-4,19
1537921669938864,23,49,-18,-13,-13,0,13,-30
1537921669938864,-30,-48,18,15,30,3,-30,19
1537921669952826,-2,25,-6,7,16,34,3,-27
1537921669952826,-21,3,11,-9,-14,0,8,16
1537921669960804,23,10,-15,-13,-31,-16,-5,7
1537921669960804,-25,-27,0,6,9,7,8,-32
1537921669975764,-6,2,7,-3,8,5,-26,10
1537921669975764,-7,21,2,1,-24,-20,8,12
1537921669976762,3,-17,-6,-8,12,16,18,11
1537921669976762,-6,4,-3,3,-17,-17,-15,5
1537921669990724,7,25,1,-6,2,-1,-9,-6
1537921669990724,-6,-16,14,3,11,5,1,20
1537921670006682,4,7,-16,3,-12,9,16,-13
1537921670006682,14,1,4,-13,-9,-23,-9,-8
1537921670012666,-14,1,2,8,7,-2,-11,6
1537921670012666,8,4,1,1,9,13,11,-3
1537921670021642,15,-6,-5,-9,-10,1,-1,14
1537921670021642,-25,0,-1,-3,-11,-11,-5,-3
1537921670035604,6,-7,0,7,17,14,-2,-9
1537921670035604,-18,13,0,-1,-2,-3,-4,1
1537921670044581,17,12,-1,-3,-11,-5,3,-7
1537921670044581,-12,-10,5,0,1,-3,-3,3
1537921670050565,58,8,0,1,1,2,4,-4
1537921670050565,-26,-3,-3,-3,-4,0,-2,2
1537921670059541,3,0,-5,-6,-6,-5,-2,-3
1537921670059541,-7,-7,-2,2,4,3,0,-9
1537921670073504,2,2,0,-2,1,0,-6,7
1537921670073504,17,4,6,1,-5,-5,2,6
1537921670082480,-17,-5,-3,-2,2,2,3,0
1537921670082480,25,4,-2,-1,-5,-4,-4,-3
1537921670095445,-12,4,-3,-6,-2,2,-6,-3
1537921670095445,4,-5,3,7,3,0,-2,6
1537921670104421,-4,8,-1,0,-3,-2,4,-2
1537921670104421,-17,-11,1,0,0,0,0,-2
1537921670110404,-3,1,-1,-1,0,0,-3,2
1537921670110404,-8,-5,-1,0,1,3,3,-4
1537921670119380,5,-1,-2,-2,-4,-3,-2,2
1537921670119380,14,5,1,-2,-2,-1,0,2
1537921670133343,-2,-4,-1,4,4,2,-1,0
1537921670133343,-5,5,-4,-5,-3,-3,-3,0
1537921670142320,8,3,-2,2,-4,-3,-2,-7
1537921670142320,8,0,3,0,1,-1,0,-1
1537921670155284,-23,-1,2,2,1,2,1,-1
1537921670155284,17,-17,-2,0,0,0,2,4
1537921670164260,-9,30,3,-1,-2,-3,-4,-3
1537921670164260,-1,-2,-1,-1,1,-1,-1,-6
1537921670170244,-9,-5,-1,-2,1,2,-1,4
1537921670170244,1,-1,0,-3,-1,-1,2,-2
1537921670179220,4,-10,-5,1,1,-1,1,1
1537921670179220,-43,-11,-2,-3,-2,1,-2,0
1537921670193183,25,8,3,0,-1,-1,1,4
1537921670193183,-44,-11,-3,-2,1,0,-3,-9
1537921670202159,5,-1,-2,0,-3,0,-2,-3
1537921670202159,16,8,-2,-2,-1,0,-2,0
1537921670215124,-4,-7,0,-1,2,-1,-1,0
1537921670215124,11,6,3,2,0,0,1,1
1537921670224100,5,-3,-2,1,-1,0,1,0
1537921670224100,4,1,-3,-1,-3,-2,0,-1
1537921670230084,13,1,0,0,1,-1,-2,0
1537921670230084,-44,-2,0,0,-1,2,0,-1
1537921670239060,24,3,-1,-2,0,-1,2,1
1537921670239060,-19,-14,1,1,0,1,-4,-12
1537921670253023,-27,6,-2,-1,-2,-2,-1,-5
1537921670253023,63,10,1,3,1,-2,1,9
1537921670261999,-67,-18,-2,-3,-1,1,0,1
1537921670261999,59,21,-3,-7,-4,-5,0,11
1537921670275961,-34,-21,0,-1,2,1,-2,-7
1537921670275961,5,13,0,-1,-2,-1,-2,-4
1537921670284938,21,-2,3,2,-2,0,1,-1
1537921670284938,54,11,-1,-2,-2,-3,3,12
1537921670290922,-38,-5,-1,4,0,3,1,-1
1537921670290922,-50,-14,-5,-5,-1,-1,-9,-22
1537921670299898,-2,-4,-2,-4,1,0,-3,-4
1537921670299898,31,-2,1,-2,-3,0,-3,0
1537921670312863,43,21,1,0,-1,-3,1,7
1537921670312863,-30,-9,1,2,0,0,1,2
1537921670321839,38,8,-1,1,-2,-4,1,4
1537921670321839,56,2,1,-1,2,-2,7,23
1537921670335802,-65,-34,-7,-5,0,0,-7,-27
1537921670335802,34,16,-5,0,-2,-4,-16,-32
1537921670344778,28,-14,0,2,-1,2,3,7
1537921670344778,-6,-7,0,1,0,2,9,-4
1537921670350762,63,8,6,2,0,2,-2,28
1537921670350762,-14,10,2,4,13,3,8,16
1537921670359738,-77,-14,-8,11,23,34,7,-14
1537921670359738,71,34,-5,-22,-34,-58,-47,19
1537921670372703,-21,-43,-9,8,27,19,56,-3
1537921670372703,-75,-44,4,0,-43,-24,-50,-26
1537921670381679,7,44,-2,-6,-2,-21,-7,11
1537921670381679,43,-70,-27,5,23,30,50,21
1537921670395643,-37,125,36,-17,-95,-72,-97,-8
1537921670395643,-27,-99,42,3,35,31,72,-78
1537921670404618,54,80,-45,-15,-24,-44,-16,41
1537921670404618,-105,-114,49,20,11,-37,-44,88
1537921670410602,110,112,-49,-15,40,78,42,57
1537921670410602,-3,-88,6,-12,5,-60,-83,59
1537921670419578,20,-70,-20,19,43,37,74,-70
1537921670419578,-51,123,9,10,-66,23,-45,28
1537921670433542,22,-88,21,19,53,6,-36,-17
1537921670433542,19,64,-46,-40,-73,-26,64,33
1537921670442517,-2,-69,37,-3,21,24,28,32
1537921670442517,5,43,-33,-8,-50,-47,-18,-60
1537921670455482,-21,-56,24,10,4,-10,-1,1
1537921670455482,34,43,-3,15,23,52,23,7
1537921670464458,-7,-17,-5,3,-2,-2,-6,-2
1537921670464458,-34,-4,-3,1,20,28,18,-55
1537921670470442,-18,-1,-8,-3,-1,6,-8,-4
1537921670470442,24,9,0,1,-10,-14,-4,12
1537921670479418,-8,33,7,-3,-5,0,-17,5
1537921670479418,-38,-23,11,0,20,6,-1,-12
1537921670493380,3,-25,-10,-13,-33,-28,9,-8
1537921670493380,23,34,-9,1,28,17,9,19
1537921670517316,-13,-13,17,1,-32,-19,-26,-12
1537921670517316,-16,-1,-6,-5,13,16,19,-21
1537921670518314,19,-14,-5,2,3,-8,14,1
1537921670518314,-22,13,5,15,3,0,-8,-1
1537921670524298,20,25,2,14,-1,1,-18,-4
1537921670524298,-31,-22,-5,-2,7,-10,11,-7
1537921670530282,-23,10,-7,0,7,2,4,-9
1537921670530282,23,-4,-1,-12,-5,-3,-13,2
1537921670539258,-3,7,4,-14,-11,-6,-2,9
1537921670539258,31,-3,4,5,19,21,18,15
1537921670553220,-31,-14,-9,-6,-16,-16,-6,-21
1537921670553220,38,12,0,3,5,-2,1,8
1537921670562196,-75,-23,-4,-7,-5,0,-5,-13
1537921670562196,35,7,1,3,5,5,0,-10
1537921670576159,-47,-26,2,-1,3,8,-1,3
1537921670576159,45,15,-2,0,-2,-2,-2,-6
1537921670583140,49,11,3,3,-3,-4,-2,9
1537921670583140,-28,-1,1,-1,7,12,3,-1
1537921670607076,38,-3,1,-7,-7,8,6,6
1537921670607076,-41,-4,-5,7,5,-2,-4,-3
1537921670608074,-28,-9,-1,-12,-7,-7,-10,-7
1537921670608074,3,-2,-4,0,3,3,4,-10
1537921670613061,20,6,0,5,0,0,6,11
1537921670613061,8,7,1,-4,0,12,-1,-6
1537921670628021,-25,0,0,-18,-7,0,-3,4
1537921670628021,-16,-10,-7,2,2,-2,1,-12
1537921670636000,23,5,-3,-1,3,3,-4,-1
1537921670636000,-23,1,1,4,0,-10,-1,6
1537921670642981,15,-6,-2,-1,-3,-3,-2,-3
1537921670642981,0,0,-1,1,1,3,2,0
1537921670658938,-6,1,2,-2,-4,-5,2,7
1537921670658938,55,2,-1,2,2,5,1,7
1537921670660934,-54,-7,-1,0,-3,0,-3,-5
1537921670660934,-3,14,-2,-3,1,-6,-3,-12
1537921670672901,-15,-15,0,1,0,1,-2,-5
1537921670672901,10,8,1,-2,-2,0,-1,3
1537921670681877,39,8,-1,2,0,-1,1,6
1537921670681877,-1,-14,-1,-3,3,2,2,5
1537921670695840,-57,6,-1,-1,-1,-2,-5,-14
1537921670695840,21,3,1,2,1,2,2,7
1537921670702821,-45,-14,-2,-2,-2,1,-3,-4
1537921670702821,25,10,2,-3,-2,0,-1,-3
1537921670719775,25,3,3,-1,2,0,6,15
1537921670719775,-15,-8,-2,2,-1,-2,-7,-17
1537921670720773,59,12,2,2,1,-2,-1,8
1537921670720773,-32,14,-4,-6,-1,-2,-2,-10
1537921670732740,54,-2,-2,0,0,-4,2,9
1537921670732740,-56,-18,1,0,2,4,-2,-7
1537921670741716,81,19,1,2,1,5,-5,-6
1537921670741716,-102,-44,-9,4,13,33,26,9
1537921670756676,55,16,-10,3,11,-11,9,9
1537921670756676,79,-34,4,-8,-27,11,1,37
1537921670762660,-56,-31,-7,3,-5,-30,-49,-17
1537921670762660,-2,34,-39,-19,-46,7,42,27
1537921670779615,7,40,5,-4,24,4,-75,-50
1537921670779615,10,35,49,7,-76,-53,97,71
1537921670780613,-20,53,-9,4,79,46,-24,43
1537921670780613,28,-24,32,-22,-75,-24,4,-39
1537921670792581,-57,5,26,-1,59,-67,-32,-44
1537921670792581,104,124,-72,19,76,69,-16,-9
1537921670801557,-121,-128,93,-13,-85,-67,-59,-53
1537921670801557,99,120,-21,25,71,27,30,28
1537921670816517,12,-6,-43,4,-103,29,-6,6
1537921670816517,-54,-105,3,-41,-62,-76,-62,-15
1537921670823502,47,5,-21,43,104,127,36,6
1537921670823502,-25,52,21,-65,-85,-108,-62,-9
1537921670839456,54,-104,5,20,89,54,77,51
1537921670839456,-55,-84,-9,13,56,37,-3,0
1537921670840454,37,40,5,11,32,57,56,14
1537921670840454,1,-51,5,-3,-64,-79,-74,23
1537921670853418,-23,16,-4,-3,-11,17,71,-4
1537921670853418,-8,6,0,9,29,8,-17,-23
1537921670862395,12,21,-11,-10,-20,-19,-1,14
1537921670862395,-2,-26,5,19,42,28,-4,-9
1537921670876357,-26,17,3,-7,-19,-14,-2,-3
1537921670876357,-40,1,4,7,3,8,-23,-32
1537921670883339,21,15,-19,-19,-45,-45,22,-5
1537921670883339,-14,-24,-1,-2,22,24,21,-4
1537921670899296,-5,-16,2,13,-10,-7,-29,-10
1537921670899296,-19,9,-1,-24,-11,3,25,3
1537921670901290,23,3,-8,-12,-20,-14,9,6
1537921670901290,-15,-25,9,11,38,23,4,0
1537921670913258,-23,-23,-4,-3,0,-4,-6,21
1537921670913258,-85,15,-9,-17,0,6,-12,-23
1537921670922234,54,37,-1,8,-11,-31,15,20
1537921670922234,-38,-47,-4,1,30,28,-8,-14
1537921670936197,24,22,5,-7,-20,-9,10,24
1537921670936197,-8,-16,0,15,7,1,7,0
1537921670943178,-60,-9,-6,-9,-4,-8,-9,-22
1537921670943178,58,-13,3,12,16,12,18,3
1537921670959135,0,5,1,-7,-9,3,-6,3
1537921670959135,19,9,2,4,6,-2,-1,0
1537921670961130,12,5,-6,-5,-5,-5,3,10
1537921670961130,14,10,3,11,8,3,2,-4
1537921670973098,-13,9,-5,-4,-2,1,-4,-12
1537921670973098,41,24,6,-2,3,-2,0,6
1537921670988058,26,-20,-8,-3,-9,-13,-1,-13
1537921670988058,-89,-10,-6,0,5,9,-1,-16
1537921670996037,7,-1,2,-2,-1,-4,-8,-11
1537921670996037,18,4,3,-2,0,-2,9,2
1537921671003019,15,-4,-4,-1,-6,-3,1,8
1537921671003019,15,-2,-3,5,4,5,1,-1
1537921671026955,-6,6,4,-3,0,-2,-2,-3
1537921671026955,-7,0,1,2,-1,-2,-2,-1
1537921671027952,7,0,-6,-4,-1,-4,1,0
1537921671027952,-8,-8,-2,-3,5,4,-3,-2
1537921671032938,5,6,1,-3,-4,-4,1,-3
1537921671032938,10,11,2,2,-3,-3,-2,-2
1537921671041915,-4,-8,0,-2,-2,0,-2,-3
1537921671041915,21,11,1,5,6,1,6,7
1537921671055877,-12,-12,-5,-1,-3,4,1,10
1537921671055877,-14,-9,-2,-1,-1,-1,-6,-11
1537921671062858,-7,1,0,0,-2,-2,-1,-1
1537921671062858,24,8,-3,0,3,0,0,0
1537921671079813,7,-4,1,-2,-1,-1,-3,-4
1537921671079813,-23,-3,0,-1,1,1,0,-1
1537921671080811,4,8,-1,-2,-3,-4,1,1
1537921671080811,9,1,2,2,-2,3,1,3
1537921671092779,4,-6,-3,-2,1,0,-4,-4
1537921671092779,-10,0,-4,-3,0,-4,-1,-1
1537921671101755,-7,-3,-2,-2,-3,-3,0,1
1537921671101755,-2,4,0,-1,1,1,-2,-1
1537921671116715,-1,5,0,0,-3,1,0,-2
1537921671116715,16,5,1,-1,-2,-2,-1,2
1537921671122700,-8,-1,1,2,2,1,1,1
1537921671122700,3,-2,0,2,2,1,-1,0
1537921671139653,-8,1,1,0,-1,-2,-3,-5
1537921671139653,6,6,-1,-2,0,-1,-1,1
1537921671140651,-1,6,0,-1,-3,-2,0,-1
1537921671140651,-14,-3,3,-1,0,2,0,0
1537921671161594,-6,-2,-4,-6,1,0,-3,-4
1537921671161594,9,1,-1,0,-4,-1,1,0
1537921671163589,61,5,0,0,0,-3,-4,2
1537921671163589,-60,-3,-4,1,2,2,-3,-6
1537921671176554,-4,1,-1,-4,-2,-2,0,-1
1537921671176554,-29,-13,0,-1,1,-2,-1,-6
1537921671182538,37,13,4,1,-1,-3,1,7
1537921671182538,11,0,-1,0,0,-1,-2,-8
1537921671199493,-3,-7,1,-2,-1,1,1,5
1537921671199493,31,6,0,0,1,-1,4,3
1537921671200490,-95,-5,-7,-13,-3,-2,-8,-27
1537921671200490,50,-2,2,6,-3,-3,2,8
1537921671213455,-67,-7,-2,0,-3,2,-3,-8
1537921671213455,63,9,6,3,2,3,7,14
1537921671222432,2,-6,1,6,16,27,3,16
1537921671222432,-12,-5,-12,-7,-5,-9,9,-21
1537921671236394,31,-35,-6,-6,-22,-36,-19,7
1537921671236394,29,-24,-22,8,67,68,40,13
1537921671243375,-35,-81,9,-18,-73,-42,-21,-22
1537921671243375,53,98,-14,40,101,73,52,22
1537921671259333,22,-86,-5,-15,-11,-34,24,-50
1537921671259333,-11,-75,-2,-40,-75,-95,-81,-59
1537921671260330,1,-18,17,-3,-75,-19,-47,27
1537921671260330,21,80,13,-7,-15,14,89,26
1537921671273296,-10,-80,34,13,44,36,-30,31
1537921671273296,2,101,1,19,28,19,60,44
1537921671282272,24,48,-40,3,-7,10,5,-89
1537921671282272,6,-102,-14,-15,-1,22,-41,-23
1537921671296235,34,-2,-56,1,55,68,69,-17
1537921671296235,-95,55,59,-4,-31,0,33,-60
1537921671303216,13,10,4,20,54,25,-37,3
1537921671303216,24,32,-13,-34,-118,-96,-10,13
1537921671319173,-1,17,16,-3,10,-4,-3,11
1537921671319173,12,-31,-20,-4,-12,-23,-54,-14
1537921671321168,-9,-10,0,12,39,33,51,5
1537921671321168,-34,-55,14,8,24,14,-11,-29
1537921671333136,-2,52,-5,-1,-20,-14,0,10
1537921671333136,-6,3,-2,3,-20,-4,-4,28
1537921671349093,-4,37,10,2,27,-4,13,21
1537921671349093,-17,-18,2,-6,-6,-11,-40,16
1537921671356075,-6,41,4,-2,-34,-18,-13,7
1537921671356075,17,2,-9,-1,16,19,10,1
1537921671363056,-13,-13,-5,-3,-8,-14,5,9
1537921671363056,-14,-16,2,-9,0,-14,-18,-11
1537921671379013,-31,17,-2,3,-7,9,-9,-17
1537921671379013,6,-21,0,-2,8,-5,1,4
1537921671381008,18,12,3,3,6,-18,12,24
1537921671381008,-7,-3,9,46,7,26,-12,19
1537921671392976,-17,22,-5,-10,2,5,-13,-17
1537921671392976,-75,-26,-6,4,-1,4,0,34
1537921671401952,-10,-14,-11,-33,-6,2,-6,-29
1537921671401952,39,13,12,57,8,-34,-7,-1
1537921671415915,-63,-6,4,-12,3,55,10,21
1537921671415915,42,-6,-14,-5,-3,-32,-9,-7
1537921671422896,-34,-13,4,-6,11,12,10,1
1537921671422896,31,-3,-6,-35,-8,-20,-22,-17
1537921671439850,10,19,-2,11,-5,-25,6,28
1537921671439850,-21,-22,7,19,12,46,-9,-20
1537921671440848,-10,-8,-6,-20,-5,-40,3,14
1537921671440848,19,25,-2,20,5,6,-6,-3
1537921671461792,-10,-22,1,-35,-17,-13,-6,-7
1537921671461792,75,36,-4,28,9,17,1,-16
1537921671463787,46,8,-1,-7,-4,-1,-5,8
1537921671463787,-39,-23,-1,-23,0,9,-1,-3
1537921671475754,56,14,3,11,-1,-15,3,18
1537921671475754,24,12,3,2,-1,-11,9,31
1537921671482736,-105,-34,-6,7,4,11,-8,-34
1537921671482736,57,-3,3,-15,1,15,17,16
1537921671498693,13,-6,-17,13,28,18,-9,-15
1537921671498693,28,42,-10,-10,15,-5,-24,22
1537921671505675,18,78,29,17,-14,33,82,15
1537921671505675,-32,79,5,-45,-66,-97,-94,-3
1537921671521632,69,65,-28,29,18,45,43,59
1537921671521632,-128,-122,58,-13,33,55,-74,47
1537921671523627,79,71,-14,-1,-14,-56,-64,-30
1537921671523627,-17,-27,-26,-15,-2,-4,47,38
1537921671536592,-15,17,46,-5,-35,-43,-17,-123
1537921671536592,15,-2,-15,3,25,0,-46,87
1537921671542576,7,6,16,24,100,57,-80,-34
1537921671542576,41,34,-55,-19,-49,-15,56,36
1537921671558533,-72,-23,-9,-5,7,10,-35,58
1537921671558533,20,-128,5,26,54,94,127,-41
1537921671565514,41,36,18,-28,-95,-82,-72,34
1537921671565514,96,62,21,2,-45,-43,-62,-57
1537921671581471,-12,-61,-21,1,47,0,17,-10
1537921671581471,-68,68,-9,26,57,56,9,-24
1537921671583466,-64,-57,-21,-13,-62,-24,59,80
1537921671583466,-58,-105,9,7,45,39,42,27
1537921671596431,-17,-43,30,-6,-51,-15,6,5
1537921671596431,-1,51,-26,-16,5,-41,-29,-19
1537921671603413,-8,-34,-13,31,32,30,21,-15
1537921671603413,-51,-21,16,-2,14,33,-6,-17
1537921671618373,14,23,1,-6,-14,-19,-11,-43
1537921671618373,5,10,-12,-10,-42,-43,0,-20
1537921671625354,3,-2,1,-8,-2,9,28,25
1537921671625354,70,-15,23,32,-1,5,10,6
1537921671642309,-61,23,-10,9,26,13,-11,1
1537921671642309,26,58,-4,-26,-57,-34,11,-12
1537921671643307,27,-44,9,-14,-1,6,15,-2
1537921671643307,-73,8,-14,11,40,-6,-27,-11
1537921671656272,91,14,1,-2,-4,0,6,40
1537921671656272,31,-19,5,1,-30,-26,1,-7
1537921671663253,-45,12,-8,10,15,6,-6,-42
1537921671663253,-12,-7,0,-4,27,37,6,5
1537921671679210,0,-7,1,-3,-14,-16,-4,7
1537921671679210,55,0,3,-9,-29,-25,6,-10
1537921671685194,-8,6,-10,6,20,11,3,5
1537921671685194,-23,-9,1,-3,4,7,4,-15
1537921671702149,17,13,10,4,-12,-7,-3,-2
1537921671702149,21,6,-8,-10,-2,-11,-3,-6
1537921671703146,-4,4,-3,2,7,10,6,4
1537921671703146,-31,-7,2,-5,4,9,-1,-4
1537921671716112,23,3,-2,-4,-3,-9,-6,-10
1537921671716112,2,3,0,1,-8,-9,4,5
1537921671723093,6,-4,-1,1,2,3,9,5
1537921671723093,-9,-12,0,-7,1,4,0,-1
1537921671739051,-10,-2,-4,0,3,2,-5,0
1537921671739051,-23,6,-7,-6,-14,-7,0,-13
1537921671745034,13,-6,1,-2,0,1,1,3
1537921671745034,-3,2,2,-2,9,8,-2,1
1537921671761989,15,1,-1,3,-1,-1,1,3
1537921671761989,55,9,0,-2,-11,-6,0,20
1537921671762986,-68,-13,-4,-3,2,0,-1,-28
1537921671762986,45,6,-3,-1,2,2,0,2
1537921671775952,-18,-4,-3,-1,-2,-4,-6,-5
1537921671775952,-6,4,3,-3,-9,-6,-2,-11
1537921671782933,45,0,-2,2,4,2,3,16
1537921671782933,-17,-5,1,-3,1,3,3,-3
1537921671806869,2,8,1,0,-2,-1,4,1
1537921671806869,0,-1,-4,-2,-1,-3,-3,1
1537921671807867,4,1,-1,-1,0,0,0,1
1537921671807867,-22,-4,-3,-1,1,1,-4,-5
1537921671821829,20,8,0,-3,0,-1,-2,1
1537921671821829,-30,-2,1,1,1,-4,-1,-7
1537921671823824,15,-4,-1,-1,0,-1,2,4
1537921671823824,8,2,3,-2,0,2,1,1
1537921671835792,9,-1,0,2,3,1,1,1
1537921671835792,-46,-10,-4,-1,-2,-2,-3,-12
1537921671844768,11,4,-3,-3,-1,-1,-4,-2
1537921671844768,-8,-14,-2,0,2,4,-1,1
1537921671858731,0,-2,1,-1,-1,0,0,6
1537921671858731,49,12,0,-2,-5,-1,4,10
1537921671865712,-29,-20,-1,-1,3,3,3,4
1537921671865712,-1,7,-4,-3,-1,-3,-10,-24
1537921671881670,36,-5,2,-1,0,-3,0,2
1537921671881670,-68,-24,-3,-3,0,4,1,6
1537921671883664,25,0,1,2,-2,-1,-1,-2
1537921671883664,26,-6,1,1,1,1,3,8
1537921671896629,-54,0,-3,0,-3,-3,-9,-24
1537921671896629,100,27,5,-7,-2,0,3,19
1537921671902614,-67,-10,-5,1,2,2,-3,-7
1537921671902614,55,5,-1,-4,0,0,0,11
1537921671918571,-4,-7,0,4,-3,-4,-1,-1
1537921671918571,-56,-5,-5,-3,1,4,-5,-15
1537921671925553,-1,-9,0,0,-2,-2,-5,-10
1537921671925553,23,1,1,-2,-4,7,5,6
1537921671941509,-71,-33,-5,-3,3,5,0,-5
1537921671941509,33,0,1,1,-1,-4,-7,1
1537921671943505,5,-11,1,-2,-1,-3,-7,-3
1537921671943505,9,9,-3,-9,-1,-10,5,5
1537921671955472,-3,-32,5,10,1,11,-7,20
1537921671955472,-23,12,-8,-4,-8,-12,-12,-58
1537921671964448,114,35,4,0,-3,0,12,7
1537921671964448,-71,-12,-3,0,2,0,-7,4
1537921671978411,127,34,4,3,-2,-13,6,7
1537921671978411,-53,-2,-2,1,1,6,1,-10
1537921671985392,10,-24,-2,-3,2,1,0,-2
1537921671985392,-47,13,1,0,-3,-1,-1,-25
1537921672002347,66,25,-1,-6,-4,-4,-6,33
1537921672002347,-85,-21,3,2,1,-5,9,52
1537921672003344,55,10,-4,-3,-4,-4,-10,-24
1537921672003344,35,12,6,6,6,5,14,12
1537921672015312,-106,-22,-13,-8,-1,-8,-23,-98
1537921672015312,1,-26,4,-3,-1,3,-1,37
1537921672024288,-66,16,1,2,0,-2,8,22
1537921672024288,41,-17,1,2,1,-3,-1,12
1537921672038251,-1,7,1,0,-1,6,17,-18
1537921672038251,61,-20,-10,-7,-3,-2,2,-23
1537921672045232,-53,17,1,0,1,2,0,7
1537921672045232,39,-10,2,4,1,-2,-11,-39
1537921672061189,73,45,9,-4,-5,-3,17,56
1537921672061189,-2,22,0,2,0,1,-3,-15
1537921672069168,38,6,-1,1,-3,-3,-11,-21
1537921672069168,33,14,-3,-5,-5,-5,14,-3
1537921672075152,-46,-13,0,3,3,6,-5,32
1537921672075152,72,21,0,1,-1,-3,-1,-34
1537921672084128,1,18,-3,0,-3,2,2,28
1537921672084128,-16,-6,-1,-2,-1,-1,-5,-34
1537921672099088,-9,-6,0,0,1,-3,-27,28
1537921672099088,-1,7,0,2,-1,1,7,22
1537921672105072,28,-3,5,3,2,1,2,-54
1537921672105072,-108,-46,-4,1,0,2,-31,41
1537921672122027,15,4,-5,-6,-1,-3,-2,-21
1537921672122027,53,19,1,-1,-3,-6,-5,-13
1537921672123026,-18,-3,-1,-3,0,9,3,39
1537921672123026,-37,-11,1,1,1,-10,5,4
1537921672135990,55,17,3,-1,-1,-4,7,3
1537921672135990,-23,9,3,2,1,1,-8,23
1537921672144965,-2,-18,2,-4,0,-2,6,7
1537921672144965,-45,8,-4,3,-1,3,-3,-7
1537921672158928,4,-14,-5,-5,-5,-4,-9,-1
1537921672158928,1,-2,1,-3,-1,-2,8,6
1537921672165909,-13,-4,-2,-2,-1,0,2,-26
1537921672165909,21,11,0,0,-1,0,0,17
1537921672181867,-16,5,1,-1,1,2,13,6
1537921672181867,5,-6,0,1,1,0,-8,-20
1537921672182864,-8,-4,-6,-4,-1,1,4,8
1537921672182864,46,24,1,3,-3,0,1,-6
1537921672195829,-48,-3,-3,0,-2,3,19,10
1537921672195829,-26,-7,-1,-2,0,-2,-7,-30
1537921672204805,2,-5,1,3,1,4,8,58
1537921672204805,37,1,3,-5,2,12,-3,-40
1537921672240709,-7,11,-5,-8,-9,-12,-2,46
1537921672240709,-28,-19,-3,1,1,6,5,5
1537921672250683,2,-13,1,1,-5,-4,-2,-37
1537921672250683,16,11,-4,-3,-1,-3,0,10
1537921672264645,21,13,-1,-1,2,17,15,-39
1537921672264645,-13,-9,-6,-4,-4,-14,-1,4
1537921672265643,16,-1,14,3,-1,-9,-6,12
1537921672265643,-27,-28,-7,-4,-2,6,19,30
1537921672277611,-22,-9,-4,3,5,-1,-24,-41
1537921672277611,18,2,0,0,0,-1,-4,6
1537921672286586,-1,7,-8,-2,1,-3,-15,-12
1537921672286586,-6,3,2,-9,-1,-1,5,-11
1537921672293568,-4,0,-1,7,1,3,20,2
1537921672293568,1,5,2,-2,5,11,-16,17
1537921672294565,15,4,1,0,-1,-4,-18,-25
1537921672294565,-26,1,-1,-4,1,-6,-3,8
1537921672301547,5,-5,5,3,2,9,4,45
1537921672301547,32,10,2,-1,2,3,-11,-19
1537921672303541,24,21,-6,-5,0,8,9,4
1537921672303541,-61,-8,3,2,3,7,1,-13
1537921672315509,-7,3,1,-3,-1,-3,-13,-24
1537921672315509,63,2,0,-1,-2,3,5,-16
1537921672324486,-23,7,-2,-1,1,6,45,4
1537921672324486,45,-8,-3,1,1,-7,-59,28
1537921672346427,16,6,2,-2,-2,-13,1,-6
1537921672346427,-32,-4,2,1,0,3,2,-2
1537921672348422,-47,-7,-3,-2,-1,4,3,17
1537921672348422,15,-6,0,2,0,-1,19,-21
1537921672361387,-86,-17,-10,-6,-2,-3,-20,-110
1537921672361387,10,-4,5,5,0,1,7,44
1537921672363382,39,-1,-2,-2,-2,-4,3,2
1537921672363382,37,16,2,1,-1,2,-1,-11
1537921672407264,-64,-26,1,3,4,3,-5,11
1537921672407264,-70,-7,-3,-10,-5,-4,10,3
1537921672409259,-16,-13,-2,5,3,-4,-31,-51
1537921672409259,6,-1,2,0,-3,-4,-12,18
1537921672420230,59,19,-2,-3,-2,0,2,11
1537921672420230,24,2,2,1,0,-1,5,0
1537921672429206,-10,12,1,0,-1,-1,-6,34
1537921672429206,18,16,3,2,-1,-4,10,-2
1537921672444166,-4,-4,-9,-4,-1,-2,4,4
1537921672444166,61,9,2,3,-2,-7,-1,2
1537921672446160,-2,9,-1,-3,-4,-5,-7,2
1537921672446160,46,-12,-3,-2,-3,-3,18,-4
1537921672459125,17,16,0,-1,-3,-4,-6,10
1537921672459125,-17,-15,-4,-1,-3,-4,-9,-15
1537921672461121,23,7,1,0,-4,-7,0,-1
1537921672461121,-29,-6,-2,1,-3,-1,6,-14
1537921672474085,-3,3,-1,1,-4,-3,-7,-21
1537921672474085,38,4,-3,0,-2,-3,13,-24
1537921672480070,-82,-28,-4,-4,-2,-4,-23,-9
1537921672480070,-24,2,-3,0,-4,-5,7,-1
1537921672497024,93,-3,2,-2,-1,-5,4,28
1537921672497024,-104,-21,-3,1,0,-1,-9,-3
1537921672498022,-22,-28,-5,-2,-3,-1,1,-11
1537921672498022,27,5,-4,-1,-5,-3,-1,-5
1537921672510987,-19,-6,0,2,-2,0,15,-6
1537921672510987,16,6,-4,-4,-3,-2,3,-27
1537921672511985,49,-3,-1,0,-1,-3,10,0
1537921672511985,-125,-12,-5,0,-2,1,-7,2
1537921672533926,40,-22,-1,0,-4,-2,6,-1
1537921672533926,-6,-5,1,-3,-1,-1,3,2
1537921672534923,-10,7,-2,1,-3,1,14,-22
1537921672534923,51,6,-6,0,-4,-4,-25,24
1537921672548885,-90,-39,-4,-4,-2,-4,-12,-3
1537921672548885,30,-1,1,-2,-2,-7,3,25
1537921672549883,34,3,-6,-1,1,0,-4,-23
1537921672549883,-17,15,1,-1,-1,-1,21,3
1537921672570827,13,-4,-2,-2,-1,2,5,22
1537921672570827,-18,-9,-2,1,-2,0,-4,-24
1537921672571824,11,-37,-7,-6,-3,-4,5,71
1537921672571824,7,5,-2,1,-2,-1,3,-7
1537921672594763,47,14,-5,-2,3,0,-7,-33
1537921672594763,-43,-21,-1,1,1,5,8,-5
1537921672594763,20,14,1,2,2,-2,-9,3
1537921672594763,-3,1,-2,0,2,0,2,2
1537921672608726,-18,-9,1,1,0,1,-7,25
1537921672608726,9,6,1,2,1,0,-3,18
1537921672609723,7,9,3,2,-1,0,2,-12
1537921672609723,-83,-46,-4,-2,3,7,-2,2
1537921672630667,42,10,2,-3,-1,1,2,-7
1537921672630667,-9,-1,-4,-2,3,1,1,-11
1537921672631665,21,7,1,-1,-2,1,5,26
1537921672631665,5,5,-2,-2,1,3,-1,-51
1537921672654603,6,7,-2,-1,3,1,-4,2
1537921672654603,7,-5,-1,-1,3,7,8,12
1537921672654603,-5,2,0,0,2,0,-13,14
1537921672654603,48,11,1,0,10,-6,5,13
1537921672668566,3,-9,1,0,-4,5,-22,20
1537921672668566,-14,15,5,11,13,30,2,41
1537921672669563,13,7,-6,-15,-8,0,-2,-15
1537921672669563,8,-8,-2,-4,6,-6,-24,-60
1537921672683525,29,12,2,-3,-2,-21,13,6
1537921672683525,-47,2,-1,2,-1,-12,-8,12
1537921672684523,35,7,3,9,13,39,-6,-29
1537921672684523,17,-11,5,1,-5,-6,23,50
