timestamp,emg1,emg2,emg3,emg4,emg5,emg6,emg7,emg8
1537921841064936,-1,0,0,-1,0,0,0,1
1537921841064936,0,1,0,-1,-2,-1,-1,0
1537921841065933,-1,-1,-2,1,-1,-1,-3,-3
1537921841065933,1,1,-1,-3,-1,0,-2,-1
1537921841066931,0,0,-1,1,0,-1,-1,-2
1537921841066931,0,0,-1,-1,1,-2,0,-3
1537921841070919,1,-1,1,-1,1,0,2,1
1537921841070919,-3,1,1,1,0,-1,-1,-1
1537921841073912,-1,0,1,0,1,1,-1,-2
1537921841073912,-2,-1,-2,-2,-1,1,-2,-2
1537921841076904,-1,1,-3,1,-2,-1,-1,-2
1537921841076904,-2,-3,-2,-1,-4,-2,2,0
1537921841086877,-1,-5,-4,-3,-2,-3,0,-2
1537921841086877,0,-1,2,-1,-1,0,1,0
1537921841107821,0,0,1,-6,0,-1,0,0
1537921841107821,2,0,0,7,1,-1,-1,-2
1537921841108818,-1,0,2,3,-1,-4,-2,0
1537921841108818,0,0,-4,-1,-2,-2,0,0
1537921841116797,-1,-1,-1,0,-1,-1,-1,0
1537921841116797,-3,-1,0,-2,-2,0,-1,-1
1537921841131757,-1,0,0,-4,-1,1,0,-2
1537921841131757,-2,0,-1,3,-1,0,-1,-1
1537921841136743,-2,0,3,0,-1,-1,-3,-2
1537921841136743,-3,-2,0,-3,-1,-1,-1,-3
1537921841184616,-1,-1,-1,-1,0,0,-2,-1
1537921841184616,-1,-2,-2,2,0,0,-2,-2
1537921841185613,-1,1,-3,-2,-1,-1,-1,1
1537921841185613,1,0,0,-1,-2,0,-2,0
1537921841186610,-1,-1,-2,-17,-1,-2,-2,-1
1537921841186610,0,2,0,10,1,-2,-1,0
1537921841189602,-1,-2,1,1,1,-1,2,0
1537921841189602,-3,-3,-2,-7,-2,-2,-2,-3
1537921841196583,1,-1,0,6,0,1,-1,1
1537921841196583,1,-2,0,-4,0,0,-2,0
1537921841203565,0,-1,0,-1,-2,1,-1,-4
1537921841203565,-3,1,-2,1,0,0,1,1
1537921841212541,-3,0,-2,-1,-2,-2,-1,0
1537921841212541,-3,-2,1,-3,-2,-1,0,-2
1537921841227501,1,-2,-1,1,0,-1,-1,0
1537921841227501,-1,-1,1,0,-1,2,-1,-1
1537921841234482,-2,4,-1,3,-1,-1,-1,-2
1537921841234482,0,-2,0,0,0,-1,-2,0
1537921841241463,-2,1,1,-2,-1,0,-2,-1
1537921841241463,1,-2,0,1,0,-2,0,-1
1537921841256423,0,-2,0,1,-2,0,-1,1
1537921841256423,-2,0,-2,-6,-2,-1,1,-3
1537921841264402,-1,-1,-1,4,0,0,0,-1
1537921841264402,-1,-1,-2,1,-1,-1,-1,-1
1537921841273378,-2,-1,1,1,0,-1,0,-2
1537921841273378,0,-1,0,-8,0,0,1,0
1537921841287341,0,-1,-2,3,-1,-2,-2,0
1537921841287341,1,1,1,3,1,-1,-2,0
1537921841294322,-1,-1,2,-2,-2,2,-1,0
1537921841294322,0,2,0,-1,-2,0,0,0
1537921841301304,-1,-2,-2,-5,-2,-2,0,-1
1537921841301304,-2,-1,-1,-1,0,0,-1,2
1537921841316264,1,0,0,3,1,-2,-1,-1
1537921841316264,-1,-1,2,-1,-1,-2,1,-3
1537921841324242,0,-1,-1,-1,-2,-1,-1,-1
1537921841324242,1,2,0,-2,-1,-2,1,-1
1537921841340200,0,-1,1,-1,-1,-1,-2,-2
1537921841340200,-2,-1,0,0,-1,-2,1,-1
1537921841347181,-2,0,-3,0,-2,0,-1,-3
1537921841347181,0,-1,-1,3,0,0,-2,-2
1537921841354162,0,0,-2,1,0,-1,-2,-1
1537921841354162,0,-1,-1,4,-1,-3,-2,0
1537921841361143,-1,1,2,-3,-1,0,1,-1
1537921841361143,-3,-1,-1,-1,-1,0,-2,-1
1537921841385079,0,0,-1,-1,0,-2,0,0
1537921841385079,-1,-1,-3,-3,1,1,-2,-3
1537921841385079,-2,0,0,-3,-2,1,0,-2
1537921841385079,-1,0,1,-1,-2,-2,0,0
1537921841393058,0,-1,1,-1,-1,0,2,-1
1537921841393058,-3,-2,-4,-3,-2,-2,-3,1
1537921841407021,1,-1,0,-1,0,-2,0,-1
1537921841407021,0,-2,-2,1,-1,0,-3,-1
1537921841414002,-1,-2,0,-3,9,0,-1,-3
1537921841414002,-1,2,1,7,-4,1,-1,1
1537921841420983,1,2,6,10,-3,2,1,1
1537921841420983,-2,-3,-4,-6,1,-3,0,-2
1537921841436941,1,-1,-4,4,-4,-2,1,0
1537921841436941,-1,2,7,-10,3,1,-2,-1
1537921841443922,-3,-2,-4,1,4,-3,-3,-5
1537921841443922,-1,-3,-2,5,-2,0,2,-1
1537921841452898,-2,-1,8,3,4,0,-3,-2
1537921841452898,2,-3,-20,-9,-8,-9,-2,3
1537921841466861,-4,5,22,-4,3,1,-3,-2
1537921841466861,9,23,16,6,2,7,2,0
1537921841473843,-9,-32,-45,-12,-10,-10,0,2
1537921841473843,-9,-19,-25,-19,-7,-7,-1,4
1537921841481821,-5,-2,-3,-4,-1,-1,-4,-1
1537921841481821,-4,8,14,-28,12,3,-4,-11
1537921841496781,15,21,23,38,-4,5,2,5
1537921841496781,-4,7,30,19,7,4,-4,-14
1537921841503762,15,10,-7,11,3,-1,4,14
1537921841503762,-16,-33,-38,-21,-21,-10,2,16
1537921841512739,-12,-1,6,-8,6,2,-9,-21
1537921841512739,0,4,14,3,5,1,-6,-8
1537921841527698,15,10,2,-2,-3,-2,4,7
1537921841527698,12,-18,-28,-11,-9,-10,12,32
1537921841533683,-19,-11,-15,-16,-4,1,1,-12
1537921841533683,-19,1,18,18,9,9,-8,-29
1537921841541661,2,18,34,9,6,8,-13,-17
1537921841541661,15,18,22,18,2,0,9,-4
1537921841556621,-1,-32,-35,-29,-10,-10,7,29
1537921841556621,17,11,-35,-15,-6,0,23,63
1537921841563603,-12,-27,-14,-36,4,6,-2,-26
1537921841563603,-8,8,29,40,-8,-20,-34,-41
1537921841572579,-1,6,38,10,-3,-1,-4,-3
1537921841572579,-5,-11,-39,-8,-6,-15,-1,2
1537921841587539,6,-28,-57,-14,-19,-25,7,41
1537921841587539,7,-3,-12,-14,15,32,14,10
1537921841593523,-7,25,42,-11,27,35,8,-30
1537921841593523,34,19,25,33,-8,8,0,14
1537921841601501,-43,-4,8,13,-5,-12,-8,-17
1537921841601501,-5,-9,-5,-2,-5,-16,-5,-9
1537921841617459,1,13,3,6,-2,-11,-20,-10
1537921841617459,35,13,20,-6,13,10,3,2
1537921841624440,1,-9,-14,-10,-21,-10,0,1
1537921841624440,-12,-7,-12,-6,2,2,2,6
1537921841633416,-11,-23,-34,-8,-7,-6,13,25
1537921841633416,-4,-8,-3,-10,0,-3,-7,-13
1537921841647379,15,30,42,26,14,18,3,2
1537921841647379,12,3,-14,-12,-9,-11,-9,0
1537921841654360,-4,-3,-17,4,-9,-8,0,-7
1537921841654360,-28,-10,7,4,4,3,-1,-13
1537921841661341,-1,1,1,3,6,0,1,-12
1537921841661341,11,13,26,-15,21,13,8,7
1537921841676302,10,4,-5,21,-15,-3,-3,-3
1537921841676302,-14,-17,-13,-8,-5,-9,1,-3
1537921841684280,-2,-5,-6,-4,2,3,-1,0
1537921841684280,-10,-3,-6,-7,-3,-3,-2,-7
1537921841693256,7,8,9,-3,4,-3,-7,2
1537921841693256,-1,4,6,-4,-4,2,-3,-4
1537921841707219,2,0,-5,-4,-2,-3,-4,-4
1537921841707219,-2,-3,-1,8,0,3,7,-3
1537921841714200,5,1,2,-4,0,-1,0,9
1537921841714200,-3,0,1,3,-2,4,1,1
1537921841721181,2,-2,-6,-4,2,-2,0,0
1537921841721181,-8,-5,-1,5,-5,-3,-6,-6
1537921841736141,3,4,2,0,1,-1,5,1
1537921841736141,-3,-4,-2,-7,-2,-3,0,-1
1537921841744120,0,-3,-3,-1,-1,0,-3,0
1537921841744120,-3,2,1,5,-2,1,-3,-3
1537921841753096,4,3,1,-2,0,-1,0,3
1537921841753096,-1,1,-1,-1,0,-3,-1,-2
1537921841767059,-1,-1,-3,-3,-1,1,3,3
1537921841767059,-4,0,-1,6,-1,0,-4,-1
1537921841774040,2,0,0,-4,1,0,1,1
1537921841774040,-2,-1,2,-2,-2,-1,0,-7
1537921841789998,0,-1,-2,-2,-2,1,1,2
1537921841789998,-2,1,1,0,-1,-2,-2,1
1537921841795981,0,1,-1,-2,-1,-3,-1,-1
1537921841795981,0,-1,-2,3,-1,-3,0,0
1537921841803960,0,-3,-3,-3,0,1,0,-1
1537921841803960,0,1,4,4,-2,-2,-2,-1
1537921841812936,2,-3,1,-11,1,2,-1,-1
1537921841812936,-2,-5,-2,10,0,0,-1,-2
1537921841826899,-1,1,-5,-6,-2,-2,1,3
1537921841826899,-1,-5,-4,-15,2,0,-1,-1
1537921841833881,-2,0,2,8,-8,-3,-2,1
1537921841833881,-1,2,3,7,6,1,0,-1
1537921841849838,0,-2,-6,-13,2,-2,-2,-1
1537921841849838,-2,1,3,11,0,0,0,-1
1537921841856819,1,2,1,-13,-4,-3,-2,-3
1537921841856819,-1,0,-2,1,-1,-2,-1,-3
1537921841863800,0,-2,-7,-15,-3,0,1,0
1537921841863800,1,1,4,4,2,1,1,0
1537921841872777,-1,-2,2,15,2,-4,-2,1
1537921841872777,-2,-2,3,5,1,-2,0,-3
1537921841886739,-1,-1,-1,-1,0,1,-2,-2
1537921841886739,0,-2,-8,-12,-6,0,0,0
1537921841893720,2,-1,-2,-3,1,0,-1,-1
1537921841893720,-1,-2,-2,-9,-3,-1,-2,0
1537921841909677,-1,-1,2,2,-1,-2,-1,0
1537921841909677,2,-1,-1,-12,-1,-1,-1,1
1537921841916658,-1,0,-1,15,-1,0,-2,-1
1537921841916658,0,-2,-3,-13,-1,1,-1,-1
1537921841923640,3,1,5,10,2,0,-1,-2
1537921841923640,-1,1,8,20,-2,-1,-2,0
1537921841932616,-1,-1,-4,-6,1,-3,-1,1
1537921841932616,-1,-1,-7,-19,-4,-3,0,-1
1537921841947576,-1,-1,1,11,-1,1,0,1
1537921841947576,0,-1,-1,-2,-3,-1,0,-2
1537921841953560,-2,-2,-3,-4,8,3,0,-1
1537921841953560,1,3,2,6,-7,0,-2,0
1537921841969517,0,-1,5,1,-2,1,0,-1
1537921841969517,-1,-4,-1,0,-1,-4,-1,0
1537921841976499,0,2,0,-3,0,1,-1,0
1537921841976499,-1,-1,0,1,4,0,1,0
1537921841984478,-2,-1,-4,-1,1,2,0,-2
1537921841984478,-2,0,-2,-7,-5,0,0,-1
1537921841992456,0,-1,-1,-8,-3,-4,1,-1
1537921841992456,-1,-1,1,19,5,-1,0,1
1537921842007417,0,-1,4,7,-2,-2,-3,-2
1537921842007417,0,0,-1,8,0,-2,-1,1
1537921842014397,0,-2,-6,-18,-3,0,2,1
1537921842014397,-1,0,4,-3,1,0,-2,-5
1537921842029358,1,-2,2,7,-1,-2,0,-2
1537921842029358,-1,-2,-17,-29,-3,-2,0,-1
1537921842036339,0,1,15,25,3,3,-1,0
1537921842036339,-1,2,3,20,2,0,-1,2
1537921842044317,-2,-4,1,-4,0,-2,-2,1
1537921842044317,-1,1,-4,1,2,0,0,0
1537921842059277,-2,0,-4,-6,-4,1,2,1
1537921842059277,-1,0,3,-5,-5,1,-1,-2
1537921842067256,-1,1,-2,-9,-1,-2,-2,1
1537921842067256,-2,-1,-2,6,-1,-1,0,-1
1537921842074238,1,0,-4,-33,0,-2,0,-3
1537921842074238,-2,-2,-2,17,0,-1,-1,-1
1537921842089197,2,0,2,3,-2,0,1,0
1537921842089197,-2,-1,4,7,-2,-2,1,-2
1537921842096179,0,0,-2,2,10,-2,-2,-1
1537921842096179,-2,-3,-2,-17,-14,-2,0,0
1537921842104157,-1,0,-15,-45,-7,2,0,2
1537921842104157,0,-4,-8,-13,1,-1,1,-1
1537921842119117,0,3,19,48,6,-2,1,0
1537921842119117,-1,1,12,24,3,-2,1,0
1537921842127096,-1,0,2,9,8,1,0,3
1537921842127096,-1,-1,-5,-2,-1,-1,-1,-2
1537921842134077,0,-2,-15,-65,-19,0,-1,-3
1537921842134077,0,-1,1,24,8,-2,-1,-4
1537921842150035,-1,-1,-23,-5,-6,1,0,-1
1537921842150035,0,5,37,24,0,-2,0,1
1537921842156019,-4,-1,3,8,10,1,1,2
1537921842156019,-2,-7,-32,-64,-8,0,-2,1
1537921842171976,2,2,16,33,0,-1,-2,-3
1537921842171976,1,7,12,1,6,3,0,-3
1537921842178957,1,1,4,39,9,2,1,-1
1537921842178957,1,-5,-9,-7,-17,-5,1,5
1537921842186936,-3,-5,-32,-46,12,-4,-2,1
1537921842186936,0,-5,-6,-19,-23,1,-1,-4
1537921842194915,0,4,13,25,-7,-4,-1,-1
1537921842194915,2,3,13,5,12,3,0,-2
1537921842209875,-5,-3,9,-9,16,-2,-2,-1
1537921842209875,1,4,19,69,16,2,0,3
1537921842216856,-2,-6,-42,-90,5,-2,-3,-3
1537921842216856,3,3,20,-52,-43,-3,-1,-6
1537921842231817,0,4,32,107,13,-5,2,3
1537921842231817,-5,0,-13,-55,-12,-1,-1,2
1537921842238803,3,-4,1,-18,4,1,-3,0
1537921842238803,-7,-8,-11,17,7,-5,-3,-1
1537921842255752,-2,-10,-62,-80,-11,1,2,-2
1537921842255752,-3,3,40,72,10,-2,-4,-4
1537921842256750,3,6,-28,-47,14,5,3,6
1537921842256750,-2,-3,34,43,-16,-4,-5,-7
1537921842269715,5,10,-3,-81,0,-2,-2,-1
1537921842269715,7,-1,24,73,-5,5,-2,-1
1537921842276696,-14,-12,-71,-91,-56,-17,-2,-1
1537921842276696,0,2,75,46,5,3,0,0
1537921842291656,-3,9,68,127,76,6,3,7
1537921842291656,-2,-3,-58,-22,24,4,0,3
1537921842298637,6,-3,13,-37,-37,-4,-3,-1
1537921842298637,-3,-2,-58,76,4,-3,-1,0
1537921842314595,-3,-14,-40,-75,-55,-5,-4,-4
1537921842314595,-3,3,54,67,39,3,-2,-3
1537921842315592,-5,6,23,17,10,17,-3,-15
1537921842315592,20,17,-19,-60,-21,-16,4,4
1537921842330552,-11,-14,1,50,-48,-16,3,15
1537921842330552,-3,-8,-49,-128,-5,-4,-3,3
1537921842336536,-4,-11,-18,34,-3,-3,-3,-3
1537921842336536,0,13,58,-53,19,11,-4,-16
1537921842351496,8,3,-3,9,-18,6,2,-3
1537921842351496,-7,-7,-9,50,46,-1,5,4
1537921842359475,2,1,-7,-53,-22,3,-6,-1
1537921842359475,-11,-12,-42,-122,-8,-2,-7,-10
1537921842374435,13,32,84,27,-25,-8,-3,-8
1537921842374435,-17,-48,-48,-3,3,-6,4,17
1537921842375432,-6,-7,-5,28,58,-2,-9,3
1537921842375432,-1,2,-29,-43,2,-3,2,0
1537921842390393,4,16,24,-50,-38,20,10,0
1537921842390393,15,21,-16,-128,-70,-9,0,-5
1537921842396377,2,-4,48,48,35,-17,-14,-6
1537921842396377,-26,-18,-10,101,84,14,9,4
1537921842411337,-6,-7,-39,-51,4,-1,0,2
1537921842411337,10,16,47,25,-15,-13,-4,8
1537921842419315,-8,-8,-22,-71,-31,5,-7,-42
1537921842419315,24,0,-22,43,-13,-3,-2,12
1537921842434275,-20,-10,-10,-48,33,6,18,-12
1537921842434275,17,11,40,100,39,10,-12,23
1537921842435272,7,-4,-57,-65,-37,-16,-10,13
1537921842435272,-5,13,91,45,-7,9,7,-6
1537921842450233,-3,-26,-54,0,23,16,11,20
1537921842450233,-2,-3,-46,-94,-51,-8,5,9
1537921842456217,5,21,54,-2,-10,6,2,-17
1537921842456217,-8,-3,-21,23,17,-13,-12,-10
1537921842471176,16,12,-11,-80,19,-9,-12,-14
1537921842471176,-31,-32,26,76,49,-2,1,-21
1537921842479155,2,-4,-26,-20,-21,-4,6,23
1537921842479155,-6,0,-5,-30,7,7,-1,-1
1537921842495112,11,10,-5,-14,-16,-11,-8,2
1537921842495112,4,2,-13,-90,-52,-8,-5,-9
1537921842495112,-9,-2,23,105,69,15,12,7
1537921842495112,-3,-8,-34,-57,-37,-10,-2,4
1537921842510072,-2,2,41,51,12,2,5,-5
1537921842510072,6,0,-40,-42,-15,11,-6,-3
1537921842516056,7,10,36,20,-20,9,7,12
1537921842516056,0,-5,-3,-7,10,0,-1,3
1537921842531016,-4,-9,-24,8,-17,-9,-7,-3
1537921842531016,-5,5,16,-38,-14,-12,-2,-17
1537921842538995,-10,-5,11,73,24,2,4,1
1537921842538995,9,3,-11,-35,6,3,1,6
1537921842554952,-2,-7,20,52,12,0,-6,-2
1537921842554952,-2,4,-8,-6,-12,-2,-2,-3
1537921842554952,4,7,17,21,6,0,1,2
1537921842554952,0,-9,-14,-30,-9,-1,-1,-3
1537921842569912,-5,-6,2,11,-8,-4,-3,0
1537921842569912,1,6,-5,-40,-3,4,3,-3
1537921842576894,2,1,7,37,13,-3,0,0
1537921842576894,-2,2,4,11,-3,0,-2,-1
1537921842591854,-6,-4,-1,-21,-11,-5,-5,-5
1537921842591854,1,1,1,26,13,7,1,-2
1537921842598835,-1,-6,-19,-24,-30,-6,0,0
1537921842598835,3,-1,-11,-75,-4,-3,1,2
1537921842614792,-1,1,17,98,45,4,-5,-5
1537921842614792,2,5,6,2,3,0,5,-1
1537921842615790,0,-6,0,13,-3,0,4,3
1537921842615790,-4,1,-10,-6,-10,-3,1,4
1537921842630750,-1,-1,-6,-30,-10,-2,-6,-4
1537921842630750,-2,-2,-9,-26,-3,-1,-3,-5
1537921842636735,0,1,6,2,11,0,2,0
1537921842636735,2,1,12,40,15,4,2,2
1537921842651694,-4,0,-1,-1,1,1,-2,-2
1537921842651694,0,1,-4,3,-3,-1,3,2
1537921842658675,-1,-4,-10,-45,-18,-4,1,0
1537921842658675,-1,-2,-4,28,3,-1,-4,-4
1537921842674632,-2,-4,-11,-48,-15,-1,-5,0
1537921842674632,0,2,25,59,15,3,0,-2
1537921842675630,-2,1,0,2,2,0,-2,-1
1537921842675630,0,2,13,21,-1,-1,1,3
1537921842690590,1,-1,-15,-15,-9,-1,0,-1
1537921842690590,-1,-4,-11,-24,-4,-2,-3,-3
1537921842696574,2,4,8,4,7,-2,-1,-1
1537921842696574,-3,-2,1,-9,-18,-3,-1,0
1537921842711534,0,0,4,6,9,1,-2,-1
1537921842711534,-2,0,7,34,11,1,0,-2
1537921842718515,-3,-4,-6,-8,-2,-2,-1,0
1537921842718515,-2,-3,-6,-11,-5,-2,-1,1
1537921842734472,1,3,3,-14,-5,-2,1,1
1537921842734472,-2,-2,-1,6,-2,-1,-1,-1
1537921842735470,-1,-4,-2,-9,-4,1,2,0
1537921842735470,-1,-1,-1,17,12,0,-1,-2
1537921842750430,0,-2,1,4,5,-1,-2,0
1537921842750430,-3,-4,-15,-27,-5,-1,0,0
1537921842756414,2,1,10,10,-12,-5,0,0
1537921842756414,-1,-2,4,10,-2,1,-2,-1
1537921842771374,-1,-4,-4,2,-5,-3,-1,1
1537921842771374,-3,-2,-5,-18,-5,-2,-1,-3
1537921842779352,0,-1,2,8,7,1,-1,-2
1537921842779352,0,1,-4,-12,0,-1,0,-4
1537921842794312,1,3,5,7,3,0,-1,0
1537921842794312,-1,-2,-4,-7,-3,-2,-1,0
1537921842795310,0,3,3,2,3,1,1,0
1537921842795310,-1,-1,-2,1,-3,0,-1,0
1537921842810271,-3,-4,-10,-18,-5,-1,-2,-1
1537921842810271,2,3,16,9,-3,0,-3,-3
1537921842816254,-2,-3,-8,-8,-2,-4,-1,-1
1537921842816254,1,-2,-7,-26,-6,0,-1,3
1537921842831214,-1,-4,-1,-19,-6,-2,-2,-1
1537921842831214,0,1,6,59,18,0,0,-1
1537921842839193,-1,-1,0,5,-3,-1,-1,0
1537921842839193,1,0,-9,-17,-11,-3,-3,0
1537921842854152,1,-1,-2,-12,3,-3,-2,0
1537921842854152,-2,1,-4,-17,1,-1,-2,-1
1537921842855150,-3,0,1,3,0,0,0,1
1537921842855150,-1,2,-2,-9,-1,0,0,1
1537921842870110,-1,-1,2,-4,-12,-1,-1,-3
1537921842870110,2,-1,-1,8,8,1,0,-2
1537921842876094,1,-2,-4,3,1,-3,-1,0
1537921842876094,-2,0,-2,-5,-1,1,-1,-4
1537921842891054,-2,-1,10,15,-2,-2,-2,0
1537921842891054,-2,-1,-7,-12,-4,2,0,-1
1537921842899032,1,0,1,2,2,-1,0,-2
1537921842899032,-2,-4,-3,-10,-2,-1,0,-2
1537921842914990,-1,-1,2,14,2,1,1,0
1537921842914990,-1,-2,-8,-16,-6,-2,-2,1
1537921842914990,0,-1,-3,-10,-3,-3,-2,-1
1537921842914990,-4,-1,9,10,0,-3,-1,1
1537921842929950,0,1,2,4,4,0,-1,1
1537921842929950,1,0,-2,-15,-4,-1,0,0
1537921842936932,0,0,3,14,1,-1,-4,0
1537921842936932,0,-1,-3,-5,-3,-1,0,-2
1537921842951891,-4,-2,-3,1,-2,-3,-1,0
1537921842951891,0,0,-1,-6,-4,0,-1,-1
1537921842958872,-1,1,1,-3,-3,-2,-2,-3
1537921842958872,1,-1,-1,-9,-4,1,-1,0
1537921842974830,0,-1,1,6,5,-2,0,-2
1537921842974830,0,-3,-3,8,1,-4,1,3
1537921842975827,0,-2,-1,-1,1,0,-2,1
1537921842975827,-4,-1,3,6,1,-2,-5,-7
1537921842990787,1,-1,-2,-6,-6,-1,-1,0
1537921842990787,-1,0,-5,-16,-11,-4,1,2
1537921842996771,0,-1,-4,-3,2,-1,1,1
1537921842996771,0,1,9,-1,-2,0,0,0
1537921843011731,0,0,0,16,6,0,0,-4
1537921843011731,0,-1,1,-3,-3,-2,1,2
1537921843018713,-1,-1,-1,-1,-2,2,3,-2
1537921843018713,-1,-3,-7,-7,-3,-1,-2,1
1537921843033673,-2,0,-1,-1,-2,2,1,0
1537921843033673,0,2,1,0,3,2,-3,-6
1537921843041652,-2,1,2,-4,-3,-1,3,-3
1537921843041652,-6,-5,-1,4,2,0,1,1
1537921843050628,2,-1,-2,-4,-2,-1,2,3
1537921843050628,4,0,-2,-1,-2,0,0,1
1537921843056611,-6,-3,0,-3,-3,-1,-1,-5
1537921843056611,4,3,-1,7,3,0,-2,0
1537921843071572,0,-2,0,-1,-3,-2,1,4
1537921843071572,-7,-1,0,-1,2,1,-1,-5
1537921843078553,1,0,0,3,2,-2,-2,0
1537921843078553,3,0,-2,1,-2,-2,-3,-2
1537921843093513,-1,0,-2,-6,-2,-1,0,1
1537921843093513,-2,-4,0,-3,-3,-3,-2,-6
1537921843101491,-1,0,-1,1,-2,-1,0,1
1537921843101491,0,0,-2,0,-1,0,1,0
1537921843110467,1,1,0,-3,-2,-1,-3,1
1537921843110467,0,0,4,-1,0,-1,-1,-3
1537921843116452,-1,-2,0,2,1,2,0,-1
1537921843116452,-5,-2,-4,-7,0,-1,0,-1
1537921843131411,2,0,-3,4,-1,-1,0,1
1537921843131411,-1,2,2,1,0,0,-2,0
1537921843139390,-3,-3,-3,-19,-6,0,-4,-3
1537921843139390,2,-1,-1,11,3,1,0,-1
1537921843154350,-1,-1,2,10,2,-1,0,-2
1537921843154350,-1,2,5,10,-2,-3,-1,-1
1537921843161331,3,0,3,3,-2,-2,0,3
1537921843161331,2,-1,-4,-11,-1,0,0,4
1537921843177289,-6,-4,-5,-11,-1,-1,0,-6
1537921843177289,3,-2,-3,-4,2,-1,1,3
1537921843178286,-1,1,-2,-1,-3,1,-1,-1
1537921843178286,1,2,1,1,-2,-2,-1,2
1537921843191251,0,0,0,-1,2,1,-2,-1
1537921843191251,-2,-3,-1,-3,0,0,0,-2
1537921843199230,0,-3,0,2,0,-3,1,0
1537921843199230,-4,-1,1,2,0,0,1,-2
1537921843214190,-1,1,1,-4,-3,-1,-1,-2
1537921843214190,-2,-3,-1,-4,0,-3,0,0
1537921843221171,0,0,-1,4,-1,-1,-1,2
1537921843221171,-2,-1,1,6,1,1,-2,-2
1537921843237129,0,1,1,-4,-2,-2,-1,-2
1537921843237129,1,-1,-3,-4,-3,-2,0,0
1537921843238126,-2,-2,-1,1,-1,-4,-4,-6
1537921843238126,-1,0,-1,-2,-2,-2,0,-1
1537921843251091,2,0,-2,-1,-3,-2,-1,0
1537921843251091,-1,0,-1,-1,-2,1,2,2
1537921843259070,-1,-1,1,2,1,-2,0,-1
1537921843259070,-1,-2,1,0,-1,0,-2,-2
1537921843274031,-1,-1,1,-1,-1,-2,-1,-1
1537921843274031,-1,1,-1,-2,-1,-1,0,1
1537921843281012,-3,-1,-2,0,-1,0,-2,-1
1537921843281012,0,1,1,-2,-1,-2,-2,-2
1537921843296969,-2,0,-2,0,0,-1,1,-1
1537921843296969,0,-2,-3,-2,0,1,-1,2
1537921843297966,-3,0,1,1,0,1,-2,-3
1537921843297966,-3,-1,-3,-5,-1,0,1,-3
1537921843311929,0,-1,-1,-3,-1,2,-1,-2
1537921843311929,-7,-4,1,8,0,-1,-3,-6
1537921843318910,4,-2,1,1,0,-1,0,9
1537921843318910,2,0,2,1,1,1,4,-4
1537921843333870,-11,-2,2,-2,2,-1,-3,-7
1537921843333870,3,1,-4,-24,-4,-3,-1,1
1537921843341849,-5,-2,-4,10,8,1,-1,-8
1537921843341849,3,2,5,9,-5,-1,-2,0
1537921843356809,1,-2,3,8,0,-3,0,6
1537921843356809,-5,1,6,6,1,0,4,-6
1537921843357806,-1,1,-1,-7,-4,-1,-3,-2
1537921843357806,4,-2,-11,-18,-1,-3,3,2
1537921843371769,-5,1,3,-1,-2,9,0,-3
1537921843371769,2,2,8,8,2,3,5,2
1537921843378750,3,-8,-14,0,-1,-6,-5,7
1537921843378750,-11,-11,-17,-9,-8,-6,-8,-12
1537921843393710,11,10,5,-8,-2,-14,-4,17
1537921843393710,-2,1,1,1,3,4,6,-4
1537921843401689,3,3,-3,-5,2,17,8,4
1537921843401689,0,-5,6,2,4,-8,-5,3
1537921843416649,3,4,5,19,6,9,29,5
1537921843416649,-22,-2,-9,-6,-21,-6,-34,-27
1537921843417647,5,9,14,9,2,-13,2,5
1537921843417647,4,-8,-8,4,6,12,18,27
1537921843431609,-1,-1,-5,-1,16,10,2,-10
1537921843431609,-1,-29,-40,-8,-19,-16,-4,28
1537921843438590,-27,-19,-26,-16,-23,-26,-21,-28
1537921843438590,-5,3,8,-11,5,-2,-14,-30
1537921843453550,28,28,26,-16,8,33,45,47
1537921843453550,8,21,61,52,39,12,-13,1
1537921843461529,25,0,-21,13,-7,-3,7,-6
1537921843461529,-23,-12,-5,5,-5,-2,17,-9
1537921843477486,-6,-21,-23,-20,-22,-14,-27,3
1537921843477486,-11,30,6,-38,10,5,12,-13
1537921843477486,27,14,25,7,-3,9,12,32
1537921843477486,-5,-9,10,24,3,6,-5,-19
1537921843491449,2,-23,-34,28,-14,-14,0,0
1537921843491449,-56,-37,-17,-7,3,-21,-23,-10
1537921843499427,35,33,22,12,25,7,6,0
1537921843499427,28,22,-9,-29,-6,13,12,30
1537921843514387,-1,11,3,-23,-12,-14,-28,-13
1537921843514387,4,-22,-20,-1,-19,-10,7,-6
1537921843521369,-43,-24,-24,-34,-11,-21,-24,-22
1537921843521369,3,20,22,-10,12,15,17,-15
1537921843537326,24,15,29,30,11,31,-6,-5
1537921843537326,14,-6,-8,-30,1,-9,12,7
1537921843537326,-7,3,20,50,1,22,9,12
1537921843537326,6,-12,-13,7,-14,-3,5,5
1537921843551289,-52,-23,-8,-28,-6,-28,-27,-26
1537921843551289,33,-1,-24,12,-5,-9,-2,1
1537921843559267,-19,0,-21,-25,13,-4,-7,-1
1537921843559267,25,10,19,14,-7,-14,-29,-3
1537921843574228,-16,-6,-4,-16,-17,-4,10,-36
1537921843574228,13,22,19,-2,9,8,8,32
1537921843581209,-3,-16,10,10,-3,-4,6,-19
1537921843581209,-5,6,-12,6,0,-11,-40,-13
1537921843597166,36,13,12,1,17,34,65,42
1537921843597166,39,23,12,-8,-2,40,28,40
1537921843598164,-13,-3,-8,-7,0,9,8,34
1537921843598164,-39,-23,-13,-37,-15,-26,-30,-39
1537921843611129,-7,-12,0,58,10,-16,-22,-16
1537921843611129,-21,-29,-52,-22,-17,-16,5,-4
1537921843619108,-12,2,14,-25,4,10,-11,-17
1537921843619108,11,9,39,41,-19,-13,1,12
1537921843634068,-15,-6,-16,6,9,-18,-12,-9
1537921843634068,0,4,21,15,3,-6,-17,-16
1537921843641049,17,18,-10,1,3,6,27,0
1537921843641049,-16,-10,-2,-18,2,8,-6,11
1537921843657006,-12,17,7,2,-5,-10,-24,-16
1537921843657006,-10,-17,-14,-17,-8,-9,-13,-19
1537921843658004,-14,-12,14,-11,-11,-22,-20,-26
1537921843658004,63,32,23,37,29,15,2,40
1537921843670969,-12,7,14,2,6,43,43,12
1537921843670969,31,15,6,3,16,48,42,61
1537921843678948,-4,-25,-20,-11,-23,-19,-8,14
1537921843678948,-49,-45,-56,-31,-10,-23,-11,-27
1537921843693908,7,-12,-19,-18,-28,-39,-35,-15
1537921843693908,-30,-9,4,-6,-27,-22,-17,-33
1537921843701887,7,23,21,11,19,12,9,5
1537921843701887,12,7,-16,-5,16,10,12,5
1537921843716847,-35,-20,22,0,3,-18,-31,-31
1537921843716847,-33,4,16,46,7,5,12,-46
1537921843717844,29,27,13,3,8,28,28,70
1537921843717844,-17,-8,7,7,-4,-23,-19,-34
1537921843731806,37,16,-16,-25,13,30,27,41
1537921843731806,0,-16,3,0,-8,-12,-22,-14
1537921843738788,-17,-23,-22,-2,-7,-9,-7,-32
1537921843738788,2,5,-9,-17,-5,-1,24,10
1537921843753747,-11,-22,-14,-12,-9,10,14,24
1537921843753747,-3,20,28,17,12,-7,-23,-21
1537921843761726,12,-2,-3,-14,2,3,-5,-18
1537921843761726,-3,3,-1,16,-1,10,23,22
1537921843776686,10,-5,-14,-5,-13,-13,-5,9
1537921843776686,5,1,-16,-24,8,2,5,7
1537921843777684,-8,1,8,5,-3,-2,-18,-9
1537921843777684,-12,-3,17,10,3,-12,-10,-16
1537921843791646,1,10,11,15,5,8,-2,-7
1537921843791646,8,5,1,5,-5,1,3,10
1537921843798628,-8,-12,-13,-12,-7,-14,-14,-19
1537921843798628,1,-4,-9,-14,-1,12,12,11
1537921843813588,-3,9,0,4,7,-2,-2,-5
1537921843813588,-2,-11,-3,3,-9,-12,-6,-3
1537921843821566,-1,-1,15,7,-10,-24,-23,-8
1537921843821566,3,10,9,13,11,15,22,4
1537921843838522,16,2,-8,-10,13,45,23,41
1537921843838522,5,-6,-17,-13,-10,-16,-13,-1
1537921843839519,-12,-1,-3,-6,-5,-4,14,-15
1537921843839519,5,4,1,-7,-2,18,-4,17
1537921843851486,-6,-9,-2,-2,-5,-26,-22,-30
1537921843851486,-1,2,-5,-4,6,11,14,5
1537921843858468,2,-1,3,7,-2,-5,-7,3
1537921843858468,-2,-5,2,3,-7,-11,-4,-4
1537921843882404,-14,0,-3,4,5,2,4,-12
1537921843882404,9,6,3,1,1,4,-2,8
1537921843883402,-2,-1,-2,-4,1,1,4,1
1537921843883402,-3,-3,-5,-7,-3,4,-2,-1
1537921843897364,5,1,4,-2,-1,-5,-7,-1
1537921843897364,-1,2,-2,-2,1,-5,-1,-3
1537921843897364,-2,-4,0,0,0,7,2,4
1537921843897364,-1,5,3,16,0,1,3,2
1537921843911326,0,-1,3,2,-1,-16,-6,-4
1537921843911326,-3,-3,-3,0,-4,-2,0,-2
1537921843919305,-2,-6,-11,-9,2,13,10,0
1537921843919305,1,-3,-3,-5,-1,0,-7,3
1537921843934265,-6,-6,1,-6,-6,-14,-6,-6
1537921843934265,1,4,3,-1,2,8,5,1
1537921843942244,2,-1,-2,5,1,0,-5,4
1537921843942244,-5,-3,-3,-7,-2,-6,-3,-9
1537921843956206,2,0,-2,-2,-5,-2,3,-2
1537921843956206,2,1,3,0,3,4,1,4
1537921843964185,2,1,1,6,1,2,0,0
1537921843964185,0,0,-2,-3,0,-1,1,4
1537921843971166,-2,-1,0,-3,-4,-5,-1,-2
1537921843971166,1,0,2,5,2,1,-3,-1
1537921843979145,1,2,-1,1,-1,-1,1,-1
1537921843979145,-2,-1,-1,-5,-3,-1,-1,0
1537921843994106,1,1,-3,0,-2,-2,-1,-1
1537921843994106,-4,0,0,2,0,-1,2,-4
1537921844002084,2,-3,-3,-6,0,2,-2,3
1537921844002084,-2,-1,-1,4,-2,0,1,-1
1537921844016047,0,1,-2,-7,-2,-3,-3,-4
1537921844016047,1,-1,5,12,2,-2,0,0
1537921844025023,0,0,1,1,-1,0,1,0
1537921844025023,-2,-1,-3,-5,0,-1,0,-1
1537921844031007,1,-2,-2,-3,-2,-2,-3,-4
1537921844031007,1,-2,0,-6,-2,-1,-2,3
1537921844038986,-1,0,-3,-1,-2,0,0,1
1537921844038986,-1,0,0,-3,-2,-3,-1,1
1537921844053945,0,0,0,0,0,-2,-2,-2
1537921844053945,-1,-1,-3,-4,-2,0,4,1
1537921844061924,-2,0,4,5,1,0,-3,-4
1537921844061924,0,-3,-2,-2,-2,-3,1,5
1537921844084864,0,3,2,0,1,2,-4,-8
1537921844084864,-2,-2,0,1,0,0,5,4
1537921844085861,-1,-1,-4,0,-2,-2,2,1
1537921844085861,-1,-2,-2,-3,-1,0,0,-5
1537921844091844,1,-1,-2,0,-1,-3,0,3
1537921844091844,1,0,-2,-13,-3,-1,-4,-3
1537921844098826,1,-2,0,16,-1,-1,0,0
1537921844098826,-2,0,1,0,0,-1,-2,0
1537921844113785,1,-1,0,3,2,1,1,0
1537921844113785,-3,-2,-1,-3,1,0,-2,-4
1537921844121764,-2,-1,-2,-8,-3,-1,-1,-1
1537921844121764,2,-1,-2,-2,-4,-1,-2,-3
1537921844136724,-7,-1,-4,-3,-4,-3,-2,-1
1537921844136724,-2,-3,-6,-3,-1,-1,0,-2
1537921844144702,6,5,2,0,4,2,1,4
1537921844144702,-1,-3,0,-1,0,-1,0,-3
1537921844159663,0,-1,1,4,-1,1,-2,-4
1537921844159663,-3,-1,1,7,-3,-4,-2,-2
1537921844160660,-4,-3,-2,-5,-4,-2,-2,-1
1537921844160660,-2,-1,-3,-6,-1,1,-4,0
1537921844173625,1,2,-1,1,3,2,1,0
1537921844173625,-5,-3,0,0,-11,-4,-2,-2
1537921844182601,10,5,8,13,10,8,3,7
1537921844182601,-3,2,3,-2,-2,-3,-2,-3
1537921844196564,-2,-5,-3,-2,3,0,0,0
1537921844196564,7,6,3,5,4,2,3,1
1537921844204543,-7,-5,-9,-12,-8,-6,-3,-3
1537921844204543,-2,0,-3,-1,-2,-2,-2,0
1537921844219503,-2,-1,0,-2,0,-2,-4,-1
1537921844219503,-3,-3,0,-5,2,0,0,-3
1537921844220500,-2,-2,-1,-2,-3,-4,0,-2
1537921844220500,1,0,1,2,1,3,1,1
1537921844233465,0,-1,-2,-3,-3,-2,0,2
1537921844233465,2,-2,-1,-3,0,0,2,3
1537921844242441,-1,3,0,-2,3,3,-3,-7
1537921844242441,-2,0,1,4,0,-3,-1,0
1537921844256404,-1,0,-1,-1,-4,-2,-4,-2
1537921844256404,0,-1,0,0,0,-1,0,1
1537921844264382,-3,-3,-5,-6,-3,-4,1,0
1537921844264382,3,1,1,2,3,3,3,6
1537921844279343,-1,1,4,0,-1,-2,-2,-6
1537921844279343,2,0,0,1,2,1,-3,-1
1537921844280340,-3,-2,-1,-1,-2,-1,-3,-2
1537921844280340,-3,-4,-3,-3,-4,-3,-4,-1
1537921844294303,1,-1,-2,-2,-3,-2,1,4
1537921844294303,-1,0,1,2,1,0,-2,0
1537921844302282,-5,-1,4,0,2,0,-2,-5
1537921844302282,0,0,1,1,0,1,0,-4
1537921844316244,0,-2,-9,-6,-7,-5,0,1
1537921844316244,-3,-3,-4,-5,-2,-3,-2,3
1537921844324223,2,0,-2,-3,-2,-1,-2,1
1537921844324223,0,2,2,0,1,2,0,-3
1537921844339183,-2,2,5,2,3,1,-1,-2
1537921844339183,-1,-1,-1,1,-3,-1,0,1
1537921844340181,2,-2,-3,-1,-2,0,3,2
1537921844340181,-3,-1,-2,-2,-2,0,-1,-1
1537921844354143,0,1,-1,-3,-2,-4,-6,-2
1537921844354143,-1,-1,-5,-3,-2,-3,1,0
1537921844362121,5,5,6,5,6,6,5,1
1537921844362121,-3,0,2,1,-1,-2,-1,-5
1537921844376084,-2,-4,-1,0,0,0,2,2
1537921844376084,2,-1,0,0,-1,-1,-1,3
1537921844385060,-1,-3,-1,-2,-3,-4,-3,-1
1537921844385060,-2,-2,-2,-3,-1,-2,0,-1
1537921844400020,1,-3,-4,-2,-1,-2,0,6
1537921844400020,-2,3,3,2,1,1,0,-9
1537921844400020,0,-2,-3,-3,-1,-2,-8,2
1537921844400020,2,-1,-2,-1,-4,-7,5,1
1537921844413983,-2,0,-1,1,-2,-3,-2,-2
1537921844413983,3,0,-1,-1,3,9,4,6
1537921844421961,0,1,-1,-1,-1,-4,1,3
1537921844421961,1,-3,-2,0,1,0,-4,2
1537921844435924,-2,1,2,0,-4,-6,-2,1
1537921844435924,-8,-2,-2,-2,-2,-2,-1,-11
1537921844444900,5,3,3,0,0,0,-1,0
1537921844444900,3,-1,-4,-4,-3,0,2,5
1537921844459860,-4,-2,1,3,0,0,0,-8
1537921844459860,-2,1,-2,-1,0,-4,-6,2
1537921844459860,-6,-4,-4,-1,-2,-1,0,-4
1537921844459860,-4,0,0,-2,-1,1,4,2
1537921844473824,12,1,0,-1,-1,1,-1,4
1537921844473824,-2,-1,2,1,-1,-3,-5,-11
1537921844481802,-2,-3,-3,-2,-3,0,-2,0
1537921844481802,-1,-1,-1,0,-1,0,-8,-4
1537921844496762,-5,-2,-2,-1,1,-1,10,3
1537921844496762,3,0,2,1,1,4,-1,4
1537921844504741,-1,-2,-1,0,-3,-2,1,-1
1537921844504741,-3,0,0,-1,-1,-4,-13,-5
1537921844519701,-4,-2,-1,-3,-3,-5,-3,-7
1537921844519701,0,-2,-3,-4,-1,2,6,5
1537921844520698,-1,2,0,0,0,5,1,3
1537921844520698,-3,-1,1,1,0,-1,-1,0
1537921844533663,-3,0,1,-1,-2,0,-4,-2
1537921844533663,-2,-3,-2,0,-2,-6,-4,-5
1537921844541642,-4,-2,-2,0,-2,-2,-2,-4
1537921844541642,2,-1,0,0,1,1,5,4
1537921844556602,1,-1,1,1,0,0,-1,0
1537921844556602,-1,-2,0,-1,-1,-1,-3,-3
1537921844564580,1,-1,-2,-1,-1,-1,2,0
1537921844564580,2,0,-1,0,0,0,-2,-2
1537921844579540,-3,0,-1,0,1,1,-1,0
1537921844579540,-1,-2,-2,2,1,0,-1,2
1537921844580538,-2,-1,-1,-1,-1,-3,-1,-3
1537921844580538,-2,0,-3,-2,-1,-1,-2,-1
1537921844593503,1,-2,-2,0,0,3,0,0
1537921844593503,-3,-1,1,0,-2,-4,-3,3
1537921844602479,-2,-2,-2,0,0,-1,1,0
1537921844602479,-3,-3,1,1,-3,-1,0,-6
1537921844616442,-4,-2,0,1,0,3,-3,-5
1537921844616442,2,1,1,3,-1,-2,-4,-2
1537921844624420,-1,1,-1,-2,-1,-2,2,3
1537921844624420,2,-1,-2,-1,-3,-2,0,4
1537921844639380,2,2,3,-2,3,3,5,0
1537921844639380,-2,-1,2,2,-1,3,2,3
1537921844640378,-1,-1,3,1,1,-4,-10,-5
1537921844640378,-2,-1,-8,-7,-9,-13,-7,-2
1537921844654340,4,-2,-3,-3,3,12,17,17
1537921844654340,2,13,14,2,3,5,-2,0
1537921844669300,14,5,11,10,5,-2,-5,-1
1537921844669300,-15,-27,-27,-8,-12,-18,-14,-20
1537921844676281,-8,-15,-35,-20,-6,8,15,4
1537921844676281,-11,-1,7,0,6,2,-6,-17
1537921844684261,-7,3,13,3,-2,-10,-10,-3
1537921844684261,-13,6,20,10,8,-5,0,7
1537921844699220,33,1,-16,6,-5,1,2,0
1537921844699220,-5,-20,-44,-36,-18,12,19,32
1537921844708197,-4,2,6,0,4,3,2,-9
1537921844708197,-7,10,32,15,12,3,-8,-23
1537921844714180,22,19,36,21,8,-5,-5,30
1537921844714180,4,1,-5,5,-5,-17,-15,-22
1537921844724154,2,-16,-25,-18,-17,-17,-14,8
1537921844724154,28,5,-3,-1,2,-2,17,15
1537921844736122,-27,-16,-11,-9,-8,-4,-16,-15
1537921844736122,7,-4,8,9,10,15,7,5
1537921844745098,11,9,1,8,15,27,21,35
1537921844745098,1,7,-5,-4,-5,-2,1,-5
1537921844759060,-36,-19,-11,-18,-17,-29,-26,-25
1537921844759060,35,39,60,23,18,19,17,6
1537921844768037,0,10,-12,5,1,4,-5,-3
1537921844768037,-11,-42,-63,-21,-7,0,11,8
1537921844774020,-42,-19,-19,-16,-18,-19,-26,-30
1537921844774020,-35,12,9,-4,0,-10,3,-17
1537921844782997,14,20,57,21,14,6,9,39
1537921844782997,15,22,19,17,2,9,0,2
1537921844795962,-21,-29,-24,-5,3,4,-6,-13
1537921844795962,-7,4,19,10,2,-9,9,3
1537921844804938,6,8,-18,-7,-6,1,4,0
1537921844804938,-43,-42,-39,-29,-17,-4,-6,0
1537921844818901,30,33,44,17,24,28,14,1
1537921844818901,23,27,34,20,8,7,6,0
1537921844827877,4,-3,-5,5,3,2,-7,-9
1537921844827877,-15,-34,-46,-18,-16,-13,2,-3
1537921844833861,-12,-29,-49,-23,-15,-10,6,15
1537921844833861,-33,-30,-19,-19,-12,-12,-10,-5
1537921844842837,7,36,33,12,13,5,-3,-29
1537921844842837,14,35,60,25,19,16,-2,-7
1537921844856799,24,-5,-7,6,-8,-13,1,7
1537921844856799,-23,-14,-23,-14,-15,-24,-22,-6
1537921844865775,-34,-22,-2,-7,-2,21,2,-22
1537921844865775,63,41,12,7,11,8,18,50
1537921844878741,0,-7,0,11,4,4,3,-2
1537921844878741,-12,-23,-30,-18,-11,-14,-2,5
1537921844887717,8,-11,-15,-14,-9,-5,9,2
1537921844887717,31,53,73,28,29,21,-4,-10
1537921844893701,1,12,11,18,-5,-13,3,7
1537921844893701,-6,-58,-87,-32,-25,-16,-4,-7
1537921844902676,-9,-3,-15,-16,-6,-3,-1,6
1537921844902676,4,8,23,7,3,3,3,9
1537921844916640,18,15,15,8,11,9,-3,-12
1537921844916640,-7,14,3,-1,-5,-14,-12,-8
1537921844925615,-16,-34,-16,1,-2,0,2,-14
1537921844925615,-34,-25,-19,-10,-7,-4,0,-16
1537921844938580,41,27,19,2,15,25,8,46
1537921844938580,0,-2,5,8,3,7,4,-2
1537921844947556,-6,-8,-18,-16,-19,-33,-19,3
1537921844947556,-29,-8,-3,-7,-6,6,6,-19
1537921844953540,-12,10,19,5,9,6,6,1
1537921844953540,-3,5,14,16,12,13,-11,-4
1537921844962516,13,11,17,10,5,5,6,0
1537921844962516,-22,-21,-34,-12,-12,-18,-19,-15
1537921844976479,-25,-24,-19,-16,-11,-7,2,-10
1537921844976479,24,33,25,11,13,13,1,12
1537921844992436,-19,11,35,12,-3,-14,-9,-23
1537921844992436,3,-30,-46,-12,-7,4,2,-2
1537921844999418,-11,-22,-40,-20,-11,-12,3,0
1537921844999418,9,-6,-5,-6,-4,-1,2,7
1537921845007397,1,7,-2,-1,0,-1,-3,-6
1537921845007397,-2,15,28,7,2,-5,4,-2
1537921845014378,11,27,34,14,13,16,3,14
1537921845014378,26,-1,-3,5,-4,-9,-4,-3
1537921845022357,-26,-28,-33,-20,-14,-16,2,0
1537921845022357,8,8,0,-3,4,18,6,7
1537921845036319,-4,7,6,1,-3,-8,-12,-21
1537921845036319,-9,1,3,4,7,5,3,0
1537921845045295,3,-7,-5,0,-1,-2,-1,4
1537921845045295,0,-2,-6,-6,-5,-6,-2,-1
1537921845059258,-7,-5,-3,-6,-3,-7,-3,-10
1537921845059258,1,2,3,1,0,1,2,2
1537921845068234,-9,-10,-13,-4,-3,0,-1,-8
1537921845068234,16,6,2,1,-2,-6,-4,12
1537921845083194,6,14,16,5,3,9,4,-1
1537921845083194,5,-6,-6,-1,-4,-5,-2,3
1537921845084192,-1,-3,-9,-4,0,5,5,0
1537921845084192,-4,1,7,0,-1,-2,-8,-2
1537921845096159,-2,-2,2,0,0,-5,-2,-6
1537921845096159,-6,-4,-7,-5,-4,-2,0,-3
1537921845105135,5,1,-3,0,2,7,1,7
1537921845105135,2,1,3,0,0,-3,-7,-2
1537921845119098,-7,-1,0,-1,-2,-7,-5,-7
1537921845119098,-1,3,-3,-3,1,4,2,0
1537921845128074,7,2,0,1,1,1,3,2
1537921845128074,-5,-3,-1,0,-4,-5,-6,-7
1537921845143034,4,0,1,-2,-3,-2,0,9
1537921845143034,-4,1,3,2,2,6,3,-6
1537921845144031,4,-1,-2,-2,-1,-2,-2,6
1537921845144031,-1,-7,-2,-1,-1,-1,0,0
1537921845156000,-11,2,3,2,2,0,-4,-19
1537921845156000,-2,-2,0,-2,-4,-9,-9,-4
1537921845164975,3,-5,-5,-2,-1,6,9,1
1537921845164975,-1,1,1,0,1,3,-5,1
1537921845178938,-6,1,1,1,1,2,0,-7
1537921845178938,-1,-6,-3,-1,0,-3,-2,5
1537921845187914,-7,-4,-4,-3,-2,1,6,-3
1537921845187914,2,1,2,-2,1,-2,-5,-1
1537921845202874,3,1,-1,-1,-2,-4,5,6
1537921845202874,1,1,-1,-2,2,3,-2,-2
1537921845203871,1,-1,-2,0,-2,-7,-8,-3
1537921845203871,-3,-1,-2,0,0,7,2,2
1537921845216837,4,2,3,-1,-2,-1,-2,0
1537921845216837,0,-3,-2,-1,-1,-1,-2,-5
1537921845224815,0,0,1,0,0,-4,3,1
1537921845224815,-2,0,-1,0,-2,0,1,-2
1537921845238778,-2,-1,-3,1,2,-2,-3,1
1537921845238778,1,-1,0,-1,-1,1,5,1
1537921845247754,-1,2,0,-2,0,1,-1,-1
1537921845247754,-1,0,0,-2,-4,-6,-3,-4
1537921845261716,-1,-1,-1,-2,-2,-3,1,2
1537921845261716,-9,-4,-1,0,-2,-5,-4,-11
1537921845270693,8,3,0,-1,-1,-5,6,29
1537921845270693,-14,-8,-3,0,2,12,-3,-24
1537921845276677,1,2,1,1,0,4,12,5
1537921845276677,3,0,1,2,-1,-3,-4,1
1537921845285653,-3,0,0,0,-1,-2,-7,-8
1537921845285653,6,1,-4,-2,-4,-10,1,13
1537921845298618,-6,-3,-2,-3,-1,-8,-13,-20
1537921845298618,1,-1,-2,-3,1,6,10,5
1537921845307594,2,-2,1,-1,-1,0,-4,-3
1537921845307594,2,-1,-2,-1,-3,-6,1,3
1537921845322554,-2,-2,0,1,0,3,-6,-9
1537921845322554,1,2,-2,0,-1,-1,6,4
1537921845324549,-4,-4,-1,-4,-2,-2,-9,-8
1537921845324549,0,2,1,0,2,3,11,6
1537921845336516,3,0,0,-1,-2,-2,-1,6
1537921845336516,-4,-1,-3,0,1,-2,-5,1
1537921845345493,4,-2,-3,1,3,2,7,5
1537921845345493,-4,1,2,0,0,-2,2,-7
1537921845358458,3,4,1,1,0,0,-3,-1
1537921845358458,-9,-8,-2,-2,-1,2,1,1
1537921845367434,7,4,2,2,0,4,-4,-10
1537921845367434,6,1,0,-1,-2,-3,3,11
1537921845382394,-1,-4,-2,-2,-4,-1,2,5
1537921845382394,1,1,1,-1,-1,-3,-1,-4
1537921845384389,-8,-2,-2,0,1,5,2,-5
1537921845384389,5,0,-1,-1,1,-3,-2,0
1537921845396357,2,-1,-2,1,1,0,-3,1
1537921845396357,6,3,-1,0,-3,-3,0,8
1537921845405333,-6,-6,-1,-2,-2,0,-2,-6
1537921845405333,0,1,-1,1,1,-1,-3,1
1537921845419296,-3,-3,-2,0,-1,-4,-4,-1
1537921845419296,1,1,0,-3,-1,-2,0,0
1537921845428272,2,1,-1,-1,-4,-4,0,-4
1537921845428272,-2,2,-1,-3,-1,-1,2,-2
1537921845443231,0,-3,-2,-1,-1,-2,1,0
1537921845443231,-1,-2,1,0,-1,2,-2,-3
1537921845444229,0,1,-1,-1,1,0,0,4
1537921845444229,-3,-2,0,0,1,-3,-4,-3
1537921845456197,0,-2,0,-1,-4,0,1,0
1537921845456197,5,0,-2,-3,1,3,0,-1
1537921845465173,1,-3,-1,-3,-1,-3,-2,-1
1537921845465173,-3,-3,0,7,0,1,0,-1
1537921845479135,4,1,2,-13,0,-1,1,1
1537921845479135,-2,0,-1,0,-3,0,1,-2
1537921845488111,-3,-4,-1,1,-2,-2,-3,-1
1537921845488111,-1,-1,-2,-2,-2,-1,-3,-5
1537921845503071,0,-1,-2,14,1,1,1,11
1537921845503071,0,0,-4,-15,-2,-2,1,0
1537921845504069,-2,-1,0,-2,-3,-2,-3,-1
1537921845504069,-5,-3,-2,-2,-4,-7,-3,-1
1537921845516037,-5,-3,-3,0,-3,-2,-7,-8
1537921845516037,-3,-1,-2,5,2,1,0,0
1537921845525013,0,-3,-2,-5,0,0,-2,0
1537921845525013,2,-4,-9,-30,-5,2,3,4
1537921845538975,2,0,4,-1,-3,-2,-1,3
1537921845538975,-2,-2,5,22,3,-1,-3,-4
1537921845547952,-1,7,14,22,5,0,3,-2
1537921845547952,-4,0,2,10,4,-2,-2,-2
1537921845562912,-3,-2,-9,-14,-4,-1,2,-3
1537921845562912,0,-2,-6,-14,-4,0,-1,-2
1537921845563909,0,-1,0,-5,-3,-2,1,-2
1537921845563909,3,2,4,4,0,0,1,2
1537921845576874,-3,-1,-5,-10,-4,-3,-2,-3
1537921845576874,2,-1,-1,4,3,1,-1,0
1537921845584853,2,0,-1,22,3,3,1,0
1537921845584853,-3,-2,5,-20,-9,-3,-1,0
1537921845599813,-2,0,0,-8,-4,0,2,-1
1537921845599813,0,0,1,-3,-1,-1,0,-1
1537921845606794,-5,-3,-9,-5,2,-1,-4,-3
1537921845606794,0,2,2,3,0,-1,1,-2
1537921845622751,0,-2,5,8,-7,-2,0,1
1537921845622751,-3,-4,-15,-29,-5,-2,-1,-1
1537921845623749,-2,-1,6,13,3,-1,-2,-3
1537921845623749,-2,2,18,35,14,4,-1,-1
1537921845636714,-1,6,9,11,-5,-2,1,0
1537921845636714,-7,-5,5,11,-7,-4,-3,0
1537921845645690,3,-1,-20,-25,-2,2,1,4
1537921845645690,1,-1,-8,-14,-3,1,-6,-3
1537921845659653,1,0,-1,-1,8,1,0,1
1537921845659653,-5,-4,-1,2,-3,-2,-2,-4
1537921845666634,-3,-2,-2,-7,-6,-3,6,8
1537921845666634,-3,-3,-3,0,3,1,-1,-6
1537921845690570,-1,0,0,6,5,0,-3,-7
1537921845690570,0,1,1,5,1,-1,-3,-4
1537921845691568,-2,-2,1,-10,-4,-5,-3,-7
1537921845691568,3,2,-2,3,-1,0,2,5
1537921845696554,-3,-15,-1,0,0,5,-2,4
1537921845696554,3,-1,-3,-1,0,-3,6,-5
1537921845705530,-1,7,-11,-25,1,-1,-7,0
1537921845705530,-2,0,20,3,4,2,1,3
1537921845719493,3,3,6,31,-5,-10,0,2
1537921845719493,-10,-5,0,-1,-2,-8,-4,6
1537921845726474,0,-5,-7,4,106,2,-4,-8
1537921845726474,0,7,-20,-12,117,5,-2,-5
1537921845742432,1,3,-1,-13,-73,9,3,-4
1537921845742432,7,5,5,8,-92,8,4,-4
1537921845744426,-4,-1,0,-4,35,-3,0,-5
1537921845744426,9,-3,-3,-3,100,-2,2,11
1537921845756394,-1,2,6,5,127,-3,3,0
1537921845756394,1,4,7,6,109,-7,3,19
1537921845765370,-2,7,14,12,-56,-6,3,15
1537921845765370,-2,-2,4,5,-128,-1,-10,-8
1537921845779333,-3,-10,-20,-19,-124,-1,-9,-13
1537921845779333,2,-6,-14,-13,-126,7,-6,-13
1537921845786314,4,-8,-8,-5,-112,5,-3,-14
1537921845786314,-2,-8,-8,4,-83,-1,2,-2
1537921845802272,3,0,-4,-10,88,0,1,-3
1537921845802272,-5,-2,-5,-15,127,-2,-1,-4
1537921845809253,5,2,-5,-1,127,1,6,10
1537921845809253,0,1,6,5,111,-4,4,7
1537921845816234,-3,4,-4,7,92,0,1,3
1537921845816234,3,3,14,-28,82,0,3,6
1537921845825210,-5,-1,9,21,53,46,-3,0
1537921845825210,-3,1,-7,-7,97,113,-4,2
1537921845839173,-1,2,10,12,-82,127,1,7
1537921845839173,-1,5,10,23,-23,-11,2,5
1537921845846154,0,-1,-4,-20,-101,-99,-4,-5
1537921845846154,-4,-6,-7,0,-53,-39,-3,-10
1537921845862111,1,0,-4,-4,24,-41,1,-2
1537921845862111,-3,-5,-5,1,36,96,-4,-6
1537921845869093,-3,-4,0,-6,26,80,3,1
1537921845869093,8,6,7,3,45,90,3,6
1537921845876074,-4,-2,-4,-7,82,124,0,-2
1537921845876074,2,1,2,5,-13,127,0,3
1537921845885050,-8,1,8,6,-31,-60,-1,0
1537921845885050,0,0,2,3,-128,-6,-3,7
1537921845900010,2,22,27,16,-128,79,27,46
1537921845900010,-7,43,64,53,-32,-6,17,79
1537921845905995,-8,12,29,31,41,20,-14,1
1537921845905995,-9,-5,-5,3,47,-120,-21,-39
1537921845921952,-5,-31,-39,-29,76,-128,-28,-70
1537921845921952,7,-20,-44,-33,78,-128,12,-42
1537921845928934,5,-8,-19,-31,62,-100,24,-7
1537921845928934,0,-24,-31,-27,106,-35,54,-46
1537921845944890,7,-14,-21,-22,119,-128,116,-13
1537921845944890,-3,-14,-13,-5,-66,-86,123,1
1537921845946885,6,18,21,14,-117,53,50,63
1537921845946885,-5,15,28,50,-128,91,-47,41
1537921845959850,-4,5,14,-11,-46,127,-103,8
1537921845959850,1,2,5,28,20,119,-122,-14
1537921845966832,-7,-13,-13,36,50,106,-109,-32
1537921845966832,2,4,-8,27,55,91,-78,6
1537921845981792,1,5,6,30,41,68,-84,11
1537921845981792,5,2,-5,58,40,40,-81,3
1537921845988773,-5,-3,4,40,44,76,-55,-3
1537921845988773,-7,0,8,24,35,108,-39,10
1537921846005727,0,5,3,127,9,104,-33,4
1537921846005727,-2,-21,-31,-128,19,-26,-126,-58
1537921846006725,2,-21,-35,-78,22,-68,98,-27
1537921846006725,3,12,19,99,8,-128,-58,61
1537921846019690,-4,17,29,86,-2,-101,127,27
1537921846019690,1,21,31,123,10,24,109,38
1537921846026672,-12,7,18,-20,11,40,-128,9
1537921846026672,-3,-5,-2,-122,0,-5,127,-16
1537921846041632,-1,-13,23,-119,-2,28,-128,32
1537921846041632,-14,-26,53,-98,6,26,-43,74
1537921846048613,-2,-67,-51,-86,3,23,61,-102
1537921846048613,2,-19,-68,-99,1,22,-92,-79
1537921846065568,-2,-8,-88,-78,-2,7,-128,-115
1537921846065568,28,-6,-62,-65,0,6,69,-51
1537921846066565,8,-11,-9,-51,1,7,66,54
1537921846066565,13,44,10,-40,2,14,-92,8
1537921846079531,26,61,50,-128,-2,-9,57,-2
1537921846079531,3,68,85,-3,0,-8,29,-11
1537921846086512,-27,39,88,-76,2,24,-2,5
1537921846086512,27,10,16,-85,1,-19,62,104
1537921846102470,-4,-33,-51,91,-3,-10,68,75
1537921846102470,-3,-36,-21,43,0,112,48,56
1537921846108453,-3,-14,-78,127,1,112,-2,66
1537921846108453,-10,-39,-107,127,-1,-79,38,108
1537921846125408,-21,-4,-84,51,-2,-128,58,127
1537921846125408,0,-5,79,127,0,-128,85,127
1537921846126405,-26,5,-19,-53,1,-44,-85,40
1537921846126405,-29,15,-64,-125,-1,11,71,-78
1537921846139370,6,-10,-28,-128,-2,29,-46,-97
1537921846139370,-1,-12,1,-97,1,21,-76,-128
1537921846146352,7,6,115,-109,0,8,-9,-119
1537921846146352,-4,-7,-66,-110,-1,26,10,-118
1537921846162309,-7,-62,20,-27,-1,17,61,-128
1537921846162309,15,-9,-94,43,0,22,-37,-29
1537921846169291,28,18,25,126,0,-13,-38,45
1537921846169291,-9,41,-27,127,-1,14,34,114
1537921846185248,-24,30,21,127,-1,25,0,95
1537921846185248,-18,5,-59,82,0,-3,-84,77
1537921846187243,-34,-9,25,123,-1,-12,103,124
1537921846187243,-40,-6,110,101,0,9,50,-95
1537921846199210,-50,-32,108,85,-1,8,-22,93
1537921846199210,-39,-4,-25,47,0,-5,3,-75
1537921846206192,-83,-104,-128,56,49,-13,87,84
1537921846206192,-120,84,-52,60,-101,11,-71,-49
1537921846214170,-88,5,-128,36,-63,23,-84,-46
1537921846214170,-26,-83,-7,12,-39,-113,-128,60
1537921846229130,69,-67,34,21,-6,-69,109,-23
1537921846229130,96,-52,76,22,65,-33,-4,-39
1537921846236112,84,113,90,18,90,0,97,114
1537921846236112,66,127,94,-9,107,2,-92,-128
1537921846245088,127,120,73,9,63,12,35,-113
1537921846245088,108,0,16,14,-19,59,49,127
1537921846260048,-43,-65,58,3,-45,-44,-37,-26
1537921846260048,-119,-96,-128,-5,-92,-42,19,83
1537921846266032,-38,-12,-40,4,-17,4,-26,103
1537921846266032,73,-68,13,8,-47,-94,-113,-128
1537921846274011,120,-84,29,1,-14,-112,50,75
1537921846274011,124,-108,28,-8,45,-46,111,-83
1537921846288971,-106,-91,31,4,0,-8,-25,-119
1537921846288971,-128,-65,82,2,-33,24,116,104
1537921846295952,76,-3,73,2,21,27,32,-128
1537921846295952,19,110,127,-4,0,44,82,-38
1537921846304929,127,127,40,1,30,23,-54,-93
1537921846304929,127,92,-75,4,45,27,-54,14
1537921846319889,84,64,-66,0,0,14,61,70
1537921846319889,127,-35,-31,-3,-89,29,-51,-1
1537921846326870,-9,-35,-75,0,-48,7,35,-128
1537921846326870,-125,-89,-68,109,97,-3,-88,-113
1537921846333852,-52,34,-128,119,46,21,47,77
1537921846333852,54,-5,-128,20,118,11,88,-115
1537921846348811,94,94,-115,97,53,97,-98,48
1537921846348811,127,102,-89,26,122,119,115,-118
1537921846356790,84,124,9,106,0,71,-56,-128
1537921846356790,8,47,45,65,-58,-57,110,96
1537921846365766,-90,-27,92,-59,-106,-128,16,127
1537921846365766,-128,-76,117,-96,5,-128,-62,-57
1537921846379728,-124,-123,105,-128,26,-122,2,-65
1537921846379728,-128,-88,87,-112,102,-96,-36,61
1537921846386710,-93,-20,86,-96,-53,-128,-60,53
1537921846386710,-101,-20,42,-126,-126,-110,2,127
1537921846393691,-112,-47,-60,-128,-128,-102,-61,-63
1537921846393691,-128,-59,-44,-115,-128,-67,-48,9
1537921846408651,-128,-61,-11,-128,-113,-69,-27,11
1537921846408651,-89,-87,119,-128,-123,-61,42,88
1537921846416630,-128,-69,127,-128,-40,-49,-23,104
1537921846416630,36,30,118,-43,33,-21,16,127
1537921846425605,122,5,30,59,-68,-110,40,110
1537921846425605,-30,-100,-31,127,-82,-126,20,116
1537921846439568,-85,-121,25,96,-20,-128,-4,-77
1537921846439568,-128,-50,50,-52,54,-55,-10,-54
1537921846446549,-128,-112,-16,83,122,74,-64,-128
1537921846446549,29,-15,127,51,92,116,-83,-42
1537921846462507,68,-102,96,127,100,127,3,-88
1537921846462507,95,-56,127,127,61,127,61,11
1537921846468491,127,-128,124,19,69,119,81,-38
1537921846468491,96,-31,126,-22,52,114,82,-80
1537921846476469,103,122,33,-106,58,115,-16,-67
1537921846476469,105,127,-79,-93,7,91,-16,-101
1537921846485445,84,109,-123,-85,16,65,4,-6
1537921846485445,64,-1,-128,-87,42,54,-21,-126
1537921846499408,125,105,-102,-105,59,43,-45,21
1537921846499408,103,103,-128,-58,81,38,-19,28
1537921846506389,95,127,46,-61,127,43,-19,77
1537921846506389,127,127,-18,-70,127,110,0,105
1537921846522347,94,108,-109,-124,87,120,-14,127
1537921846522347,-75,46,-128,-106,-100,-6,-41,92
1537921846529328,-100,-96,-128,-111,-101,-105,-11,45
1537921846529328,-128,-97,-16,32,-128,-128,-26,64
1537921846536309,-128,-128,35,127,-128,-128,6,127
1537921846536309,-121,-128,67,127,-122,-111,8,57
1537921846545286,-128,-114,95,125,-124,-116,13,-18
1537921846545286,-125,-107,72,114,-128,-126,40,9
1537921846559248,-106,-128,38,127,-128,-105,-76,20
1537921846559248,28,-108,85,124,-128,-77,28,-9
1537921846566230,8,-47,54,127,-128,-64,-42,-98
1537921846566230,-93,-62,60,125,-123,-52,-79,-128
1537921846582187,-121,-99,104,121,-128,-54,10,-128
1537921846582187,-128,-96,118,127,-32,-33,-7,-128
1537921846589168,41,11,91,127,79,-31,-56,-118
1537921846589168,115,87,44,127,127,-115,75,-104
1537921846596149,126,64,44,118,127,-128,-10,-35
1537921846596149,90,38,32,102,117,15,-123,90
1537921846605126,-125,23,-10,-39,127,122,-85,127
1537921846605126,-123,-25,1,-125,13,121,-19,127
1537921846619088,-128,-109,18,-128,-102,102,53,-107
1537921846619088,-128,-105,12,-128,-128,-36,74,-103
1537921846626069,-12,18,6,-112,-102,-41,98,-117
1537921846626069,66,10,5,-128,-30,-119,27,-111
1537921846642027,122,127,-34,-128,-85,7,127,-58
1537921846642027,127,124,-55,-55,-40,17,112,-121
1537921846649008,120,113,-62,21,28,31,113,-17
1537921846649008,70,127,-49,97,60,-10,-9,22
1537921846655990,-19,60,-21,-70,41,108,-108,61
1537921846655990,-34,23,68,64,-92,47,-128,119
1537921846664965,-36,-1,-2,107,-119,-40,-125,120
1537921846664965,-47,-37,-31,-96,-84,-48,-115,125
1537921846679925,-45,-62,-120,-84,15,-128,-128,127
1537921846679925,-73,-63,-128,-99,64,-105,-92,65
1537921846685909,-78,-78,-107,-32,44,-79,107,0
1537921846685909,-78,-44,-27,127,24,-35,119,56
1537921846701867,89,47,112,24,62,-88,-70,117
1537921846701867,-46,5,-40,-115,66,14,106,-71
1537921846708848,-32,-36,-79,-112,33,45,87,-84
1537921846708848,-70,-120,-93,-82,26,109,-70,-128
1537921846716827,-48,-84,-51,50,26,127,-84,-86
1537921846716827,22,-72,44,92,30,89,-128,16
1537921846724806,41,-128,61,36,8,54,-53,68
1537921846724806,10,-79,57,45,-4,120,48,60
1537921846739765,-74,-128,1,86,6,127,124,-64
1537921846739765,-110,-125,15,61,11,126,75,-36
1537921846746747,-128,-31,113,44,9,127,76,16
1537921846746747,19,107,127,19,21,-58,50,127
1537921846761707,67,121,127,5,113,-35,91,127
1537921846761707,83,96,35,-107,-73,38,92,-78
1537921846768688,106,-94,-90,-119,-91,97,-2,-103
1537921846768688,-88,-128,-116,-82,-128,-26,19,-128
1537921846776667,-128,-128,-109,74,-82,-99,60,-61
1537921846776667,-91,-32,79,127,26,-128,29,33
1537921846791627,78,27,-63,113,21,-128,-10,60
1537921846791627,100,-28,-91,-43,10,-76,-3,21
1537921846799605,-97,-55,-123,-112,18,-116,127,15
1537921846799605,-119,-26,-24,-128,38,-48,117,64
1537921846806587,-84,34,64,-59,15,9,11,95
1537921846806587,24,97,36,1,37,127,100,-94
1537921846822544,60,89,44,36,1,-75,-76,-64
1537921846822544,95,63,19,44,8,112,-58,-29
1537921846828529,50,91,54,59,9,45,91,11
1537921846828529,36,67,26,-102,14,127,52,127
1537921846836507,47,55,48,-75,-14,83,27,73
1537921846836507,67,44,2,-62,-1,-113,-11,121
1537921846851467,-116,45,7,-24,16,-112,-107,-52
1537921846851467,-121,10,45,60,8,-128,-128,-114
1537921846859446,-100,17,22,30,-14,-5,-75,-128
1537921846859446,-19,20,-27,32,13,14,-71,-122
1537921846866427,22,4,12,11,9,32,-82,-86
1537921846866427,30,1,23,41,-1,59,-71,-5
1537921846882385,124,22,7,28,-8,92,-74,56
1537921846882385,97,4,-25,38,6,61,62,65
1537921846888369,-20,-3,16,-3,1,33,117,67
1537921846888369,115,2,12,22,-3,33,124,48
1537921846896347,-95,12,-8,26,-1,45,56,-24
1537921846896347,114,-7,-3,6,4,29,-99,-86
1537921846911307,117,-6,8,61,-1,9,84,-100
1537921846911307,16,106,-1,109,5,7,-4,-12
1537921846919286,-38,119,0,127,-2,34,-55,-34
1537921846919286,-128,127,-6,127,-1,12,-98,41
1537921846926267,-128,3,4,71,1,-6,-85,9
1537921846926267,-116,-115,-2,118,76,4,63,14
1537921846942225,-88,-128,4,126,110,127,-16,127
1537921846942225,-128,-128,-5,-96,37,122,127,-77
1537921846949206,-81,-69,-3,97,-77,-95,-90,-62
1537921846949206,-128,94,29,-124,-23,42,-52,93
1537921846956187,99,85,113,47,64,-128,-77,-41
1537921846956187,115,7,110,-32,-27,-126,52,127
1537921846971147,96,-60,-20,29,-42,-30,-62,127
1537921846971147,-81,67,43,87,-94,-55,-116,-110
1537921846979126,-94,74,-128,2,-104,19,-7,60
1537921846979126,-126,-73,-77,43,-4,50,-98,-5
1537921846986107,-96,112,127,-128,-36,12,62,-76
1537921846986107,10,25,-33,-47,-48,24,-1,127
1537921847002064,57,68,127,-128,-54,53,30,118
1537921847002064,104,-87,-32,-94,-45,-3,30,-67
1537921847009046,81,-128,-120,-100,-4,39,-110,38
1537921847009046,117,107,-117,-32,19,19,42,-81
1537921847016027,93,-25,-22,-55,-20,22,-67,-111
1537921847016027,-56,127,-123,11,-20,11,-37,-93
1537921847030987,54,64,-86,91,36,125,-86,-42
1537921847030987,114,-63,-114,11,13,110,-76,-25
1537921847039963,127,-51,81,4,-20,-51,-50,-122
1537921847039963,-75,22,13,123,9,-115,-33,14
1537921847045947,-128,105,89,26,42,-128,2,-53
1537921847045947,-109,-98,25,86,3,-128,24,42
1537921847061905,-61,-23,-44,25,1,-116,127,-72
1537921847061905,112,28,8,-6,21,-115,112,40
1537921847068886,127,33,-2,26,15,-108,-42,-52
1537921847068886,56,-120,26,-27,18,-115,91,-60
1537921847076864,27,0,7,31,2,-80,-13,-99
1537921847076864,94,7,8,-17,-36,-56,60,-51
1537921847091825,-111,-12,56,-128,-35,-56,127,16
1537921847091825,-71,63,127,-128,-55,-59,97,-47
1537921847099804,-128,16,78,-128,-54,-108,89,23
1537921847099804,-106,13,127,-114,-53,-110,13,31
1537921847106785,24,2,127,-112,-33,-128,77,89
1537921847106785,11,77,127,-19,-49,-25,-128,63
1537921847122743,32,-76,46,40,-32,113,-103,94
1537921847122743,49,-22,-18,70,-17,127,-126,66
1537921847128726,32,4,-100,93,19,127,-68,62
1537921847128726,25,-9,-40,67,63,113,-114,42
1537921847145682,42,-29,-101,65,41,125,50,53
1537921847145682,36,-107,-50,59,49,121,5,38
1537921847151665,18,-102,-105,43,44,107,-61,30
1537921847151665,36,-32,-104,47,32,66,22,-6
1537921847160641,30,3,-99,30,12,61,-58,36
1537921847160641,-10,-4,-60,25,24,46,16,17
1537921847166625,6,-59,-58,25,17,44,-100,106
1537921847166625,19,-128,-57,10,-9,24,88,107
1537921847182582,-3,-32,-52,8,-8,15,1,59
1537921847182582,-12,40,-38,5,-7,16,-22,-60
1537921847188566,10,87,-103,116,-17,18,-86,-128
1537921847188566,13,125,-115,15,-19,6,-88,-128
1537921847205521,19,106,-42,91,-3,3,30,41
1537921847205521,-37,114,90,14,0,6,37,-65
1537921847211505,-93,98,127,25,-4,12,95,-52
1537921847211505,-110,60,127,-107,-11,-3,64,-106
1537921847220481,33,78,109,-6,-22,0,61,38
1537921847220481,-100,63,118,-42,-11,4,26,-51
1537921847226465,-50,44,127,-94,3,-3,98,-91
1537921847226465,-51,78,124,-82,11,-24,-11,-44
1537921847242422,-1,115,77,-73,4,13,115,-24
1537921847242422,109,-84,-29,22,6,83,-39,102
1537921847248406,-90,-102,30,-10,3,-87,-82,94
1537921847248406,-92,79,79,-58,3,-91,-127,89
1537921847281317,-114,93,-64,-128,-3,-53,-128,21
1537921847281317,-59,54,-72,72,1,87,-125,127
1537921847281317,12,-37,-125,110,1,127,-94,122
1537921847281317,75,-128,-38,127,4,127,-122,35
1537921847283313,-75,-128,70,-85,75,89,-127,-103
1537921847283313,-128,-92,58,-122,118,5,-52,-128
1537921847286304,-36,-110,70,-128,50,-79,59,65
1537921847286304,78,-117,72,-57,-23,-128,113,127
1537921847303259,121,-1,46,53,-98,-88,117,19
1537921847303259,127,112,51,62,-126,-128,14,-84
1537921847309243,7,12,70,14,-99,-117,118,-128
1537921847309243,-107,-117,37,56,-92,-88,31,-128
1537921847325201,57,-90,11,76,-87,-57,-35,-124
1537921847325201,97,-128,125,31,-73,-108,-34,-27
1537921847331184,127,1,-77,23,-59,-90,98,29
1537921847331184,114,127,80,41,-41,-22,9,58
1537921847340161,-14,-62,21,46,-31,-64,-19,68
1537921847340161,-128,-115,-90,1,-26,-128,-100,110
1537921847346145,127,75,-61,12,-26,-26,-128,64
1537921847346145,-62,-128,-106,27,-12,12,-96,41
1537921847363100,52,93,-21,7,-5,-5,-14,61
1537921847363100,-8,17,57,3,-18,-5,72,65
1537921847369083,-101,11,43,4,-11,16,73,23
1537921847369083,-106,127,-18,3,1,-26,62,3
1537921847384043,-128,101,44,9,-3,-2,47,29
1537921847384043,-107,120,-2,3,-9,11,97,28
1537921847391025,4,-10,31,-3,-3,55,10,-11
1537921847391025,61,-79,28,-6,4,-20,27,4
1537921847400001,-21,-128,3,7,-3,36,33,15
1537921847400001,83,-71,-8,4,-6,-32,22,10
1537921847405984,-77,-94,34,-7,0,-60,-2,-3
1537921847405984,-28,-59,13,1,-1,-56,16,1
1537921847430918,-54,-79,-21,6,-2,41,22,7
1537921847430918,21,-59,-11,-3,-2,125,14,2
1537921847431915,11,-30,39,-2,-2,95,-3,-2
1537921847431915,96,-20,-17,2,0,21,21,-3
1537921847444881,57,76,0,5,0,-41,-7,-3
1537921847444881,42,-61,77,-5,-1,-27,5,8
1537921847450865,88,-106,-27,0,-2,-39,1,-1
1537921847450865,64,39,108,111,0,-8,-4,-5
1537921847459841,35,-56,-33,117,0,-31,-4,3
1537921847459841,125,125,-67,23,-3,-21,6,6
1537921847466823,127,-48,-93,-88,-2,-123,3,-3
1537921847466823,29,-113,-128,-128,1,-101,1,-16
1537921847482779,-92,-128,-106,-116,0,-128,-2,-53
1537921847482779,-121,96,-119,-19,-2,-73,10,3
1537921847488763,-128,59,-14,20,-1,88,-7,-12
1537921847488763,-128,-91,14,14,-63,127,-2,121
1537921847503723,-97,-75,82,29,41,127,0,-73
1537921847503723,-116,7,59,18,-109,114,23,96
1537921847511702,-110,-53,80,33,26,123,39,98
1537921847511702,-119,125,55,26,101,127,106,115
1537921847520679,-113,90,40,109,122,105,127,-84
1537921847520679,-107,-61,47,110,127,80,-2,-67
1537921847526662,5,-69,60,83,8,76,-114,65
1537921847526662,41,-100,105,-80,-15,58,-128,-120
1537921847542619,112,-31,48,-77,-53,39,-128,55
1537921847542619,123,65,64,-128,-28,32,-128,-46
1537921847548603,46,127,127,-67,-46,23,-121,-128
1537921847548603,-28,95,88,-32,-21,110,-128,-83
1537921847563563,-82,123,29,76,-45,115,-123,-90
1537921847563563,-122,29,-65,127,-47,-89,-90,-120
1537921847571542,-51,88,-128,127,-98,-46,-67,-33
1537921847571542,68,95,-128,-8,-123,63,-57,98
1537921847580518,95,36,-22,-54,-128,115,-64,127
1537921847580518,117,2,71,-22,-68,89,-33,127
1537921847586502,73,50,122,-128,-110,-99,-73,-31
1537921847586502,81,59,-1,-77,6,-5,-121,-128
1537921847602459,111,2,-106,-91,91,-87,-84,-81
1537921847602459,73,-22,-128,-94,127,-86,40,7
1537921847608443,48,54,-116,-49,127,-94,127,105
1537921847608443,61,9,115,57,-106,-128,127,76
1537921847623403,35,-14,-84,5,-54,-121,-102,24
1537921847623403,125,-5,-73,6,16,-63,-120,-60
1537921847631382,115,124,112,86,101,-40,-52,82
1537921847631382,-87,126,47,14,127,-90,42,127
1537921847640358,39,127,64,94,101,59,127,-75
1537921847640358,75,1,-2,112,80,18,127,14
1537921847646342,121,-102,-112,61,84,54,96,57
1537921847646342,85,-128,-128,-56,94,-49,79,-21
1537921847662299,-116,-128,-61,-121,47,-92,110,104
1537921847662299,-128,99,-56,-128,46,-10,70,-87
1537921847669281,-86,103,-76,-95,106,6,65,-128
1537921847669281,106,-71,-96,-77,127,-30,40,-117
1537921847684241,43,-126,-50,-57,115,-44,44,-40
1537921847684241,-10,-126,-29,64,-41,4,37,49
1537921847700198,-124,104,-28,111,-128,-6,26,37
1537921847700198,-128,127,-63,127,-128,-14,6,-104
1537921847701196,-70,47,-28,114,-128,-18,12,-79
1537921847701196,-85,-62,10,127,-128,-21,12,64
1537921847714161,-121,-127,-11,88,-128,1,10,92
1537921847714161,-88,-121,-41,-77,-123,9,-8,117
1537921847723138,-53,-98,-105,122,-128,-19,12,1
1537921847723138,-70,-79,-98,86,-79,-10,118,-109
1537921847729121,-60,-128,76,16,91,-93,121,-128
1537921847729121,-55,-109,82,4,127,117,30,-92
1537921847744081,-30,125,127,71,109,89,-91,122
1537921847744081,-25,74,59,-18,9,65,-128,111
1537921847751063,-12,26,0,33,-59,55,-128,-1
1537921847751063,-12,-21,-38,127,-76,-47,-64,116
1537921847760039,-20,-54,6,18,-87,-57,16,79
1537921847760039,-5,-39,-9,17,-62,-7,15,-91
1537921847774002,-2,-50,-41,-121,-66,5,45,-97
1537921847774002,-13,-12,-34,-94,-54,-36,30,-70
1537921847782978,-6,-24,-18,-98,-58,-14,47,12
1537921847782978,9,-11,10,-128,-21,-25,38,40
1537921847788961,-13,-28,-22,-128,-28,9,21,2
1537921847788961,-6,6,-22,-40,-27,-8,12,-24
1537921847803921,3,-1,-20,-86,-20,-21,29,12
1537921847803921,0,-24,17,-102,-4,-16,17,-9
1537921847810903,-9,-13,-5,-66,-19,16,5,2
1537921847810903,0,14,-30,18,-75,6,1,9
1537921847819878,4,-10,0,-69,-86,-17,23,-12
1537921847819878,-4,-10,22,-52,-83,-8,2,-14
1537921847833841,-4,-45,-11,4,-68,24,-3,19
1537921847833841,5,-22,-15,1,-35,-8,5,-1
1537921847842818,-3,-65,2,-40,-23,-13,9,-26
1537921847842818,-2,-36,15,-8,-7,0,10,0
1537921847848802,0,-9,-14,2,1,10,21,16
1537921847848802,-1,-27,-9,-1,14,-7,26,-14
1537921847863761,-29,-22,5,-20,13,-8,27,-8
1537921847863761,-29,5,2,9,26,3,14,12
1537921847871740,-32,0,-5,-9,15,6,15,6
1537921847871740,-24,0,-4,1,17,-4,8,-7
1537921847880716,-4,12,-1,2,17,0,12,-2
1537921847880716,3,-12,4,-7,18,-4,8,4
1537921847893681,2,-3,-3,-8,9,3,5,-1
1537921847893681,7,6,-4,10,13,-1,0,-5
1537921847902657,-10,-8,-4,-3,10,-4,5,1
1537921847902657,-45,-14,4,-10,11,-4,1,-3
1537921847908641,-50,-5,-1,-4,3,3,-2,1
1537921847908641,-53,28,-7,13,12,1,-8,-1
1537921847923601,-41,14,0,-9,10,-4,3,-5
1537921847923601,-43,5,6,-6,5,-2,-3,-5
1537921847931580,-54,10,-2,4,3,5,-5,1
1537921847931580,-43,23,-4,3,5,-2,-3,-2
1537921847946541,-32,15,0,-7,4,-3,0,-6
1537921847946541,-15,8,3,0,5,0,-3,-1
1537921847953522,1,2,-4,1,-1,2,-5,4
1537921847953522,2,6,-2,0,1,-2,-3,-2
1537921847977457,10,8,1,-5,1,-2,-4,-4
1537921847977457,20,7,1,2,3,0,-2,1
1537921847978455,19,-3,-1,-2,-2,1,-6,-1
1537921847978455,18,-12,-1,0,-2,-2,-1,-1
1537921847983441,21,1,-1,0,2,-1,-5,0
1537921847983441,20,3,0,-2,0,-1,-2,1
1537921847999398,18,5,-1,-2,0,-8,-2,-4
1537921847999398,17,2,-1,2,-1,-11,1,-1
1537921848006379,15,-8,-1,-1,1,-15,2,-1
1537921848006379,17,-1,0,-3,2,-15,-2,-3
1537921848013361,39,4,-1,-1,-1,-12,-3,-2
1537921848013361,15,-1,-2,2,0,-2,-3,0
1537921848029318,19,-5,-1,-2,2,-9,0,-1
1537921848029318,17,1,0,-2,0,-3,-2,-1
1537921848030316,9,4,-7,0,-3,-1,-2,2
1537921848030316,13,-14,-14,0,-8,-33,-4,-2
1537921848044278,13,1,-21,-2,7,-1,-2,-1
1537921848044278,30,-2,-11,-1,14,66,0,1
1537921848051260,43,4,11,0,2,76,1,1
1537921848051260,48,7,3,-1,-3,41,-3,1
1537921848066220,30,2,-1,-2,-10,-25,-3,-1
1537921848066220,29,-9,-10,0,-4,-49,-4,0
1537921848074199,22,4,-9,-1,3,-37,-2,2
1537921848074199,19,9,-5,-1,5,-26,2,3
1537921848089159,15,9,-6,0,1,-8,-2,1
1537921848089159,11,-4,-5,-1,-2,-15,-5,-3
1537921848090156,13,-9,-12,-1,-20,-16,-8,-5
1537921848090156,16,7,4,0,-64,-1,-8,-3
1537921848104118,11,-11,1,-1,-36,5,-6,-4
1537921848104118,-8,-6,-6,-1,46,-1,-2,-3
1537921848111100,-19,5,0,-1,96,-9,-3,0
1537921848111100,-23,-12,-6,0,35,-21,-3,-3
1537921848126060,-19,4,2,-1,-76,42,1,-2
1537921848126060,-17,-34,6,-2,-128,14,74,-2
1537921848134038,-29,-84,2,-16,-128,19,116,6
1537921848134038,-36,-113,4,-25,-108,19,127,-1
1537921848148998,-37,-45,6,-32,105,-9,127,28
1537921848148998,-10,-61,1,-37,116,-53,69,39
1537921848149996,55,46,-5,-21,127,-57,-52,121
1537921848149996,21,20,-107,-25,53,-69,-109,127
1537921848163958,-46,-89,-120,-66,-103,-58,-128,95
1537921848163958,-117,-114,-88,5,-108,-40,-128,4
1537921848179917,-128,-128,89,-33,19,-25,-116,-61
1537921848179917,-128,-122,127,-97,-85,-7,-118,-90
1537921848185900,99,19,127,-104,-89,-24,-101,-78
1537921848185900,116,89,62,16,-60,44,-96,-53
1537921848193879,127,118,-11,78,-4,35,-118,-103
1537921848193879,77,127,-21,-12,111,127,-54,95
1537921848209836,-52,105,-57,46,108,109,55,-117
1537921848209836,22,115,-22,4,86,126,75,-106
1537921848216817,-123,101,-48,4,46,118,-41,-115
1537921848216817,-124,86,-35,127,80,50,-107,-128
1537921848223799,-118,66,-25,127,50,-21,-128,-32
1537921848223799,38,67,-8,127,60,-52,-122,119
1537921848231778,-123,115,-27,82,12,-68,-102,116
1537921848231778,-90,-26,-23,-29,12,-68,91,118
1537921848246738,-62,53,-3,-45,38,-37,124,127
1537921848246738,19,-118,3,-128,29,-51,115,100
1537921848253718,125,-128,-25,-128,-18,-31,-21,47
1537921848253718,127,-57,-1,86,6,-28,97,87
1537921848269676,127,-36,2,118,26,-13,84,-84
1537921848269676,69,20,2,127,12,-9,-32,81
1537921848270673,117,55,-8,61,-25,-15,-71,127
1537921848270673,90,38,1,-27,11,-6,87,-128
1537921848283639,82,15,-46,-98,15,1,102,-83
1537921848283639,53,56,-114,-128,-5,-5,114,-103
1537921848291617,-50,11,-128,19,-11,-2,85,60
1537921848291617,127,40,-119,36,8,-7,-128,127
1537921848306578,17,-2,-29,37,5,-104,84,127
1537921848306578,59,32,12,76,-1,-120,63,-128
1537921848313558,-49,108,-45,-45,-5,-128,82,89
1537921848313558,-102,-28,124,-29,4,89,41,41
1537921848329516,56,63,72,104,-2,125,-128,-66
1537921848329516,-128,-44,119,-121,76,-74,-108,127
1537921848330514,-22,-25,6,-55,118,-14,-8,-9
1537921848330514,-24,-49,-32,-128,-11,-119,-74,-83
1537921848343479,11,-70,29,45,114,107,48,-27
1537921848343479,14,-3,-124,-4,-7,127,91,-128
1537921848351457,62,5,-29,127,112,127,70,-121
1537921848351457,107,50,114,87,-18,-56,-103,-13
1537921848366418,127,80,98,121,86,102,-128,52
1537921848366418,39,-19,105,83,46,-113,-81,118
1537921848373399,-112,33,-83,-116,-128,32,59,116
1537921848373399,-113,-110,-128,-103,-86,-67,127,89
1537921848389356,-128,-59,-78,-128,-128,-128,125,-13
1537921848389356,-128,-2,-11,116,-125,-100,111,-61
1537921848390353,9,-37,125,108,84,-38,-89,-128
1537921848390353,14,94,127,127,127,42,-84,-88
1537921848404316,-3,-102,35,-43,111,36,-59,89
1537921848404316,15,27,-48,-128,-80,127,11,127
1537921848411297,64,-102,-56,-114,-114,70,127,46
1537921848411297,48,13,-21,-104,37,84,106,-70
1537921848426257,90,95,56,92,103,45,-128,-90
1537921848426257,-61,-71,99,118,96,127,-128,-126
1537921848434236,25,21,124,127,127,61,-32,-45
1537921848434236,68,41,45,35,-47,-72,43,65
1537921848443212,106,90,-51,-105,-128,0,111,126
1537921848443212,127,127,112,-57,-65,-50,42,121
1537921848449196,127,127,83,-26,28,-22,85,94
1537921848449196,108,52,40,-106,-18,14,63,105
1537921848464156,-58,76,86,-125,-63,-3,54,85
1537921848464156,-102,124,91,64,-49,25,66,127
1537921848471137,-128,-117,64,87,-109,58,109,127
1537921848471137,-128,-31,-24,127,63,127,84,114
1537921848486097,-128,-128,-122,74,-39,97,-95,-7
1537921848486097,-128,-128,-128,-43,-57,-27,-128,-89
1537921848494076,-100,-84,-67,-79,-15,99,-128,-128
1537921848494076,-113,-72,-72,-43,26,74,-128,-128
1537921848503052,-128,-88,-21,-56,-102,-61,-111,-82
1537921848503052,-88,-128,-88,-75,-36,-89,-102,-118
1537921848509036,-54,-110,-119,-70,8,-128,-35,-128
1537921848509036,-72,-102,-122,-59,-11,-113,-27,-86
1537921848523996,-112,-103,-87,-30,127,-128,12,-74
1537921848523996,-88,-89,-86,-118,-28,-88,-102,-63
1537921848530978,-2,-87,-67,-128,2,-128,-116,-43
1537921848530978,-35,-54,-82,35,-67,-108,-43,-51
1537921848545938,-84,-80,-8,109,-128,11,101,-52
1537921848545938,103,15,19,107,52,127,127,-11
1537921848553916,32,-22,109,-68,-128,127,106,22
1537921848553916,16,-116,16,-83,-121,127,-125,0
1537921848562893,24,-52,18,-29,-80,87,-119,10
1537921848562893,-90,66,24,70,119,83,-128,23
1537921848568876,42,111,9,127,101,-86,-106,6
1537921848568876,30,57,127,55,-33,-128,-37,-13
1537921848583837,8,94,61,127,103,-128,-19,5
1537921848583837,5,-91,8,96,-52,-90,16,-3
1537921848591816,-18,93,-70,127,-93,-128,16,-11
1537921848591816,-39,124,-97,127,-123,-107,49,-4
1537921848606775,13,119,-74,-38,-30,-78,28,22
1537921848606775,10,126,-67,-55,-97,-19,27,12
1537921848613757,-20,20,-66,103,52,87,44,40
1537921848613757,-11,-57,-44,127,126,123,49,68
1537921848622733,-5,-128,-45,84,127,69,37,56
1537921848622733,20,-77,-51,-19,69,-21,22,22
1537921848636695,-18,-60,-21,-116,-128,-75,-5,-22
1537921848636695,-16,42,-12,-128,61,5,3,-22
1537921848643676,9,59,-45,-128,99,93,-12,-24
1537921848643676,1,44,-35,-128,76,32,-8,-26
1537921848651655,-5,36,0,-116,-91,9,-14,-17
1537921848651655,-109,103,-2,-121,-113,-67,-7,-18
1537921848666615,41,114,-20,-103,-128,-88,-6,-10
1537921848666615,43,102,-5,-62,-108,-28,-2,3
1537921848673596,18,99,6,-66,-91,-7,1,5
1537921848673596,-35,102,-5,-56,-37,-26,5,-4
1537921848682572,-99,51,-5,-47,-50,-22,-2,0
1537921848682572,-103,31,1,-31,-12,21,2,7
1537921848696535,-76,15,-6,-26,45,7,-2,3
1537921848696535,-42,36,-8,-34,20,19,1,-1
1537921848703516,-27,-103,-2,-13,-11,2,-6,-1
1537921848703516,-17,-30,0,-5,8,0,-5,-1
1537921848711495,-55,-56,-2,-9,-89,-4,-4,-8
1537921848711495,-16,-41,1,-5,-106,-3,-5,-10
1537921848726455,-33,3,0,-6,-43,-29,-4,-9
1537921848726455,22,11,-4,4,108,15,1,6
1537921848733436,1,-9,1,-3,127,22,2,6
1537921848733436,-66,1,2,-8,-1,29,2,5
1537921848742412,-97,-2,-6,-4,82,0,-1,3
1537921848742412,-112,-47,-5,-3,82,-1,1,0
1537921848757372,-128,13,2,-1,127,21,0,6
1537921848757372,1,-18,-30,-4,30,1,0,1
1537921848763356,94,17,-49,-3,-128,1,-1,0
1537921848763356,93,27,-59,3,-128,-3,-4,-5
1537921848771335,127,-14,-40,-1,-16,17,0,3
1537921848771335,112,-35,-24,-1,127,-2,1,-3
1537921848786295,91,-6,-7,-19,125,8,1,3
1537921848786295,125,-13,2,-29,127,13,4,7
1537921848794274,105,7,-2,-30,97,-2,-1,-2
1537921848794274,102,-1,1,-54,83,-3,0,-3
1537921848803250,79,13,-4,2,-81,-3,-4,-4
1537921848803250,18,19,-11,31,-128,-4,-5,-8
1537921848817213,-47,10,-17,27,-128,2,-4,-7
1537921848817213,12,12,-6,23,103,19,-4,1
1537921848824194,8,9,7,-13,110,11,1,4
1537921848824194,51,-3,20,-27,127,9,5,11
1537921848831176,-7,-12,12,-32,-80,-18,3,-2
1537921848831176,-84,-6,-3,-29,-128,-10,-2,-7
1537921848846135,-60,8,-4,-24,-128,-25,-6,-8
1537921848846135,6,-3,-1,-11,-128,-6,-3,-6
1537921848854114,31,-14,43,-9,-95,-3,-3,-3
1537921848854114,-2,3,29,-2,-128,-7,-2,-2
1537921848863090,-32,-6,16,4,-98,-8,-1,-9
1537921848863090,-44,-8,9,2,-63,-6,-2,-3
1537921848877053,5,-4,-10,0,-12,4,-2,0
1537921848877053,28,-4,-10,8,-29,-6,-3,2
1537921848884034,58,0,-8,6,18,3,1,3
1537921848884034,110,-10,-9,-2,2,0,-3,-1
1537921848891015,120,2,-7,-8,8,-34,-2,-2
1537921848891015,127,-17,-4,-109,0,20,-1,6
1537921848905975,122,7,-19,90,-34,16,-6,-3
1537921848905975,28,-97,-8,92,-48,-16,-5,-37
1537921848913954,107,-113,-30,127,-116,-81,-10,-67
1537921848913954,69,-20,1,100,-123,-125,0,9
1537921848922930,-36,89,-86,-127,-97,-128,-22,-88
1537921848922930,-114,127,-116,-128,12,-39,-102,-106
1537921848936893,-128,-86,-128,-68,122,37,-123,-69
1537921848936893,-81,-117,-128,58,127,77,-128,2
1537921848943874,95,47,-47,106,124,91,-113,125
1537921848943874,-8,56,60,127,98,65,68,23
1537921848950856,-19,-38,112,108,110,74,112,108
1537921848950856,-64,-74,127,120,70,65,125,87
1537921848966812,-106,-84,127,127,72,62,17,82
1537921848966812,-56,4,117,52,42,33,-121,100
1537921848973794,48,127,127,-43,42,38,73,-29
1537921848973794,69,127,126,-81,109,91,-63,-86
1537921848982770,10,-62,-47,-115,127,112,127,-107
1537921848982770,-18,-126,-103,-104,56,116,127,-107
1537921848996732,-71,-89,-128,-104,-67,-8,28,-81
1537921848996732,-41,43,-92,-92,-128,-115,4,-70
1537921849003714,-49,-108,124,-89,-128,-128,-113,-95
1537921849003714,-44,95,125,-72,-128,-128,-15,-52
1537921849011693,-37,103,-92,-58,-111,-87,118,-19
1537921849011693,-58,102,-72,-48,-37,-14,127,-48
1537921849026653,-2,37,-128,-43,32,27,-9,40
1537921849026653,3,53,29,-30,55,52,-33,28
1537921849033634,9,104,72,-26,90,65,-128,10
1537921849033634,-5,36,106,-14,70,51,-111,-20
1537921849042610,-127,-82,127,-17,56,124,-53,-46
1537921849042610,-110,-128,51,-11,108,110,-59,-4
1537921849056572,-46,-102,6,-8,127,127,-121,-4
1537921849056572,71,44,-70,-4,127,30,-51,-25
1537921849063554,127,12,-115,-6,-94,-109,127,-16
1537921849063554,127,-91,-128,-4,-43,-128,69,-7
1537921849071532,19,-115,-72,-3,92,42,7,-16
1537921849071532,-94,-128,-87,-1,122,-16,-78,-6
1537921849086492,4,-4,-87,-5,97,-66,-94,-13
1537921849086492,28,67,-87,-1,-73,-128,92,-4
1537921849094471,91,11,-63,-25,-128,-128,-47,-3
1537921849094471,127,-47,-102,106,-128,-95,-85,1
1537921849101453,101,125,-98,50,-124,-87,-96,-9
1537921849101453,127,41,-107,24,-124,-68,-128,-8
1537921849117410,127,9,-76,5,-117,-76,86,4
1537921849117410,127,-90,-68,-37,-128,-50,119,-3
1537921849123394,123,-88,-47,-18,-120,22,127,-15
1537921849123394,127,-47,-54,4,-16,-25,-101,-1
1537921849131372,127,1,-48,-8,67,-111,76,2
1537921849131372,125,127,-23,-23,83,-27,111,-2
1537921849146332,127,-3,-9,-6,127,50,42,-8
1537921849146332,111,13,-30,-20,123,-71,2,2
1537921849154311,-55,-31,39,5,89,-82,-93,1
1537921849154311,-101,3,-24,-11,72,-36,-63,-4
1537921849161292,-128,-2,15,-10,87,57,-57,-2
1537921849161292,-128,12,29,-29,65,127,-31,-1
1537921849177250,-114,9,82,16,41,119,-74,-3
1537921849177250,-114,-32,57,3,22,100,-27,-1
1537921849184232,-128,19,-30,-81,38,97,-40,-3
1537921849184232,-128,-7,-32,85,20,95,5,-1
1537921849191213,-99,3,-39,47,10,58,-19,-1
1537921849191213,-90,-11,47,19,-2,87,-29,0
1537921849206172,-81,14,89,17,12,34,-15,-2
1537921849206172,-75,89,76,-20,10,14,70,-2
1537921849214151,-55,25,101,-15,1,48,63,0
1537921849214151,-34,112,74,-14,18,121,18,-1
1537921849221132,-33,5,63,0,118,80,13,-4
1537921849221132,-36,-48,81,-9,-48,109,19,-1
1537921849237090,-82,-38,67,8,127,127,-31,-74
1537921849237090,-81,-111,-11,-17,104,-90,-14,-91
1537921849244071,-99,-70,7,11,56,70,-25,-59
1537921849244071,-63,-54,21,-3,-43,114,-10,-125
1537921849251052,52,-25,-24,-9,-128,54,-23,-15
1537921849251052,-86,-79,-9,-6,-128,-77,-10,-64
1537921849266012,6,-23,-44,10,-123,-128,44,21
1537921849266012,85,-119,-46,-3,-86,-128,37,122
1537921849274988,93,-114,9,-89,-128,-126,11,117
1537921849274988,127,-125,-22,-116,-102,-101,11,127
1537921849288951,-59,30,-25,-91,-120,-128,-12,127
1537921849288951,-128,111,-58,-70,-73,-90,-3,48
1537921849296930,-127,127,-100,-15,-68,-122,-18,-39
1537921849296930,-118,127,-76,30,-59,-53,-18,-90
1537921849303911,19,112,-52,18,-66,-51,-2,-128
1537921849303911,63,119,-51,21,-20,-71,0,-128
1537921849310893,54,127,-39,33,-9,-55,-14,-124
1537921849310893,117,101,-14,25,-23,-12,-3,-95
1537921849325853,94,71,7,35,-30,-23,3,-83
1537921849325853,70,63,12,12,20,-33,4,-39
1537921849333833,91,60,3,14,-3,-25,-8,-16
1537921849333833,65,38,18,12,-15,24,1,10
1537921849348791,74,25,9,16,-11,-21,-1,-6
1537921849348791,50,18,-4,-4,11,-16,-6,-8
1537921849356770,34,21,9,3,-5,1,-9,-44
1537921849356770,40,10,32,3,-9,5,-25,54
1537921849363751,26,4,38,1,-12,-11,-35,22
1537921849363751,25,0,21,-6,-26,-10,-41,12
1537921849371730,4,6,9,-3,-43,-2,-33,11
1537921849371730,14,4,21,2,-38,4,-2,20
1537921849386690,31,-3,8,11,-37,-8,-19,18
1537921849386690,23,-4,19,-2,-20,3,-48,35
1537921849394669,111,6,15,-3,-16,-8,-53,-14
1537921849394669,60,2,12,-5,-9,4,-27,-53
1537921849408631,-38,22,7,3,-10,1,10,-4
1537921849408631,-87,51,0,1,3,-6,34,0
1537921849416610,49,40,-10,1,6,-5,8,-27
1537921849416610,55,53,-13,-1,2,3,4,-23
1537921849423591,40,50,-7,-1,-1,-1,15,-39
1537921849423591,2,67,4,0,11,-5,9,-8
1537921849431570,-28,37,-5,5,5,-28,4,-3
1537921849431570,6,20,-3,3,0,-24,8,5
1537921849446530,20,1,-1,4,4,-38,2,28
1537921849446530,17,-34,-3,-1,12,-28,-3,18
1537921849454508,-14,-38,-4,0,5,-10,13,50
1537921849454508,-14,-29,0,2,1,-5,10,22
1537921849468471,-15,-32,2,-1,0,-6,-2,8
1537921849468471,22,-34,-2,2,9,-8,6,4
1537921849477447,-23,12,7,6,9,-5,13,9
1537921849477447,-32,-2,1,3,6,3,8,16
1537921849483431,-8,-14,0,0,4,-2,1,2
1537921849483431,3,-14,-2,0,1,-2,14,-7
1537921849491410,-30,-15,-5,0,7,-2,13,16
1537921849491410,-22,2,0,3,4,0,0,7
1537921849506370,7,18,5,3,5,2,6,1
1537921849506370,6,6,0,-5,-4,-3,5,-7
1537921849514349,-31,11,2,3,-2,3,3,9
1537921849514349,-3,19,3,4,3,6,6,14
1537921849528311,2,2,-3,-2,-5,2,2,-7
1537921849528311,-4,6,1,2,5,8,5,-1
1537921849537287,-14,1,-7,-14,-9,-1,0,8
1537921849537287,-10,-1,2,2,-1,4,6,0
1537921849544268,4,3,6,2,7,7,4,2
1537921849544268,-1,-1,-1,3,1,-8,1,-4
1537921849560226,-26,3,-3,0,-10,-6,8,8
1537921849560226,-75,-10,8,2,-1,0,5,-4
1537921849566211,-122,-3,-3,8,20,-6,2,-2
1537921849566211,-122,6,-5,-2,-5,-9,6,21
1537921849575187,-128,3,-12,-16,-21,6,13,2
1537921849575187,-47,-2,-14,-50,-14,-13,8,9
1537921849589149,82,21,4,7,-15,14,-3,40
1537921849589149,122,14,36,-6,92,41,-29,-35
1537921849598126,127,28,-3,114,33,6,11,26
1537921849598126,127,-79,51,-101,-85,-24,-11,6
1537921849604109,-29,-109,-30,-82,-33,-24,6,-26
1537921849604109,-103,-24,-23,-77,27,10,-15,-21
1537921849620066,-128,10,-8,80,74,36,-23,-22
1537921849620066,-126,68,56,83,60,24,33,17
1537921849626050,-46,-8,29,84,12,-17,-3,7
1537921849626050,-50,-32,-38,-46,-55,-37,47,22
1537921849635026,-41,-12,5,-13,-37,-9,-6,-6
1537921849635026,-50,32,-37,-76,-24,-1,-30,-23
1537921849648989,6,3,7,-66,-9,1,-8,-22
1537921849648989,13,21,21,64,-11,-9,-12,-7
1537921849657965,33,4,-40,-61,-1,-1,9,33
1537921849657965,-14,19,48,23,2,-4,-9,-11
1537921849663948,27,57,-17,85,44,11,22,1
1537921849663948,47,56,-29,-49,-15,20,-1,20
1537921849679906,36,8,29,-20,-51,-8,-9,10
1537921849679906,32,-16,-36,-64,72,6,-11,43
1537921849685890,-4,-90,-5,66,100,23,-3,-41
1537921849685890,5,-124,40,50,43,-9,17,-37
1537921849694866,-2,-128,12,-27,-2,-21,-17,-49
1537921849694866,-17,-121,-50,-33,-22,-19,-16,-57
1537921849708829,-18,13,-4,-38,-44,-23,-19,10
1537921849708829,4,79,25,19,1,-7,-34,25
1537921849717805,4,127,17,1,9,-8,6,31
1537921849717805,18,57,-7,35,10,0,54,117
1537921849723789,-107,66,7,-8,-20,-6,103,123
1537921849723789,59,85,-13,-2,-31,-4,-1,-24
1537921849739746,76,45,3,-10,0,15,-20,-39
1537921849739746,127,29,-3,41,-7,18,-45,-118
1537921849746727,127,-38,12,-24,-29,18,-51,-128
1537921849746727,-16,-128,-27,-23,-29,-1,-13,-99
1537921849755704,-13,-76,8,-8,19,26,5,-28
1537921849755704,-32,-6,-3,29,-4,9,-3,3
1537921849768669,8,61,-5,-7,-10,9,-11,34
1537921849768669,75,75,2,6,-8,-16,6,65
1537921849777645,18,48,-1,-3,-2,-7,19,36
1537921849777645,-72,29,-6,7,0,-16,15,30
1537921849783629,-122,33,-6,-22,-1,-16,-2,22
1537921849783629,-103,20,-8,10,1,-1,7,25
1537921849800584,-76,6,2,-8,-3,-11,8,11
1537921849800584,-57,-2,-3,15,2,3,2,10
1537921849806568,-16,9,-2,-5,-2,3,-12,-6
1537921849806568,-19,-19,6,11,1,9,6,7
1537921849815544,-29,-21,-3,-13,0,-1,2,7
1537921849815544,-12,-13,-1,10,3,4,-3,-6
1537921849828509,11,-20,0,-5,-5,9,-8,-11
1537921849828509,-12,-22,4,2,-3,5,4,9
1537921849837485,-12,-17,-2,-12,5,1,1,3
1537921849837485,5,-12,-9,13,2,7,-1,-10
1537921849843469,16,-14,3,-2,-4,3,-6,-7
1537921849843469,-8,-19,0,-1,2,8,5,-7
1537921849860424,3,-14,-7,-7,-1,-3,-1,-17
1537921849860424,13,-20,3,11,3,4,-3,-14
1537921849866408,7,-19,1,-6,-1,-1,-5,-1
1537921849866408,-2,-1,2,1,3,0,2,12
1537921849875384,6,-1,-2,-5,1,-1,-2,5
1537921849875384,0,-3,-1,2,1,0,1,2
1537921849888349,2,4,2,-5,0,1,-3,2
1537921849888349,0,3,-1,0,-4,-1,0,5
1537921849897325,6,-3,1,-2,2,-1,2,1
1537921849897325,-2,-5,-6,0,-2,4,-1,1
1537921849904306,0,1,2,-4,-3,1,0,-3
1537921849904306,-2,-3,2,-1,-2,4,0,2
1537921849920264,-6,-6,-1,-6,-7,1,-2,5
1537921849920264,1,3,4,3,3,3,2,5
1537921849926248,4,-3,-4,-6,-3,1,-3,-3
1537921849926248,-3,-4,-1,3,1,3,3,4
1537921849935224,-7,-2,-3,-5,-2,-6,-4,-2
1537921849935224,4,2,-1,3,3,1,7,5
1537921849949186,4,-3,4,6,-2,2,-3,0
1537921849949186,-3,-4,-1,-2,-1,1,1,1
1537921849958163,3,0,-6,-5,2,1,3,3
1537921849958163,2,-4,-5,-1,-11,-5,1,-2
1537921849964146,-3,-7,-10,-10,-11,-11,-4,-1
1537921849964146,-2,-6,-10,-6,-16,5,0,5
1537921849988082,-3,-7,9,-1,26,4,5,4
1537921849988082,-5,1,15,-13,22,4,-6,-2
1537921849989080,-9,8,11,50,17,-12,-8,-1
1537921849989080,-11,7,8,26,15,27,8,6
1537921849995063,6,-7,-7,9,-60,-23,11,-4
1537921849995063,-46,-2,-27,-84,2,9,2,-4
1537921850009026,-36,2,-15,-70,-68,-2,-15,-3
1537921850009026,-17,-12,23,15,53,-57,-30,-21
1537921850018002,39,15,40,110,51,59,17,8
1537921850018002,102,3,-1,-65,-12,-22,20,3
1537921850023986,52,-29,27,-22,10,20,-3,0
1537921850023986,26,12,-36,76,18,6,1,35
1537921850039944,-21,2,64,-111,1,-25,-2,-9
1537921850039944,-19,3,-43,25,22,16,-15,-10
1537921850045928,-13,19,43,34,-15,-22,-26,-26
1537921850045928,-15,-9,-45,-75,-42,-12,11,5
1537921850054904,-12,-4,-47,-12,-40,-14,17,18
1537921850054904,-35,-2,-21,-63,-35,-10,12,-14
1537921850068866,-16,-7,31,-43,12,-3,-2,4
1537921850068866,43,-2,47,34,8,14,-2,-11
1537921850077842,27,-2,-46,-27,-62,1,-19,4
1537921850077842,6,-12,6,21,74,5,9,-3
1537921850083827,14,9,19,112,65,16,-12,11
1537921850083827,15,7,67,52,18,8,17,0
1537921850099784,-5,-4,-10,-37,-16,-7,-12,-7
1537921850099784,-4,-11,-4,-20,-52,-20,5,8
1537921850106765,-3,-15,-38,-39,-8,3,6,-11
1537921850106765,-16,0,-20,-63,-17,2,2,-6
1537921850114744,-8,-6,-10,4,10,-4,-12,-5
1537921850114744,-12,44,21,52,3,24,-8,-4
1537921850128706,16,120,-5,-10,12,-6,9,6
1537921850128706,103,45,-13,-22,-17,-10,11,21
1537921850137683,64,97,-15,15,22,-12,80,83
1537921850137683,127,124,-34,102,9,-103,93,121
1537921850143667,119,-117,-12,-13,-10,3,-75,-81
1537921850143667,-113,-107,14,-48,-16,57,-106,-102
1537921850160621,5,-128,44,-30,8,72,-128,-128
1537921850160621,-128,-29,59,-10,6,78,-51,-128
1537921850166605,-127,115,-15,-17,-8,7,6,-85
1537921850166605,-94,127,-6,-14,0,-10,32,-89
1537921850175582,-128,125,5,-3,17,-17,58,32
1537921850175582,-119,54,-2,11,-11,-25,49,110
1537921850188547,-73,57,-19,-1,1,-23,67,127
1537921850188547,-77,43,2,10,4,-15,17,89
1537921850197523,-70,67,-12,19,8,-26,20,55
1537921850197523,-15,32,0,8,-7,-7,-14,17
1537921850211485,-35,25,-10,-2,-1,8,0,22
1537921850211485,-19,23,-12,-12,-3,-9,11,23
1537921850220461,-17,34,-11,12,1,-12,0,1
1537921850220461,9,17,6,8,-4,11,-35,-26
1537921850226445,-6,-12,-3,-7,0,5,4,-6
1537921850226445,7,8,-3,-5,-6,-10,3,9
1537921850235422,17,-8,-6,5,7,0,-8,-14
1537921850235422,10,-21,2,-7,-4,12,-30,-30
1537921850248387,3,-8,-1,5,-4,-1,10,10
1537921850248387,23,-12,-11,-10,-4,-3,5,9
1537921850257363,1,-5,3,0,7,2,-11,-14
1537921850257363,2,-20,2,0,-5,6,-10,-11
1537921850271326,8,-4,-10,-3,0,0,7,7
1537921850271326,21,0,3,8,1,-1,-3,7
1537921850280302,6,-13,-1,5,4,-1,-3,-9
1537921850280302,4,-6,-1,1,-3,1,-8,-6
1537921850286285,10,-6,-3,-7,-2,-2,6,6
1537921850286285,2,-9,-5,-4,-2,1,-2,1
1537921850295261,2,-1,7,1,2,-1,1,-1
1537921850295261,12,-7,2,-4,-1,-1,-3,-6
1537921850309224,1,-3,3,-1,2,3,5,2
1537921850309224,2,-10,-3,-2,1,0,1,1
1537921850317203,-3,-11,2,0,2,-2,-2,-4
1537921850317203,-1,-26,6,3,-2,7,-6,-6
1537921850331165,1,-20,0,-3,-1,2,2,0
1537921850331165,2,-7,-3,1,-1,0,4,5
1537921850340141,7,4,-1,0,-2,-1,-1,-1
1537921850340141,5,2,9,2,0,4,-8,-6
1537921850355101,3,9,-3,-2,-5,2,1,0
1537921850355101,8,11,1,-2,-3,0,2,5
1537921850357096,0,-1,2,-2,-1,1,0,-4
1537921850357096,5,2,3,-3,-2,3,-2,-4
1537921850369064,3,5,-6,-2,2,4,2,2
1537921850369064,6,-1,-4,-3,0,1,1,1
1537921850378041,2,-2,-5,2,0,-3,-1,-3
1537921850378041,2,-2,2,-3,-7,-7,-3,-2
1537921850391006,-1,-7,6,-2,2,-1,0,1
1537921850391006,5,-6,5,4,6,1,4,4
1537921850399981,0,-11,-2,1,-2,1,-1,0
1537921850399981,2,0,3,1,-1,-2,-3,-4
1537921850414941,-1,-29,-5,-1,-3,-3,0,-1
1537921850414941,2,-4,-6,-4,-1,-5,1,1
1537921850416936,0,-7,-1,-1,0,-1,2,-2
1537921850416936,2,-8,-3,2,3,2,1,0
1537921850428904,0,1,-1,-2,0,1,0,1
1537921850428904,3,20,14,2,-1,3,-6,1
1537921850437880,2,31,-6,0,1,-1,4,0
1537921850437880,-3,16,-4,-4,-1,-3,-9,-2
1537921850450846,1,-10,-2,-3,-1,0,1,-6
1537921850450846,-2,-21,-11,-1,-1,-1,8,9
1537921850459821,0,39,11,-1,-3,-2,-8,-5
1537921850459821,7,-1,15,4,0,1,9,10
1537921850474781,-1,19,-12,2,2,-3,-14,-8
1537921850474781,-5,28,8,-5,-3,-3,2,-4
1537921850481763,7,-9,-7,0,3,-14,5,0
1537921850481763,1,28,-2,-1,4,10,15,6
1537921850488744,1,-55,-6,-1,-5,-2,13,-9
1537921850488744,-4,-49,-4,-4,-4,3,-19,11
1537921850497720,4,17,10,0,5,-1,9,-4
1537921850497720,-6,-61,-8,1,-6,-9,-18,3
1537921850511682,1,-67,-21,-3,-4,-3,30,18
1537921850511682,3,-13,2,3,-1,-13,-20,-7
1537921850520659,-3,-59,2,0,-2,2,1,-1
1537921850520659,2,13,8,2,0,1,-1,-5
1537921850534621,-5,13,18,-2,0,2,-10,-1
1537921850534621,0,-28,-17,3,-2,-1,4,-4
1537921850541602,-1,42,6,-1,0,7,-2,9
1537921850541602,-1,27,-29,-3,-1,-3,5,-7
1537921850557560,-6,11,-13,-4,-1,-6,-7,-12
1537921850557560,8,47,26,-2,0,-1,1,7
1537921850559555,-2,3,-14,-2,-4,1,-12,-9
1537921850559555,-4,2,-106,1,3,-7,7,7
1537921850571523,6,39,-30,1,3,14,10,8
1537921850571523,3,-18,-18,0,1,-1,5,13
1537921850580499,1,32,24,1,-3,-7,-19,-65
1537921850580499,-8,-56,41,-8,-8,4,-9,-16
1537921850594461,-9,2,29,-1,15,14,18,7
1537921850594461,-4,43,5,-38,-22,-21,-5,18
1537921850601443,-4,-26,35,34,-8,5,2,-6
1537921850601443,2,28,91,21,1,-36,-55,3
1537921850617400,13,43,15,-13,-3,25,12,-16
1537921850617400,-9,-10,12,14,-35,-6,41,-5
1537921850619394,10,5,71,-80,52,-14,-52,0
1537921850619394,-47,-3,-26,0,-14,56,32,10
1537921850631362,-54,34,2,107,49,-29,-43,35
1537921850631362,-24,15,-32,-71,-41,-41,13,28
1537921850640339,18,-42,-66,0,-61,33,-7,-9
1537921850640339,-74,-95,51,-61,0,33,57,4
1537921850654301,-88,-128,-4,7,69,26,-8,-6
1537921850654301,-29,-128,15,127,74,66,47,12
1537921850661283,-95,-36,-27,-58,-23,-96,-65,28
1537921850661283,-54,101,44,62,-31,4,-14,44
1537921850677240,-12,123,-50,-97,-76,-3,34,-14
1537921850677240,-72,105,-29,-84,-65,-10,41,-22
1537921850679235,106,-25,26,-20,14,6,-18,-55
1537921850679235,108,18,-7,-20,66,-22,-32,-15
1537921850691203,124,26,2,78,65,72,33,6
1537921850691203,40,-14,-28,2,-40,-52,-15,-23
1537921850700179,-37,90,49,8,-99,-40,5,15
1537921850700179,11,105,-13,9,20,37,3,4
1537921850714141,29,119,102,-50,88,45,-1,-12
1537921850714141,43,46,-101,44,22,6,12,-13
1537921850721123,-101,20,43,-2,-11,-23,1,3
1537921850721123,-89,11,-74,-2,-31,-25,-2,-26
1537921850738077,-21,0,-8,-19,-70,-80,-41,-24
1537921850738077,-10,9,42,-28,32,65,52,-27
1537921850739075,-9,-67,-74,-93,-16,-66,8,6
1537921850739075,17,-50,9,67,7,-9,-40,65
1537921850751043,98,-33,38,11,-20,-5,-21,-61
1537921850751043,93,-21,51,7,13,-36,-63,9
1537921850760019,39,-3,-17,41,49,92,83,-5
1537921850760019,-30,-34,0,-80,-2,4,50,5
1537921850774979,-71,-70,37,-99,-44,13,37,-6
1537921850774979,-57,-61,4,89,16,-16,-33,47
1537921850780963,-28,-26,-1,54,43,50,-12,50
1537921850780963,12,-7,-11,21,-6,-13,-32,-12
1537921850797918,-48,80,11,24,-25,-12,-27,-28
1537921850797918,-39,87,5,-35,24,55,8,-40
1537921850798915,9,49,-32,127,24,-3,26,24
1537921850798915,28,3,10,-66,0,-41,-9,-35
1537921850810883,31,-55,-31,-104,-34,-20,5,9
1537921850810883,23,-24,4,-128,-4,-50,-25,-10
1537921850819859,40,-14,-24,-8,10,15,12,12
1537921850819859,58,1,20,23,-6,-1,11,-14
1537921850834819,-1,4,-17,55,-8,-24,-3,28
1537921850834819,-9,23,9,40,7,3,-19,-9
1537921850840803,-4,11,16,26,1,-7,5,16
1537921850840803,-5,-8,-9,16,-2,9,21,-21
1537921850857758,-19,-26,-25,10,-15,-11,-5,17
1537921850857758,-39,-20,12,29,-9,-5,-12,10
1537921850858755,-33,5,-1,-12,1,0,13,-18
1537921850858755,-16,-2,-2,-9,2,9,-4,0
1537921850871720,-17,0,-23,29,17,-19,-8,16
1537921850871720,7,16,7,16,3,27,-4,-2
1537921850880696,-5,5,-19,-18,-1,21,5,-11
1537921850880696,2,1,-12,-14,-25,8,1,-10
1537921850894659,-2,-7,-1,10,-7,5,-3,16
1537921850894659,5,3,2,0,5,7,-1,2
1537921850901640,-33,-5,-8,-16,-2,5,3,-13
1537921850901640,-16,-8,0,10,0,-3,3,-2
1537921850917598,-13,13,-12,5,-6,8,-5,-18
1537921850917598,21,13,-8,-8,1,8,-9,14
1537921850918595,34,6,-12,-2,-4,1,4,34
1537921850918595,12,-4,0,-4,0,-8,-1,1
1537921850931560,-15,-7,-4,1,-3,-4,5,12
1537921850931560,-21,-1,7,-5,-3,4,-6,-20
1537921850940536,1,3,5,-7,4,6,2,-10
1537921850940536,4,5,0,-3,6,-5,3,-5
1537921850954499,21,-4,-4,0,-4,-9,-6,-3
1537921850954499,78,3,6,6,-2,-7,-5,-8
1537921850961480,-87,-11,-3,3,6,-2,5,-1
1537921850961480,-44,3,2,-2,-1,-9,-2,0
1537921850977438,-17,-12,-2,1,-6,-8,-1,9
1537921850977438,24,-8,4,-1,-1,-5,-2,-9
1537921850979432,68,-9,-7,-5,0,-6,-3,2
1537921850979432,42,-12,-12,1,-3,-7,-2,-6
1537921850991400,13,-4,0,8,1,-5,2,6
1537921850991400,0,-3,-5,-3,1,-7,3,-2
1537921851000377,26,59,2,-5,0,-2,-5,-4
1537921851000377,9,11,6,-10,-6,-6,-1,3
1537921851014339,13,-90,-8,2,1,2,3,-4
1537921851014339,-20,15,11,-1,-3,1,-4,6
1537921851021321,3,-57,4,-10,6,2,1,-5
1537921851021321,4,-15,-14,9,2,-4,-4,-12
1537921851037278,-1,9,0,-13,-25,-4,4,10
1537921851037278,-61,-31,-7,-19,10,-5,4,10
1537921851039273,-40,15,1,9,-13,2,3,4
1537921851039273,-74,23,26,-34,-16,-8,27,9
1537921851051241,-97,-3,-46,-52,-5,14,-5,8
1537921851051241,-48,-9,77,31,24,-20,-36,8
1537921851060217,108,11,101,81,-4,-3,35,-37
1537921851060217,126,-90,-88,-77,-5,22,-77,-68
1537921851074179,103,-36,19,112,56,-18,-21,5
1537921851074179,61,-15,-16,-17,3,12,94,45
1537921851081161,-68,-38,17,-3,-39,-28,-54,0
1537921851081161,26,14,15,-66,-8,-3,11,-1
1537921851098115,-59,15,40,-29,-48,-12,-64,-46
1537921851098115,-32,48,-65,71,62,-11,-16,-29
1537921851099113,-52,19,-14,83,42,41,42,-14
1537921851099113,-104,22,-16,-26,-20,-15,68,-39
1537921851111081,-12,64,25,-93,-62,-9,2,23
1537921851111081,39,41,46,-5,-34,-67,-69,18
1537921851120056,121,43,-30,-64,1,-6,-9,32
1537921851120056,126,22,-28,127,50,48,59,57
1537921851134020,-67,36,70,39,39,10,-1,3
1537921851134020,-109,-15,-18,-16,-35,26,-4,-44
1537921851141001,73,-2,-40,-75,-23,-13,-23,4
1537921851141001,-116,-6,-25,-10,19,9,-3,17
1537921851157955,-5,5,-27,26,-1,-21,19,10
1537921851157955,-5,-11,-21,-20,-22,2,-25,10
1537921851158953,-128,-15,-38,-19,9,-7,0,0
1537921851158953,-83,3,28,29,5,-3,2,20
1537921851170921,-105,-9,-21,8,3,5,7,1
1537921851170921,-128,-4,-26,-32,-8,11,8,3
1537921851179897,-18,-10,22,2,14,17,3,5
1537921851179897,25,3,37,15,-15,-18,-24,4
1537921851194857,-12,-2,-7,-10,1,-6,11,11
1537921851194857,13,-5,-3,-10,4,9,4,-4
1537921851200841,-68,-14,17,3,1,-2,12,4
1537921851200841,76,5,43,-2,-4,-13,-28,7
1537921851217796,127,15,-61,1,17,-10,63,35
1537921851217796,-58,-22,-7,-2,9,-3,30,23
1537921851218793,-112,-15,13,-8,5,3,-42,-8
1537921851218793,-128,-22,15,-11,1,2,-40,-26
1537921851230760,8,-10,3,5,10,24,-29,-32
1537921851230760,127,10,24,4,-6,17,16,-14
1537921851239736,123,-6,-15,-12,-13,-8,15,5
1537921851239736,127,-2,7,-3,-11,-6,-8,-4
1537921851254696,111,-10,-9,-4,-7,-3,9,-4
1537921851254696,92,-10,8,4,-2,6,5,16
1537921851261677,73,1,3,-8,3,-4,-3,-7
1537921851261677,36,-2,-6,6,-1,-6,8,9
1537921851277635,9,-8,2,3,-3,-1,0,0
1537921851277635,-11,-6,-7,-4,-3,0,-5,-9
1537921851278632,-10,8,-15,-3,3,1,1,1
1537921851278632,-33,-11,-15,7,1,-10,3,-1
1537921851291597,-46,42,-6,1,3,2,2,3
1537921851291597,-12,-69,-2,-5,-4,3,-4,-13
1537921851300574,-15,-22,0,-4,1,-3,8,3
1537921851300574,-12,-45,13,1,-1,-7,3,11
1537921851314536,-13,-76,-21,-12,-3,-3,-4,-5
1537921851314536,-2,26,5,-1,-1,2,2,-6
1537921851321518,2,32,-6,2,-5,-1,-1,1
1537921851321518,6,23,10,6,-1,-3,1,4
1537921851337475,-11,-43,-15,-17,-2,-1,6,-5
1537921851337475,7,38,17,-6,-4,-1,-2,-6
1537921851339470,-3,-17,-20,-8,3,-1,5,7
1537921851339470,10,58,-7,-5,2,1,-6,-1
1537921851351438,0,-38,2,-2,4,4,1,1
1537921851351438,-9,-2,0,-4,-2,-1,-2,-4
1537921851360414,10,41,12,-4,-3,0,-4,-2
1537921851360414,-3,8,-20,-5,-3,-3,1,-3
1537921851374376,9,-16,17,5,1,0,-8,-5
1537921851374376,2,17,-10,-1,1,1,2,-3
1537921851381358,10,23,-5,4,-1,3,-8,1
1537921851381358,6,117,45,2,-4,0,-1,-1
1537921851397315,10,-9,-27,-1,3,3,-5,3
1537921851397315,8,79,33,6,6,8,-5,-3
1537921851399310,-11,90,-14,-11,-3,-4,6,-11
1537921851399310,-24,-112,-38,-12,2,-7,5,2
1537921851420254,8,127,61,0,7,5,4,-2
1537921851420254,5,-59,-21,-4,-2,-3,5,7
1537921851421251,-23,13,-6,16,0,2,11,6
1537921851421251,-18,28,14,11,-6,1,-20,-17
1537921851434217,-22,-75,-44,-16,-3,-8,7,-8
1537921851434217,17,69,25,4,-1,-2,-7,-3
1537921851441198,22,36,24,3,2,0,2,-2
1537921851441198,2,-23,-97,-17,-7,-9,10,14
1537921851457156,-10,49,43,13,1,4,-10,14
1537921851457156,12,48,16,-2,-4,-2,-5,3
1537921851464136,4,-19,9,8,3,-1,-8,2
1537921851464136,17,-13,59,16,4,10,3,-3
1537921851480094,-4,83,-59,-14,-7,-7,7,11
1537921851480094,-13,-61,-40,-4,-1,-1,5,29
1537921851482089,3,42,43,-9,-4,-7,5,26
1537921851482089,9,-5,29,2,2,-2,5,42
1537921851494057,17,-27,-22,-2,-3,2,-16,-46
1537921851494057,-73,-55,5,-13,-2,-11,21,-39
1537921851501038,4,-59,-4,-5,2,2,-6,-35
1537921851501038,7,-37,-21,7,4,0,4,-18
1537921851516995,-4,9,-22,6,7,0,8,-15
1537921851516995,26,-13,-34,6,6,6,-11,-17
1537921851523977,-20,-29,33,-5,-6,0,7,-10
1537921851523977,7,-19,-59,-9,-5,-2,4,19
1537921851539934,-33,26,1,-1,-5,-4,9,23
1537921851539934,0,-31,-50,-8,-4,-2,-6,0
1537921851541928,-3,-7,24,18,5,0,-4,1
1537921851541928,14,24,27,-7,0,6,-11,-11
1537921851554894,-8,-34,17,9,0,1,7,-7
1537921851554894,65,39,-16,6,2,10,-12,-4
1537921851560878,-37,-73,-55,-20,-17,-17,8,2
1537921851560878,-18,20,25,8,-1,-1,12,21
1537921851576835,6,-2,12,0,1,-1,-7,25
1537921851576835,-23,-37,48,-1,1,-2,-3,20
1537921851583817,29,17,-12,-2,10,8,-6,10
1537921851583817,-21,-1,16,-2,3,-1,-1,96
1537921851599774,15,2,-24,-7,-6,0,-4,120
1537921851599774,-37,-12,39,6,-4,-1,0,26
1537921851601769,6,-1,-37,-5,-3,-2,-78,-61
1537921851601769,-6,-16,35,-5,6,-3,-112,-8
1537921851614734,26,22,18,9,2,-13,-128,-80
1537921851614734,30,42,-2,0,-12,-17,-35,85
1537921851621716,35,-20,-35,7,7,4,61,116
1537921851621716,-14,27,31,9,-3,11,99,-36
1537921851636675,-52,-45,-24,-9,-2,14,127,-53
1537921851636675,-56,-45,5,-9,-2,10,127,75
1537921851643657,-10,22,21,-5,-4,-5,-5,87
1537921851643657,1,38,-19,-10,1,0,-101,14
1537921851660611,-4,-28,4,-6,-5,0,-123,-91
1537921851660611,-23,5,16,6,5,12,-128,-128
1537921851661609,-16,-29,-3,-7,2,9,-120,-128
1537921851661609,1,23,-20,0,0,3,-122,-14
1537921851674575,-7,22,71,-3,-5,-11,-113,113
1537921851674575,16,-17,-29,1,-2,-5,-79,119
1537921851681555,6,6,-15,-4,-2,-7,-58,127
1537921851681555,13,13,30,6,-3,9,-11,94
1537921851696516,22,32,-8,-3,0,11,13,127
1537921851696516,15,19,-11,-4,2,2,7,112
1537921851703497,3,-6,-7,-10,-4,-3,12,31
1537921851703497,-1,-17,-32,-5,-3,-23,24,0
1537921851720452,6,21,16,-11,2,-13,31,34
1537921851720452,5,-8,14,7,-1,-8,0,-17
1537921851721449,-9,3,-13,3,0,-4,10,-28
1537921851721449,-7,-30,-4,-6,-6,-1,29,16
1537921851733417,-5,6,5,10,5,6,20,42
1537921851733417,9,-8,-13,-10,0,-2,8,-31
1537921851742393,-5,41,9,0,-5,2,13,-113
1537921851742393,-4,-24,-10,-4,-2,3,16,-98
1537921851756356,-32,-46,-2,1,-5,-3,7,-72
1537921851756356,10,50,18,-2,-4,1,-1,0
1537921851765332,-8,-53,-29,4,-3,0,11,46
1537921851765332,-5,22,14,-2,-3,-4,8,88
1537921851780292,17,13,20,1,-1,-2,12,23
1537921851780292,-1,0,-14,2,1,-2,5,-51
1537921851781289,0,4,30,5,2,1,0,-62
1537921851781289,-4,-5,-37,4,3,-4,9,-64
1537921851794254,13,-2,-2,3,1,2,8,16
1537921851794254,4,50,10,-2,-1,2,-1,42
1537921851802233,1,-11,25,-2,0,-6,2,45
1537921851802233,-4,-10,-44,-11,-4,-21,5,24
1537921851817193,-6,-34,-2,5,-8,11,-6,13
1537921851817193,-12,18,4,7,0,-7,-5,-2
1537921851824175,7,5,5,1,-2,-6,8,18
1537921851824175,6,-25,-2,-5,3,14,2,-9
1537921851840132,20,0,-6,-7,0,-11,6,-11
1537921851840132,-20,-10,-12,-4,-2,-2,-2,-14
1537921851842127,1,7,9,2,-5,1,-2,7
1537921851842127,-15,5,23,15,-1,-6,1,6
1537921851854094,44,45,6,14,6,3,3,-3
1537921851854094,3,-46,-3,5,-1,-1,11,-15
1537921851863071,-19,64,1,-3,0,-3,0,-4
1537921851863071,-9,-57,8,-6,2,6,7,-12
1537921851877033,-11,-53,-34,-14,0,-1,-4,-5
1537921851877033,-14,7,6,-13,2,4,8,-2
1537921851884015,25,-10,-10,-4,0,0,1,21
1537921851884015,11,29,13,0,-2,5,9,-1
1537921851899972,-18,2,25,1,2,4,6,-2
1537921851899972,59,-13,-21,-7,0,-5,-6,8
1537921851901967,-34,2,7,3,-4,1,4,-14
1537921851901967,-9,9,11,6,4,0,-1,7
1537921851913934,-16,-11,-5,-2,-2,-8,3,-10
1537921851913934,-10,9,-6,-3,2,0,-12,-11
1537921851922911,6,-17,1,-2,1,3,2,12
1537921851922911,17,48,21,2,-2,2,5,2
1537921851936873,17,28,-20,-1,-3,-9,-18,-3
1537921851936873,-69,-54,12,-6,-6,-2,1,-22
1537921851943854,-29,-26,-14,-5,0,-8,6,2
1537921851943854,14,6,-5,-2,-7,-1,-4,-3
1537921851959812,-8,27,16,2,-2,24,9,-12
1537921851959812,54,54,12,-2,-8,-25,-7,5
1537921851961807,27,-22,4,-13,1,28,-3,4
1537921851961807,2,15,-27,5,4,-8,-81,7
1537921851983749,-14,-1,-14,6,8,-7,29,-1
1537921851983749,-6,9,24,3,2,1,59,6
1537921851983749,2,6,-14,6,1,-15,44,-12
1537921851983749,35,-28,-17,-9,-2,1,19,0
1537921851997711,28,25,9,-1,-1,3,-29,3
1537921851997711,-9,-54,-20,2,-3,-9,-28,-11
1537921852003695,3,-9,-20,-2,-4,-2,-24,3
1537921852003695,10,12,26,3,1,5,-1,9
1537921852019652,-12,-37,-23,-6,-2,-6,-43,8
1537921852019652,-30,-18,7,-3,-4,8,-59,6
1537921852019652,0,-16,2,1,-3,0,-43,55
1537921852019652,-14,10,1,6,-2,-3,-44,-15
1537921852041593,-18,-4,0,-2,0,-6,22,-47
1537921852041593,26,65,10,-1,0,5,31,-41
1537921852042591,2,-14,8,2,2,3,23,-29
1537921852042591,-7,32,-5,-4,1,-4,16,13
1537921852056553,-22,-33,-10,-8,-6,-7,27,24
1537921852056553,-3,3,-23,2,-1,3,-6,-4
1537921852063534,-8,16,6,3,-2,-9,11,-6
1537921852063534,-1,-6,-1,4,5,18,36,9
1537921852079492,-1,24,28,1,2,0,3,-4
1537921852079492,0,-18,-31,-14,2,4,6,9
1537921852080489,6,8,17,-3,-2,-8,-3,-7
1537921852080489,-15,-14,-4,-4,-5,-2,15,-13
1537921852095449,0,-6,3,-1,-3,1,1,-7
1537921852095449,-19,16,7,1,-1,-2,7,5
1537921852101433,-7,-20,1,1,-1,1,2,1
1537921852101433,13,23,-6,8,-1,-4,2,-12
1537921852116393,-8,-48,-33,4,1,0,-1,1
1537921852116393,0,17,25,5,2,-6,-4,6
1537921852123374,-4,-28,-17,5,1,1,-21,-4
1537921852123374,4,-6,-2,-2,-4,-3,-105,8
1537921852139331,-29,31,19,-5,3,-3,-44,-2
1537921852139331,25,5,-17,-4,-3,5,85,1
1537921852140329,-25,-1,7,-5,-4,-1,114,-12
1537921852140329,3,25,13,-6,-5,-4,102,-7
1537921852155289,11,8,-4,1,-3,-1,-10,-5
1537921852155289,7,-57,-21,-2,-2,2,-63,-5
1537921852161273,15,11,-14,-1,-3,0,-53,-3
1537921852161273,5,-7,11,-1,3,-3,-24,-4
1537921852176233,-9,8,-2,1,2,-1,-21,0
1537921852176233,-4,6,28,4,2,-1,-24,0
1537921852184212,13,-6,-26,2,-1,-13,-26,2
1537921852184212,-12,-26,2,-1,-1,17,3,-4
1537921852207150,15,6,19,0,-2,-2,6,7
1537921852207150,-6,-8,-27,0,2,4,3,10
1537921852207150,8,21,9,1,-2,-4,-31,-9
1537921852207150,-10,-23,-13,-3,-3,-11,3,3
1537921852215129,-19,-1,-4,-2,-3,3,12,8
1537921852215129,-13,6,14,-4,-1,-2,-13,-3
1537921852221113,5,0,-11,-5,2,0,-13,-1
1537921852221113,-21,7,15,-5,-4,-4,5,-7
1537921852236073,12,2,7,1,-3,1,7,2
1537921852236073,8,18,-4,3,-1,-3,-9,9
1537921852244051,13,11,11,4,2,10,4,0
1537921852244051,7,-60,-17,2,1,-3,11,5
1537921852259011,-23,30,3,-3,0,-6,3,1
1537921852259011,-23,-8,-4,-1,4,-1,-3,-2
1537921852260009,-51,-12,-10,-2,-3,2,-4,-1
1537921852260009,7,25,10,-1,-3,-3,0,3
1537921852281950,11,-10,6,3,-2,-4,4,1
1537921852281950,31,31,-6,-2,-2,2,-3,-4
1537921852282948,17,-36,10,-3,2,-1,-4,2
1537921852282948,-6,-6,-5,2,2,-3,-5,-9
1537921852295913,10,20,-12,-2,4,3,4,4
1537921852295913,1,-32,-6,0,-2,1,-1,4
1537921852303892,15,18,9,-1,1,-1,-8,-9
1537921852303892,2,7,11,2,2,-3,4,0
1537921852319849,14,-3,-12,-1,0,1,5,-4
1537921852319849,5,6,-11,-3,1,-3,2,7
1537921852319849,10,8,-10,-2,-2,1,-4,-3
1537921852319849,-24,2,3,-3,-3,0,10,-3
1537921852334809,-14,12,14,-3,-1,-1,2,3
1537921852334809,3,3,-11,-6,-1,0,0,-1
1537921852340793,-2,-4,0,-4,2,0,1,7
1537921852340793,22,33,-9,-1,1,-1,1,-4
1537921852355753,-3,18,9,-1,0,-3,-2,-8
1537921852355753,0,-37,-3,7,0,-1,0,-1
1537921852363731,-6,17,8,5,-1,-2,-9,-2
1537921852363731,-12,-36,-9,0,-3,-1,3,-4
1537921852378692,-5,-20,-2,-4,-5,-4,-10,-8
1537921852378692,-9,13,-3,-5,1,-2,0,0
1537921852386670,-7,0,-4,-5,4,1,2,5
1537921852386670,10,-2,4,-2,0,-1,3,2
1537921852401630,15,-10,-15,0,5,1,0,1
1537921852401630,-2,10,14,2,4,1,1,-4
1537921852402628,-30,-3,3,-2,0,-1,0,6
1537921852402628,9,39,16,0,-2,0,-1,7
1537921852416590,-25,-5,-19,-3,-8,-3,6,-6
1537921852416590,-4,-5,-2,3,-4,-1,-1,6
1537921852423572,-9,0,-9,2,-3,-2,4,-3
1537921852423572,-5,-2,-16,1,1,-1,-3,-11
1537921852438532,1,16,22,-3,-2,-1,0,3
1537921852438532,14,-3,4,-3,-2,0,5,3
1537921852446510,19,-6,-3,1,0,-1,-4,-1
1537921852446510,9,-3,9,-4,-2,1,-3,7
1537921852461470,15,-7,-5,-3,-2,1,0,6
1537921852461470,-3,16,5,7,1,-3,-3,0
1537921852462468,-1,-28,-1,-2,2,1,-3,0
1537921852462468,17,8,5,0,3,-1,-4,1
1537921852476430,12,-14,-19,2,1,1,1,-3
1537921852476430,8,35,7,3,4,0,9,4
1537921852483412,3,-38,4,1,-2,1,-5,-8
1537921852483412,-12,-13,-25,-4,-3,-6,5,-1
1537921852498372,7,2,6,0,0,2,1,-8
1537921852498372,-7,2,0,-4,-9,0,-5,-11
1537921852506351,10,10,-3,0,-1,-1,4,3
1537921852506351,-5,-2,6,-3,-1,0,-5,1
1537921852522308,-2,-3,1,0,-1,2,1,1
1537921852522308,-3,1,3,-1,4,0,-5,-5
1537921852522308,-7,7,-18,-5,4,-3,4,1
1537921852522308,-13,-16,-11,-6,-4,-4,0,-2
1537921852536270,12,37,28,2,2,0,-3,0
1537921852536270,-44,-59,-8,-4,-5,-4,-2,1
1537921852543251,-6,10,2,2,-5,-2,3,-3
1537921852543251,1,2,15,3,2,0,1,-6
1537921852582148,-10,-13,-24,0,-1,0,0,3
1537921852582148,14,15,23,4,-1,0,-4,1
1537921852589129,6,16,-10,1,-2,1,1,2
1537921852589129,-13,-19,-9,1,-4,-3,2,8
1537921852605086,12,21,7,1,0,0,3,-5
1537921852605086,5,-5,-3,-4,3,2,-2,1
1537921852607081,2,9,-3,-4,0,-1,-6,0
1537921852607081,1,5,9,-4,-2,-1,1,1
1537921852620046,3,4,0,1,-4,-2,-4,0
1537921852620046,-12,-10,-3,-1,-5,-1,-1,1
1537921852622041,8,-23,4,0,-2,2,5,2
1537921852622041,-32,-3,-6,1,2,1,-1,-2
1537921852635007,-17,-15,-1,-2,3,-1,13,6
1537921852635007,-12,13,-9,0,3,-2,-10,-3
1537921852640991,-32,6,14,-1,-1,-1,9,-1
1537921852640991,12,2,-7,-2,-3,-1,3,-14
1537921852648969,10,-7,9,-3,-3,-3,3,-2
1537921852648969,21,11,-7,0,-2,3,14,3
1537921852655950,21,10,10,2,0,-2,5,5
1537921852655950,0,-19,-11,1,2,-1,8,12
1537921852672905,20,-10,-8,-2,6,-3,5,13
1537921852672905,-15,-20,-9,-2,0,-3,3,12
1537921852672905,27,22,2,-1,-3,-2,-1,8
1537921852672905,7,-18,-8,4,2,-2,8,11
1537921852686868,-8,7,4,2,-7,-4,5,12
1537921852686868,20,-2,3,-4,-3,-4,11,11
1537921852687865,6,6,-1,-4,-1,-1,10,2
1537921852687865,2,14,2,-2,-1,-2,5,14
1537921852708809,-5,-14,-11,-3,2,7,12,11
1537921852708809,11,12,10,5,0,10,6,8
1537921852716788,-2,12,-1,2,-1,11,14,8
1537921852716788,6,12,-3,-4,0,11,8,11
1537921852723770,8,1,4,0,1,8,7,6
1537921852723770,2,2,5,-4,0,0,13,10
1537921852731748,2,12,-3,-2,-3,-1,5,5
1537921852731748,-2,-12,-4,-2,-1,-5,10,8
1537921852746708,10,13,-2,2,1,-7,5,8
1537921852746708,19,10,-4,5,3,-7,9,7
1537921852747705,2,-11,0,0,-1,-10,10,10
1537921852747705,-3,-1,-1,-1,-4,-8,5,-3
1537921852769647,4,9,1,-2,-4,-10,4,5
1537921852769647,0,4,-13,-5,-4,-9,9,3
1537921852770644,12,0,3,-3,-1,-10,1,6
1537921852770644,1,8,3,2,3,-6,2,-3
1537921852792585,-1,-16,-17,-1,3,-5,4,2
1537921852792585,-13,6,4,-2,4,-3,-2,-1
1537921852793583,3,-6,-2,0,9,-1,2,-1
1537921852793583,12,10,0,1,6,-1,-2,3
1537921852806548,-17,-1,0,1,-1,-3,-2,-5
1537921852806548,0,1,0,-3,-4,-4,-2,-7
1537921852807546,-4,-1,2,-3,-4,-2,-7,-3
1537921852807546,-4,-1,-7,-2,-4,-1,9,-2
1537921852830484,-8,3,-1,-2,0,-5,-7,1
1537921852830484,4,-15,13,1,-2,0,-4,-1
1537921852831482,-11,-1,-6,1,-4,-1,-5,-3
1537921852831482,0,-1,3,1,-5,0,-7,1
1537921852852426,2,-1,6,1,-5,0,-8,-2
1537921852852426,-3,6,7,1,-1,-3,-10,-7
1537921852853423,20,-1,-11,-1,-6,1,-4,1
1537921852853423,-15,-2,1,-7,-2,-1,-6,-5
1537921852867385,-2,-6,16,0,-3,0,-1,-6
1537921852867385,-2,-6,-22,-3,-2,1,-2,-2
1537921852867385,12,14,9,1,0,1,1,1
1537921852867385,5,0,-5,-3,-2,-3,-2,-1
1537921852890324,-2,-5,0,-1,1,0,-3,-2
1537921852890324,6,9,1,-2,-2,1,-3,-4
1537921852890324,-14,-8,-8,1,-1,-1,-5,-9
1537921852890324,0,8,2,0,1,-1,-5,-3
1537921852912266,5,7,6,1,1,0,-1,0
1537921852912266,7,-13,3,-3,-3,-1,-3,-8
1537921852913263,-10,-7,-9,-4,-2,-3,-2,-2
1537921852913263,16,7,7,0,0,2,-4,-3
1537921852918250,0,-6,-7,-4,-3,0,-4,0
1537921852918250,-4,0,-12,1,0,0,-3,-2
1537921852926229,-4,-6,6,0,1,-1,-4,-2
1537921852926229,3,-1,-2,5,1,-1,-2,-1
1537921852942186,0,2,-3,0,0,-2,0,-4
1537921852942186,-4,4,6,-2,-1,-1,-1,-4
1537921852942186,-14,-10,-3,-3,-4,-4,-2,-1
1537921852942186,-2,-1,4,0,-3,-1,-1,1
1537921852956148,9,6,0,0,-1,0,1,-2
1537921852956148,-12,-5,1,2,-1,-2,2,-2
1537921852964127,-4,-1,0,0,2,-1,-1,-4
1537921852964127,-11,2,-6,-5,-1,-1,-2,-1
1537921852979087,4,-2,-1,-1,-2,1,2,-3
1537921852979087,6,5,0,0,0,-1,3,3
1537921852994047,1,0,4,0,0,0,1,-4
1537921852994047,9,5,2,-1,0,0,-1,1
1537921853002025,-1,-4,-8,-5,2,-5,1,3
1537921853002025,-4,-3,-4,0,-1,-1,-3,-2
1537921853003023,-2,9,1,0,-1,-3,2,0
1537921853003023,-2,1,-2,-3,0,-2,-1,-3
1537921853015988,-18,-20,-12,-2,-6,-2,-1,-2
1537921853015988,8,12,17,-2,-6,-3,3,3
1537921853023967,-16,-10,-6,-2,-5,1,-1,1
1537921853023967,-1,0,0,-1,0,0,-2,0
1537921853038927,-7,-7,-5,1,2,-1,0,6
1537921853038927,9,0,-5,3,3,0,0,3
1537921853045908,-14,4,4,1,-3,0,0,-2
1537921853045908,13,-5,5,-1,-3,0,4,3
1537921853061865,-1,4,2,0,-2,-73,3,1
1537921853061865,8,0,-4,-2,-1,-79,-2,-4
1537921853062863,3,-5,5,-2,1,-13,-2,2
1537921853062863,-19,-6,-6,1,0,19,3,-6
1537921853075828,24,9,5,-2,1,66,2,0
1537921853075828,-10,-8,1,0,0,52,2,5
1537921853083807,15,2,-5,0,0,22,-1,1
1537921853083807,-7,-9,0,-1,-1,24,-1,-3
1537921853098767,18,14,2,-1,0,15,-2,-4
1537921853098767,-11,-2,-8,0,-2,10,0,-1
1537921853105748,22,15,-3,0,2,6,-1,-3
1537921853105748,-15,0,1,0,-2,-5,-1,-1
1537921853121706,-1,-11,2,0,1,-4,0,0
1537921853121706,-11,3,-1,-2,1,0,2,-8
1537921853122703,-4,-1,-5,1,1,3,-2,-8
1537921853122703,-9,0,6,0,-1,-13,-2,5
1537921853136665,-1,-4,-3,0,0,-5,-2,0
1537921853136665,-14,-4,-5,0,-1,7,-4,-8
1537921853143647,-19,-3,2,-2,0,-6,-2,0
1537921853143647,23,1,-2,-3,3,-11,3,-3
1537921853158607,-19,1,10,3,-1,0,-2,-5
1537921853158607,11,3,2,0,-2,5,-1,2
1537921853166585,0,0,3,-2,-2,-6,1,6
1537921853166585,-4,-1,-13,0,-3,-9,-2,1
1537921853181545,9,4,2,-2,0,1,-1,-4
1537921853181545,12,0,-11,-1,-1,1,-1,3
1537921853182543,4,-3,-1,0,-3,-2,-2,-4
1537921853182543,-2,7,4,-3,-2,1,-3,2
1537921853196505,-9,-1,5,-2,-3,2,-3,7
1537921853196505,5,0,-12,-1,2,1,0,-3
1537921853203487,9,-3,0,-1,0,2,2,0
1537921853203487,6,-1,4,0,0,-1,-1,-1
1537921853218447,-14,0,9,-5,-2,-2,-2,0
1537921853218447,6,1,7,-1,2,-1,-1,-4
1537921853226425,-6,1,-7,1,0,-3,-3,3
1537921853226425,7,6,-6,-1,1,-2,-4,-4
1537921853241385,-10,-10,-2,0,0,-2,0,1
1537921853241385,-16,-3,6,-2,1,1,-1,-7
1537921853242383,6,-4,4,0,2,0,3,1
1537921853242383,-12,2,5,0,0,-1,-1,-3
1537921853256345,6,-3,-10,-2,-2,1,-1,-5
1537921853256345,-1,1,0,-2,-2,1,-1,4
1537921853263327,-5,-4,-10,-1,-2,-2,0,-2
1537921853263327,7,-4,-7,1,0,-1,-2,-1
1537921853278287,16,10,-1,-1,1,1,1,-4
1537921853278287,-19,-13,3,0,0,3,1,-1
1537921853286265,3,8,1,-4,0,0,-1,-1
1537921853286265,18,4,2,1,1,-2,3,0
1537921853301226,-3,8,1,0,-1,0,-1,-4
1537921853301226,1,-10,1,-4,-2,1,-2,2
1537921853309205,-10,3,16,3,1,2,1,1
1537921853309205,0,-6,-14,-2,-1,-2,-1,2
1537921853316186,-2,-1,-13,-4,2,-4,1,0
1537921853316186,3,2,-15,0,1,0,1,3
1537921853324165,1,-5,-5,-2,0,-2,-1,2
1537921853324165,-5,-2,22,-2,-2,-1,1,0
1537921853339125,0,3,-13,-1,-1,-1,0,-4
1537921853339125,-5,0,2,-2,-1,0,-1,2
1537921853346106,-8,-10,-2,1,-3,-2,0,-1
1537921853346106,-5,1,2,1,2,0,0,-1
1537921853361066,-11,-2,-1,-1,-1,-1,0,1
1537921853361066,9,4,0,0,-1,-2,1,0
1537921853369045,0,-4,-6,1,-1,-1,-3,-2
1537921853369045,-8,-6,-4,0,-4,-1,0,-1
1537921853392981,4,-4,5,1,-4,1,-2,-1
1537921853392981,12,13,15,1,-3,0,-2,1
1537921853392981,-9,-6,-15,-3,1,-2,5,0
1537921853392981,-4,-4,-11,-1,1,1,-1,-2
1537921853398965,4,5,0,-1,-2,-2,1,-1
1537921853398965,4,-6,6,2,-2,-1,1,-1
1537921853405946,9,4,0,-4,-3,-3,-2,-3
1537921853405946,-12,-9,-5,-3,-1,-2,1,5
1537921853420906,6,0,0,1,2,-2,3,0
1537921853420906,5,1,0,0,-1,1,-2,-1
1537921853436863,3,-3,3,1,-3,0,2,2
1537921853436863,-2,-4,-2,-3,-3,-1,-1,1
1537921853443844,-5,1,2,-1,-3,0,1,1
1537921853443844,-10,0,-3,-3,-3,0,-1,1
1537921853444842,12,4,-1,0,1,-1,1,-3
1537921853444842,-7,0,3,0,1,-1,0,1
1537921853458805,-2,-3,0,-1,0,-4,-2,0
1537921853458805,-2,-5,-6,-1,1,-1,1,-3
1537921853465786,0,5,4,-3,0,0,0,-1
1537921853465786,15,4,4,3,1,-1,-1,-6
1537921853480746,-11,-6,-7,0,-2,1,-2,0
1537921853480746,0,4,-1,0,-4,-4,1,1
1537921853489722,6,0,2,-4,-2,-2,0,0
1537921853489722,5,3,0,1,-2,-1,3,-4
1537921853504682,27,9,5,-1,3,3,-4,-1
1537921853504682,-15,1,-5,-4,1,0,0,-3
1537921853504682,-14,-2,2,0,0,-2,-4,2
1537921853504682,2,2,-8,-3,-3,-2,-2,1
1537921853518645,3,-5,-5,2,-2,-1,-1,0
1537921853518645,-5,0,2,-1,2,1,-3,-1
1537921853526623,4,5,11,-3,0,1,2,-10
1537921853526623,-3,6,7,-1,0,-1,-2,2
1537921853541583,-5,-1,-17,-3,-2,-3,1,2
1537921853541583,-7,-16,7,2,0,1,-2,-4
1537921853549562,-1,-8,-23,0,0,-1,0,-1
1537921853549562,-11,5,12,1,-2,2,0,0
1537921853564522,11,11,11,2,3,3,-1,1
1537921853564522,8,-11,-12,-2,0,-2,-1,-3
1537921853565520,-14,12,19,-2,-2,1,-1,-5
1537921853565520,6,19,-4,-3,-4,0,-2,0
1537921853578484,2,-24,-8,-2,-1,0,3,3
1537921853578484,-10,16,-1,1,0,-1,-4,-6
1537921853586463,-7,-2,4,1,0,2,-7,-1
1537921853586463,-1,-29,-10,-1,-2,-2,-1,-4
1537921853601423,-31,-13,6,-2,-2,-2,1,-6
1537921853601423,10,-15,-5,-3,-3,-3,1,6
1537921853609402,13,14,1,1,1,0,2,3
1537921853609402,-5,-7,-18,0,0,-2,-2,-3
1537921853624362,7,2,25,-1,-1,-4,-4,0
1537921853624362,0,-2,-8,-2,2,-2,3,-2
1537921853625359,5,11,-34,1,0,2,-3,-2
1537921853625359,-1,-1,58,-3,-2,0,3,-3
1537921853638324,-28,-32,-54,-3,-2,-2,-1,-5
1537921853638324,-2,11,0,0,1,0,0,-2
1537921853646303,7,31,16,-8,-5,-6,6,2
1537921853646303,17,-18,-7,3,3,-2,-7,3
1537921853661263,5,25,21,2,2,0,0,2
1537921853661263,-11,2,11,2,1,0,-1,6
1537921853669242,-16,-45,-43,-4,-3,-3,-1,-6
1537921853669242,-8,57,3,-1,-3,-5,7,3
1537921853684202,-4,-21,12,-6,-1,0,7,5
1537921853684202,16,47,9,4,1,1,-1,0
1537921853685199,7,-1,34,9,2,4,-1,2
1537921853685199,-1,-9,0,0,-3,0,-2,-3
1537921853699161,-13,-65,-65,-8,-7,-6,1,-5
1537921853699161,15,-24,-25,-2,-3,0,-1,0
1537921853706143,-22,-9,9,-7,-2,-3,3,-2
1537921853706143,4,-1,-6,-3,4,0,-2,0
1537921853721103,13,33,14,3,0,1,-4,0
1537921853721103,-40,-4,0,-3,-5,-4,3,0
1537921853729082,5,-5,0,0,0,1,-3,2
1537921853729082,-18,-5,-6,2,0,0,-1,-3
1537921853744042,24,34,28,-4,0,-1,-3,0
1537921853744042,12,-5,-7,3,-1,-1,2,2
1537921853745039,-7,12,15,4,4,2,1,1
1537921853745039,-1,-7,-11,0,0,3,2,-1
1537921853759002,3,8,9,-2,-3,0,0,-1
1537921853759002,0,-4,14,-3,-4,0,0,-1
1537921853765983,6,-9,-9,-3,-3,-1,-1,-2
1537921853765983,3,3,-18,-1,1,0,3,0
1537921853780943,-8,7,-3,2,-2,0,-6,-3
1537921853780943,4,4,6,-5,0,2,-1,-1
1537921853788922,14,4,-1,-2,-1,-4,-2,2
1537921853788922,-1,7,8,-4,-1,-5,-2,-2
1537921853803882,-10,4,9,2,2,-1,0,-2
1537921853803882,8,20,-2,1,-1,-3,-2,-1
1537921853804879,4,-36,-3,-2,0,0,-1,2
1537921853804879,-10,-2,-4,0,-6,-2,-4,-3
1537921853818842,1,2,-10,-3,-2,2,4,4
1537921853818842,10,-3,15,1,1,-1,-1,-2
1537921853825823,-14,0,-33,-14,-5,-3,5,4
1537921853825823,5,26,-9,-6,-2,-1,-2,-5
1537921853840783,3,-42,8,33,11,4,4,2
1537921853840783,19,-24,-16,-3,-8,-4,1,5
1537921853849759,-45,3,14,18,4,-2,0,-3
1537921853849759,0,25,11,-12,0,-1,1,-2
1537921853864719,2,15,-18,-12,-3,-3,-2,-6
1537921853864719,13,-3,11,1,0,0,-1,3
1537921853864719,2,-30,1,-1,5,2,5,4
1537921853864719,23,41,1,3,-4,-2,-8,-4
1537921853878682,-2,-12,5,-6,-2,-1,0,3
1537921853878682,-16,31,-3,-7,-2,-2,-4,-6
1537921853886660,22,-27,-31,-35,-9,0,-2,5
1537921853886660,-11,31,28,52,10,-3,4,1
1537921853901620,36,46,18,4,-4,-2,0,4
1537921853901620,27,-2,28,3,-10,-1,1,-1
1537921853909599,35,-7,-15,13,-1,-2,-10,-1
1537921853909599,-18,-94,-39,-13,3,-3,-1,5
1537921853924560,2,11,-19,17,28,4,5,-2
1537921853924560,-20,-15,8,-2,-2,6,33,16
1537921853925557,49,114,-4,-20,-27,-14,-42,-28
1537921853925557,-10,-19,-4,-26,-18,0,10,19
1537921853938522,-19,33,16,-25,-4,-1,-9,-2
1537921853938522,10,14,40,39,39,5,-8,-7
1537921853946501,-89,-91,-37,18,-12,2,32,-11
1537921853946501,58,98,0,-29,-9,-13,-30,11
1537921853961461,-12,-3,18,10,8,6,18,-12
1537921853961461,37,61,-32,-22,-7,-6,11,7
1537921853969440,118,127,82,-6,-9,15,8,15
1537921853969440,-124,-128,-22,56,16,0,-1,-17
1537921853984400,48,-46,-28,-92,-30,-16,-45,9
1537921853984400,88,77,-15,41,-92,-5,-16,-4
1537921853985397,-93,45,12,9,105,13,6,-10
1537921853985397,-37,-13,60,104,61,9,38,7
1537921853998362,44,71,-12,52,-15,-19,42,30
1537921853998362,37,5,1,-114,-91,-13,-1,32
1537921854006341,56,-127,-29,-112,-18,-23,30,45
1537921854006341,-70,104,19,-9,18,15,-67,-54
1537921854021301,-67,18,10,120,85,35,-37,-56
1537921854021301,-77,-26,-73,-54,-7,6,-40,-48
1537921854029279,-39,-49,55,-69,-82,-1,-21,-31
1537921854029279,43,-90,2,-55,82,14,38,15
1537921854044240,41,60,-11,-9,-75,2,13,28
1537921854044240,-17,44,13,67,127,6,24,-8
1537921854045237,38,72,3,127,4,-7,3,21
1537921854045237,50,42,-10,-79,-70,-25,17,40
1537921854059199,-16,-2,31,-67,-60,-14,-8,10
1537921854059199,-63,-35,-69,-36,10,-2,9,-10
1537921854066181,3,-6,-5,-5,24,6,2,11
1537921854066181,63,12,-19,20,-29,-3,-1,2
1537921854081141,21,22,10,-45,5,-5,8,8
1537921854081141,-54,-28,2,-14,-16,6,-10,-7
1537921854089120,-27,35,12,9,9,2,-2,-3
1537921854089120,-12,26,-26,10,-2,5,-3,-12
1537921854104080,-15,-8,12,61,39,3,-10,-7
1537921854104080,14,84,31,3,12,-2,-6,5
1537921854105077,-26,-25,-23,11,-15,0,0,1
1537921854105077,4,-93,-17,-41,-31,-1,1,2
1537921854119040,-18,-83,-17,-39,1,-7,21,-4
1537921854119040,-3,16,24,28,8,-4,-11,0
1537921854126021,-5,100,-2,-3,-6,-7,-7,-12
1537921854126021,41,74,-1,-14,-6,-4,-2,1
1537921854140981,-43,-114,-43,-14,5,-5,10,-12
1537921854140981,-12,-27,7,19,6,-2,1,9
1537921854148960,-2,26,-29,-10,-2,-4,-5,-11
1537921854148960,-8,18,17,-3,-2,-5,-3,-5
1537921854163919,19,96,23,15,-1,-3,-6,2
1537921854163919,2,-16,22,3,2,3,1,2
1537921854164917,-25,-68,-8,-7,7,3,-4,-6
1537921854164917,13,35,-51,4,-6,3,-4,-2
1537921854178880,-35,-3,23,-12,-3,-2,9,-3
1537921854178880,3,56,-7,2,7,0,2,-2
1537921854186858,-11,24,12,6,2,-2,-6,-5
1537921854186858,4,104,3,11,-3,2,2,-2
1537921854200821,-49,-53,-11,-13,-5,-2,0,-3
1537921854200821,-8,-99,-5,0,2,-3,0,1
1537921854209797,18,-128,1,8,-2,-2,0,2
1537921854209797,9,-104,9,-4,-5,-3,3,4
1537921854223760,0,96,0,-5,5,3,-3,4
1537921854223760,-3,-23,-6,5,2,-4,2,3
1537921854231738,-1,-27,1,4,3,0,-2,0
1537921854231738,0,-21,32,3,-1,0,2,-4
1537921854238719,12,-12,-53,-2,3,1,-4,1
1537921854238719,-3,-128,8,1,-3,-4,4,0
1537921854246698,6,-57,-18,-5,-1,-1,-2,3
1537921854246698,-4,-128,6,-4,-3,-3,1,0
1537921854260661,3,-128,-26,2,3,3,-6,-4
1537921854260661,-4,-55,16,-5,-3,2,-10,-8
1537921854269637,4,98,25,2,0,3,-8,-6
1537921854269637,5,109,-35,-4,-3,1,10,6
1537921854283599,4,127,24,3,-1,-1,2,4
1537921854283599,19,46,-21,-8,-3,-2,9,8
1537921854291578,-13,-2,-2,4,3,0,-1,0
1537921854291578,5,0,19,1,0,1,-4,0
1537921854298559,9,-5,-23,-4,0,0,1,-1
1537921854298559,3,57,32,3,-2,-3,-2,-2
1537921854306538,12,84,18,9,3,5,-6,-4
1537921854306538,-11,26,-15,-5,-4,-3,-2,-7
1537921854321498,19,-6,9,-1,-1,-2,-2,4
1537921854321498,-14,68,5,6,2,1,0,-10
1537921854329477,5,40,12,-1,-2,2,4,2
1537921854329477,-16,-18,-53,-9,-5,-5,-1,-4
1537921854343440,-15,33,33,4,-3,-3,0,-2
1537921854343440,7,25,-1,6,0,0,1,7
1537921854352416,7,31,12,-2,-2,-3,0,4
1537921854352416,-10,7,-8,2,1,4,-1,-3
1537921854367377,4,-11,3,-2,-2,33,-4,-3
1537921854367377,1,-7,-14,-1,-3,68,-2,1
1537921854368373,-3,-97,-15,-2,-3,43,-1,0
1537921854368373,-10,67,25,1,0,26,-5,-4
1537921854381339,1,53,15,-4,-3,-7,3,-3
1537921854381339,4,99,9,1,0,-27,-5,-4
1537921854390315,-14,45,-4,2,-1,-19,2,-2
1537921854390315,0,-22,1,-4,-3,-25,3,-2
1537921854403280,7,27,-3,-6,-1,-24,-9,-5
1537921854403280,-12,-25,-30,5,3,-25,7,-7
1537921854412256,12,6,-9,0,1,-21,-2,-1
1537921854412256,13,-1,5,4,-1,-15,0,2
1537921854426218,-16,1,8,1,4,-8,-3,-8
1537921854426218,0,14,23,-3,-4,-9,-8,-1
1537921854435195,-5,-28,-83,-12,-5,-13,5,1
1537921854435195,1,-6,36,-1,-4,-2,5,6
1537921854441178,4,42,16,3,7,2,3,-1
1537921854441178,-13,-9,6,4,2,-4,7,-8
1537921854450154,8,12,14,-2,-3,11,-1,6
1537921854450154,11,-3,-19,-15,-13,31,-11,5
1537921854464117,21,-85,-28,-5,-13,55,4,-4
1537921854464117,-32,-36,-4,5,15,15,-1,1
1537921854473093,5,25,0,14,13,0,2,-1
1537921854473093,-10,18,16,7,5,-10,1,-2
1537921854486058,13,7,34,1,0,-16,-12,-4
1537921854486058,13,-8,-41,-13,-5,-15,3,9
1537921854495034,14,47,6,-15,-28,-17,-3,3
1537921854495034,6,9,12,-11,-7,-15,8,-3
1537921854501019,-2,-6,-5,17,28,-12,-8,-5
1537921854501019,17,-22,-1,15,-2,-14,13,9
1537921854509994,-4,18,13,2,-15,-14,-6,-13
1537921854509994,37,-50,3,-20,15,-9,4,3
1537921854523957,-89,-70,-23,-64,-62,-17,3,12
1537921854523957,-58,-31,3,31,67,1,-25,-18
1537921854532933,18,-14,-2,85,42,3,10,9
1537921854532933,-17,1,13,-9,-8,-6,6,-7
1537921854546896,119,94,19,-25,-38,-1,-11,13
1537921854546896,-28,46,-4,-78,-22,-10,4,-9
1537921854553877,-31,10,9,71,34,20,22,-4
1537921854553877,-14,6,-6,68,-6,-6,-24,3
1537921854560858,26,27,-4,5,-20,-12,21,17
1537921854560858,27,0,-21,-80,-128,-10,-23,7
1537921854569835,-51,0,32,-128,53,15,27,0
1537921854569835,27,9,20,80,111,20,-16,-2
1537921854583798,-15,24,1,127,23,4,-37,-17
1537921854583798,30,46,15,57,1,0,40,1
1537921854592773,32,1,-21,-109,-128,-20,-16,-5
1537921854592773,-55,-69,-29,-73,8,-4,2,-9
1537921854607734,-30,-50,-1,32,35,-1,9,4
1537921854607734,-23,-57,-3,-34,-4,-1,-8,-9
1537921854608730,38,65,-8,89,-14,-9,-4,-10
1537921854608730,13,33,-7,-98,-76,8,4,-3
1537921854620699,-54,-16,-56,-128,44,-5,-12,-10
1537921854620699,-18,-37,37,111,-15,1,4,-4
1537921854629674,35,19,29,1,95,12,13,14
1537921854629674,-41,-39,22,26,-23,-10,-13,5
1537921854643637,12,-18,-21,-38,-36,-5,9,1
1537921854643637,40,100,-14,-92,32,0,-8,2
1537921854652613,-48,33,22,89,84,2,-20,-12
1537921854652613,25,28,-22,25,127,8,31,18
1537921854667573,17,-22,7,-47,27,-10,-1,-4
1537921854667573,10,-17,10,37,-98,-3,3,19
1537921854668570,-5,-56,-2,-28,-128,0,-9,0
1537921854668570,-3,-23,-10,-11,-88,-4,-7,-18
1537921854681536,-2,37,1,3,-23,2,5,-4
1537921854681536,13,33,-1,-12,48,4,-9,-9
1537921854690512,-15,-27,-1,0,12,1,-1,9
1537921854690512,-1,-39,-7,2,-10,-1,-1,-3
1537921854703477,-5,-20,-2,-2,-7,1,1,3
1537921854703477,11,-50,19,22,9,3,-4,7
1537921854712453,-4,-82,-16,-2,-16,-3,-1,-5
1537921854712453,-5,2,-9,-8,-33,0,-6,-3
1537921854727413,2,14,25,31,5,5,3,-2
1537921854727413,4,-32,-6,-8,18,2,1,-1
1537921854729408,1,-7,-21,-17,-15,-2,-5,-4
1537921854729408,7,14,2,-3,-12,-4,-7,-2
1537921854741376,4,-4,-27,19,0,1,2,4
1537921854741376,-14,-34,4,-5,6,-2,-4,-5
1537921854750352,-11,-3,12,-16,-1,-5,-1,-1
1537921854750352,11,3,-16,5,-4,0,2,2
1537921854763317,-6,-16,5,4,1,2,-2,-5
1537921854763317,-4,-109,-13,-4,7,0,-4,-1
1537921854772294,19,15,-3,-6,5,-5,-5,-3
1537921854772294,-10,-36,1,1,-3,0,6,2
1537921854787254,-8,31,10,-2,0,1,0,-3
1537921854787254,1,43,-37,-15,-3,0,2,-1
1537921854789248,21,82,1,6,-9,0,-5,1
1537921854789248,-7,117,19,6,-6,0,-2,-1
1537921854801216,6,9,-8,3,-1,-2,4,4
1537921854801216,4,29,14,4,12,0,0,2
1537921854810192,3,19,18,1,3,1,1,1
1537921854810192,-1,62,-7,-5,-6,-2,-3,-3
1537921854824155,31,-47,5,10,2,0,-2,1
1537921854824155,-47,27,-12,-7,5,-2,1,-5
1537921854832134,-14,-33,-7,-15,-21,-3,-1,0
1537921854832134,5,-14,-1,3,-9,-3,0,-2
1537921854847093,-5,0,13,0,-2,1,1,-3
1537921854847093,15,2,-20,6,14,-1,1,2
1537921854849088,-12,-31,-11,-8,9,0,-1,1
1537921854849088,1,5,5,5,4,-1,3,4
1537921854861056,-9,19,16,-5,-1,-2,2,-1
1537921854861056,5,9,14,3,13,0,-4,-2
1537921854870032,-8,-17,-23,-1,12,0,0,1
1537921854870032,7,-25,4,-6,-3,-2,0,1
1537921854883995,-2,23,-21,-3,-3,0,0,-4
1537921854883995,7,28,26,11,-1,2,2,1
1537921854892971,0,-35,28,-11,-3,-3,3,2
1537921854892971,-2,-5,-37,6,6,0,0,-1
1537921854907931,-9,-8,24,9,-2,-1,1,-4
1537921854907931,3,22,2,4,4,1,-3,0
1537921854908928,7,-3,-30,-6,0,-4,0,0
1537921854908928,-7,40,19,-11,-4,-1,-6,-3
1537921854920896,-4,-13,-14,0,2,-3,2,-1
1537921854920896,10,21,-1,-3,-3,0,-4,-1
1537921854935856,-5,-69,4,-3,-1,0,0,-1
1537921854935856,-2,-23,18,-4,1,1,-1,-3
1537921854943835,-4,-19,-2,2,-1,-2,0,1
1537921854943835,6,27,8,-1,0,-1,1,1
1537921854952811,-2,51,-4,-4,-4,2,-4,-3
1537921854952811,-7,-47,-21,11,-2,0,1,1
1537921854967772,1,9,3,-22,2,1,0,1
1537921854967772,2,-22,23,47,7,2,8,4
1537921854968769,-3,-3,8,-16,-5,-2,-6,-1
1537921854968769,-2,-10,-16,-4,-4,-4,-5,-5
1537921854980736,0,14,-1,18,5,1,4,4
1537921854980736,1,-13,-30,-24,-6,-1,-1,4
1537921854989712,-5,-6,4,3,4,-2,-4,-2
1537921854989712,3,26,4,-3,0,2,0,3
1537921855003674,-3,22,1,-2,-4,0,-5,-3
1537921855003674,0,-25,-18,-7,-3,0,1,-3
1537921855012651,-7,19,17,3,-6,0,-6,-5
1537921855012651,-2,-2,-15,-9,-3,0,1,0
1537921855027610,-2,-6,18,6,1,-1,0,-1
1537921855027610,3,0,-6,-3,-3,1,-2,1
1537921855028608,-2,0,-4,-5,-2,-2,-1,1
1537921855028608,0,-19,8,3,3,-1,2,-2
1537921855049552,0,-14,3,7,1,0,0,-3
1537921855049552,0,-17,6,-10,-3,-2,0,-2
1537921855051547,-4,-16,-12,4,0,0,1,-2
1537921855051547,3,4,6,2,5,1,-1,-1
1537921855063515,-2,4,9,6,2,-2,0,2
1537921855063515,-1,-33,-12,-9,0,-2,0,3
1537921855072491,-5,-3,-14,1,-3,0,-8,-4
1537921855072491,-3,5,16,0,-11,2,-3,-5
1537921855087451,-1,-11,-12,-2,-10,0,1,0
1537921855087451,-1,3,-6,-6,-2,2,-1,1
1537921855089445,1,4,-3,0,7,-3,1,0
1537921855089445,3,15,16,3,9,-3,2,4
1537921855101413,1,-17,-5,-4,8,-1,0,1
1537921855101413,0,7,-17,-2,11,-2,0,0
1537921855110389,1,1,-1,0,20,1,1,3
1537921855110389,2,4,-3,-4,16,-1,0,0
1537921855123355,-2,-8,-4,-2,3,-2,0,-5
1537921855123355,-1,10,-2,1,-21,-2,-5,-2
1537921855132331,0,17,15,0,-44,-3,2,-2
1537921855132331,0,-4,4,7,-5,-2,3,1
1537921855147291,0,10,0,1,9,2,0,0
1537921855147291,-1,10,6,-6,21,-1,-2,-2
1537921855149285,-1,4,-26,1,17,1,1,2
1537921855149285,1,13,12,-2,-6,-4,2,0
1537921855170230,-5,-10,-24,-3,-3,-1,-1,-2
1537921855170230,-1,7,8,0,-7,1,-1,-3
1537921855171227,0,-7,-3,-2,-9,-4,0,-2
1537921855171227,-5,0,3,0,-10,0,-2,1
1537921855184192,0,-1,-7,-3,-12,-2,-1,2
1537921855184192,-5,-11,-1,-1,-8,-1,-3,-4
1537921855192171,0,2,0,1,-1,3,2,-1
1537921855192171,3,6,-7,-2,0,-1,0,0
1537921855207131,-1,17,9,0,-4,-3,-3,0
1537921855207131,-5,-9,-4,-1,-2,0,-2,-3
1537921855214112,-3,1,3,1,4,0,-1,-1
1537921855214112,0,-16,-5,-5,1,1,1,-7
1537921855221094,-2,-13,-2,-2,-1,1,1,-2
1537921855221094,4,10,9,0,0,-2,2,0
1537921855230070,1,1,-4,1,1,-4,-4,1
1537921855230070,-2,0,1,0,-1,-1,-1,-1
1537921855244032,1,-30,-1,0,-3,-2,0,0
1537921855244032,1,9,2,2,2,0,1,2
1537921855253009,2,14,12,2,0,2,1,-1
1537921855253009,-1,-15,-9,2,-2,1,-2,-3
1537921855266971,-3,-42,-6,-6,-1,-1,0,4
1537921855266971,4,0,14,0,-2,0,0,7
1537921855273952,-3,30,15,1,2,1,6,3
1537921855273952,11,35,-8,3,1,3,-2,2
1537921855289910,-11,57,-10,-3,-3,-8,-14,-27
1537921855289910,9,23,10,1,4,-1,17,30
1537921855291904,4,6,0,0,-1,-4,1,7
1537921855291904,3,24,28,3,0,-5,-7,-15
1537921855303872,11,79,3,1,-7,0,-14,-10
1537921855303872,-29,-116,-83,-24,-6,-2,5,-39
1537921855312848,-12,86,17,12,9,26,17,-74
1537921855312848,-8,-54,-16,-19,-3,-19,28,41
1537921855334790,8,-73,-5,-10,-23,0,-14,48
1537921855334790,-7,86,4,-20,-1,-13,-10,-23
1537921855336784,11,-16,57,-17,-3,22,-25,37
1537921855336784,44,68,-48,84,-5,8,34,8
1537921855349750,-9,51,-30,-57,-9,-45,11,26
1537921855349750,-26,-54,51,-78,-21,22,19,-41
1537921855351744,-42,36,-82,81,43,-40,-83,-53
1537921855351744,-4,97,43,0,40,16,-1,-37
1537921855363712,5,56,-3,53,-12,71,23,74
1537921855363712,42,127,40,41,43,37,3,52
1537921855372689,12,28,16,-75,-8,7,16,127
1537921855372689,39,-13,1,25,12,-47,-69,-26
1537921855386651,-41,-107,-14,-49,-18,-15,-3,-60
1537921855386651,27,17,-17,-37,-31,8,49,84
1537921855393632,25,-126,2,30,-50,-64,-1,11
1537921855393632,-16,75,-17,-78,2,60,-2,-18
1537921855409590,59,70,-31,-11,23,56,97,45
1537921855409590,-54,-92,30,92,22,-24,-37,36
1537921855411585,71,-114,-20,-11,-7,-7,11,44
1537921855411585,-115,-128,-7,-60,-47,-33,53,15
1537921855423553,-4,-127,-37,34,19,32,-25,-128
1537921855423553,58,-126,0,40,36,-37,26,28
1537921855432528,-32,-128,-3,-39,-63,-33,-40,-59
1537921855432528,-4,-76,41,24,57,38,10,7
1537921855446491,-1,27,80,7,-32,-15,19,31
1537921855446491,-31,71,-57,2,40,1,-7,-65
1537921855453472,-19,96,17,26,15,16,-37,-32
1537921855453472,5,116,5,-42,-29,-14,-25,14
1537921855470427,-23,122,-8,-18,-8,-14,-24,20
1537921855470427,8,37,-14,12,-24,-29,-9,-20
1537921855471424,-10,67,3,-20,32,31,64,-12
1537921855471424,-7,31,-8,15,-6,10,-57,-14
1537921855483393,-7,41,12,27,2,-36,-8,-24
1537921855483393,-21,60,-3,-45,-25,3,-26,-22
1537921855492368,-9,54,-53,-18,12,20,21,-1
1537921855492368,4,23,-19,30,16,-10,9,8
1537921855507329,5,5,23,27,24,-19,-14,23
1537921855507329,13,36,26,-11,-17,10,-1,-4
1537921855513312,-12,19,18,2,-11,-18,8,-1
1537921855513312,8,-7,-10,-16,-27,-4,-1,-4
1537921855530267,7,-4,13,-10,11,-2,-12,-8
1537921855530267,7,3,11,7,-6,34,-8,-3
1537921855531265,25,12,3,5,7,-7,14,-7
1537921855531265,21,0,5,-4,-15,-13,6,4
1537921855543232,5,-3,20,0,-3,-8,-8,4
1537921855543232,-6,6,-3,7,9,-5,-6,-6
1537921855552209,-17,3,-7,-7,0,3,8,18
1537921855552209,-13,2,-2,2,-3,-4,3,-15
1537921855567168,-20,-6,-1,3,3,4,-10,-7
1537921855567168,-16,-1,-7,-4,-9,-12,-12,-9
1537921855574150,-6,2,1,0,0,13,5,-7
1537921855574150,10,16,8,4,-9,-3,-2,4
1537921855590107,0,47,-5,-1,2,-5,-3,-8
1537921855590107,-9,57,-6,-7,-13,0,-2,-9
1537921855591104,21,51,1,2,0,2,3,0
1537921855591104,4,9,-6,2,-4,1,3,4
1537921855604070,4,-3,-4,-6,2,-5,-7,5
1537921855604070,11,-2,-1,0,9,-3,-5,-1
1537921855613046,39,-106,-4,2,20,5,-2,-1
1537921855613046,16,7,-1,0,14,-2,4,3
1537921855627008,-4,35,-4,-1,5,1,-1,-3
1537921855627008,-21,23,0,1,-10,-5,-2,0
1537921855633990,-30,34,0,-3,-5,0,4,-5
1537921855633990,-37,-20,-1,-6,-6,2,4,1
1537921855649947,-26,-13,5,-1,-3,-6,-4,-2
1537921855649947,-16,23,2,5,-7,1,-1,-2
1537921855651942,-13,40,1,3,-6,2,2,2
1537921855651942,19,24,-1,4,-6,-1,0,7
1537921855663910,6,25,1,5,-2,-3,0,1
1537921855663910,9,-8,-3,1,0,-5,0,0
1537921855672886,2,16,-1,2,1,2,2,1
1537921855672886,4,8,-6,2,1,-2,1,3
1537921855686849,18,-6,0,0,3,-2,-1,-3
1537921855686849,46,13,-5,-1,-4,1,-3,-2
1537921855693830,8,15,-5,2,2,3,1,-1
1537921855693830,4,20,1,0,0,-4,0,2
1537921855709787,-7,-19,-6,-2,2,-3,-2,1
1537921855709787,-14,-12,-6,-5,-1,-1,0,4
1537921855711782,-14,14,-4,-1,1,0,1,-1
1537921855711782,-10,-8,-4,0,-3,-2,-1,3
1537921855723750,1,0,-5,0,-5,0,2,0
1537921855723750,-3,3,-2,1,-8,-2,-1,-1
1537921855732726,-3,39,-1,3,-2,-1,0,-1
1537921855732726,0,38,0,0,-7,-1,1,-1
1537921855746688,5,24,5,0,2,0,-2,-1
1537921855746688,-3,16,2,0,2,1,0,8
1537921855753670,-10,-49,-18,-5,2,-1,-1,-7
1537921855753670,0,-42,6,-20,-15,0,6,0
