timestamp,emg1,emg2,emg3,emg4,emg5,emg6,emg7,emg8
1537921677516607,-34,6,-3,-2,-2,-6,-18,-51
1537921677516607,11,-2,-4,-2,0,6,8,-1
1537921677517604,55,19,-2,-1,-3,-7,3,15
1537921677517604,-16,-13,-1,-1,0,-3,-1,1
1537921677517604,-8,-4,2,-1,0,3,-1,15
1537921677517604,-70,-26,2,1,0,2,-1,13
1537921677520596,33,4,2,1,2,1,4,6
1537921677520596,-4,9,-4,-4,-2,-5,-6,-38
1537921677528574,18,-9,-2,0,0,2,12,17
1537921677528574,59,22,2,-1,-1,-6,-3,14
1537921677537551,-82,-29,0,1,1,4,1,25
1537921677537551,4,7,0,2,0,-1,-12,-9
1537921677543534,-5,-3,-4,-3,2,-1,-2,-6
1537921677543534,29,7,0,0,-1,-4,-12,3
1537921677558494,-9,-1,-2,-2,-2,1,8,-30
1537921677558494,4,-1,0,-2,0,5,3,0
1537921677568468,32,5,-2,0,0,-1,12,-11
1537921677568468,-58,-32,5,3,3,1,-5,51
1537921677573455,49,8,-6,-3,-2,-5,-12,-58
1537921677573455,1,-3,3,1,-1,0,5,-16
1537921677588414,-36,-10,-4,-3,0,-2,-9,1
1537921677588414,-6,-10,-7,-4,0,4,14,-11
1537921677596393,-27,-12,3,0,2,0,9,-4
1537921677596393,3,5,3,2,2,1,-8,23
1537921677636286,10,1,-2,-1,0,2,5,5
1537921677636286,6,-2,-1,1,-1,2,7,-11
1537921677637284,18,6,-1,-1,-1,-6,3,-2
1537921677637284,-57,3,-2,0,0,1,0,-11
1537921677637284,18,-4,-1,-3,-4,1,2,4
1537921677637284,18,21,1,2,-2,-4,-1,10
1537921677640276,-4,-14,-2,-4,-2,0,-1,1
1537921677640276,7,-9,-2,2,2,2,11,-20
1537921677648254,-60,-24,-7,-2,1,0,-7,-13
1537921677648254,31,3,5,2,-2,-4,-7,2
1537921677655235,-1,-9,-3,1,-1,4,7,19
1537921677655235,12,4,2,0,-1,-1,7,-1
1537921677663214,2,-6,1,0,0,-3,-6,6
1537921677663214,-7,-5,-4,-4,0,0,-3,-36
1537921677678174,-20,-2,-5,2,-3,-3,-5,4
1537921677678174,21,-13,6,0,-1,-3,-2,4
1537921677686153,-8,-3,4,5,-1,1,-1,-4
1537921677686153,-6,3,-6,-3,-1,0,-1,11
1537921677693134,14,-9,-6,-3,0,-2,-5,7
1537921677693134,31,33,3,-1,-1,0,0,-1
1537921677709092,-26,-16,-1,-3,-2,-3,-6,-5
1537921677709092,-37,-13,-2,0,0,2,4,6
1537921677715076,61,-13,-1,-2,-1,1,1,-18
1537921677715076,-20,47,-2,-2,-3,-3,-8,15
1537921677723055,40,-16,5,3,1,-3,-4,17
1537921677723055,-23,-6,-1,0,1,1,9,-6
1537921677738014,-20,7,-2,0,1,-1,-11,-19
1537921677738014,12,-11,-8,-3,-4,0,-8,16
1537921677745993,3,31,2,-1,-1,1,13,-5
1537921677745993,-14,-30,0,0,-1,-1,-10,17
1537921677752974,-30,4,3,0,1,-3,-8,-38
1537921677752974,18,-32,-5,-3,-2,0,2,-5
1537921677776910,-26,15,-3,-3,0,2,19,-2
1537921677776910,-10,5,-3,-1,-2,0,2,-4
1537921677777907,-10,6,2,1,0,1,11,8
1537921677777907,-8,-3,1,0,1,3,-6,14
1537921677782894,30,11,-1,-2,0,-2,1,1
1537921677782894,8,9,1,2,0,11,-3,-18
1537921677797854,-11,8,2,1,-2,-7,-1,3
1537921677797854,6,6,1,1,1,-6,1,-6
1537921677805833,2,-6,-4,-7,0,-1,-4,11
1537921677805833,-17,-10,-4,0,1,-5,4,-19
1537921677812814,3,3,0,1,1,-1,-3,43
1537921677812814,-4,-11,-1,-1,-1,-2,1,-4
1537921677828771,2,8,1,-1,0,0,-14,-20
1537921677828771,13,7,-1,-3,0,-4,6,18
1537921677835753,20,5,0,0,-3,-1,9,-11
1537921677835753,-22,-7,0,1,1,2,1,4
1537921677842734,-1,-2,1,3,0,2,-2,2
1537921677842734,2,6,-1,-3,-4,-7,-20,-12
1537921677857694,-5,3,0,-1,-1,0,14,-4
1537921677857694,5,6,2,2,-1,1,-2,-29
1537921677865673,-15,-10,-4,1,2,-3,-11,53
1537921677865673,-15,-21,1,-1,4,12,9,34
1537921677880633,5,18,2,-3,-3,2,-12,-61
1537921677880633,-12,-18,0,0,5,9,19,-14
1537921677888612,46,16,-3,-4,-13,-16,-27,-24
1537921677888612,-70,2,2,0,1,-15,0,2
1537921677895593,44,7,-3,-3,-1,0,-2,-12
1537921677895593,6,12,3,2,0,0,-19,94
1537921677902574,49,15,4,3,2,8,28,-55
1537921677902574,-41,-19,-4,-1,-2,1,-18,14
1537921677917534,24,-6,-2,-5,-5,-8,-4,31
1537921677917534,-49,-5,-6,-1,-1,-5,4,-15
1537921677926510,-4,-1,0,-1,-5,-18,-14,6
1537921677926510,30,16,-2,-4,-1,14,2,3
1537921677940474,-31,-12,0,-2,8,7,11,15
1537921677940474,37,1,2,2,2,8,-6,3
1537921677948451,-31,-6,1,2,-14,-23,5,-3
1537921677948451,45,15,0,4,15,-14,10,-23
1537921677955433,-29,-14,-3,-1,0,11,-4,-6
1537921677955433,-13,-4,-2,-2,-4,-4,0,-24
1537921677962414,-6,0,-1,2,3,23,4,7
1537921677962414,-4,-7,0,-1,-4,1,-12,-7
1537921677978371,20,7,1,3,-3,-8,-5,13
1537921677978371,-10,-4,-2,-3,-3,-5,-3,-6
1537921677986350,-18,13,-1,0,3,7,3,4
1537921677986350,32,-3,2,-1,-8,-3,-1,17
1537921678000313,-28,5,-4,-1,-2,5,-4,-1
1537921678000313,40,9,-8,-4,-8,-28,-2,-13
1537921678008291,-22,-6,3,-2,7,3,11,44
1537921678008291,0,-1,6,0,-3,-3,-4,-53
1537921678015273,13,-25,-3,-1,-2,-4,-6,10
1537921678015273,-45,12,-1,-2,0,6,-1,-23
1537921678023252,5,-13,-5,-4,-3,-5,-22,-9
1537921678023252,-13,6,-1,-1,1,7,5,-18
1537921678038211,13,8,4,3,-1,5,0,-17
1537921678038211,-43,-34,-5,-2,1,-13,-24,7
1537921678046190,18,4,2,-5,-5,-6,1,-27
1537921678046190,24,8,0,4,-1,-10,-3,14
1537921678060153,-24,3,0,-6,-1,7,3,-18
1537921678060153,21,-10,0,-4,1,16,20,22
1537921678068132,-12,15,1,7,0,-9,-5,15
1537921678068132,7,-8,-4,-7,-2,20,15,8
1537921678108025,33,17,2,2,-5,-4,-10,-9
1537921678108025,-11,-11,0,2,9,-8,-15,6
1537921678110019,-49,-6,-7,2,1,13,2,33
1537921678110019,69,15,0,0,-3,33,30,29
1537921678110019,-16,15,-4,-4,-2,-17,-23,-34
1537921678110019,-10,3,8,2,-3,7,-7,-30
1537921678114009,20,-1,-2,3,4,4,-1,27
1537921678114009,-26,2,-12,-3,-3,9,-1,29
1537921678128969,37,-10,1,0,-2,-11,13,25
1537921678128969,3,11,-1,2,-8,4,-8,-42
1537921678130963,19,-32,-6,-11,0,2,9,21
1537921678130963,-28,9,3,6,-1,-16,3,1
1537921678134954,2,-4,3,0,4,35,-10,5
1537921678134954,-14,-4,-5,-6,2,-17,3,3
1537921678151908,16,15,-1,1,-2,-6,3,-19
1537921678151908,18,1,-1,-5,-2,-8,-8,-8
1537921678180830,21,0,0,-3,-1,11,23,-2
1537921678180830,-21,-10,-2,2,-3,11,-1,8
1537921678189806,75,35,0,0,-1,-9,-1,-9
1537921678189806,-113,-37,-1,-2,1,-7,-21,4
1537921678196788,-1,15,-5,2,3,-6,-29,-46
1537921678196788,46,-10,2,-3,-3,23,-8,32
1537921678197785,17,-1,2,1,-1,-17,1,4
1537921678197785,14,6,4,2,-2,0,1,50
1537921678211748,-30,2,-2,0,1,-8,7,30
1537921678211748,-11,5,-5,-5,-3,-9,-2,32
1537921678212745,-11,-13,1,5,8,13,10,-16
1537921678212745,56,12,-1,-1,2,18,5,2
1537921678226708,-25,-1,-1,-2,-3,-17,7,8
1537921678226708,29,12,-1,-3,4,-6,15,-1
1537921678227705,-10,7,-3,-2,1,8,4,-15
1537921678227705,57,-2,-4,-3,-1,-7,-3,-24
1537921678249647,-52,8,-3,-7,-16,4,-9,10
1537921678249647,89,36,8,10,27,-1,-2,-6
1537921678250644,-55,-27,-5,-5,-4,16,-5,0
1537921678250644,8,-4,1,1,3,-13,4,15
1537921678271588,43,14,5,7,8,8,-14,4
1537921678271588,-30,-17,0,-5,-7,6,-9,-73
1537921678273582,25,28,-5,-1,2,-2,-13,17
1537921678273582,6,-16,-3,-1,4,2,5,54
1537921678286548,-31,9,-1,-2,5,-1,6,71
1537921678286548,47,18,11,1,-2,22,14,-33
1537921678288542,34,16,1,0,4,-25,-34,-45
1537921678288542,-60,-4,4,3,4,1,-15,-4
1537921678309486,9,-14,-1,2,13,25,16,45
1537921678309486,-12,-2,-4,3,-4,-18,-15,12
1537921678310484,-7,-6,-2,-3,2,16,-8,6
1537921678310484,28,17,0,0,-3,-39,4,-31
1537921678331428,9,-3,6,-1,-1,9,3,6
1537921678331428,-12,2,-4,-13,-4,0,-9,28
1537921678333422,-12,5,1,5,-2,-2,10,-24
1537921678333422,11,10,0,-10,-11,-5,-18,10
1537921678346388,92,24,6,8,18,-3,7,-3
1537921678346388,-105,-43,-10,0,-3,-8,8,7
1537921678352372,26,11,3,-4,-3,11,22,-29
1537921678352372,14,18,10,4,1,7,0,0
1537921678369326,-5,-10,-6,-5,-11,-20,0,-38
1537921678369326,6,13,6,4,-2,2,-6,34
1537921678370324,26,-20,1,3,6,8,2,25
1537921678370324,-36,-1,-8,-3,-4,0,15,-108
1537921678391268,-26,6,4,-2,-3,-11,-8,14
1537921678391268,33,-12,-2,2,1,0,1,-8
1537921678393262,-15,2,2,-1,0,4,6,23
1537921678393262,-15,9,0,-4,2,26,-7,-12
1537921678406228,-35,-16,-1,-2,-14,-51,-8,4
1537921678406228,20,0,-7,-5,-5,-15,1,1
1537921678413209,-5,5,2,-7,-2,7,9,12
1537921678413209,8,-22,0,9,2,8,-2,1
1537921678429167,-38,-10,-8,-6,2,37,5,-19
1537921678429167,46,36,5,4,-2,-7,1,-7
1537921678431161,-44,-33,-3,0,-1,-23,-16,3
1537921678431161,3,8,-4,-2,-8,-23,4,6
1537921678452105,-32,-4,3,0,5,4,12,-28
1537921678452105,-15,-6,1,0,1,-6,-34,-3
1537921678453103,-10,-6,-1,-4,-4,-2,-11,-42
1537921678453103,-16,-19,-7,-5,1,-6,8,-16
1537921678466068,70,30,3,4,-10,-9,-1,6
1537921678466068,-13,-6,1,0,-1,13,27,24
1537921678473049,-42,-9,-4,-1,2,-13,-21,-40
1537921678473049,1,9,2,0,-1,1,-3,-9
1537921678490004,57,-6,-3,4,-2,-4,8,26
1537921678490004,-95,-3,-3,-5,-5,-35,3,-10
1537921678491001,0,-26,-4,4,2,11,-5,18
1537921678491001,14,7,3,1,-2,-21,-17,33
1537921678511945,1,-4,0,-3,0,-14,-6,1
1537921678511945,16,6,1,0,-5,8,1,-5
1537921678512943,14,9,2,-2,6,3,18,-8
1537921678512943,7,-2,-1,-2,-1,9,-9,25
1537921678525908,-60,-23,0,1,2,3,-5,-15
1537921678525908,33,11,-2,2,-1,9,17,13
1537921678532890,13,19,-4,-9,-5,-17,-29,32
1537921678532890,28,-14,-3,1,4,5,-5,-53
1537921678548847,-33,-18,0,-2,-2,-7,-1,-69
1537921678548847,-6,-10,-4,-2,-6,10,5,-1
1537921678550842,3,6,4,0,6,21,8,7
1537921678550842,14,16,-3,-1,-4,-17,-2,15
1537921678571785,12,10,0,-4,0,29,4,-5
1537921678571785,7,-16,1,1,1,-16,11,-11
1537921678572783,-14,-3,-3,-4,-5,22,3,2
1537921678572783,18,3,0,2,-1,14,3,26
1537921678585748,-60,-23,-1,-2,3,9,3,1
1537921678585748,23,22,-2,-4,0,6,-5,-16
1537921678592729,-10,-1,1,3,-5,-22,-23,33
1537921678592729,3,3,0,-2,3,19,10,-2
1537921678616665,17,0,-4,-1,-1,1,6,47
1537921678616665,-9,-18,-2,-1,3,3,-14,-18
1537921678618660,-15,3,1,0,-3,-8,2,-92
1537921678618660,2,-8,3,-3,0,-16,-16,26
1537921678631625,-55,-14,-2,3,3,6,2,7
1537921678631625,57,6,-1,1,-3,0,-6,-6
1537921678632623,-1,8,-5,3,-1,-9,7,36
1537921678632623,-20,-1,-1,-10,-3,3,8,-37
1537921678654564,22,11,-3,0,-9,-11,-7,11
1537921678654564,6,13,5,-4,10,1,-9,26
1537921678655561,0,-25,-7,-8,-3,-2,4,2
1537921678655561,20,24,2,5,2,-7,0,-6
1537921678676505,-5,0,-2,-5,-3,2,5,-31
1537921678676505,13,-4,2,5,2,19,-10,11
1537921678678500,3,-1,-1,1,-1,8,4,10
1537921678678500,-31,-18,-5,-5,-8,-11,10,0
1537921678691465,5,-6,1,1,0,-3,-2,11
1537921678691465,32,6,-1,-2,-7,-6,11,-28
1537921678693460,-24,-8,-1,4,1,8,7,-57
1537921678693460,-25,-19,-1,0,-6,-3,-20,6
1537921678714404,26,1,-2,-3,-2,-2,-8,21
1537921678714404,-32,-7,-4,-4,-2,-1,14,-8
1537921678715401,13,0,7,3,-4,-6,10,5
1537921678715401,-9,-20,-6,-1,0,-4,-3,9
1537921678736345,1,19,3,0,1,-4,7,-9
1537921678736345,5,0,-4,-2,-5,-13,5,9
1537921678738340,-28,20,7,2,-1,-23,-10,-17
1537921678738340,37,12,4,-1,0,10,11,-15
1537921678751305,-13,-2,-1,-2,-1,19,-12,8
1537921678751305,-13,5,2,6,-2,-16,3,5
1537921678753300,8,6,-4,-4,0,6,22,17
1537921678753300,-44,9,2,-1,-3,-13,-12,-11
1537921678774244,41,9,-1,0,0,-19,-25,-13
1537921678774244,-40,-2,-8,-4,-3,9,-5,-14
1537921678775242,20,12,-2,-4,0,3,1,43
1537921678775242,-6,6,-2,-1,2,7,-1,-16
1537921678797183,-3,5,-2,3,0,12,2,33
1537921678797183,47,0,3,2,0,-27,-3,-26
1537921678798180,-61,-3,-3,2,-4,-5,-11,-11
1537921678798180,23,9,2,-2,10,24,13,12
1537921678811145,-20,-8,-1,2,-11,-8,-13,20
1537921678811145,-18,-6,-1,-10,-1,-1,-25,30
1537921678818127,27,0,-3,4,2,1,26,-16
1537921678818127,-22,-9,-5,-1,4,5,-9,2
1537921678834084,8,-5,0,-1,2,21,9,-6
1537921678834084,-29,3,0,-3,-1,-11,-8,-45
1537921678836079,26,5,0,-2,-2,-6,2,22
1537921678836079,19,10,0,-1,-3,-4,-2,15
1537921678857023,-30,-31,-3,-1,4,1,19,-6
1537921678857023,-1,3,-1,2,-2,6,1,12
1537921678858020,27,-1,1,-3,-2,-4,-20,-9
1537921678858020,-20,-17,-3,-3,1,8,-1,-25
1537921678870986,3,-14,-2,6,-4,-14,2,-8
1537921678870986,-7,-12,-2,-4,4,13,2,17
1537921678877967,-6,-14,-6,-2,1,4,-1,0
1537921678877967,9,-14,1,2,-1,-1,11,17
1537921678893924,23,-2,-1,-9,-3,-21,-4,-8
1537921678893924,-16,-22,-3,4,-3,-4,-4,0
1537921678895919,-3,-2,-1,-1,3,-14,-5,20
1537921678895919,-13,-3,-4,-2,1,22,3,-29
1537921678916863,17,10,-1,-6,2,-15,-6,-8
1537921678916863,-4,2,-3,4,0,-2,5,-24
1537921678917860,14,6,2,-4,1,11,-7,3
1537921678917860,-15,14,-5,-3,0,-12,4,-1
1537921678930826,0,19,-1,0,2,-5,-8,13
1537921678930826,18,10,2,-2,1,17,10,12
1537921678937808,-14,-2,-1,0,1,8,3,2
1537921678937808,11,0,1,4,0,-11,-18,10
1537921678953764,13,0,2,-1,3,1,-10,-12
1537921678953764,31,1,4,2,2,-5,1,24
1537921678955759,12,-10,-3,-1,0,12,8,-1
1537921678955759,-6,-5,-2,0,0,-2,-5,7
1537921678976703,-5,0,-6,-5,2,8,5,-20
1537921678976703,-12,2,-1,0,3,4,4,7
1537921678977700,7,11,2,4,3,-4,-4,1
1537921678977700,6,6,-2,-1,0,9,9,4
1537921678990666,13,18,3,1,5,6,-17,-14
1537921678990666,0,-5,0,2,0,8,37,47
1537921678997647,-15,-12,-3,-3,-1,-6,-23,-46
1537921678997647,1,-7,0,-3,0,-3,-11,-11
1537921679014601,-13,-8,0,5,0,3,20,-8
1537921679014601,-22,-8,1,-2,7,6,-5,15
1537921679015599,24,5,1,-4,-5,1,13,4
1537921679015599,-39,2,0,2,2,-16,-14,-8
1537921679036543,6,9,1,0,-1,-10,12,19
1537921679036543,16,7,-2,-3,0,-1,3,-20
1537921679038538,-27,10,-1,2,3,3,-10,-16
1537921679038538,0,-4,2,2,4,4,0,3
1537921679051503,15,-13,-2,-2,0,7,-12,-4
1537921679051503,-3,-9,0,0,-1,6,6,33
1537921679057487,-4,-14,-1,1,5,7,-3,12
1537921679057487,57,26,6,1,-4,3,13,31
1537921679074442,1,9,-6,-6,-2,-7,-15,23
1537921679074442,13,29,1,-3,-4,-2,5,-86
1537921679075439,-43,-18,-5,-3,-1,7,-6,10
1537921679075439,40,9,8,0,-2,-6,18,-1
1537921679080426,-29,21,2,-1,-2,-3,-13,-89
1537921679080426,7,-22,0,-1,-4,-4,-11,72
1537921679089402,27,-12,0,1,-5,0,8,103
1537921679089402,9,-6,1,-2,-4,-4,-8,-17
1537921679103364,30,-16,3,1,-3,-1,10,10
1537921679103364,-44,11,-2,0,-4,1,-17,-53
1537921679110346,4,17,2,-2,-3,-8,1,-85
1537921679110346,-26,-3,-7,0,-3,-2,5,75
1537921679126303,58,14,0,-3,-2,-5,-8,-62
1537921679126303,-42,-13,-2,-2,-1,-1,-17,-37
1537921679133284,-2,-5,-3,1,-3,-12,-2,-15
1537921679133284,-20,-8,-3,-2,-4,-2,-3,13
1537921679140266,25,-16,1,-2,-1,0,15,-1
1537921679140266,-36,-24,-4,2,3,-3,-31,16
1537921679149242,-33,11,-2,-2,-1,6,39,56
1537921679149242,-18,-4,1,-2,0,0,-5,-39
1537921679163204,-32,-19,-6,-10,-1,-3,2,22
1537921679163204,43,2,-4,1,-4,-2,10,16
1537921679170186,1,-6,1,-6,-1,2,-2,4
1537921679170186,-4,6,3,5,2,3,5,-5
1537921679186143,-32,-9,-2,-5,-2,24,2,28
1537921679186143,3,9,0,1,-2,-15,5,-17
1537921679193124,6,-2,-1,-1,-2,4,2,5
1537921679193124,41,8,-2,-2,-2,-7,4,-30
1537921679200106,-65,-18,-2,6,0,12,-6,9
1537921679200106,-10,7,1,-4,-5,-57,-9,11
1537921679209081,17,-5,-1,0,0,7,3,-9
1537921679209081,89,21,6,-3,-4,-11,-11,8
1537921679224041,-99,-51,-15,3,4,13,-1,-6
1537921679224041,27,8,3,-3,-4,9,11,21
1537921679230026,62,19,6,3,-8,-7,-5,4
1537921679230026,-24,-12,-4,-2,-7,11,13,-19
1537921679245983,-13,21,5,-1,-6,-46,4,42
1537921679245983,-16,-26,-5,-5,12,9,-19,-84
1537921679252964,81,52,1,-1,1,8,-9,26
1537921679252964,15,-21,2,4,3,-35,-9,58
1537921679268922,-75,-2,-5,-6,-1,1,8,-67
1537921679268922,21,2,2,4,1,21,-4,-6
1537921679270917,22,0,4,-1,-8,-43,2,0
1537921679270917,29,15,-7,-2,-5,1,-30,-18
1537921679283882,126,36,8,2,-2,13,17,70
1537921679283882,-106,-15,-9,-4,-1,-4,-12,17
1537921679289865,-3,-21,1,3,1,19,-8,-53
1537921679289865,27,8,-3,-5,-1,7,8,2
1537921679305823,16,-14,1,1,-1,-5,-2,62
1537921679305823,24,27,3,-3,-4,14,19,-13
1537921679312804,8,-8,-3,2,3,3,-13,3
1537921679312804,-69,-7,-6,-6,3,-2,-4,-14
1537921679328762,-33,-7,3,1,0,-1,-6,-43
1537921679328762,92,11,5,3,-2,8,11,109
1537921679330756,43,22,-3,-2,1,-6,-9,-63
1537921679330756,-93,-26,-8,-6,-2,-1,-20,-57
1537921679343722,65,13,1,2,1,4,-5,-35
1537921679343722,-2,4,0,-1,0,7,9,-21
1537921679350703,-40,-13,-5,-4,1,-2,-2,16
1537921679350703,2,-16,7,6,4,9,2,2
1537921679388602,2,-33,-4,1,1,1,1,12
1537921679388602,56,45,-5,-2,0,-4,-2,-4
1537921679396580,-44,-14,19,1,1,2,-1,-9
1537921679396580,-97,-26,-7,-4,1,7,8,-10
1537921679411540,56,-4,-10,-4,-2,-7,-10,-9
1537921679411540,-58,-7,2,5,5,2,5,6
1537921679413535,17,-25,-12,-5,0,5,0,2
1537921679413535,23,-5,-2,-2,-1,2,5,21
1537921679426501,56,24,3,-1,2,-4,2,28
1537921679426501,-81,-43,-6,-3,1,3,-8,-20
1537921679432484,-40,9,3,2,-2,1,1,20
1537921679432484,-7,5,7,4,3,1,0,-10
1537921679449439,31,13,2,-3,0,-1,-3,10
1537921679449439,49,41,2,-2,-2,-3,7,1
1537921679450437,-33,-10,3,0,-1,-2,2,-6
1537921679450437,53,11,0,1,-1,-8,1,23
1537921679463402,-29,11,3,0,-1,-1,0,1
1537921679463402,28,-17,-3,-2,-2,1,-6,-9
1537921679464399,-15,10,-9,-4,-2,-17,-2,-17
1537921679464399,11,11,4,0,-4,-1,-10,-13
1537921679479359,-7,23,5,2,0,3,-6,-5
1537921679479359,-10,-12,-1,-3,-1,21,-1,-7
1537921679480356,-28,-4,-3,-2,-1,17,0,1
1537921679480356,7,-4,-1,1,-3,5,3,-4
1537921679493322,-35,3,0,-2,-2,-8,-4,-61
1537921679493322,5,-6,-3,3,-3,-6,0,2
1537921679501300,5,-3,1,-1,-1,-3,0,8
1537921679501300,-12,-1,3,2,0,-4,1,1
1537921679509279,-27,2,-1,-1,-2,-2,-2,0
1537921679509279,29,7,1,-1,-2,-5,1,7
1537921679510276,55,25,-1,1,-1,1,2,1
1537921679510276,-82,-19,4,-1,-2,5,-5,-20
1537921679531220,21,2,-5,-3,-2,-2,-2,18
1537921679531220,13,4,5,2,-2,-4,1,6
1537921679533215,15,4,0,0,0,-3,3,13
1537921679533215,5,19,0,-1,-2,-3,-6,-12
1537921679546180,-12,-4,1,0,-4,0,2,3
1537921679546180,-18,6,2,-1,-2,-4,-10,-2
1537921679553162,-1,-12,-1,-2,-1,0,-1,-2
1537921679553162,32,14,0,0,0,-2,4,9
1537921679569120,-10,1,0,-1,-2,0,-1,-3
1537921679569120,15,0,-1,0,-2,-3,2,-3
1537921679571114,-21,-16,-5,-1,-1,0,-3,-5
1537921679571114,13,15,1,1,0,0,-1,13
1537921679583082,35,2,0,1,-1,-1,1,6
1537921679583082,-52,-9,-2,-2,0,1,0,-2
1537921679592058,23,6,2,-1,0,-2,0,1
1537921679592058,42,3,3,0,1,-2,5,8
1537921679606021,3,17,0,-1,1,2,-4,-16
1537921679606021,17,1,-2,-1,-3,-3,0,1
1537921679613002,-9,7,1,0,0,1,-3,-9
1537921679613002,45,10,-4,-2,-4,0,1,13
1537921679628959,11,-13,0,-1,0,2,0,13
1537921679628959,-12,11,-3,-3,0,-1,0,-8
1537921679630954,5,1,2,0,0,-2,-1,-1
1537921679630954,-23,-6,-2,-1,-3,-1,0,1
1537921679642922,-8,4,0,2,1,-2,-1,8
1537921679642922,-56,-23,-3,-2,0,-4,-3,-14
1537921679651898,27,14,0,-1,-2,-3,0,1
1537921679651898,-18,-3,0,-1,0,3,4,-2
1537921679665861,44,6,2,1,0,-1,0,-1
1537921679665861,28,9,0,-1,-4,-2,-4,7
1537921679672842,-92,-31,-2,-1,2,0,0,-8
1537921679672842,-34,-12,-5,-4,1,0,0,-11
1537921679688800,9,-4,-1,-2,0,2,6,5
1537921679688800,22,-5,3,4,1,7,2,11
1537921679690794,101,35,-7,0,-6,1,15,41
1537921679690794,-74,-52,-8,-3,-2,-1,-18,-22
1537921679702762,19,5,-2,0,8,-15,-30,-63
1537921679702762,-40,-7,8,5,5,17,37,35
1537921679711738,34,-24,-20,-2,19,5,-3,0
1537921679711738,118,82,1,5,10,28,15,28
1537921679725701,-65,-65,6,-6,-5,-3,15,110
1537921679725701,72,35,-36,-23,-53,-71,-73,-108
1537921679732682,-91,16,36,21,24,4,76,-7
1537921679732682,75,4,-11,5,24,45,36,-45
1537921679749637,56,-34,-55,-21,14,-3,4,-75
1537921679749637,-9,-9,57,12,-23,-40,-41,127
1537921679750635,-35,35,12,-14,-82,-2,39,27
1537921679750635,-3,72,-10,-15,33,-71,12,6
1537921679762602,-31,30,30,8,32,75,76,-30
1537921679762602,-2,-4,-22,-12,-67,10,42,-94
1537921679771578,58,82,-14,-16,48,-28,21,0
1537921679771578,-59,-60,-7,17,23,75,-25,-10
1537921679786539,7,-57,-27,-26,-74,-98,-39,0
1537921679786539,23,83,23,42,127,109,24,-63
1537921679792522,55,-25,-12,-4,12,-32,-41,28
1537921679792522,73,-74,32,14,-9,0,-74,-71
1537921679809477,13,8,-12,-3,-30,-51,-43,21
1537921679809477,24,-17,-16,-3,28,34,49,3
1537921679810474,18,-39,0,20,56,52,21,-24
1537921679810474,65,21,-11,-13,-18,-18,60,39
1537921679822442,-3,-15,12,3,-22,-2,-21,-4
1537921679822442,-59,-35,11,-12,-7,-22,-5,17
1537921679831418,-60,-16,-15,-3,-9,-6,-31,1
1537921679831418,-72,-27,9,2,-18,-26,-31,20
1537921679846378,-83,29,19,6,-5,16,11,-8
1537921679846378,-1,19,-19,-11,-10,-20,7,15
1537921679852362,-43,-12,-2,-1,-14,8,-21,-25
1537921679852362,-17,-4,-5,-6,-29,-16,-1,-2
1537921679869317,-23,23,12,8,21,14,13,7
1537921679869317,14,-6,-8,5,7,-1,-2,17
1537921679870314,-23,-21,6,1,-28,-16,-39,-28
1537921679870314,-3,13,2,-7,-11,-25,11,17
1537921679883280,-21,0,-1,7,16,20,12,19
1537921679883280,21,-26,-6,-14,-4,12,-16,6
1537921679891258,-21,-10,3,21,-9,30,-9,-20
1537921679891258,23,24,-6,-2,-9,-47,11,7
1537921679906219,-30,-2,3,8,17,-5,4,13
1537921679906219,20,-10,2,-6,-8,8,-6,0
1537921679913200,-7,0,4,-6,-7,-28,-11,-18
1537921679913200,1,5,-9,-11,1,28,6,0
1537921679929157,26,2,4,10,0,4,-4,13
1537921679929157,48,-6,9,0,-5,-24,-2,15
1537921679931151,4,8,-8,-3,0,21,-6,-6
1537921679931151,-40,-5,4,-1,-5,-1,1,7
1537921679943120,22,10,1,-5,-1,19,5,-9
1537921679943120,-38,3,-7,2,-2,-33,-8,-2
1537921679952096,47,3,1,9,-6,-17,-3,2
1537921679952096,-55,-18,2,-3,-4,-2,0,-7
1537921679966058,11,21,1,-21,3,21,4,-3
1537921679966058,23,-4,-3,12,-4,0,2,8
1537921679973041,62,-17,3,4,-1,-2,-2,24
1537921679973041,-2,4,-4,-3,-3,-18,-12,-28
1537921679988998,-22,-6,1,9,5,-18,6,3
1537921679988998,50,-17,-1,-16,-1,-7,-11,-7
1537921679990993,86,28,4,-5,-2,5,14,32
1537921679990993,-58,-36,-2,11,2,11,14,-4
1537921680002960,76,32,-7,0,-1,-14,-15,17
1537921680002960,34,62,-27,-3,18,10,-5,-40
1537921680011937,-106,-47,31,18,0,30,58,-82
1537921680011937,80,68,-26,-33,-90,-36,1,89
1537921680025899,-35,-2,14,13,79,73,67,14
1537921680025899,38,-36,-20,9,-43,-27,61,113
1537921680032879,-71,-114,56,-23,-19,-17,-31,-102
1537921680032879,17,-69,-65,-53,-69,-36,36,64
1537921680048837,4,-78,80,29,-32,-4,18,83
1537921680048837,-82,24,20,21,91,4,-70,-66
1537921680050832,68,53,-128,-50,-80,3,84,96
1537921680050832,-36,-125,119,27,85,7,-55,-25
1537921680062799,61,127,-38,-3,-43,-30,-36,107
1537921680062799,-10,-67,14,-11,-5,-50,-83,-117
1537921680071775,-11,78,16,12,0,16,-74,-32
1537921680071775,30,127,-31,3,37,20,19,67
1537921680085738,6,-47,-30,-18,45,62,31,-22
1537921680085738,13,-33,23,1,-112,-72,-12,93
1537921680092719,7,6,-7,-6,14,25,18,-54
1537921680092719,63,30,-11,8,1,16,25,25
1537921680108677,-33,-15,11,7,11,-27,-61,-57
1537921680108677,-21,18,-11,-15,-7,25,79,1
1537921680115658,0,-24,-6,-2,8,-41,-20,24
1537921680115658,-16,-1,17,8,21,20,-40,-56
1537921680122640,-28,-33,-1,-3,-15,-6,-2,-48
1537921680122640,-26,-13,-2,32,16,16,-10,-16
1537921680131616,2,-3,-3,1,6,-19,-31,38
1537921680131616,20,-18,13,16,4,3,20,-43
1537921680145578,-31,0,-11,-5,-11,-12,-13,-43
1537921680145578,4,16,-8,-25,-6,-5,11,34
1537921680152560,-28,-10,12,-43,6,19,-6,18
1537921680152560,-29,10,-5,50,-7,-1,15,-19
1537921680168517,21,-26,-6,-20,-1,28,16,-3
1537921680168517,-57,-6,-16,-12,-9,-13,-26,-40
1537921680175500,21,-5,6,-8,6,-17,-3,18
1537921680175500,23,-1,2,-17,-4,-15,-10,-12
1537921680191457,55,-8,-2,7,-18,0,-15,-1
1537921680191457,-28,-10,5,11,47,68,31,20
1537921680193451,-5,-18,-8,7,-14,-34,-18,-24
1537921680193451,8,11,-2,-5,0,10,1,10
1537921680206417,29,4,1,12,-3,-19,-3,-12
1537921680206417,-4,6,-1,-3,-9,4,8,14
1537921680212400,-21,2,1,4,5,-6,-7,8
1537921680212400,4,5,0,7,5,-8,-8,-9
1537921680228357,-18,-8,-6,-6,-9,-8,1,-5
1537921680228357,-2,-7,2,-5,6,-2,-7,-7
1537921680235339,27,12,4,11,7,15,-2,12
1537921680235339,-20,-15,2,-4,0,14,2,-13
1537921680251296,-31,2,-5,0,-2,-20,-7,-19
1537921680251296,26,4,-2,-9,-4,10,7,5
1537921680253291,-52,-17,1,13,6,-1,2,1
1537921680253291,9,-7,-4,-3,0,1,-2,-5
1537921680266256,-18,-11,-9,-8,-2,-15,-6,-16
1537921680266256,23,9,3,5,2,3,2,17
1537921680273237,14,0,4,3,2,0,-3,-14
1537921680273237,0,-4,-2,-4,-2,-3,-5,-2
1537921680288197,-19,-4,-3,0,-2,1,-1,-7
1537921680288197,19,3,4,-2,-2,3,4,6
1537921680295179,0,-3,-1,8,6,-3,-2,12
1537921680295179,-2,-1,-6,-7,-2,5,0,-9
1537921680312133,10,12,3,2,-2,-5,-1,-1
1537921680312133,-3,3,-1,1,-3,1,1,0
1537921680313131,31,8,1,0,3,-6,0,3
1537921680313131,-19,-13,-5,1,0,4,-2,-2
1537921680326096,-10,0,0,-2,-3,-4,1,3
1537921680326096,2,-4,-1,-2,0,0,-4,-16
1537921680333077,2,13,1,3,2,0,1,8
1537921680333077,33,-1,-2,-3,-2,1,-2,2
1537921680349034,1,1,-1,0,-1,-4,1,-4
1537921680349034,-4,1,1,-3,-2,2,0,-5
1537921680355019,-2,-1,-1,3,0,2,2,6
1537921680355019,-3,-2,-1,0,-1,0,0,-2
1537921680371973,-1,-2,-3,0,-5,-6,-1,-3
1537921680371973,-2,0,3,2,-1,0,0,-2
1537921680372971,9,-1,0,-3,-1,-1,-2,6
1537921680372971,-4,-5,-2,-3,1,-1,-3,-2
1537921680393915,-7,3,-2,1,0,-1,-2,-4
1537921680393915,-4,-7,0,0,1,2,1,1
1537921680395909,27,8,0,1,2,-3,1,6
1537921680395909,-66,-18,-4,-4,-2,1,-2,-10
1537921680408874,5,4,-2,-2,0,-2,0,0
1537921680408874,-14,-6,-3,-1,-2,-1,-1,-2
1537921680414859,-13,-2,-1,0,2,-1,-2,1
1537921680414859,21,3,3,1,-2,-3,-1,0
1537921680431813,-5,-10,-1,1,-1,-2,-1,0
1537921680431813,-2,4,1,1,0,-2,1,5
1537921680432811,39,2,-3,0,-2,-1,-1,-5
1537921680432811,-15,8,-2,-1,-1,2,-2,1
1537921680445776,21,-3,0,-1,0,1,0,-3
1537921680445776,23,14,1,-1,-1,2,-1,0
1537921680453755,-31,-15,-3,-1,-2,1,-1,1
1537921680453755,9,1,2,-1,0,-1,-1,0
1537921680468714,0,3,-2,-1,-1,-1,-2,-4
1537921680468714,9,-2,-1,-1,-2,-1,-2,-1
1537921680475696,-11,-2,0,0,0,0,0,1
1537921680475696,14,2,0,0,1,-2,-2,-1
1537921680491654,-8,2,2,-1,-1,0,0,1
1537921680491654,2,-6,-3,-3,-1,0,0,-2
1537921680493648,-13,1,-3,-3,-2,-3,-4,-5
1537921680493648,19,12,3,-1,-1,0,1,4
1537921680505616,27,4,0,-2,-2,-1,1,4
1537921680505616,-18,3,-3,0,0,0,-4,-11
1537921680514592,35,10,-1,0,-3,0,0,8
1537921680514592,-5,-1,1,0,1,0,-1,-10
1537921680528555,-19,0,1,-1,-2,-1,-1,1
1537921680528555,19,0,-1,-2,1,-2,-2,1
1537921680535536,-11,-6,-1,1,0,2,0,0
1537921680535536,9,-1,2,2,0,-2,0,3
1537921680551493,2,-6,-2,-1,1,0,1,-1
1537921680551493,3,1,0,-1,0,0,0,4
1537921680553488,-22,-6,-1,0,-1,-3,-3,-7
1537921680553488,-2,10,0,0,-1,-1,1,-1
1537921680565456,22,3,-2,-3,1,-3,-1,-5
1537921680565456,11,-6,-1,1,0,2,4,13
1537921680574432,-27,-7,3,1,0,0,0,-6
1537921680574432,-31,-3,-6,-3,-1,-2,-6,-11
1537921680589392,-15,1,-1,0,-1,-1,-2,-3
1537921680589392,23,1,1,-2,1,-2,-1,1
1537921680595376,13,-2,0,1,-2,0,2,8
1537921680595376,1,-4,-1,-1,-1,-1,1,1
1537921680611333,-23,0,-1,-2,-1,-1,0,-3
1537921680611333,10,1,0,1,-2,-1,1,2
1537921680611333,-8,0,-3,-4,-2,-1,-2,-2
1537921680611333,-14,1,1,2,-2,-1,-1,-3
1537921680656213,15,-3,-2,-3,-1,0,-1,0
1537921680656213,-11,-5,1,-2,-2,-1,-3,-3
1537921680658208,-12,-1,-2,0,1,-2,-2,-3
1537921680658208,6,-5,-2,-2,-1,-1,-1,-1
1537921680670176,-6,-8,-1,2,0,-1,-1,-1
1537921680670176,-24,-8,-2,0,0,0,-2,-4
1537921680679152,5,1,-2,0,1,1,-1,0
1537921680679152,14,3,-1,-1,1,0,1,4
1537921680694112,13,-3,2,2,-1,0,1,0
1537921680694112,-67,-11,-6,-2,-3,-4,-3,-8
1537921680695110,74,5,0,-1,-5,-4,-1,3
1537921680695110,-71,-24,-7,-4,-2,-2,-6,-13
1537921680709072,17,-1,2,-1,-2,-2,0,1
1537921680709072,-16,-9,-2,-3,-3,-5,-3,-7
1537921680711067,-15,0,0,0,-1,-3,3,1
1537921680711067,17,-3,0,-2,-4,-3,0,4
1537921680724032,-22,-10,-5,0,-3,-3,-3,-2
1537921680724032,11,2,0,0,-4,-2,-1,3
1537921680730016,-22,-11,0,0,-3,-3,-1,-3
1537921680730016,14,-4,-2,-1,-1,-2,0,0
1537921680746970,14,-1,-2,-3,-3,-5,-1,2
1537921680746970,54,5,-1,0,-4,-4,2,2
1537921680747968,-96,-12,-2,1,-1,1,1,-5
1537921680747968,10,13,-6,0,-1,6,2,1
1537921680760933,-31,-6,-4,5,30,28,20,11
1537921680760933,36,-12,0,6,-9,0,-10,-2
1537921680761930,-4,19,-10,-21,-8,-29,-6,97
1537921680761930,-43,-113,18,5,-5,-5,-35,-84
1537921680768912,84,67,-22,16,57,19,2,93
1537921680768912,-48,0,32,-14,-85,-20,81,-74
1537921680774896,-48,24,34,9,6,-5,-57,-88
1537921680774896,9,21,-58,4,55,30,-41,44
1537921680790854,-49,-92,69,-20,-97,-65,28,-84
1537921680790854,51,-59,-32,6,106,-4,4,113
1537921680791851,32,92,-6,-1,-78,-38,32,-11
1537921680791851,-14,-61,29,9,26,9,24,69
1537921680813792,35,-28,-73,-1,38,51,-16,13
1537921680813792,-56,-64,13,-22,-93,-93,-128,14
1537921680813792,28,9,12,30,105,86,85,26
1537921680813792,19,-23,-33,-4,-19,-19,5,-36
1537921680828752,-23,35,-5,-33,-41,-6,-17,-18
1537921680828752,25,11,6,4,2,11,24,-4
1537921680835733,6,-41,-16,2,43,32,-6,8
1537921680835733,7,38,23,3,-55,-55,-67,-31
1537921680850693,-13,28,7,4,-3,-9,17,-16
1537921680850693,-1,35,-13,-7,7,1,-32,-21
1537921680851691,15,-31,0,-4,-26,-15,-9,-26
1537921680851691,11,23,6,9,56,53,40,20
1537921680873632,-25,-23,-1,-1,-20,-23,-14,-3
1537921680873632,-9,18,-5,-1,7,24,20,-9
1537921680873632,-1,-28,-2,-2,-3,-7,-9,5
1537921680873632,-3,22,5,-11,-29,-14,27,5
1537921680889589,-27,7,3,-1,8,-8,-31,1
1537921680889589,-5,9,1,6,3,6,10,-18
1537921680895573,7,-4,-7,-14,4,8,3,-7
1537921680895573,-12,19,-3,-9,-16,-26,-8,4
1537921680910533,-38,-13,5,4,0,12,1,-13
1537921680910533,-11,12,-2,14,45,34,8,-9
1537921680911531,32,-18,-10,-5,-23,-32,-18,7
1537921680911531,-15,13,3,-14,-9,11,15,-5
1537921680933472,-8,-12,2,17,9,13,6,-3
1537921680933472,8,21,0,-18,-2,14,8,5
1537921680934470,-45,-30,-7,19,10,49,-6,-13
1537921680934470,-57,2,0,-5,-16,-40,-4,-15
1537921680949430,110,32,11,0,11,-51,7,38
1537921680949430,-72,-24,-17,-7,4,-48,-20,-56
1537921680955414,-1,-4,-6,-34,-23,5,0,13
1537921680955414,71,14,4,-4,13,23,15,18
1537921680971371,30,16,5,11,0,14,6,-1
1537921680971371,-51,-15,2,30,22,110,20,40
1537921680971371,33,8,-7,-5,-6,-36,-6,-11
1537921680971371,2,-10,-6,-28,-14,-3,5,-7
1537921680993313,-56,-5,-16,4,-9,-63,-33,-42
1537921680993313,127,37,17,-12,-8,37,6,34
1537921680994310,18,-16,-5,28,6,-15,-5,8
1537921680994310,-61,4,-4,-37,-7,18,7,6
1537921681008272,-70,-37,-3,3,8,27,-5,-20
1537921681008272,-29,-5,-5,5,9,-20,-2,-7
1537921681015253,25,3,9,11,7,10,2,0
1537921681015253,39,-11,-3,12,9,10,19,-12
1537921681030213,19,18,-16,-1,39,1,-20,88
1537921681030213,-34,51,-4,0,13,9,-37,-30
1537921681038192,-22,-51,4,-49,-97,-95,17,-12
1537921681038192,23,61,20,24,14,11,31,54
1537921681047168,-16,84,-2,-6,50,78,-1,-50
1537921681047168,17,-69,-5,-14,-49,-93,-79,46
1537921681061131,-11,111,89,39,100,41,48,38
1537921681061131,16,-48,3,8,-6,43,32,57
1537921681068112,-13,-81,-17,-4,87,44,8,85
1537921681068112,21,116,-4,-35,-85,-88,-22,-14
1537921681075093,2,75,-35,7,62,47,-71,-97
1537921681075093,16,61,-47,31,87,48,24,30
1537921681090054,8,-45,48,17,-48,27,-31,48
1537921681090054,0,-50,-38,-22,-41,20,73,-42
1537921681098032,-16,27,6,-13,-60,-71,-32,31
1537921681098032,24,-68,-1,15,5,6,-53,-41
1537921681112992,16,0,-16,-8,-21,2,43,-73
1537921681112992,-6,8,12,17,33,12,32,-5
1537921681113990,11,-33,-10,0,-7,15,6,25
1537921681113990,-3,11,5,-5,2,-16,-12,-11
1537921681127952,-13,12,1,-27,-69,-56,-10,-27
1537921681127952,-8,-35,23,40,33,47,20,16
1537921681134934,12,-17,-21,14,29,23,17,9
1537921681134934,33,6,2,-36,-47,-27,-21,-13
1537921681149894,-29,0,7,-15,5,-7,-3,-12
1537921681149894,88,35,-9,13,1,-44,16,-8
1537921681157873,55,-27,-4,-14,5,73,17,20
1537921681157873,-45,3,2,6,-23,-109,-30,-54
1537921681173830,-63,-45,-5,-1,7,0,-9,-45
1537921681173830,-5,-25,-6,-22,31,46,-7,6
1537921681173830,92,-9,-3,2,-36,-3,7,11
1537921681173830,-52,-15,13,12,19,32,5,9
1537921681187793,-9,8,-7,5,1,-18,14,3
1537921681187793,-50,-11,-1,10,9,-8,-8,-7
1537921681195772,-17,-19,0,-2,0,35,2,1
1537921681195772,-17,7,-1,1,-6,26,5,-3
1537921681210732,44,18,1,-3,-14,1,0,-13
1537921681210732,-38,0,0,1,19,19,5,-1
1537921681217712,0,-3,-2,-4,-7,-20,-8,4
1537921681217712,26,9,-1,-6,-6,-14,0,1
1537921681233670,40,17,3,5,-11,-11,0,3
1537921681233670,-46,-3,5,-5,5,41,7,6
1537921681233670,-18,-14,-9,-2,11,-32,-3,-7
1537921681233670,18,0,-2,-12,-11,-17,-9,-21
1537921681247632,23,8,3,12,-8,-24,5,9
1537921681247632,31,0,0,3,20,31,7,4
1537921681255611,-62,-19,-9,-6,-5,-23,-9,-19
1537921681255611,13,13,3,1,-5,2,2,2
1537921681270572,20,11,1,-3,-7,9,4,5
1537921681270572,-9,-5,0,-3,6,-18,-3,-4
1537921681277552,-19,-1,-6,-3,-3,-4,-5,-8
1537921681277552,13,-3,2,0,-8,-10,0,5
1537921681293510,-6,-1,-3,-1,2,2,2,-2
1537921681293510,1,-3,-1,4,1,-14,-4,-3
1537921681294507,-6,-2,1,-2,0,-9,-2,-1
1537921681294507,4,3,2,5,-2,10,3,3
1537921681307472,-3,5,-3,-1,-1,-6,1,-5
1537921681307472,21,1,1,-2,-1,-5,0,-1
1537921681315452,-9,-2,-1,-2,-2,1,-4,-4
1537921681315452,8,-1,0,-1,0,-4,-1,0
1537921681330411,-21,4,-3,-2,-1,3,-1,-3
1537921681330411,12,0,2,-1,0,-7,0,3
1537921681337392,-15,-1,-2,-1,0,-2,-2,-6
1537921681337392,6,10,1,2,-3,-3,0,1
1537921681353350,13,2,2,-2,-1,-4,1,2
1537921681353350,-3,1,-1,-2,-2,-1,-1,-1
1537921681354347,-3,1,-2,-3,0,-6,-3,-2
1537921681354347,0,-5,4,1,3,2,-1,-1
1537921681367312,5,7,-2,-1,0,1,-2,1
1537921681367312,10,0,-3,0,1,-5,-1,0
1537921681383270,0,-8,-3,-2,-3,-2,-2,2
1537921681383270,-6,-2,0,-2,-4,-4,0,-3
1537921681390251,-12,-8,-1,1,1,0,-1,-4
1537921681390251,2,2,-1,0,-1,-4,-1,0
1537921681398230,1,1,-2,1,3,-4,-1,-2
1537921681398230,-8,-5,-1,1,-3,2,1,2
1537921681413190,12,1,-1,-3,0,-3,1,1
1537921681413190,-2,-7,-1,-2,2,-1,-1,-2
1537921681414187,-47,-14,-2,-1,-1,2,0,-3
1537921681414187,24,7,-1,0,-1,-1,-2,1
1537921681428150,-10,-6,1,0,-3,2,0,-1
1537921681428150,3,3,0,1,0,-2,1,5
1537921681435131,19,-1,-2,-3,0,0,-2,-2
1537921681435131,-40,-5,-2,2,2,1,-1,-4
1537921681450091,40,8,0,-3,-1,-4,-3,0
1537921681450091,45,1,4,-1,-2,1,2,14
1537921681458070,-89,-12,0,1,0,1,2,-2
1537921681458070,-65,-35,-7,-6,-3,-3,-9,-20
1537921681473030,0,8,-1,-2,0,6,1,-2
1537921681473030,27,59,-13,8,24,24,12,8
1537921681474027,45,-3,5,0,-10,-22,11,8
1537921681474027,39,49,12,3,0,6,-6,7
1537921681487990,-78,57,-35,-6,32,17,10,33
1537921681487990,-27,5,39,-1,-40,-22,-20,-64
1537921681494971,102,105,-40,-12,-9,-23,-43,117
1537921681494971,-18,6,43,23,86,74,92,-21
1537921681509931,-29,-16,26,-31,-74,-94,-74,-36
1537921681509931,-9,-93,-21,39,127,103,109,112
1537921681517910,-9,11,-41,-44,-105,-37,90,-128
1537921681517910,-22,-47,39,-17,-89,-104,-95,44
1537921681533867,67,11,-15,36,121,127,121,95
1537921681533867,-8,-58,-22,-37,-27,-6,-93,4
1537921681533867,-19,-24,10,27,53,19,-40,54
1537921681533867,77,-110,-68,-10,-10,44,109,7
1537921681548827,-80,-72,65,16,-22,-67,-96,-59
1537921681548827,22,79,18,22,-19,-28,7,-5
1537921681554811,-8,-12,-11,4,8,49,-6,-35
1537921681554811,27,25,-17,-23,30,-7,-3,4
1537921681570769,17,-9,-3,-8,-70,-27,-5,-10
1537921681570769,3,31,-7,-2,-3,-10,29,-14
1537921681577751,-16,-14,18,7,21,9,-15,8
1537921681577751,-27,28,4,9,-3,-13,-19,-13
1537921681593707,41,28,-15,-2,6,25,35,-19
1537921681593707,-23,-19,-2,-8,-17,-14,-19,-6
1537921681593707,-10,-21,14,-7,-12,-21,4,0
1537921681593707,25,24,-5,3,5,14,-18,9
1537921681607670,-25,-8,-8,0,-5,-3,-5,3
1537921681607670,25,7,6,-16,-31,-32,-20,-10
1537921681615649,-55,-31,12,7,24,14,-11,-10
1537921681615649,12,47,-4,8,-5,-22,-2,8
1537921681630608,52,1,-8,-3,-1,20,2,5
1537921681630608,7,8,3,-38,-8,-27,3,17
1537921681637590,-67,-13,-5,43,9,73,15,-46
1537921681637590,56,6,5,-58,-19,-17,-18,16
1537921681653547,-30,-3,-3,56,-2,-54,3,-14
1537921681653547,97,-8,-8,-13,-21,102,20,17
1537921681654545,-28,-17,-12,-41,7,-35,-20,-43
1537921681654545,67,21,10,56,11,10,3,36
1537921681667510,0,-19,1,-56,22,35,-6,-22
1537921681667510,102,33,-5,63,-16,-30,-12,6
1537921681675488,32,14,18,-32,-11,7,19,23
1537921681675488,35,-25,-13,-17,-3,20,-12,-9
1537921681690448,91,30,-10,-17,-4,-5,1,-26
1537921681690448,58,15,7,20,4,-1,4,4
1537921681697430,25,-6,0,-14,3,11,-5,2
1537921681697430,9,41,4,-3,0,-36,-5,11
1537921681713387,-12,-3,0,13,-3,6,10,35
1537921681713387,-115,-31,-1,-19,7,-18,-2,-65
1537921681714385,9,3,2,44,70,32,-17,-22
1537921681714385,-33,61,-34,-23,-11,-5,-6,-14
1537921681727350,-45,-46,45,18,40,21,31,-16
1537921681727350,-39,-61,-35,-4,78,-20,-78,21
1537921681735329,15,-77,46,0,28,-4,70,-65
1537921681735329,-19,-87,-14,-12,-3,-15,64,50
1537921681750289,40,106,-13,14,29,37,-26,30
1537921681750289,-84,101,58,-37,-32,-48,34,112
1537921681757270,40,-82,-4,54,29,53,-57,127
1537921681757270,-48,-43,-38,-61,-88,-105,30,-55
1537921681781206,42,74,17,3,48,-68,0,52
1537921681781206,-3,31,-19,13,96,79,50,45
1537921681782203,20,-12,-15,9,-29,-27,11,25
1537921681782203,-44,-39,15,22,18,76,31,-22
1537921681788187,-5,-37,-43,-35,-38,13,-13,-25
1537921681788187,-14,-12,0,14,-1,8,-1,-69
1537921681795169,17,49,-7,-22,-67,-44,5,-14
1537921681795169,15,0,12,27,17,21,-36,5
1537921681810128,-5,-31,1,-4,-3,-4,4,-36
1537921681810128,-11,-33,-4,-19,-36,-16,-11,-25
1537921681818108,-10,18,7,4,3,-12,10,6
1537921681818108,67,17,5,3,8,-3,-27,-6
1537921681833068,-57,-20,-4,13,-2,-7,-14,4
1537921681833068,-13,-8,6,15,-34,44,16,-24
1537921681834065,10,24,-10,-26,-18,-87,-8,5
1537921681834065,-87,7,14,10,45,24,-23,6
1537921681848027,-7,-31,2,-5,-30,-16,-3,-4
1537921681848027,8,-17,-10,-3,-16,-7,-2,-5
1537921681855009,-3,22,6,-8,28,12,10,3
1537921681855009,19,6,8,29,-15,-4,-11,-4
1537921681869969,-57,-47,-15,-12,15,2,10,-2
1537921681869969,9,-15,-3,-11,-13,-24,-8,-16
1537921681877947,-9,8,-4,4,1,35,-8,9
1537921681877947,79,28,11,6,-2,-5,-1,5
1537921681893904,-77,-24,-5,-2,-18,6,-1,-4
1537921681893904,-43,-14,-4,-1,9,-8,-7,-29
1537921681893904,-23,-9,-9,-9,-11,-19,-6,0
1537921681893904,-18,-8,0,2,6,9,-13,-1
1537921681907867,67,11,4,-5,-5,4,6,15
1537921681907867,-4,-12,-3,-2,-4,-15,-1,-4
1537921681914849,25,12,4,-4,-7,-7,-1,1
1537921681914849,-31,-5,-3,1,9,9,-5,-7
1537921681929809,28,-3,-3,1,-3,5,-1,6
1537921681929809,4,1,3,-1,-9,-15,2,-4
1537921681937787,4,4,-4,-5,0,7,-3,-1
1537921681937787,1,5,-4,0,8,1,-9,-5
1537921681952748,11,4,-1,-2,-8,0,5,1
1537921681952748,14,-8,3,-1,-3,-4,-1,-2
1537921681960726,10,5,0,-3,4,0,4,0
1537921681960726,-28,-6,-4,-1,3,-1,-11,-4
1537921681967708,26,2,0,0,-7,1,4,4
1537921681967708,-11,-5,-3,0,-2,-5,-4,-4
1537921681983665,7,4,1,-1,2,1,-2,-1
1537921681983665,-11,3,-1,-3,2,0,0,-3
1537921681990647,4,2,1,-1,-2,5,3,5
1537921681990647,12,1,2,0,1,-6,-3,-2
1537921681997627,13,13,1,0,-4,-2,-5,-5
1537921681997627,-18,-13,-1,-2,2,3,-1,-2
1537921682012588,8,7,0,-2,-3,-1,-3,-1
1537921682012588,-5,-3,0,0,-2,-2,0,-1
1537921682020566,7,3,1,-1,-3,-2,-1,-1
1537921682020566,-1,0,-2,-2,1,4,-3,-2
1537921682035526,4,-3,-2,-2,0,3,1,-1
1537921682035526,-16,-9,-2,0,0,-5,-1,-6
1537921682036524,4,2,-5,-4,-3,-1,-5,-1
1537921682036524,1,4,2,1,-1,0,-1,-2
1537921682050486,3,-4,0,0,-1,2,0,1
1537921682050486,11,1,-1,-2,-1,-3,0,-1
1537921682057468,-5,1,1,0,0,-2,0,1
1537921682057468,-4,0,-1,1,-1,0,0,-2
1537921682081403,8,3,2,1,-2,-2,2,0
1537921682081403,-1,-3,-2,0,0,-2,-1,1
1537921682082401,-1,1,-5,1,1,1,-1,0
1537921682082401,-4,0,1,-1,0,0,-1,-2
1537921682096363,0,-1,0,2,0,-2,-1,-2
1537921682096363,-2,0,-1,0,-2,-3,-2,0
1537921682096363,0,1,-1,-4,-4,-1,-2,-4
1537921682096363,-2,-2,-1,2,-1,-1,1,0
1537921682110326,5,-2,-1,-2,-1,-3,-2,-1
1537921682110326,7,-1,-3,-7,-1,-1,1,0
1537921682118305,-11,0,2,11,0,-2,-1,0
1537921682118305,2,-1,-3,-3,-1,0,0,-2
1537921682133265,-12,-6,-4,-3,-3,-1,1,-1
1537921682133265,2,1,1,0,-1,-3,0,1
1537921682141244,-7,0,-1,-7,0,-1,1,1
1537921682141244,6,-5,1,1,1,-1,-2,-3
1537921682156204,-11,-1,-2,0,0,0,0,-1
1537921682156204,4,-1,-1,-6,-2,-2,-3,-2
1537921682156204,-2,-5,0,0,-1,0,-2,-1
1537921682156204,-2,5,0,2,-1,-1,0,1
1537921682170166,15,2,-3,-2,-1,-2,2,3
1537921682170166,-3,-1,-1,-2,-1,-2,-1,-4
1537921682178145,-25,-2,-1,1,2,-1,-1,-2
1537921682178145,14,-1,0,-1,0,-1,-2,0
1537921682193105,-16,-3,-1,-1,0,-1,-2,-4
1537921682193105,7,3,-3,-13,-6,-2,0,1
1537921682201083,7,15,-1,13,4,0,-1,-1
1537921682201083,0,-16,0,0,2,-1,0,1
1537921682216043,19,10,7,3,-1,1,3,10
1537921682216043,38,-15,-10,-5,-4,-12,-3,-8
1537921682217041,30,-1,-4,-2,-2,8,0,-5
1537921682217041,-115,-46,3,-2,2,1,-4,-24
1537921682230006,110,33,0,0,0,-2,1,18
1537921682230006,-6,-12,4,5,0,3,9,22
1537921682237985,-56,-14,-11,-9,-5,-7,-13,-36
1537921682237985,56,46,-5,5,0,0,0,4
1537921682252945,-79,-26,2,-1,-4,7,10,15
1537921682252945,-89,-41,4,5,8,6,-1,-18
1537921682260924,127,36,-6,-4,-6,-1,-6,10
1537921682260924,-88,-3,5,0,-4,-18,10,-7
1537921682275883,45,14,-10,1,3,4,-1,0
1537921682275883,53,63,-23,9,25,20,29,14
1537921682276881,-99,-69,14,-8,21,-8,-34,-16
1537921682276881,77,13,19,2,4,31,61,52
1537921682289846,-23,-77,16,-15,-77,-44,-37,-92
1537921682289846,82,97,-39,-11,-25,-10,19,81
1537921682297825,-80,-124,59,8,16,9,-11,8
1537921682297825,82,50,-54,19,85,11,2,20
1537921682312785,-35,-81,59,-5,-3,5,-53,34
1537921682312785,-22,4,45,-9,-73,-70,-14,-124
1537921682320763,76,127,-28,10,0,-12,-10,104
1537921682320763,-6,81,-32,-29,-56,-7,-22,-38
1537921682335723,-16,-10,1,-3,66,-11,6,-21
1537921682335723,-6,-90,-35,3,-48,4,21,6
1537921682336721,23,-78,-1,-7,-22,-51,14,-4
1537921682336721,-39,-20,29,9,12,-15,-67,-36
1537921682350684,30,44,-34,13,68,33,5,12
1537921682350684,-24,-14,27,5,15,17,-23,-2
1537921682357665,10,4,-6,21,35,27,21,-39
1537921682357665,7,-26,-4,-8,-39,-13,8,22
1537921682372625,-18,15,-2,-7,-16,2,16,1
1537921682372625,-6,-31,16,7,42,15,-14,6
1537921682380604,0,31,-19,-6,-4,11,8,-6
1537921682380604,-5,-20,6,-7,-13,-8,-1,-2
1537921682395564,-10,23,3,-3,-9,5,29,13
1537921682395564,-2,8,-9,13,19,0,-10,-12
1537921682396561,-4,8,-8,-27,-28,-8,-2,-3
1537921682396561,-17,-24,11,-4,-7,-5,2,-8
1537921682410524,5,-2,-16,16,-3,10,8,-5
1537921682410524,50,11,1,5,15,-14,-13,37
1537921682417505,-73,-8,4,-39,-31,52,17,-28
1537921682417505,41,-5,9,51,-1,-44,-9,26
1537921682432465,-112,-7,-8,11,-3,49,8,-24
1537921682432465,-12,-10,-10,-10,-1,-59,-19,-24
1537921682441441,11,14,-2,-47,-15,51,11,3
1537921682441441,34,-3,-6,28,2,1,-1,-16
1537921682456401,52,25,-4,-19,-15,22,-14,28
1537921682456401,-68,-9,22,-17,-6,-8,35,51
1537921682456401,34,-17,-30,39,10,-8,-30,-65
1537921682456401,103,36,19,-36,10,58,24,47
1537921682470364,-48,-24,-11,16,-23,-43,-22,-29
1537921682470364,110,47,16,-13,30,20,7,26
1537921682477345,-40,13,6,16,10,-52,24,24
1537921682477345,-128,-55,-20,-36,-37,-2,-13,-39
1537921682492305,127,48,12,34,38,-25,9,36
1537921682492305,-101,-5,-1,13,9,5,-3,46
1537921682501281,54,14,4,41,63,20,-2,-5
1537921682501281,68,-7,6,-2,36,13,22,107
1537921682516241,71,66,-30,-15,-49,-19,-11,-35
1537921682516241,-125,32,12,14,50,70,13,-86
1537921682516241,0,-57,17,-6,-98,-17,-3,-4
1537921682516241,34,36,-60,-31,-16,-37,63,2
1537921682530204,-120,-100,76,-2,-54,-11,-26,-44
1537921682530204,127,111,-54,3,15,-7,-22,102
1537921682538182,-101,-101,21,-21,16,3,-66,-70
1537921682538182,-66,-65,53,9,76,22,9,-88
1537921682553143,-45,-126,-39,-19,-85,-31,65,114
1537921682553143,69,71,56,31,66,-11,-8,-55
1537921682561121,121,27,-78,-38,-31,-42,-83,36
1537921682561121,18,-63,-24,-2,0,46,33,-4
1537921682576081,73,58,-42,-27,-1,1,5,19
1537921682576081,-78,8,53,12,-38,-1,-18,-50
1537921682577079,16,19,-17,7,52,66,115,61
1537921682577079,-17,11,33,7,-76,-57,-111,-47
1537921682590044,12,126,2,-13,-5,1,27,-12
1537921682590044,6,-67,-26,-14,-17,0,-12,0
1537921682598023,-12,29,14,-2,31,21,14,-1
1537921682598023,102,30,2,-57,-30,-55,-14,33
1537921682612983,-107,-60,-9,69,68,-33,-29,-64
1537921682612983,73,-21,4,-18,-47,46,42,44
1537921682620962,-8,28,20,34,3,71,-29,-70
1537921682620962,46,13,15,85,78,127,31,34
1537921682635922,-91,-40,-24,-40,62,-79,-28,-16
1537921682635922,98,-5,-23,-47,-102,-37,-7,-1
1537921682636919,-5,20,23,32,59,-127,22,54
1537921682636919,-115,-43,-11,-25,-29,86,-15,-28
1537921682649884,127,57,10,18,74,117,17,34
1537921682649884,-86,-58,-16,30,-62,-50,-28,-33
1537921682657863,-29,-4,15,-18,24,-22,46,31
1537921682657863,5,10,-7,13,-44,4,-30,-42
1537921682672823,83,21,14,8,52,24,-7,-48
1537921682672823,30,-34,-15,-21,2,16,6,6
1537921682680801,93,34,4,-13,-32,-15,-6,73
1537921682680801,-69,-1,-4,7,30,-25,6,-48
1537921682695761,4,35,-7,-2,-40,-2,4,-9
1537921682695761,24,-12,-10,-16,33,-4,8,30
1537921682696758,-27,29,24,24,-21,7,3,-25
1537921682696758,-28,-27,-9,0,9,-27,5,9
1537921682710721,31,18,-2,-25,-24,0,2,39
1537921682710721,-52,-67,-2,9,28,-12,-14,-14
1537921682717702,-28,-11,4,1,-12,18,-4,20
1537921682717702,56,21,-8,-17,-17,-36,-9,-26
1537921682732662,-75,-37,3,-7,8,-2,5,-11
1537921682732662,-15,14,-7,9,17,24,-5,-33
1537921682740641,-20,-13,-8,5,-15,3,5,-35
1537921682740641,35,13,5,-9,4,-25,10,42
1537921682755601,30,-1,3,1,2,5,3,39
1537921682755601,11,-1,0,6,-1,3,-4,-11
1537921682756600,-78,-11,-12,-11,-13,0,-3,-17
1537921682756600,25,18,2,1,5,-19,-5,-5
1537921682770561,-59,-27,2,4,-3,22,0,3
1537921682770561,11,26,-4,-10,0,-3,1,-10
1537921682777542,74,-14,1,-1,-1,-5,0,21
1537921682777542,-26,9,1,-15,-2,-5,2,15
1537921682792503,-8,-17,1,-3,-13,1,-1,-7
1537921682792503,-17,-12,-1,8,16,16,4,2
1537921682801478,28,21,-7,1,-9,0,1,-4
1537921682801478,-31,-6,-1,-10,-1,-7,12,-2
1537921682815441,16,3,3,-7,-5,-3,-7,3
1537921682815441,2,-10,1,2,2,-15,-2,4
1537921682816438,-11,5,-10,-6,-16,21,-3,-13
1537921682816438,17,3,1,10,17,-1,-4,13
1537921682830401,-10,3,5,-7,-10,-19,2,2
1537921682830401,-2,-5,-2,2,2,-5,-5,-3
1537921682838380,1,-2,-2,-3,-1,0,-2,-12
1537921682838380,10,4,3,2,-4,-2,1,7
1537921682852343,7,-8,-3,2,0,1,-1,-3
1537921682852343,-15,2,1,1,9,7,2,-8
1537921682861318,21,7,-5,-3,-3,-9,3,7
1537921682861318,-13,-1,-1,4,-1,-3,1,5
1537921682875281,29,5,5,3,-1,-8,1,8
1537921682875281,-10,-3,-6,-3,-4,5,-5,-13
1537921682883260,-13,-9,-2,-6,4,-3,-1,-1
1537921682883260,36,9,-2,0,-3,-7,-1,1
1537921682890241,6,0,2,-1,-4,3,-1,3
1537921682890241,-1,-1,2,-2,3,5,5,4
1537921682898220,18,2,-2,-2,2,-3,1,-2
1537921682898220,4,4,0,5,0,-3,-3,-1
1537921682913180,-18,-3,0,5,-3,1,1,-2
1537921682913180,-4,-1,1,-1,1,0,3,3
1537921682921159,2,-3,-4,-1,-1,-6,-1,-5
1537921682921159,-8,-2,0,1,-4,1,0,4
1537921682935121,1,0,-2,-7,-1,-3,-3,-4
1537921682935121,-11,-2,5,4,3,2,1,1
1537921682943100,11,3,0,2,1,1,-1,-1
1537921682943100,-13,-8,-3,0,-3,-2,-3,-2
1537921682959058,19,10,-1,-3,-3,0,-1,4
1537921682959058,-15,-7,-3,-1,1,0,1,-1
1537921682960055,-30,-6,-1,0,-4,-1,1,-1
1537921682960055,24,10,2,1,2,-1,2,9
1537921682973020,-93,-33,-3,-2,-2,-1,-4,-18
1537921682973020,87,25,4,2,-4,-3,1,3
1537921682980999,-47,-22,-1,-2,1,1,1,2
1537921682980999,-61,1,-3,0,-1,-1,-3,-8
1537921682994962,22,8,-1,-2,-2,-1,-1,4
1537921682994962,-17,-6,0,-2,-1,-1,1,1
1537921683002940,35,7,-1,-2,0,-3,-1,2
1537921683002940,27,4,1,4,0,-1,0,5
1537921683018898,-8,4,2,-1,-3,-1,-1,0
1537921683018898,-29,-16,-6,-4,0,0,-2,-1
1537921683019895,25,12,0,-4,-2,-1,0,-1
1537921683019895,-16,-13,0,1,-2,0,-2,-3
1537921683032860,5,4,-3,0,-1,0,-1,-2
1537921683032860,-10,-2,1,-1,2,1,2,2
1537921683041837,39,4,1,1,-1,-2,1,10
1537921683041837,-32,-10,-3,-3,0,0,-5,-14
1537921683055799,-66,-16,-3,-2,-2,-1,-3,-16
1537921683055799,-18,-1,-1,0,1,0,0,1
1537921683063778,23,0,0,-2,-1,-1,-1,-3
1537921683063778,46,6,3,1,-1,-1,2,8
1537921683078738,11,3,5,1,2,0,5,12
1537921683078738,5,5,-4,0,-1,-2,-2,-14
1537921683080733,-38,-9,-2,-2,0,1,-4,-5
1537921683080733,10,7,0,-1,-2,-3,-1,3
1537921683092700,39,-9,-2,1,-3,1,1,7
1537921683092700,-26,0,-2,-3,1,0,-2,-8
1537921683101677,2,3,-2,1,-2,-3,-2,-7
1537921683101677,7,-2,0,-3,-1,-2,-1,0
1537921683115639,9,6,2,3,2,1,0,2
1537921683115639,2,-2,0,1,1,1,-2,3
1537921683124615,6,-2,-4,-1,0,-1,-2,-2
1537921683124615,-16,-5,-2,-1,-1,0,-1,3
1537921683139575,14,7,-1,-1,-2,-2,-1,-1
1537921683139575,8,-3,1,-1,-2,0,0,3
1537921683140574,-7,-1,1,0,-2,-3,-2,-5
1537921683140574,-4,1,-1,-2,0,0,-2,-2
1537921683152540,17,12,2,-2,-3,-1,0,7
1537921683152540,20,-28,-2,-3,1,-1,2,7
1537921683161517,-78,-7,-7,-5,-1,-2,-8,-31
1537921683161517,37,-10,2,2,1,2,-2,-4
1537921683175480,15,-1,-2,0,-1,0,-4,-4
1537921683175480,38,12,3,1,0,-3,1,9
1537921683184455,30,6,1,1,-2,-2,4,16
1537921683184455,-47,-11,-3,-1,1,-1,-4,-4
1537921683238311,21,13,-1,-4,-1,-2,-3,-4
1537921683238311,-26,3,-4,2,-1,-2,-2,0
1537921683240306,13,3,1,-1,0,-1,-1,0
1537921683240306,-14,1,-3,-2,-2,1,-1,-5
1537921683244295,10,2,-1,1,1,-2,0,3
1537921683244295,-12,1,3,0,0,0,-1,0
1537921683245293,-4,-4,0,1,0,2,2,2
1537921683245293,70,17,-1,0,-4,-3,5,9
1537921683259255,-102,-36,-8,-3,-1,-1,-7,-16
1537921683259255,-26,0,-6,-4,-4,-3,-3,-13
1537921683260253,28,2,2,0,-1,-2,-2,3
1537921683260253,-4,4,4,0,-3,-1,-1,1
1537921683273218,50,13,7,2,-2,-4,5,9
1537921683273218,47,5,3,1,-2,-4,1,10
1537921683280199,-91,-28,-9,-5,-3,-4,-10,-25
1537921683280199,8,11,3,2,-3,-5,1,-2
1537921683288178,-2,-7,-4,-2,-3,-3,-5,-4
1537921683288178,20,7,4,3,-3,-1,3,4
1537921683297154,29,0,2,0,-4,0,10,12
1537921683297154,-27,-6,-5,-2,-3,-2,-9,-4
1537921683311116,82,22,4,1,-3,-11,-5,18
1537921683311116,-94,-35,-6,0,2,9,1,-32
1537921683313111,20,-10,-5,-6,-8,-17,-9,-14
1537921683313111,-14,8,-4,-2,-1,-7,-4,-7
1537921683327073,25,6,1,2,0,5,16,5
1537921683327073,15,-2,2,-1,-4,-2,-1,23
1537921683328071,29,-11,8,7,3,11,28,10
1537921683328071,29,-2,-16,-3,4,1,-4,-17
1537921683333058,71,1,10,-1,0,-8,-16,-1
1537921683333058,-49,-39,-3,-4,-12,-11,-7,13
1537921683342034,-62,-20,-5,-3,1,1,-16,-19
1537921683342034,-81,55,-2,12,18,7,18,-6
1537921683354999,-19,-71,-17,2,16,30,25,17
1537921683354999,66,-1,27,-2,8,19,60,7
1537921683363975,53,-81,-13,-11,-31,-41,-61,45
1537921683363975,-25,69,-35,7,39,37,90,62
1537921683378935,-93,-113,36,-13,-82,-32,-49,5
1537921683378935,55,115,4,15,29,-16,-79,-68
1537921683380930,50,-81,-63,-43,-31,29,100,71
1537921683380930,-77,-71,118,45,-9,-14,-69,12
1537921683392898,54,75,-84,-38,-40,-37,55,-38
1537921683392898,-49,-79,17,3,-12,34,7,38
1537921683401874,100,23,-92,-19,-14,-84,-70,1
1537921683401874,-28,-6,53,1,-30,47,27,-75
1537921683414839,-15,41,29,13,58,-35,-85,-27
1537921683414839,27,30,-50,8,12,10,107,34
1537921683423815,-25,77,57,1,-27,-43,0,-75
1537921683423815,42,-8,-53,-7,51,-9,-45,22
1537921683438775,-55,-5,22,10,47,61,-10,-63
1537921683438775,32,-51,-7,22,98,68,27,-6
1537921683440770,-10,123,2,-20,-48,-27,36,1
1537921683440770,42,-33,2,-40,-29,-32,29,-2
1537921683452738,2,8,8,5,-13,-25,-18,43
1537921683452738,-12,-13,-23,-4,29,-9,-28,12
1537921683461714,-50,-7,36,28,16,43,13,-12
1537921683461714,3,-32,-7,-6,-3,-8,-20,-4
1537921683475676,6,19,-19,2,8,15,26,13
1537921683475676,-27,-17,1,-13,-45,-14,-3,-11
1537921683483655,-19,-5,30,17,29,16,-3,-13
1537921683483655,26,14,-22,-10,-22,-12,-15,0
1537921683499612,-12,-13,-9,0,15,17,21,17
1537921683499612,-7,22,14,-4,-55,-43,-21,-9
1537921683500610,2,2,11,3,22,23,-19,14
1537921683500610,6,-15,-18,-6,10,-5,-4,9
1537921683512578,-12,2,-1,-12,-29,-4,15,-1
1537921683512578,4,4,5,-1,-7,-25,-21,-6
1537921683521554,47,10,7,35,37,42,4,2
1537921683521554,-60,-28,-16,-19,-17,0,8,-9
1537921683535516,-5,6,5,-5,-2,-3,4,2
1537921683535516,-25,2,-3,-9,-25,-29,-16,-5
1537921683544493,49,6,4,17,39,72,-1,10
1537921683544493,-3,-20,-9,-6,-14,-45,-10,9
1537921683559452,6,19,8,4,-17,-20,11,19
1537921683559452,-24,1,-6,-4,11,-10,-12,-1
1537921683560450,30,6,11,18,7,17,13,-2
1537921683560450,-68,-23,-7,1,-3,-23,-14,-16
1537921683572418,25,8,-5,12,13,26,5,-6
1537921683572418,10,-9,-3,-10,-5,-30,-6,1
1537921683581394,-64,-11,9,-5,-6,-35,-6,-2
1537921683581394,99,12,-7,0,4,60,5,8
1537921683595357,-27,-8,-7,21,4,-14,-5,-3
1537921683595357,20,16,6,-27,-24,11,1,8
1537921683604333,-87,-21,-7,-16,-4,-20,-14,-12
1537921683604333,40,9,0,-4,5,8,4,7
1537921683619293,-16,-6,3,-5,-2,-7,2,9
1537921683619293,-28,-13,-5,12,3,20,-5,-20
1537921683620290,33,9,-2,-6,-1,-31,-4,-2
1537921683620290,-15,-9,-1,-1,-10,-12,5,1
1537921683633255,86,14,4,2,5,-9,4,16
1537921683633255,-52,-4,-4,1,-5,-11,-5,-11
1537921683649213,-49,-14,-2,-9,3,19,2,-13
1537921683649213,32,6,-1,6,-2,-5,-4,-6
1537921683655197,9,0,2,-3,-1,-3,0,1
1537921683655197,47,4,-1,-5,-2,13,2,14
1537921683664174,-13,-1,-2,-1,-1,2,2,3
1537921683664174,-18,2,-1,4,1,-5,-3,-1
1537921683679133,55,0,-6,-3,-3,1,-2,-4
1537921683679133,-41,-1,-1,0,-2,2,-1,-5
1537921683680131,8,-2,0,-3,0,-1,-1,2
1537921683680131,18,3,3,1,-5,-12,-1,5
1537921683693095,-20,2,-1,-2,1,11,2,-1
1537921683693095,0,-4,1,-1,-4,-2,-2,-7
1537921683702072,24,0,-2,-1,-1,-3,-2,7
1537921683702072,-6,5,-3,-2,-1,6,-1,2
1537921683715036,-42,-8,-3,-1,1,5,-3,-9
1537921683715036,23,-1,0,-3,-2,1,0,2
1537921683724012,1,-4,-1,0,1,-1,1,5
1537921683724012,1,-2,-2,2,1,0,-1,-2
1537921683746951,-25,-3,0,-4,0,2,-1,-5
1537921683746951,4,3,3,3,-3,-6,-1,6
1537921683747948,58,9,-3,-4,0,2,5,8
1537921683747948,-49,-11,0,-1,1,0,-4,-13
1537921683752935,-3,0,3,0,1,2,-2,-3
1537921683752935,5,4,0,-3,0,1,-1,1
1537921683761911,-40,-8,0,3,-2,1,1,2
1537921683761911,39,-2,-1,-4,-2,0,0,5
1537921683783852,-25,0,-4,-2,-1,1,-1,-1
1537921683783852,18,6,1,2,-1,-2,0,-1
1537921683785847,7,5,1,-2,0,-2,-1,-2
1537921683785847,25,7,0,1,-3,-3,0,3
1537921683798813,-1,-5,-1,-1,3,2,1,1
1537921683798813,-9,3,-5,-2,-2,0,-3,-5
1537921683800807,-9,-3,-1,3,3,-1,-3,-1
1537921683800807,3,6,-1,-2,1,1,-2,0
1537921683812775,-4,0,2,0,-1,-1,-3,-3
1537921683812775,11,3,0,0,-1,-1,0,7
1537921683821751,-2,-6,-2,0,0,1,0,0
1537921683821751,-6,1,3,0,1,0,-1,-2
1537921683834716,-10,-4,-5,2,0,0,-1,2
1537921683834716,35,1,-1,-2,-4,-2,0,-2
1537921683843692,-58,-11,-5,-5,-3,-1,-3,-14
1537921683843692,-4,2,2,4,1,-2,-1,1
1537921683858652,3,-2,0,-4,-1,-3,-2,-2
1537921683858652,-13,-4,-1,-1,0,2,0,3
1537921683865634,17,4,1,0,-2,2,0,5
1537921683865634,3,0,-2,-2,-1,-2,0,-2
1537921683872615,-20,1,0,1,-2,1,-2,-4
1537921683872615,14,1,1,3,0,-1,1,-1
1537921683881592,2,0,-1,-2,-1,-2,-1,4
1537921683881592,-25,1,0,1,-1,0,0,-4
1537921683895554,31,-4,-2,-2,-1,0,-2,-3
1537921683895554,-11,-4,1,-1,1,-1,1,-1
1537921683904530,14,6,3,2,1,1,0,1
1537921683904530,1,-3,-3,-3,-2,0,-1,4
1537921683926471,-12,1,-2,-2,-1,-1,0,-7
1537921683926471,-2,-3,-1,1,0,0,0,-2
1537921683928466,0,-1,-1,0,-1,-1,-1,0
1537921683928466,7,3,-1,-3,0,-3,-1,-2
1537921683941431,-1,-2,-1,-4,-3,0,-1,4
1537921683941431,2,-1,0,0,1,0,-3,-10
1537921683943426,-18,-5,2,2,1,2,-2,-1
1537921683943426,9,1,-1,-2,-1,0,0,1
1537921683955394,-5,2,0,-2,1,0,-1,-1
1537921683955394,1,-1,3,0,1,0,-1,4
1537921683964370,7,6,0,-1,-1,-2,-1,-2
1537921683964370,8,1,-3,0,-1,-1,0,0
1537921683978333,-10,-2,-2,0,0,0,1,1
1537921683978333,2,1,-1,0,0,-1,-2,-1
1537921683985314,9,3,-2,1,-2,-1,-1,0
1537921683985314,1,1,2,0,-1,-1,-1,-3
1537921684002269,6,4,1,-1,-1,-1,-1,-1
1537921684002269,5,0,-2,0,-2,-1,0,6
1537921684003266,-52,-18,-4,-4,0,1,-4,-13
1537921684003266,6,-3,0,0,-3,-2,0,3
1537921684015234,-14,-4,-2,-1,0,-1,-1,-2
1537921684015234,-4,4,3,-1,-1,1,0,0
1537921684024210,9,0,-1,-1,0,1,-1,2
1537921684024210,1,2,-2,1,1,-1,-1,-1
1537921684038173,-1,-3,0,-1,-2,-2,-1,-2
1537921684038173,2,1,-1,-3,-3,-2,0,3
1537921684045154,0,0,-2,-2,1,-1,0,1
1537921684045154,0,0,-1,1,-1,-1,-2,-1
1537921684062109,26,6,0,1,-4,-1,1,0
1537921684062109,-26,-15,-7,-2,1,-2,-2,-5
1537921684063106,20,6,2,0,-1,-1,-1,-1
1537921684063106,-22,-6,1,-3,-1,1,0,-3
1537921684075074,-1,-4,-3,-2,-1,-1,-4,-2
1537921684075074,7,-1,0,-1,-3,-1,-1,2
1537921684084051,11,0,-2,-3,0,-3,0,-2
1537921684084051,-13,-1,2,-1,-2,1,-1,-1
1537921684098013,-1,0,2,2,0,-3,0,0
1537921684098013,1,5,2,1,-1,1,0,-2
1537921684104994,16,1,-3,-1,-3,-1,-2,2
1537921684104994,1,2,-2,-1,0,0,-1,-1
1537921684121949,-27,-6,-3,-3,1,-1,-1,-4
1537921684121949,-8,-5,-1,-2,-1,1,-2,-2
1537921684122947,-3,1,2,0,-2,0,-1,-2
1537921684122947,23,3,-1,-1,-1,0,0,1
1537921684135912,-21,-1,-1,-1,1,2,0,-1
1537921684135912,-2,-1,0,-2,-1,1,-1,0
1537921684142893,-1,0,2,-1,0,0,1,2
1537921684142893,4,-2,-1,-1,1,-1,-2,-3
1537921684158850,4,-2,1,1,-1,-1,0,3
1537921684158850,-17,-7,-1,1,-1,-1,-2,-7
1537921684164834,0,-2,-3,-2,-1,-2,1,-2
1537921684164834,-4,2,1,0,-1,1,0,-1
1537921684181789,3,0,-2,-1,0,-1,2,1
1537921684181789,9,2,-1,-2,-2,-1,0,1
1537921684182786,-1,-3,-1,0,-1,-1,-1,-1
1537921684182786,-4,0,0,-2,0,-2,0,1
1537921684203730,12,4,1,0,1,0,-2,-2
1537921684203730,-1,-3,-1,-1,1,-1,0,2
1537921684205725,-2,2,-4,-2,-1,0,-2,0
1537921684205725,-6,-4,-1,0,1,-1,-1,-2
1537921684218690,-2,1,-1,0,-3,-2,-2,-4
1537921684218690,14,12,3,0,0,-1,-1,0
1537921684225672,0,-4,-1,-2,-1,-2,-2,2
1537921684225672,13,0,0,-1,-1,0,0,3
1537921684241629,-5,-3,1,-2,1,1,-3,-1
1537921684241629,11,5,-2,-1,-2,-2,0,-6
1537921684247613,-28,-4,1,0,-1,0,-1,-2
1537921684247613,24,3,1,-2,0,1,-1,-3
1537921684255591,-19,-8,-3,-1,1,1,-1,-1
1537921684255591,-1,4,0,-2,-2,0,0,2
1537921684262573,19,3,0,0,0,-1,0,0
1537921684262573,-3,3,0,0,-2,-1,-3,2
1537921684278530,21,1,1,1,0,-1,-1,-1
1537921684278530,-20,-1,-2,-2,-1,0,-2,-2
1537921684302466,-1,-3,0,-2,1,1,1,-1
1537921684302466,-2,-1,-3,0,0,0,-1,0
1537921684302466,13,1,0,0,-1,0,-2,-1
1537921684302466,-7,-2,0,0,-1,-2,-2,0
1537921684304461,9,3,0,-2,0,-2,-1,2
1537921684304461,-10,0,-1,0,-1,-1,0,-1
1537921684324407,-13,-2,-2,-2,-1,0,-2,-5
1537921684324407,13,0,-1,-2,0,-2,-2,1
1537921684325405,-1,2,-2,0,0,0,0,-2
1537921684325405,-4,-4,-2,-2,-1,0,0,-3
1537921684338370,3,-3,-2,-3,-1,-2,0,-1
1537921684338370,-5,0,1,0,-1,1,0,1
1537921684345351,7,-1,-1,-2,-2,0,0,-1
1537921684345351,-7,0,0,1,1,-2,0,-2
1537921684361309,-2,1,1,1,-1,0,-1,0
1537921684361309,1,1,-3,-1,0,-2,-2,0
1537921684363304,-7,0,0,3,0,-2,-1,1
1537921684363304,-1,0,-2,-1,-1,-1,-2,-1
1537921684376269,-5,-2,-2,-2,-1,-1,0,0
1537921684376269,7,-2,-2,-1,-1,0,1,0
1537921684383250,-6,-2,2,1,-1,1,0,1
1537921684383250,-4,0,-2,-1,0,-1,-2,-3
1537921684398211,-4,1,-1,0,-1,-1,-1,0
1537921684398211,3,-2,-1,0,-1,-1,0,-2
1537921684405192,-1,0,-2,-1,-2,0,-1,-1
1537921684405192,-2,0,1,0,-2,1,0,-3
1537921684421149,1,0,-1,-3,0,-1,-1,0
1537921684421149,0,1,-1,-1,1,-1,0,-1
1537921684423144,3,2,1,2,-1,0,0,0
1537921684423144,9,1,0,0,0,-1,-2,0
1537921684435111,-33,-8,-2,1,-1,0,0,-2
1537921684435111,-12,-2,-2,0,0,-1,0,-3
1537921684444088,15,-1,0,-2,-1,-2,-1,-1
1537921684444088,-9,-3,-2,-1,-2,-1,0,1
1537921684458050,8,3,1,0,-2,-2,-1,0
1537921684458050,7,0,4,1,0,-2,-1,1
1537921684465031,11,1,-2,-1,1,-1,0,4
1537921684465031,-40,-11,-1,-1,0,0,-3,-9
1537921684481986,3,3,0,0,-2,-1,0,-2
1537921684481986,-3,1,-2,0,-2,0,-1,0
1537921684482984,-2,-1,-2,-1,0,-2,-1,-4
1537921684482984,14,2,-1,-2,0,-1,2,5
1537921684494952,8,2,-1,-2,1,-1,-1,-1
1537921684494952,-3,-1,0,0,1,1,-1,-1
1537921684503928,4,0,-1,-4,-1,-1,0,2
1537921684503928,1,1,0,0,1,-2,-2,-1
1537921684518888,-1,0,0,0,-2,0,-2,-1
1537921684518888,7,1,-1,-1,2,1,-1,3
1537921684524872,-3,3,0,0,-2,1,-2,-3
1537921684524872,-1,0,-2,-2,1,-1,1,-1
1537921684541827,-3,-1,0,0,-1,1,0,0
1537921684541827,3,0,-1,-1,-2,-1,1,1
1537921684542824,14,-1,-2,-1,-3,-1,-1,-1
1537921684542824,-7,7,-2,-2,-1,0,-2,1
1537921684554792,35,11,2,2,-1,-1,2,5
1537921684554792,2,7,3,2,-1,-1,4,12
1537921684563768,-17,-5,-4,-3,-1,-1,-4,-18
1537921684563768,1,13,0,0,-1,-2,-3,3
1537921684578728,40,11,3,1,0,3,8,9
1537921684578728,81,0,-1,2,2,10,7,12
1537921684585709,-88,-27,-2,3,5,14,11,0
1537921684585709,9,0,-16,-6,2,-14,-1,-12
1537921684601666,-32,33,-5,4,4,-20,-61,-43
1537921684601666,52,9,16,-8,-42,-4,80,63
1537921684602664,54,35,-34,-5,6,0,-43,-50
1537921684602664,-74,-69,22,-8,-15,-3,-84,-23
1537921684615629,89,79,-33,-5,-51,-13,110,61
1537921684615629,-78,37,-1,5,35,17,-101,46
1537921684624606,-64,-77,56,2,-75,-43,-21,-77
1537921684624606,32,19,16,-12,-28,-27,-26,80
1537921684638568,65,42,-5,8,-8,10,-18,39
1537921684638568,-100,-55,12,-8,35,-22,13,-79
1537921684645550,16,26,-33,12,51,48,16,93
1537921684645550,37,-54,-40,-10,-37,-13,-22,-23
1537921684661507,-42,19,29,-11,-13,6,-78,-33
1537921684661507,49,-28,-13,-12,-63,-15,66,8
1537921684663502,-15,-39,3,-4,66,19,-15,-5
1537921684663502,20,106,-16,21,68,69,61,-34
1537921684675470,-22,-99,17,-2,-38,-27,-43,8
1537921684675470,-29,-40,2,10,22,21,12,-33
1537921684684446,22,39,17,-7,-8,-21,-4,-5
1537921684684446,15,-20,-14,5,22,14,38,28
1537921684698409,-35,-36,-4,8,29,21,21,-19
1537921684698409,-6,14,1,-3,-3,-11,-44,-29
1537921684705390,39,-9,-8,2,-25,-7,34,26
1537921684705390,-6,15,7,3,3,-4,-11,-1
1537921684721347,-36,-32,-1,-7,17,3,13,-5
1537921684721347,14,5,-6,-4,-11,-14,-7,0
1537921684723342,3,27,-6,-1,10,2,-5,21
1537921684723342,-17,-19,8,1,-9,-5,15,-8
1537921684735310,-10,-1,5,-21,3,-9,-6,-14
1537921684735310,8,3,-16,6,2,3,-14,10
1537921684744285,-3,-6,0,-8,-9,-1,0,0
1537921684744285,-4,2,16,0,-6,-12,-10,-9
1537921684758248,13,-17,-6,-6,4,6,18,5
1537921684758248,-20,11,-4,7,9,-5,-17,-8
1537921684765229,-10,-5,6,-2,-2,10,4,3
1537921684765229,20,-4,1,-10,-6,-19,3,2
1537921684781186,-5,-3,-6,32,15,-28,5,5
1537921684781186,-16,-5,-2,2,2,20,-5,5
1537921684788168,28,9,4,-8,-13,-15,-8,5
1537921684788168,-17,-10,-3,-11,10,24,12,9
1537921684795149,43,2,-1,0,-12,-31,1,6
1537921684795149,-59,-16,-2,3,6,27,-10,-20
1537921684804125,11,8,0,5,-2,46,15,8
1537921684804125,14,0,-1,-33,-7,-91,-22,2
1537921684818087,-35,5,0,30,4,-9,1,-21
1537921684818087,15,-3,6,-2,4,18,8,13
1537921684825069,-97,-26,-9,-2,2,-19,-20,-23
1537921684825069,87,12,6,1,-6,37,17,39
1537921684841026,-80,-26,0,3,11,60,10,-4
1537921684841026,-19,-2,-10,-25,-8,-39,-21,-44
1537921684848008,23,24,4,14,-8,-7,1,12
1537921684848008,46,3,10,27,8,-40,-8,-9
1537921684863965,-71,-8,0,-19,0,4,-2,15
1537921684863965,89,19,1,-19,1,21,7,26
1537921684865960,74,2,1,14,0,0,-7,0
1537921684865960,-81,7,-3,2,-1,26,1,-3
1537921684877928,74,7,-1,-5,6,-1,0,2
1537921684877928,-99,-19,1,12,8,12,2,-10
1537921684884909,18,3,-2,-9,-4,-21,1,4
1537921684884909,22,-9,6,16,7,12,8,45
1537921684900867,-42,-36,-21,2,31,33,23,1
1537921684900867,-24,-12,-4,-18,-23,-13,-43,-100
1537921684907849,37,75,-12,-3,27,-25,-14,-16
1537921684907849,-58,-5,-21,-22,-34,17,39,58
1537921684923807,32,-15,28,3,22,-14,-63,108
1537921684923807,57,8,-15,21,46,27,21,-20
1537921684925801,-67,-96,25,-26,-37,-7,1,12
1537921684925801,8,3,-6,-22,-78,-75,-70,-25
1537921684938765,115,84,-32,-32,-86,-82,-52,-12
1537921684938765,-59,-76,82,64,93,40,27,54
1537921684944750,43,107,-25,-15,-20,69,58,19
1537921684944750,3,-53,-27,7,68,46,20,-1
1537921684960707,0,59,-10,-38,-94,-40,17,-85
1537921684960707,61,-23,-22,1,40,-45,-6,76
1537921684967688,-31,-43,-9,23,105,62,-37,-17
1537921684967688,-61,-47,27,-2,30,46,-21,-20
1537921684983645,16,8,-4,11,63,34,42,-41
1537921684983645,-2,14,-2,-12,-44,-10,-6,-23
1537921684985640,-10,-71,7,1,-35,-43,18,10
1537921684985640,21,46,-4,13,17,20,3,-32
1537921684998605,-17,-24,10,6,14,10,-19,24
1537921684998605,7,8,-7,-12,-48,-10,15,4
1537921685005587,-7,12,7,6,-17,-14,9,8
1537921685005587,-4,4,-6,-30,-8,17,-10,-24
1537921685020547,24,-23,10,40,11,34,21,-3
1537921685020547,12,22,-3,0,-15,-1,13,25
1537921685027528,-63,18,-8,-38,-25,-27,-22,-13
1537921685027528,67,16,15,11,-17,93,23,-15
1537921685044483,-83,-55,-7,-15,4,23,3,-4
1537921685044483,99,73,-4,-15,24,-64,-20,35
1537921685045480,-80,-54,-1,85,13,100,-12,-43
1537921685045480,82,27,5,-6,6,-83,14,-7
1537921685058445,-86,-43,-8,-19,-4,-75,2,-9
1537921685058445,-2,29,-6,8,-13,74,1,-25
1537921685065427,100,17,18,-14,-24,-46,20,32
1537921685065427,46,25,2,14,-12,-38,18,64
1537921685081384,-77,-25,-5,3,22,-42,-24,-18
1537921685081384,18,3,-8,-9,-12,-1,-23,-83
1537921685087368,32,2,-1,-15,-5,-41,-6,22
1537921685087368,-16,11,3,14,2,1,6,10
1537921685104323,47,13,6,-11,9,18,0,-10
1537921685104323,-27,-8,0,0,-16,7,4,27
1537921685105321,-10,-11,-10,-2,0,0,0,-6
1537921685105321,-17,-2,-1,2,6,-10,-22,-45
1537921685117289,5,4,18,5,2,30,15,25
1537921685117289,-26,1,-1,-4,-17,-21,-3,2
1537921685126264,30,11,-8,-8,7,-13,-9,-13
1537921685126264,-55,-51,-2,-2,2,-13,-9,-3
1537921685141224,18,21,2,-2,0,16,6,-3
1537921685141224,23,50,-5,-2,-10,-6,1,4
1537921685148205,-18,-14,1,-8,4,-15,-12,-7
1537921685148205,-46,-1,-4,4,-2,8,1,-5
1537921685164163,21,16,4,5,0,23,7,2
1537921685164163,71,-10,-3,-3,-6,-10,-6,4
1537921685165160,-45,-12,-5,-7,1,-1,-1,15
1537921685165160,-48,3,0,1,-2,-3,-2,-17
1537921685178125,23,0,-2,1,3,11,-1,0
1537921685178125,-36,-10,-6,-3,-5,-11,-5,7
1537921685187101,17,4,3,-4,-3,-10,-2,-3
1537921685187101,15,-2,3,5,1,1,1,-8
1537921685201064,-10,-3,-3,-7,2,6,2,9
1537921685201064,-13,-11,-3,-2,-3,3,0,3
1537921685208045,26,17,-1,0,1,-3,-2,-4
1537921685208045,-23,-17,-1,-4,0,-3,-5,-5
1537921685224003,14,3,-1,2,2,8,1,-2
1537921685224003,-19,-9,-2,1,-1,7,-2,5
1537921685225998,4,-2,0,-8,-2,-33,-5,-5
1537921685225998,0,11,1,5,-1,-7,-1,3
1537921685237965,12,-2,-1,0,1,5,1,4
1537921685237965,24,-4,-1,3,-1,9,2,6
1537921685246942,-98,-27,-6,-7,1,4,-12,-34
1537921685246942,30,9,-1,-4,-2,1,0,-2
1537921685260905,-4,-5,-2,-2,-2,2,0,0
1537921685260905,11,-6,-3,-5,-2,-5,0,8
1537921685267886,23,7,3,4,2,6,4,12
1537921685267886,-11,2,0,-1,0,-2,0,-8
1537921685283843,-2,1,0,2,1,7,-3,-2
1537921685283843,-15,-5,-3,-1,-3,-8,-1,5
1537921685285838,15,2,-2,2,0,-3,0,5
1537921685285838,-2,-3,-3,5,1,1,-2,-5
1537921685297806,19,5,1,-9,-4,-2,1,4
1537921685297806,-16,-7,0,4,0,-10,-2,-6
1537921685306782,8,3,2,0,-3,4,2,4
1537921685306782,8,3,1,0,0,2,-1,-3
1537921685320745,-21,-3,-1,3,0,-1,-4,-3
1537921685320745,6,-6,-2,-4,-2,-5,-3,-2
1537921685327725,0,-5,-2,-1,-1,1,-3,1
1537921685327725,-1,1,0,-1,0,1,-1,3
1537921685343683,6,-3,-1,3,0,0,0,-2
1537921685343683,-7,-1,-3,-3,-2,-1,-2,-3
1537921685345678,14,6,2,-3,-1,0,2,7
1537921685345678,-8,-1,1,-1,-1,1,-1,0
1537921685357646,10,3,0,2,3,-1,-1,-3
1537921685357646,-11,-5,-3,-3,-2,1,-1,-1
1537921685366622,13,3,-1,1,0,4,0,0
1537921685366622,-7,-1,-4,-2,-1,-3,-1,-3
1537921685381582,4,0,0,-2,1,1,-2,0
1537921685381582,-4,-4,-3,-1,-1,0,1,1
1537921685389561,4,4,3,1,-1,0,-2,-1
1537921685389561,-2,-5,0,0,-1,-2,-2,-1
1537921685404521,1,1,-3,1,1,0,-1,0
1537921685404521,-2,-1,0,-3,-1,0,0,0
1537921685405518,11,2,-3,-2,-2,-2,0,1
1537921685405518,-9,-5,0,-1,-1,1,-2,-2
1537921685417485,17,8,1,1,-2,0,0,1
1537921685417485,-14,-7,-2,0,-1,2,-1,0
1537921685426462,-8,2,3,2,2,1,0,1
1537921685426462,16,4,1,-2,1,-3,-4,-3
1537921685440425,-1,-3,1,0,0,2,-1,1
1537921685440425,10,2,1,0,0,-1,-2,-4
1537921685447406,-17,-2,-2,0,0,0,1,1
1537921685447406,13,-5,-4,-3,-3,-1,-2,0
1537921685464360,-4,-1,-1,-2,-2,-3,-2,-4
1537921685464360,-23,3,0,2,-2,1,0,-2
1537921685465358,5,-4,0,-1,0,0,1,0
1537921685465358,-8,-1,-1,0,-4,-1,0,0
1537921685477325,5,5,0,-1,0,-1,0,-1
1537921685477325,-3,-3,0,-1,-1,0,-2,1
1537921685486302,12,7,1,-2,-3,-1,0,-2
1537921685486302,-2,0,0,-1,-1,-1,0,2
1537921685501262,15,0,-1,-2,-2,-2,1,2
1537921685501262,-1,-1,-1,1,0,-1,1,-3
1537921685507246,-34,-16,-3,-4,1,-3,-3,2
1537921685507246,-45,-9,-1,3,1,0,1,-16
1537921685523203,59,10,1,9,13,20,15,10
1537921685523203,-52,-5,-6,4,13,-5,-28,-5
1537921685524202,19,31,-12,0,15,22,27,11
1537921685524202,-54,-41,34,13,-18,-8,-22,-19
1537921685546142,20,53,-32,-44,-68,-44,-13,9
1537921685546142,14,-88,53,16,14,19,17,-12
1537921685546142,55,-88,-41,-22,-25,-39,53,41
1537921685546142,35,-31,-28,21,74,61,39,41
1537921685562099,-108,-92,66,-1,-35,-46,-85,-96
1537921685562099,24,32,22,-12,-59,0,63,51
1537921685568083,24,104,4,29,98,94,64,56
1537921685568083,-6,-49,-21,-30,-60,-46,-26,-71
1537921685583043,38,12,-47,16,86,0,66,55
1537921685583043,16,49,-17,13,-44,16,-7,1
1537921685584041,-96,-128,33,-20,-32,-80,-82,-54
1537921685584041,17,31,4,8,66,69,21,35
1537921685605982,-12,32,-7,15,69,47,22,-20
1537921685605982,-8,-10,-14,-12,-2,-40,-3,6
1537921685606980,46,48,-7,6,5,25,24,21
1537921685606980,3,29,9,-8,-49,-41,-45,8
1537921685621939,-19,-34,12,-4,-25,2,-8,-6
1537921685621939,25,31,-20,-2,28,9,1,-8
1537921685627923,-6,2,4,1,-38,-13,-30,-27
1537921685627923,4,3,1,-10,-17,-20,2,-13
1537921685642883,4,3,3,7,8,21,8,16
1537921685642883,11,-7,-10,-9,6,0,-3,-6
1537921685643881,-1,30,4,-4,-21,-18,-35,-18
1537921685643881,36,21,9,11,11,0,8,20
1537921685665822,-13,5,-7,0,-5,2,10,9
1537921685665822,-12,8,-4,-8,-8,-14,-25,-8
1537921685666819,-49,-12,6,5,-1,-5,-3,-15
1537921685666819,87,34,-7,-14,4,13,10,23
1537921685681780,-9,-1,5,12,-15,-7,8,12
1537921685681780,18,1,1,-4,-5,15,-6,3
1537921685687763,-94,-16,-14,-9,7,-68,-31,-67
1537921685687763,0,28,7,12,6,-16,36,25
1537921685702723,38,8,5,-16,-21,-47,-24,8
1537921685702723,19,0,-3,-16,13,62,20,14
1537921685709704,24,18,8,-7,-24,7,15,32
1537921685709704,-49,-45,-15,11,26,93,-9,-20
1537921685725662,13,24,-9,-35,-29,-100,-29,-26
1537921685725662,4,-21,1,26,12,-3,10,-6
1537921685726660,-47,-24,-13,-15,-13,19,-26,-46
1537921685726660,40,7,5,-8,-5,20,3,4
1537921685741619,37,6,8,14,15,60,18,27
1537921685741619,-25,-1,-4,-5,4,-2,-2,13
1537921685747604,-27,-7,-2,2,1,-13,-7,-8
1537921685747604,-25,18,1,10,-5,-46,-17,-27
1537921685762564,60,4,-3,2,-2,26,10,13
1537921685762564,21,1,3,2,1,-31,-14,-5
1537921685770542,22,14,7,-6,2,13,10,25
1537921685770542,-78,-16,-11,-7,-10,-22,-7,-26
1537921685785502,-19,-10,-2,6,-3,11,-4,-4
1537921685785502,-25,-4,0,-2,5,-10,-4,-8
1537921685786499,41,9,1,6,8,28,5,17
1537921685786499,-4,0,-2,-7,-8,-23,-3,5
1537921685801459,-8,-10,-1,10,7,12,0,-2
1537921685801459,-15,-49,-12,7,34,19,-9,-5
1537921685807443,34,59,-3,2,15,-4,-7,6
1537921685807443,2,17,0,-3,10,-13,41,56
1537921685822403,-14,18,-5,-6,-15,33,-30,-19
1537921685822403,-21,-107,32,0,-34,-61,21,13
1537921685830382,121,103,-82,0,73,20,18,112
1537921685830382,-59,-88,92,0,-25,-28,-40,-84
1537921685845341,-19,78,-9,-15,7,31,45,103
1537921685845341,51,120,-50,8,23,4,32,76
1537921685846339,-80,-102,95,-9,-128,-119,-92,-29
1537921685846339,57,75,-48,-2,52,34,118,50
1537921685861299,7,47,-40,-4,66,37,-27,-8
1537921685861299,-26,28,23,34,29,39,-24,10
1537921685867283,38,15,-4,10,62,57,69,-29
1537921685867283,-12,42,-13,5,-2,-44,-58,-13
1537921685882243,-11,-99,-10,-31,-25,-25,70,-20
1537921685882243,32,12,-22,2,79,25,-56,-62
1537921685890222,5,46,-42,7,50,39,-65,-56
1537921685890222,-15,-98,63,-25,-100,-75,-18,-2
1537921685906179,20,-43,8,13,44,8,25,29
1537921685906179,-6,-15,7,-9,2,-2,-6,-10
1537921685906179,-7,-103,-7,-2,7,22,23,-15
1537921685906179,10,-1,-45,1,14,20,-12,8
1537921685921139,-9,15,13,6,-47,-16,-23,-4
1537921685921139,-9,-15,9,-14,-41,-15,6,-8
1537921685928121,-15,-12,12,-3,-11,25,25,5
1537921685928121,12,48,-13,6,-1,10,10,29
1537921685943081,-44,7,25,7,-2,31,-15,-19
1537921685943081,-42,-22,1,18,-6,-41,-7,-39
1537921685950062,37,37,4,-6,-17,-8,27,52
1537921685950062,-84,-11,-9,-12,22,60,-18,-32
1537921685966019,32,-44,-11,34,-14,-60,-20,-51
1537921685966019,-61,4,-8,2,-20,-15,1,4
1537921685967017,58,12,14,-6,-10,56,11,19
1537921685967017,3,-25,-3,-3,17,-15,7,21
1537921685981977,71,23,23,9,6,10,3,32
1537921685981977,86,24,-4,-9,-18,39,14,22
1537921685987961,-90,-35,-3,17,-7,-85,-12,-27
1537921685987961,43,3,-11,-8,7,45,-4,-5
1537921686002920,-14,-2,-7,-2,-6,-4,-2,-13
1537921686002920,33,20,6,-16,-18,-11,-3,13
1537921686009902,13,-10,6,-5,-4,2,12,9
1537921686009902,5,1,-10,4,-2,-5,-5,-4
1537921686025859,-28,-2,-2,-6,-12,-25,-3,-4
1537921686025859,1,2,6,-14,-2,3,9,2
1537921686026857,23,0,7,8,1,12,4,18
1537921686026857,-13,4,-8,8,-4,-18,0,-10
1537921686041817,-21,-7,-1,-8,-1,17,-5,-7
1537921686041817,-8,-3,0,-6,0,1,4,12
1537921686047801,1,-4,-3,4,-3,3,2,-10
1537921686047801,43,22,-1,-13,-11,-7,-8,7
1537921686062761,-5,-22,-3,8,2,-1,0,12
1537921686062761,-12,0,2,-4,-4,0,-2,-31
1537921686069742,6,-3,2,-2,-8,-13,0,7
1537921686069742,20,8,1,0,1,0,5,12
1537921686085699,-13,-5,-2,-2,1,2,-3,-6
1537921686085699,-10,6,-3,-2,-4,-8,1,-5
1537921686086697,7,2,2,-4,-2,10,1,-7
1537921686086697,-2,-8,-2,8,3,0,2,11
1537921686101657,-10,3,-1,4,0,3,-1,-7
1537921686101657,12,-4,-5,-13,-9,-4,-2,-3
1537921686107641,-32,0,2,3,0,2,2,5
1537921686107641,17,0,-6,-3,-3,-5,0,-2
1537921686122601,-2,2,1,-2,-4,-6,-7,-13
1537921686122601,23,2,2,0,-3,0,1,1
1537921686130580,-50,-5,-3,-1,0,3,0,-10
1537921686130580,-3,-4,-4,1,-2,-5,-1,5
1537921686145539,17,4,4,-5,-1,3,0,0
1537921686145539,-1,-2,-5,-2,-1,0,0,5
1537921686146537,20,3,2,-8,0,-1,-2,-4
1537921686146537,-6,1,0,20,2,-1,-3,-2
1537921686161496,-3,2,-1,-12,-3,-2,-2,1
1537921686161496,-20,-5,-4,-3,-1,-2,-2,-6
1537921686167480,75,13,-4,2,-3,5,-1,6
1537921686167480,-20,-19,-2,-6,1,2,0,-1
1537921686182440,-56,-7,1,2,2,23,-3,-8
1537921686182440,26,14,1,4,-2,-31,2,7
1537921686190419,-27,-15,-3,-3,-1,-1,-2,-10
1537921686190419,-8,5,2,-6,0,2,1,2
1537921686205379,29,2,-4,-6,-3,1,0,3
1537921686205379,-43,-8,0,-7,1,9,-1,-8
1537921686206376,19,1,-1,6,-2,-2,0,4
1537921686206376,23,3,-2,-8,-2,-7,-1,2
1537921686221337,-27,-7,-1,18,-1,-9,1,0
1537921686221337,7,2,1,-13,-2,5,3,3
1537921686227321,16,5,3,8,1,-9,-2,-3
1537921686227321,-4,-1,0,-2,-2,2,-1,-2
1537921686242281,2,2,-2,-7,-1,-4,1,1
1537921686242281,9,-2,-3,-6,-2,2,-2,0
1537921686250261,-12,-4,-1,6,1,3,1,-5
1537921686250261,-11,4,1,1,-1,-2,-2,-1
1537921686266218,-9,-5,0,-8,-1,-5,0,0
1537921686266218,2,-2,-2,6,0,1,1,0
1537921686266218,-18,-2,-2,-3,-3,-1,-1,-3
1537921686266218,13,5,2,0,-2,-2,-2,-1
1537921686280182,-4,-2,-1,-3,0,-3,1,3
1537921686280182,19,-2,2,5,0,2,-5,-5
1537921686288158,-46,-3,-2,0,0,2,-1,-6
1537921686288158,36,-1,-4,-3,-1,0,1,2
1537921686303118,12,6,2,-4,-3,-2,-1,0
1537921686303118,2,3,2,3,-1,2,-1,1
1537921686310099,-7,0,-3,-6,-1,-3,1,0
1537921686310099,-9,0,2,1,0,-4,-2,-5
1537921686326057,-4,-2,-3,3,1,-3,-2,-1
1537921686326057,-4,2,0,4,0,0,0,0
1537921686327054,30,6,2,-2,-1,-3,-1,4
1537921686327054,-14,-4,-3,-7,0,-1,-2,-1
1537921686340020,4,10,4,7,-2,-1,-1,-1
1537921686340020,-2,-3,-4,-3,0,0,-1,0
1537921686347998,3,-1,0,4,1,1,0,-1
1537921686347998,13,5,1,-3,-1,-2,0,2
1537921686362958,-9,-7,-2,-4,0,0,-2,-1
1537921686362958,-1,1,0,-2,0,0,1,-1
1537921686369939,4,2,0,1,-1,-2,0,-2
1537921686369939,-3,1,1,5,2,-1,-1,-3
1537921686385897,1,-1,1,-7,-1,-1,0,-1
1537921686385897,11,4,2,4,1,0,-1,2
1537921686386894,9,-9,-5,-11,-5,2,-3,-1
1537921686386894,-40,8,0,4,-2,0,-1,-3
1537921686399859,31,-4,-1,-4,-1,-2,0,0
1537921686399859,-26,-4,-3,-1,-1,2,0,-1
1537921686407838,10,6,0,1,1,-4,0,1
1537921686407838,3,-3,0,3,-2,0,-2,1
1537921686422798,-1,-2,-1,-1,-2,-1,-3,-2
1537921686422798,6,0,0,-3,-4,2,-2,1
1537921686429779,1,1,1,-3,0,0,0,0
1537921686429779,2,-2,-2,7,2,1,-2,3
1537921686445737,-13,-2,-1,2,1,-1,1,-1
1537921686445737,-9,-2,-2,-4,-1,-2,-2,-3
1537921686446734,-5,-2,-1,-5,-1,1,-1,4
1537921686446734,1,-2,1,3,0,-2,-1,-4
1537921686459699,17,5,1,0,1,0,-1,2
1537921686459699,-14,-5,1,-1,-1,0,-2,-4
1537921686467678,-2,-2,-2,-2,-2,-2,-1,-1
1537921686467678,17,-2,-2,-4,-2,-1,0,3
1537921686482638,-6,-4,0,5,2,-1,-2,-4
1537921686482638,-4,0,0,-2,-2,-2,0,-3
1537921686490617,-17,0,0,1,1,1,1,1
1537921686490617,-7,-7,-1,-2,0,-1,-2,-4
1537921686514553,0,3,-1,-3,-1,0,-1,-2
1537921686514553,9,1,-2,1,0,0,-2,0
1537921686514553,1,0,-1,-2,-1,1,-1,-1
1537921686514553,3,-2,-2,-3,-3,0,0,1
1537921686520537,-7,0,-1,-4,-4,-2,1,-2
1537921686520537,2,1,-2,1,0,-3,0,2
1537921686527518,9,1,0,0,2,-1,0,-2
1537921686527518,-9,-1,0,-2,-3,3,0,0
1537921686542479,-8,-4,-3,-2,-1,-2,-1,-3
1537921686542479,0,-1,0,4,0,0,0,-1
1537921686550457,-3,-1,2,-1,-1,-1,-1,-1
1537921686550457,5,3,-1,-1,0,-3,1,-2
1537921686565417,-14,-1,0,-1,0,-1,-1,-3
1537921686565417,12,3,2,-12,-2,-1,-1,0
1537921686566415,-11,-8,-4,20,3,-1,-2,-2
1537921686566415,9,-2,0,-4,-2,1,-2,0
1537921686580377,11,1,1,1,0,0,0,1
1537921686580377,-13,3,-2,0,0,0,-1,-1
1537921686587358,2,0,-1,-6,-2,1,-2,-1
1537921686587358,4,-1,-3,-2,0,-2,-1,2
1537921686602318,10,0,-3,-1,-1,-2,0,0
1537921686602318,-20,-9,-1,4,1,0,0,-2
1537921686610297,6,1,3,-1,-2,-2,1,0
1537921686610297,-2,-5,-4,-5,-4,-1,-2,-2
1537921686625257,1,-1,1,-4,0,0,0,2
1537921686625257,5,3,5,5,-1,0,-1,2
1537921686633235,6,0,-2,-2,-1,-3,0,0
1537921686633235,-17,-1,-2,-2,-1,-1,-1,0
1537921686640217,4,2,-1,-1,1,-1,0,0
1537921686640217,-13,-5,-4,1,-1,1,0,-4
1537921686647198,17,5,3,0,2,-1,0,6
1537921686647198,8,3,-1,-1,-2,-1,-2,-6
1537921686662158,-48,-11,-2,-1,-1,0,1,-3
1537921686662158,25,0,-6,-1,-2,-3,-2,-2
1537921686670137,-3,3,4,-2,-1,-1,0,-3
1537921686670137,6,1,3,1,0,-1,2,3
1537921686685098,10,2,0,3,-1,-1,-1,2
1537921686685098,-5,0,-2,-6,-2,-1,-2,-1
1537921686693076,-26,-8,-5,7,-1,1,-2,-3
1537921686693076,15,4,-3,-4,0,-3,-2,-2
1537921686700057,-5,0,-1,-2,-2,1,-2,-3
1537921686700057,-3,4,4,0,-1,-2,-1,2
1537921686708036,16,0,-2,0,-3,1,-1,2
1537921686708036,-8,1,0,1,-1,0,-1,0
1537921686722997,5,-2,-2,0,0,-2,0,-2
1537921686722997,2,-4,1,2,1,0,1,-1
1537921686729978,-7,-1,-3,-7,-2,-1,-2,-5
1537921686729978,-2,-1,1,1,0,1,-2,-1
1537921686744937,-31,-6,-3,-2,-2,0,1,-3
1537921686744937,10,-1,-1,-1,-2,-1,-2,0
1537921686753914,8,-1,-1,-1,1,-1,-1,-1
1537921686753914,-13,-4,-2,-6,-2,1,-1,2
1537921686767876,17,3,2,4,0,-2,-2,-4
1537921686767876,-1,0,2,2,0,-1,-1,0
1537921686768873,-4,1,0,-2,-2,0,-1,-1
1537921686768873,1,2,-1,-4,1,0,0,-1
1537921686782836,9,-3,-2,-10,-5,-2,0,-2
1537921686782836,0,3,-1,6,0,0,1,-1
1537921686789818,-14,3,2,-3,0,-2,0,0
1537921686789818,18,2,0,10,2,-2,2,0
1537921686804777,3,0,-2,-9,-3,0,-1,-1
1537921686804777,-6,-2,-1,-5,0,-2,0,2
1537921686813753,40,3,0,3,0,-2,0,8
1537921686813753,-49,-5,0,1,1,-1,-1,-14
1537921686836692,41,13,0,8,3,-2,2,18
1537921686836692,6,-4,0,-2,3,-13,-1,-6
1537921686837697,-70,-7,-8,5,-5,5,-9,-24
1537921686837697,17,2,2,-16,0,-2,3,7
1537921686842683,9,1,1,9,-2,-2,-1,-4
1537921686842683,17,3,-1,-9,-2,-5,0,8
1537921686850654,20,2,3,-7,-3,-17,1,9
1537921686850654,42,-4,-3,1,-4,13,0,8
1537921686865614,-33,7,-6,-3,1,5,0,-6
1537921686865614,23,1,-4,1,3,0,-7,6
1537921686873593,-92,-22,-3,-4,-3,-15,2,-32
1537921686873593,9,1,-1,3,1,-1,-4,-1
1537921686888553,31,3,3,-5,-4,0,2,6
1537921686888553,37,7,3,2,4,15,4,14
1537921686888553,63,-2,1,-7,0,14,-2,25
1537921686888553,-98,-6,-6,1,-3,-21,-15,-32
1537921686902516,-78,-18,4,16,25,16,13,-8
1537921686902516,35,53,-38,-10,-17,-24,-67,-29
1537921686910494,34,-16,22,-19,-25,-36,-22,-3
1537921686910494,16,-61,-10,21,25,37,39,33
1537921686925454,-24,-46,11,-2,37,6,-9,30
1537921686925454,47,-86,-18,-14,-63,-40,38,-25
1537921686933433,-17,-94,19,18,79,30,43,16
1537921686933433,41,-26,-49,-7,50,-4,-106,-31
1537921686948393,-38,-44,66,-38,-78,-44,94,71
1537921686948393,23,71,51,20,-10,-5,21,40
1537921686949390,62,-28,-69,50,54,90,10,61
1537921686949390,-56,92,17,-89,-89,-89,-5,-128
1537921686962356,22,-63,11,42,86,0,-68,32
1537921686962356,-24,9,-52,-6,86,63,89,-17
1537921686970334,-41,126,48,-53,-100,-95,-102,-50
1537921686970334,89,-9,-19,24,119,78,61,89
1537921686985294,65,-2,-93,-30,9,-50,-44,-101
1537921686985294,-117,-61,101,14,-22,-36,9,11
1537921686993273,11,-12,-31,50,119,60,-24,-32
1537921686993273,-6,-24,-8,5,-8,58,80,-25
1537921687008233,15,100,17,-9,-58,-62,-55,-37
1537921687008233,-4,-21,-25,-4,19,44,-25,-32
1537921687009231,2,-9,-3,-8,48,-2,29,-31
1537921687009231,-11,-28,16,-11,-128,-71,-34,-18
1537921687022196,-19,1,2,22,-29,43,28,-24
1537921687022196,-12,35,-14,9,-14,12,-3,-2
1537921687030174,-9,21,16,-21,-45,-11,-8,-2
1537921687030174,-14,15,15,12,39,-8,15,10
1537921687045134,4,-19,-21,2,21,29,27,19
1537921687045134,-17,2,-3,-13,2,-15,-40,46
1537921687053113,4,-4,2,-26,-32,-16,35,40
1537921687053113,-4,-27,5,36,37,12,-1,40
1537921687068073,9,33,-3,-17,-3,7,-6,31
1537921687068073,-11,-21,-2,-5,5,-14,-16,26
1537921687069071,-6,6,13,64,9,15,26,32
1537921687069071,1,25,-6,-19,-9,7,-19,21
1537921687083033,0,10,2,-9,-10,60,-3,-6
1537921687083033,-6,-5,0,-10,-6,-67,1,3
1537921687090015,-1,-11,-17,-6,-22,-21,10,14
1537921687090015,37,22,9,0,10,-2,-1,51
1537921687104975,-36,-16,-1,-24,-16,-86,-7,19
1537921687104975,-34,-12,-9,65,40,63,8,53
1537921687112954,79,27,0,-4,-24,-8,12,53
1537921687112954,-37,-4,10,8,7,6,-12,11
1537921687127913,6,5,-1,-2,9,-8,18,-14
1537921687127913,1,-6,-10,1,-4,0,-6,-57
1537921687128911,-84,7,2,-12,-42,-58,-11,-68
1537921687128911,29,9,7,-26,-4,-41,-1,-42
1537921687142874,35,-1,-9,-6,9,55,12,-30
1537921687142874,-45,-6,0,-7,4,13,-8,-69
1537921687149855,-12,-6,-3,46,21,24,6,-20
1537921687149855,-7,-5,0,-29,-16,-14,2,-4
1537921687164815,41,11,4,39,5,-7,-1,19
1537921687164815,-42,-19,-5,-69,-14,10,-15,-43
1537921687173792,25,9,-1,10,0,-12,1,2
1537921687173792,-47,-7,-6,6,-6,14,-1,-17
1537921687188751,29,11,9,16,9,4,-1,16
1537921687188751,99,12,6,6,2,8,10,33
1537921687188751,-111,-14,-10,-9,-5,4,-11,-51
1537921687188751,26,17,9,-13,1,-23,-5,11
1537921687202713,15,-4,-2,43,5,23,1,-4
1537921687202713,11,-2,-2,-7,1,-6,3,2
1537921687209695,23,2,1,-47,-14,8,3,11
1537921687209695,19,-5,-1,7,-6,15,2,11
1537921687224655,-49,-6,2,2,18,4,-7,-17
1537921687224655,25,-35,-4,22,35,8,12,17
1537921687233631,-25,75,-45,-37,-54,-17,-4,-4
1537921687233631,-46,-61,54,28,57,24,-22,-3
1537921687248591,9,30,-36,-3,-47,-2,4,9
1537921687248591,5,38,28,-33,-115,-41,-26,56
1537921687248591,82,51,-8,-21,86,35,22,-81
1537921687248591,-62,15,-4,20,-40,-1,2,35
1537921687262554,12,-25,-10,6,111,3,-11,-71
1537921687262554,-55,-67,47,-47,-79,-5,-7,-74
1537921687270533,95,-43,15,33,66,-20,20,127
1537921687270533,19,105,-28,-21,23,42,18,-33
1537921687285492,-12,-54,4,-35,-60,-94,-26,-27
1537921687285492,68,-17,-104,35,127,26,127,-15
1537921687293471,-61,-2,48,-45,-86,-14,-52,-60
1537921687293471,62,-19,31,50,103,18,-36,39
1537921687308431,-28,-53,-25,22,-61,29,-15,43
1537921687308431,-18,-46,33,-23,7,65,38,-8
1537921687309428,17,19,23,8,26,-10,-23,-1
1537921687309428,-1,17,-24,8,-70,-22,-1,-25
1537921687322394,-24,-29,30,-15,-3,7,30,-9
1537921687322394,16,17,-18,16,53,-6,-56,-65
1537921687330372,4,-17,-21,-29,5,5,0,-68
1537921687330372,-19,-7,8,0,-7,25,11,-115
1537921687345332,17,-6,-9,26,-22,-1,-4,3
1537921687345332,-18,35,-1,-53,-39,-22,-10,75
1537921687353310,-19,-25,-6,49,-9,30,17,84
1537921687353310,2,-30,-10,-41,-16,-13,19,72
1537921687368271,-4,34,-3,-32,13,-13,-5,35
1537921687368271,4,28,10,34,8,58,-8,32
1537921687369268,-20,-25,7,-3,7,-59,1,-16
1537921687369268,-8,-27,-25,20,-15,-22,3,0
1537921687382233,-2,31,9,7,13,-26,2,-25
1537921687382233,0,9,9,13,11,-4,-11,-3
1537921687390212,36,-28,-10,-23,-18,-7,7,28
1537921687390212,-24,3,0,5,-10,-24,4,32
1537921687405172,-22,3,-5,-11,27,34,2,66
1537921687405172,-27,0,0,17,5,-8,-6,81
1537921687413150,-76,-20,-4,9,-8,6,-7,93
1537921687413150,50,-4,-4,-15,-9,-7,4,127
1537921687428110,14,15,10,-10,2,1,7,63
1537921687428110,13,2,-6,-4,-4,-4,-9,-4
1537921687429108,6,6,0,3,-9,20,8,-37
1537921687429108,-12,-6,-6,-25,4,6,1,-70
1537921687443071,-5,-2,0,6,5,24,5,-68
1537921687443071,6,9,2,48,4,-32,-6,-65
1537921687450052,-4,-5,-4,-25,-4,10,10,-63
1537921687450052,-9,-7,6,17,4,32,5,-44
1537921687465012,27,10,3,-8,1,-19,1,-39
1537921687465012,-11,3,-2,-2,-1,-17,-6,-27
1537921687472991,1,-6,-4,3,-1,23,4,-18
1537921687472991,14,1,3,1,-1,-1,-2,-17
1537921687487951,-7,1,-2,1,0,18,5,-11
1537921687487951,-11,1,1,4,-1,-4,-8,-8
1537921687488948,8,-5,-5,-4,-4,1,1,1
1537921687488948,7,1,0,-2,-2,-10,0,0
1537921687502911,-9,3,3,-5,1,6,2,1
1537921687502911,-9,0,1,-4,1,-13,-4,3
1537921687509892,21,3,-3,1,1,7,1,5
1537921687509892,-4,-2,-2,17,3,-10,0,5
1537921687524852,-5,0,2,-34,0,10,2,11
1537921687524852,4,-1,-6,31,4,-6,-7,0
1537921687533828,1,-1,2,1,-2,5,-1,3
1537921687533828,-1,-2,-3,2,0,0,-2,0
1537921687548788,-3,3,2,-13,-3,1,1,2
1537921687548788,1,1,-2,-3,0,-5,-1,1
1537921687549786,0,-1,-1,-3,1,0,1,0
1537921687549786,-3,-1,-3,9,0,-8,-2,2
1537921687562751,6,2,0,-4,-2,4,-1,-2
1537921687562751,-4,0,-1,-18,-4,-5,-1,2
1537921687569732,-2,-4,0,4,0,2,-1,0
1537921687569732,0,-2,-3,-16,-5,-1,0,-2
1537921687584692,-2,0,2,7,1,2,1,-1
1537921687584692,-3,1,-1,-4,-3,-2,-2,1
1537921687593668,4,3,3,4,2,1,0,1
1537921687593668,2,-2,-1,-2,-1,-1,-1,-1
1537921687607631,-2,1,1,11,1,1,1,-3
1537921687607631,-2,-2,-1,-6,-2,-2,-3,2
1537921687615610,3,0,-6,-2,-2,1,-3,1
1537921687615610,1,1,-3,-6,-1,-3,0,-1
1537921687622591,2,0,3,9,3,5,1,0
1537921687622591,0,-3,-4,-9,-5,-2,-2,-6
1537921687630570,-2,-3,-2,-15,-2,-2,-3,-3
1537921687630570,-2,2,-1,2,-4,-1,0,1
1537921687645530,1,5,1,-2,6,3,-1,4
1537921687645530,1,-1,-3,-8,-3,-2,-2,3
1537921687653508,-1,0,1,3,0,-2,-2,3
1537921687653508,-1,-1,-2,-13,-3,-3,-1,0
1537921687667471,3,4,3,0,-1,-1,0,0
1537921687667471,-1,-1,0,-5,-2,-1,-2,-1
1537921687675450,0,-3,0,4,1,2,-1,-2
1537921687675450,-1,0,2,4,2,-2,-1,-1
1537921687682431,-4,2,-4,-2,-1,-1,0,-2
1537921687682431,0,0,2,3,0,-2,-3,-2
1537921687690410,1,-1,-1,3,-2,-1,1,0
1537921687690410,0,-1,2,-1,0,-1,-1,1
1537921687705370,-1,-3,-3,-2,-3,-1,-2,-2
1537921687705370,-2,1,1,-4,-1,-1,-2,1
1537921687713348,0,2,-4,10,2,-2,0,-1
1537921687713348,3,3,7,-1,2,2,-2,-3
1537921687727311,-2,-3,-2,-5,-2,-1,-3,-2
1537921687727311,-1,-3,-2,5,0,-2,-2,-1
1537921687736287,1,-1,2,6,0,1,-1,0
1537921687736287,-1,-1,-7,1,-2,-2,0,-3
1537921687751247,-3,-1,-1,-3,-4,-1,1,-1
1537921687751247,-1,-1,-2,-12,-3,-1,-1,0
1537921687751247,1,-2,0,16,7,-2,-2,-1
1537921687751247,0,1,-1,-8,-5,0,1,-2
1537921687765209,-2,1,1,-3,0,0,-1,2
1537921687765209,-2,-3,-5,-4,-4,-3,1,0
1537921687773189,1,6,6,-1,0,1,2,0
1537921687773189,-2,-1,0,0,1,-1,-2,-1
1537921687788148,-3,-1,-4,-5,-4,-2,-2,-2
1537921687788148,1,0,0,5,2,-1,0,-1
1537921687796127,-2,-1,-3,-12,-6,-2,-1,0
1537921687796127,1,3,2,12,5,4,0,0
1537921687811087,18,2,2,14,0,-3,0,-1
1537921687811087,-16,-1,1,1,2,-1,0,-5
1537921687811087,-12,1,-4,-12,-6,-1,-2,0
1537921687811087,-1,-1,0,1,-1,1,-2,0
1537921687825049,-4,-1,-4,0,-3,-5,-2,-4
1537921687825049,27,3,0,-4,-4,0,1,2
1537921687833028,-1,-2,-1,8,-2,-3,0,1
1537921687833028,8,-3,-1,-7,-2,-7,3,6
1537921687847988,-20,-9,-3,0,1,9,-3,-7
1537921687847988,-14,2,0,2,-1,-1,1,-1
1537921687855967,-7,0,2,-7,-1,3,3,4
1537921687855967,14,-9,-8,0,-3,-4,-6,-9
1537921687870927,29,2,-4,-2,1,-4,-2,6
1537921687870927,-41,-5,4,1,1,1,-3,-3
1537921687871924,37,1,1,0,-2,1,1,14
1537921687871924,-64,-7,-3,-2,0,-3,-5,-25
1537921687884889,-3,-3,-2,-3,-1,0,1,-2
1537921687884889,29,6,3,-2,-2,2,-1,11
1537921687892868,82,14,5,3,1,-1,8,28
1537921687892868,-94,-23,-8,0,-1,2,-12,-42
1537921687907828,17,4,-4,-9,-6,-1,0,-7
1537921687907828,39,6,2,13,6,4,0,-4
1537921687915807,-10,-9,-1,1,-2,-1,-3,2
1537921687915807,86,14,1,-7,-3,1,9,28
1537921687938745,-10,12,8,11,4,3,8,23
1537921687938745,49,-9,-10,-17,-7,-16,-1,6
1537921687939743,-95,-14,-1,10,5,9,-13,-33
1537921687939743,6,5,-7,-5,-2,6,-8,-43
1537921687944729,62,9,7,6,-1,-1,0,6
1537921687944729,47,3,4,1,1,6,8,16
1537921687953706,28,3,-4,-7,-5,-9,0,13
1537921687953706,-12,-5,0,-2,1,-2,3,13
1537921687967668,-13,8,11,7,4,-1,-2,-4
1537921687967668,-13,2,-3,-2,-3,3,1,6
1537921687976645,-38,-14,-8,-8,-2,1,-4,-18
1537921687976645,5,4,6,4,2,2,2,15
1537921687990607,26,0,-5,-7,-3,-4,-1,-1
1537921687990607,-28,-2,0,-2,0,0,-2,-11
1537921687998586,-12,4,0,-3,-1,-4,-1,-9
1537921687998586,35,6,7,4,-1,-5,2,15
1537921688005567,-10,-1,-3,-3,-1,-1,1,5
1537921688005567,-31,-8,1,0,0,-2,-3,-8
1537921688014543,-9,-4,-8,-6,-1,0,-3,-18
1537921688014543,-24,-30,-5,-1,0,-3,-6,-3
1537921688027508,-29,-6,-3,-5,-2,2,-4,-12
1537921688027508,15,11,1,3,-1,0,-4,-4
1537921688036484,38,15,3,-2,-1,-1,2,9
1537921688036484,26,9,8,5,2,2,3,16
1537921688050447,-16,-13,-6,-6,-3,0,-4,-7
1537921688050447,-4,-15,-34,-8,-3,-9,-13,0
1537921688059423,40,27,52,12,17,18,11,6
1537921688059423,108,59,-13,1,4,-11,-10,16
1537921688065407,-94,-48,-69,-23,6,-21,-47,-38
1537921688065407,-5,-9,83,18,-9,28,76,14
1537921688074383,22,-40,-43,3,47,40,11,5
1537921688074383,1,-40,3,-21,-90,-50,47,15
1537921688087348,28,125,54,8,6,2,20,1
1537921688087348,19,-73,-117,-11,80,50,-2,-62
1537921688096324,-57,-31,106,12,-93,-89,77,74
1537921688096324,9,30,-26,12,43,35,-62,-12
1537921688110287,2,-7,-98,-45,-61,-38,29,18
1537921688110287,0,127,32,38,63,-3,13,-3
1537921688119264,-24,-50,-26,-22,6,93,99,-12
1537921688119264,-9,58,104,7,-90,-103,-96,20
1537921688125247,17,-21,-13,11,72,78,40,26
1537921688125247,17,2,-25,-13,-45,-32,-19,-32
1537921688134224,23,-71,-16,18,55,9,0,-17
1537921688134224,-43,-83,1,7,40,42,-1,-25
1537921688148187,3,11,21,4,6,38,37,14
1537921688148187,-4,-9,9,-1,-7,16,5,74
1537921688164144,-1,27,-15,-14,-58,-75,-119,-28
1537921688164144,-10,3,-27,-7,21,15,49,-45
1537921688170128,14,-19,33,15,0,-21,-33,-28
1537921688170128,-22,-21,4,-10,-21,-7,-21,-16
1537921688179105,2,38,-21,-6,-7,-8,-28,-11
1537921688179105,-7,8,-11,0,25,15,19,15
1537921688185088,5,-14,13,10,-12,-12,-16,3
1537921688185088,-16,-18,14,-3,-30,-15,-13,10
1537921688194064,2,27,-15,-1,21,8,-4,-9
1537921688194064,2,-5,-18,0,8,16,13,9
1537921688208027,-3,-25,10,4,-10,-9,1,-2
1537921688208027,-42,-14,-6,-8,-6,-12,-3,-7
1537921688222987,11,22,-1,2,4,-3,-18,-7
1537921688222987,-3,-3,-17,-17,5,9,9,2
1537921688229967,0,2,7,8,-9,-16,-14,-5
1537921688229967,5,15,11,-3,-5,0,-8,-2
1537921688238944,23,18,-9,-1,1,1,-11,-8
1537921688238944,-56,-23,-7,3,-2,8,9,4
1537921688244927,2,-2,6,-25,1,0,4,1
1537921688244927,10,0,-4,14,-8,-38,-10,-3
1537921688253904,-16,-1,2,7,3,16,-9,-3
1537921688253904,-1,10,-4,-8,6,9,23,4
1537921688267866,42,-4,2,-3,-2,-10,-9,4
1537921688267866,7,-18,1,-8,-6,6,-3,9
1537921688276842,-10,12,0,22,19,-18,-9,3
1537921688276842,-33,1,-15,1,-8,6,2,-20
1537921688289808,47,21,11,-29,-3,15,-10,4
1537921688289808,-49,-13,9,55,13,-13,4,-10
1537921688298783,75,4,-6,-23,-2,16,-4,10
1537921688298783,9,1,-7,-3,-3,-33,-4,-16
1537921688304768,13,-5,-3,2,0,-1,6,9
1537921688304768,-61,-4,3,-22,-7,12,-4,-8
1537921688313744,92,17,-9,-15,-6,0,1,5
1537921688313744,-62,-1,7,45,19,18,3,-4
1537921688327706,52,0,-3,22,7,-9,-11,-8
1537921688327706,-10,-5,4,5,2,-19,1,14
1537921688336682,23,14,-5,7,-4,20,-1,-6
1537921688336682,9,-9,-3,-28,-5,0,1,5
1537921688350645,-19,-3,0,6,-1,-13,2,-8
1537921688350645,18,6,1,-8,-3,5,-5,5
1537921688358623,-52,-7,-4,-12,2,-11,5,3
1537921688358623,73,3,1,6,11,21,-13,22
1537921688365605,7,-29,-15,17,2,-5,11,-15
1537921688365605,-40,36,-48,-40,4,29,-6,-3
1537921688373584,-27,37,52,21,-37,-17,71,92
1537921688373584,39,41,-40,-19,4,25,12,-48
1537921688387546,-61,30,111,55,42,15,43,-34
1537921688387546,85,101,-119,-37,-5,27,43,102
1537921688396523,-105,-123,94,-15,-88,-66,61,-81
1537921688396523,76,61,40,27,35,28,-24,115
1537921688410485,-10,91,-103,-30,-25,-23,2,18
1537921688410485,-31,-85,127,18,-20,69,37,-34
1537921688419461,22,47,-55,51,127,92,56,78
1537921688419461,-39,-97,-70,-72,-105,-110,14,-84
1537921688425445,-16,-89,10,-39,-76,-5,-13,-24
1537921688425445,46,4,-8,8,6,-80,-50,7
1537921688434421,-24,-32,-25,3,39,-10,-67,-24
1537921688434421,-5,-50,-37,-16,11,97,30,-9
1537921688447386,-26,-109,45,14,12,-16,-51,-24
1537921688447386,-7,-19,-4,-12,-23,0,49,46
1537921688456362,14,55,0,-2,-56,28,-7,-63
1537921688456362,11,23,10,20,34,-37,-20,7
1537921688470324,-14,-4,-31,-13,-1,19,-1,35
1537921688470324,18,4,28,-2,-28,-30,-10,-8
1537921688479301,-10,-9,-11,6,31,-6,-46,-22
1537921688479301,-16,3,-1,5,2,11,-8,5
1537921688485285,-5,35,13,1,-10,-2,0,13
1537921688485285,4,-19,14,11,31,3,-35,-38
1537921688494261,1,-3,-53,-19,4,7,-21,-6
1537921688494261,-6,6,24,3,-16,-22,18,-3
1537921688507226,-1,10,-1,-7,0,-14,-9,2
1537921688507226,3,2,-10,16,13,10,-3,-20
1537921688516202,-8,-10,-15,-16,-28,-21,1,-2
1537921688516202,19,17,28,-1,-9,-12,-8,16
1537921688531163,-9,13,-3,20,20,16,13,4
1537921688531163,2,-5,-12,-12,-5,3,-5,-17
1537921688538144,36,18,8,-12,-19,-18,-9,5
1537921688538144,-77,-32,8,8,19,2,-9,-12
1537921688545125,21,4,-25,-19,8,11,2,0
1537921688545125,23,5,2,12,-8,11,7,-10
1537921688554102,5,-3,-1,-10,-9,-55,-23,-4
1537921688554102,-5,5,1,6,8,3,6,4
1537921688568064,-1,1,-7,-5,-8,3,16,9
1537921688568064,-16,-4,4,-7,-6,-7,-9,-8
1537921688577041,25,10,0,-4,5,18,1,2
1537921688577041,11,3,0,6,0,1,4,2
1537921688591004,-19,2,3,2,-2,-12,-3,0
1537921688591004,26,3,-1,-3,5,0,-4,-5
1537921688597985,-33,0,-7,3,3,11,-6,-8
1537921688597985,7,1,4,1,-5,-5,-1,-2
1537921688613941,5,2,1,3,1,5,-4,-3
1537921688613941,-4,-1,-6,-2,3,-6,-1,-6
1537921688615936,-7,-6,-4,-9,-6,-1,-1,-3
1537921688615936,1,8,11,3,1,-4,-2,1
1537921688627903,10,10,1,7,4,4,6,12
1537921688627903,2,-11,-11,-5,-3,-4,-5,-8
1537921688636880,-11,-2,-3,-5,-5,-2,-4,-1
1537921688636880,17,8,7,3,5,5,2,1
1537921688650842,-22,-6,-7,2,3,5,-1,-1
1537921688650842,-8,-7,2,-2,-3,-7,0,0
1537921688657824,6,-7,-3,-3,-2,3,-3,4
1537921688657824,-16,-1,-2,2,2,4,-4,-20
1537921688673781,7,6,3,2,-1,-2,0,-4
1537921688673781,-19,4,1,-2,-5,-3,-3,-6
1537921688675776,-9,-6,0,1,1,2,-1,-9
1537921688675776,38,1,0,-2,-3,1,3,24
1537921688687744,-5,-9,-7,-2,0,-4,-4,-8
1537921688687744,9,10,-1,-2,1,-2,-2,-9
1537921688696720,10,1,-3,2,-1,-1,-2,-2
1537921688696720,-3,3,-2,-1,-2,-3,1,4
1537921688710682,-10,9,6,2,-1,2,1,4
1537921688710682,49,-14,-8,-6,-2,-2,0,12
1537921688717664,-65,1,0,2,0,-1,-4,-17
1537921688717664,11,1,-2,-2,-1,-1,-2,8
1537921688733621,1,10,2,2,1,2,1,2
1537921688733621,6,5,0,-1,1,-3,-3,-2
1537921688735616,3,-11,-3,-4,-1,-1,0,4
1537921688735616,0,6,2,1,1,-1,0,-5
1537921688747584,18,-3,-10,-3,1,-2,2,4
1537921688747584,-30,-7,3,1,-4,1,0,-9
1537921688756560,17,3,-1,-2,-1,0,-1,5
1537921688756560,-23,-4,-1,-1,-1,0,-2,-1
1537921688770522,24,0,-3,-2,-1,-3,2,4
1537921688770522,-1,-1,1,1,0,-3,-2,-3
1537921688777504,-10,-13,-5,-4,-4,-5,-2,-1
1537921688777504,2,3,0,1,0,4,1,-3
1537921688794459,-18,-3,0,2,-2,-1,0,0
1537921688794459,-7,-3,-4,-3,0,-1,-1,-1
1537921688795456,43,16,0,-2,-2,4,3,7
1537921688795456,-21,-5,2,-1,1,-1,0,3
1537921688807424,35,4,-4,-5,-5,-25,-11,-21
1537921688807424,-53,-2,2,2,-1,-4,2,-3
1537921688816400,0,10,0,-1,-1,2,-3,-5
1537921688816400,39,-3,2,0,-1,-6,3,7
1537921688830362,-12,1,5,5,2,11,1,-3
1537921688830362,11,4,0,1,0,2,2,-4
1537921688837343,0,-11,-4,-3,-1,-2,1,4
1537921688837343,-4,6,-3,-1,0,4,-1,-7
1537921688854299,-14,-8,-1,-1,1,-8,-1,5
1537921688854299,9,3,2,1,-1,-1,-4,1
1537921688855295,-7,0,1,0,-3,2,0,-2
1537921688855295,0,-3,-3,-1,-1,-1,-4,-1
1537921688867263,-9,-1,0,-1,1,4,3,-2
1537921688867263,5,6,0,-1,-1,0,1,-1
1537921688876239,1,-9,-2,-2,0,-2,0,0
1537921688876239,16,8,1,-1,0,0,-1,-1
1537921688891199,13,-9,-1,-2,0,1,3,5
1537921688891199,-44,-5,2,1,1,2,-2,-6
1537921688897183,-38,4,-3,-2,1,0,-3,-5
1537921688897183,-41,-18,0,0,-2,-1,-4,-15
1537921688914138,24,3,-5,-5,-3,6,-2,0
1537921688914138,16,-19,0,-1,1,1,0,5
1537921688915135,-9,-1,1,-2,-3,-3,2,8
1537921688915135,73,14,1,3,1,1,1,6
1537921688928101,-100,-18,-1,-1,1,-6,-4,-15
1537921688928101,10,0,-5,-2,-3,-1,-6,-6
1537921688936079,51,7,3,2,2,-11,-1,5
1537921688936079,-19,-8,-1,-3,-2,2,1,-2
1537921688972981,14,-2,1,-3,-4,2,1,6
1537921688972981,31,11,-3,3,3,-3,0,6
1537921688982954,-9,-14,3,4,3,-1,-4,-7
1537921688982954,28,23,-2,-1,-1,-7,-3,4
1537921688996917,44,-3,-2,-1,1,2,-2,4
1537921688996917,-69,-13,-7,-7,-1,3,-6,-19
1537921688997914,34,14,3,-2,-1,1,-1,-1
1537921688997914,-5,-10,1,0,0,-1,0,0
1537921689011877,-2,14,-2,-1,1,0,-1,6
1537921689011877,-54,-20,-7,-1,-2,-3,1,-5
1537921689012874,19,5,6,5,-1,-1,1,-3
1537921689012874,-19,-13,-6,-6,-7,-9,-5,-1
1537921689017861,85,18,0,-1,-5,4,9,14
1537921689017861,-20,-21,-4,-3,-3,2,0,-11
1537921689018858,-14,-9,-5,-4,-7,-4,-2,1
1537921689018858,-9,-1,-2,2,0,8,1,-20
1537921689033818,26,8,6,3,-2,-4,25,10
1537921689033818,47,-1,2,1,-6,-6,-13,11
1537921689035813,-39,-1,-7,4,18,9,-4,-10
1537921689035813,-31,-16,-3,-7,-19,-8,2,5
1537921689047781,-39,-17,-4,-3,-13,-2,-4,-1
1537921689047781,-17,4,1,-3,-16,-38,3,-1
1537921689056757,-57,-11,0,3,8,11,-5,-3
1537921689056757,23,3,7,28,48,44,15,13
1537921689070720,-10,3,-29,-17,-35,16,23,-3
1537921689070720,64,8,20,-8,-39,-38,-12,31
1537921689077705,-29,-19,-4,-5,-18,-5,39,-37
1537921689077705,36,-12,-13,-23,-23,-35,-36,14
1537921689093658,16,4,18,21,45,30,19,-15
1537921689093658,70,1,-70,11,69,49,11,8
1537921689095653,-5,-107,42,12,14,33,-48,32
1537921689095653,-1,68,2,-10,-53,-3,117,-44
1537921689107622,45,-32,23,7,7,-55,-58,50
1537921689107622,-10,4,9,-1,3,41,44,16
1537921689116597,80,63,-89,1,-8,-91,-62,90
1537921689116597,-66,-108,39,-16,-34,-24,-61,-63
1537921689130560,6,31,6,-13,15,-30,10,29
1537921689130560,-31,-78,-73,9,14,-7,6,-9
1537921689137541,-55,88,76,-25,-71,-5,-20,-61
1537921689137541,40,-32,-36,19,80,78,-63,14
1537921689153499,-55,-61,-46,2,-50,-53,-7,-26
1537921689153499,6,-16,51,18,105,89,-19,-2
1537921689155493,23,19,-62,-35,-80,-79,19,-14
1537921689155493,0,-42,12,-15,-22,-32,-28,17
1537921689167461,-17,6,26,2,45,67,-38,-14
1537921689167461,4,-3,-27,-19,-32,4,26,-13
1537921689182421,29,32,22,8,-17,3,11,0
1537921689182421,-13,79,4,8,21,10,1,23
1537921689190401,-15,-25,-16,4,5,-4,23,-4
1537921689190401,6,3,22,2,-23,-28,-42,4
1537921689197381,4,11,9,8,32,45,33,18
1537921689197381,1,-31,-2,2,-11,-19,12,5
1537921689214336,-9,10,-15,-6,5,24,6,-17
1537921689214336,-6,53,22,-8,-37,-31,-16,-6
1537921689215334,6,-36,3,3,23,11,-10,-15
1537921689215334,12,10,-19,0,11,4,33,24
1537921689227301,-34,-9,2,-8,-16,-13,-37,-22
1537921689227301,9,27,13,0,-7,-13,-1,1
1537921689236277,67,-24,-6,6,24,17,26,24
1537921689236277,-73,-11,-2,1,-1,-10,-19,-17
1537921689251237,-30,19,1,3,-7,1,7,-11
1537921689251237,21,-4,12,5,-15,-10,0,-1
1537921689257222,14,-23,-13,4,28,26,9,-5
1537921689257222,42,36,5,-6,-14,-27,2,25
1537921689274176,-54,-22,4,-38,2,10,-24,-12
1537921689274176,-83,-3,-16,31,-17,1,26,4
1537921689275173,22,-28,2,-21,-1,-16,-25,-20
1537921689275173,-37,5,1,4,11,19,14,0
1537921689287141,111,29,-1,-26,-9,46,21,18
1537921689287141,20,-20,-6,-12,-7,-61,-33,-5
1537921689296117,-128,-17,4,40,16,32,21,-12
1537921689296117,86,-4,-9,-14,-8,-74,-35,-13
1537921689311077,-35,-27,-9,-1,6,42,14,-4
1537921689311077,27,28,16,2,1,-1,2,11
1537921689318058,46,7,1,-1,2,18,1,5
1537921689318058,-37,0,0,10,5,14,18,14
1537921689334016,-58,1,1,-10,-3,-33,-9,2
1537921689334016,-44,-29,-11,13,-4,13,-9,-30
1537921689335013,43,23,4,-1,4,-13,4,8
1537921689335013,20,-12,-2,-2,-2,11,-3,-5
1537921689347978,-47,8,2,-13,-16,-10,5,2
1537921689347978,31,-5,5,-21,-12,4,3,5
1537921689356955,38,7,-3,19,16,-1,-3,2
1537921689356955,-59,-22,-5,0,-1,6,-6,-12
1537921689370918,28,-1,-1,3,-9,-7,-1,1
1537921689370918,14,3,4,-4,9,0,4,1
1537921689377899,-40,-6,-4,10,27,16,-6,2
1537921689377899,45,-23,-19,-3,28,48,52,32
1537921689393856,26,103,-15,-11,-79,-66,29,-19
1537921689393856,32,-69,30,22,73,16,-15,-50
1537921689395851,-29,107,9,-11,42,76,27,23
1537921689395851,-6,36,45,23,21,-36,-41,-17
1537921689407820,23,55,-95,4,48,59,81,-50
1537921689407820,-17,-90,112,-1,-128,-119,-16,39
1537921689416795,32,-7,-81,-7,27,-33,60,-5
1537921689416795,-10,113,-75,-14,31,83,-59,54
1537921689430757,-26,-78,109,15,-73,-85,3,-85
1537921689430757,37,68,-113,-11,123,25,-78,89
1537921689437740,-64,-128,-22,-39,-26,17,36,-128
1537921689437740,2,53,22,-18,-74,-45,-13,25
1537921689453696,25,-67,-58,18,78,68,-41,59
1537921689453696,4,34,-20,-32,-121,-41,59,26
1537921689459681,7,2,59,16,29,-7,-91,8
1537921689459681,3,-11,-32,-5,-18,-45,61,-43
1537921689467659,-3,-46,30,42,85,39,-20,32
1537921689467659,-27,85,15,-21,-28,32,2,-65
1537921689476635,44,99,-73,-44,-78,-46,-28,16
1537921689476635,7,-120,51,27,8,23,45,15
1537921689490597,-1,14,32,18,12,-22,-17,9
1537921689490597,1,-26,-31,4,53,35,8,-4
1537921689497578,-7,-36,-7,0,-24,-1,-3,18
1537921689497578,-10,14,21,1,1,3,-16,-19
1537921689513536,17,-16,-6,-4,-14,-29,-4,32
1537921689513536,-7,-10,-22,-8,8,32,-15,-21
1537921689520517,0,-8,35,7,-12,-6,4,14
1537921689520517,-6,-30,-1,12,-1,-22,-2,-2
1537921689527498,39,9,-18,-11,4,6,-15,6
1537921689527498,-80,0,-1,-23,-9,9,16,-24
1537921689536475,16,-5,34,45,13,-21,-6,13
1537921689536475,-91,-16,-10,-5,14,3,5,-10
1537921689550438,11,-10,-21,-10,-22,11,-5,-5
1537921689550438,28,14,14,7,8,-15,3,11
1537921689557420,-22,-39,0,-23,-6,9,4,13
1537921689557420,13,6,-13,1,4,20,-1,-6
1537921689573377,-1,16,10,-26,-18,-15,-1,5
1537921689573377,-3,-6,6,28,10,-9,9,1
1537921689580358,102,0,2,5,17,26,-6,23
1537921689580358,-10,16,-6,2,-15,-16,3,-20
1537921689596315,0,15,10,0,-5,-6,-9,-3
1537921689596315,30,4,-7,-1,8,8,12,-4
1537921689598310,-33,2,5,5,-7,-3,-2,1
1537921689598310,5,-4,7,-9,0,11,-1,-12
1537921689611275,-35,-21,-7,5,-1,-13,-5,2
1537921689611275,94,20,2,1,0,11,2,8
1537921689617259,-61,-16,1,-3,-3,2,5,6
1537921689617259,59,5,-2,-8,-5,-11,-6,-9
1537921689633216,12,-2,-4,6,1,1,-5,11
1537921689633216,-11,-13,6,2,-3,4,4,-13
1537921689640198,-36,-6,1,-5,-3,-9,-3,-7
1537921689640198,18,4,-3,-1,2,-1,2,25
1537921689664133,-31,-4,-5,3,-4,4,-3,-13
1537921689664133,22,12,4,1,0,4,2,4
1537921689665131,4,-17,-2,-3,-2,-15,-1,10
1537921689665131,17,3,-2,-1,1,7,-4,-25
1537921689671115,3,6,1,0,-4,1,2,-2
1537921689671115,-24,-6,2,-2,-1,0,0,11
1537921689677098,-2,-7,-2,-1,3,-4,-2,-5
1537921689677098,-2,-13,-3,-1,-2,-1,-1,2
1537921689693056,6,11,5,1,-3,-1,-1,-3
1537921689693056,-17,-2,1,3,5,0,0,-6
1537921689700037,37,16,2,-1,-6,-1,2,1
1537921689700037,-25,-34,-7,-4,-1,3,-1,5
1537921689716992,20,25,2,1,-3,-2,-2,-6
1537921689716992,-44,-13,-5,-4,-2,6,-3,3
1537921689717989,-12,-2,-2,0,1,-1,-3,-9
1537921689717989,11,0,1,-1,2,-1,-1,-3
1537921689730955,11,-11,0,3,0,0,1,10
1537921689730955,-5,-1,-3,1,-2,2,1,-2
1537921689737936,1,1,-1,-5,-3,-3,0,-2
1537921689737936,3,5,0,2,0,-1,1,10
1537921689752896,26,3,7,6,1,17,5,11
1537921689752896,-36,-11,-6,-5,-2,-9,-14,-33
1537921689759877,-7,-14,-3,1,-1,-7,-3,6
1537921689759877,-1,3,-5,-4,-1,3,-1,8
1537921689776832,4,4,1,0,-2,4,3,2
1537921689776832,17,-3,0,-1,-1,1,-1,1
1537921689777830,-17,-7,2,3,2,0,-1,-2
1537921689777830,6,2,1,-1,-1,-1,-2,-6
1537921689790795,-7,-1,-4,-5,0,-7,0,3
1537921689790795,-2,9,6,5,4,3,4,6
1537921689797776,6,2,-1,1,0,-5,-3,-7
1537921689797776,14,5,-4,-2,-2,9,4,6
1537921689813733,-2,4,5,2,4,-11,1,32
1537921689813733,1,-8,-6,-4,-12,-7,-13,-90
1537921689819718,-25,-20,-9,-4,2,0,0,33
1537921689819718,11,2,1,-3,-3,-2,3,8
1537921689836673,-79,-17,-2,3,1,1,-3,-8
1537921689836673,22,12,0,-4,-2,-1,5,17
1537921689837669,8,6,7,0,-1,0,0,-4
1537921689837669,0,-4,-1,-1,1,-4,-4,-7
1537921689850635,11,1,-1,1,-3,-6,-1,-3
1537921689850635,-7,-4,-2,-1,3,4,4,26
1537921689857617,9,3,-2,-3,-2,3,2,-13
1537921689857617,-26,-4,-1,2,2,-3,-5,-3
1537921689873574,-3,1,-4,-2,0,-2,-5,1
1537921689873574,0,1,-1,2,2,6,0,7
1537921689880555,12,-24,-1,-5,1,12,2,0
1537921689880555,14,21,7,9,4,-10,-8,-15
1537921689896512,-8,-1,1,-10,-4,-2,-1,-3
1537921689896512,-2,2,0,6,0,0,1,8
1537921689897510,10,11,3,1,-1,-1,0,0
1537921689897510,52,9,2,0,-3,2,6,19
1537921689910475,-84,-31,-8,-3,-2,3,-7,-28
1537921689910475,30,11,0,-4,0,-3,2,16
1537921689917456,-7,10,3,0,-2,9,1,-11
1537921689917456,-1,-7,-5,-6,-2,-27,-5,19
1537921689933414,43,9,-1,1,-1,-3,2,-6
1537921689933414,0,-12,-1,0,1,4,2,7
1537921689940396,-12,13,0,1,0,-5,0,-5
1537921689940396,-9,-4,-1,-4,-4,6,0,5
1537921689956352,25,-2,1,0,0,-1,-4,-21
1537921689956352,-25,-13,-1,1,-1,0,0,9
1537921689958347,-17,11,-3,-1,-1,-6,-3,-15
1537921689958347,30,-7,-1,-2,-3,2,1,12
1537921689970315,-56,-17,-1,2,1,-6,-7,-7
1537921689970315,18,18,-2,-2,-1,5,0,-5
1537921689977296,0,-5,0,1,0,-6,-2,-1
1537921689977296,-18,-7,-1,1,-1,1,1,-8
1537921690015195,37,13,4,2,-2,1,1,-2
1537921690015195,-1,-8,-4,-5,-1,-5,0,17
1537921690025169,1,5,1,1,0,-3,-1,-11
1537921690025169,-8,-4,-3,-1,-1,3,-2,-11
1537921690039131,39,0,-1,0,-2,2,3,13
1537921690039131,-14,1,1,-1,-1,-1,-2,-6
1537921690040129,11,-1,4,5,-1,-3,-1,7
1537921690040129,-11,-1,0,-1,0,3,0,-9
1537921690054091,-1,-2,-7,-5,-4,-3,0,1
1537921690054091,-6,-6,-2,6,0,-5,-1,0
1537921690055088,-6,-10,0,-2,-2,-4,0,0
1537921690055088,-16,-6,1,-3,-2,-2,1,35
1537921690068053,29,13,3,2,-2,-3,-3,-15
1537921690068053,-51,-15,0,-3,-3,-1,-1,-15
1537921690075035,20,1,-1,-3,-3,-5,-2,-2
1537921690075035,-25,-18,-4,1,-2,2,-1,12
1537921690090992,13,7,0,-2,-2,-5,0,-8
1537921690090992,10,7,1,-1,0,-2,0,-2
1537921690091990,13,-17,-1,2,-2,-2,1,11
1537921690091990,-30,4,-2,-2,-2,-6,-2,-28
1537921690105952,7,-32,-6,0,-1,1,-2,9
1537921690105952,-23,0,-3,-2,-3,-4,-3,-12
1537921690107947,-10,-7,-1,-1,-4,-2,-1,5
1537921690107947,25,16,-1,-1,-2,-2,-1,-13
1537921690120912,-9,-3,2,1,-1,-2,2,10
1537921690120912,14,-2,2,-2,-3,-3,2,10
1537921690127894,17,0,-1,-1,-4,-2,-1,4
1537921690127894,-53,-20,-6,-3,-3,-2,-1,-11
1537921690143852,-11,9,0,3,1,-3,-3,-7
1537921690143852,10,-2,0,-3,-4,0,-1,4
1537921690145846,1,-3,-5,-3,-2,-1,-3,-11
1537921690145846,8,0,1,1,-1,-2,0,-11
1537921690166790,-15,0,0,0,-3,1,1,4
1537921690166790,19,3,0,-3,-2,-4,-4,-8
1537921690167788,1,-12,-5,0,0,-1,1,13
1537921690167788,-26,-13,-2,-2,-1,-2,-2,-30
1537921690180753,-28,4,-5,-2,-1,-4,-1,1
1537921690180753,31,-7,6,3,2,-2,-3,1
1537921690187734,-48,-1,1,-1,-1,-2,-5,-13
1537921690187734,35,5,0,1,-3,-1,1,4
1537921690203691,14,-3,-4,-1,-1,0,8,21
1537921690203691,-12,-9,-8,-5,-4,-5,-9,-14
1537921690205686,-22,-6,-6,-2,0,-1,0,-5
1537921690205686,7,5,0,1,0,-3,0,8
1537921690242587,3,-9,0,-2,-5,-2,-2,-2
1537921690242587,43,16,2,2,0,3,10,26
1537921690244582,-35,-18,-5,-3,-2,-12,-10,-5
1537921690244582,4,2,-4,-2,-1,0,2,5
1537921690255552,-5,7,-4,-2,2,0,-1,-3
1537921690255552,-33,-20,0,0,0,2,1,-21
1537921690262533,14,10,-3,-2,0,-3,-2,-4
1537921690262533,26,2,2,-1,-4,3,4,23
1537921690270512,-27,-17,-5,0,3,-1,-8,-21
1537921690270512,12,8,-5,-2,1,-1,1,6
1537921690279488,10,9,5,3,0,4,2,-2
1537921690279488,-4,0,-1,-1,-1,-1,-7,2
1537921690309409,21,3,5,-2,0,11,6,1
1537921690309409,-35,-22,-10,-5,0,-4,-5,5
1537921690311403,19,13,3,-2,3,2,1,2
1537921690311403,6,3,2,0,3,2,-2,-8
1537921690322374,6,9,0,-1,0,2,-1,5
1537921690322374,-1,3,1,-1,-3,-3,1,-5
1537921690330352,-5,-2,2,1,0,1,-1,-6
1537921690330352,-2,-1,-3,-1,1,1,-2,-3
1537921690337334,43,4,-7,-3,-2,-4,-4,-6
1537921690337334,-36,6,4,4,2,2,1,-3
1537921690346310,16,-4,-3,-1,-1,-1,-1,15
1537921690346310,-25,0,0,1,2,0,-1,-4
1537921690361270,4,10,1,0,0,-2,-1,3
1537921690361270,49,6,-1,-3,-2,-2,1,-16
1537921690363265,22,10,-2,1,0,0,-2,10
1537921690363265,17,4,-4,-2,-2,0,-2,-11
1537921690376230,-17,7,2,-1,-2,-2,-4,-3
1537921690376230,14,3,0,0,-2,-2,-2,5
1537921690378225,11,7,0,-2,-4,-1,1,-6
1537921690378225,19,3,3,-1,0,0,2,2
1537921690391190,5,2,-3,-2,-1,-3,0,6
1537921690391190,-19,-1,1,1,0,-1,0,11
1537921690397174,18,0,-1,0,-2,-3,-4,-26
1537921690397174,-48,2,-1,-1,-3,-2,1,5
1537921690414128,-74,-29,0,1,-1,-1,-6,-17
1537921690414128,-11,-6,1,-1,-1,2,2,5
1537921690415126,-27,-2,2,0,-2,-1,-3,0
1537921690415126,34,5,2,0,-3,-4,-1,3
1537921690421110,37,18,6,3,-4,-9,-3,1
1537921690421110,-19,3,-5,-2,-2,-3,-4,-3
1537921690421110,-97,-28,-6,-4,-1,1,-1,-9
1537921690421110,18,-7,-2,4,3,4,8,14
1537921690458011,40,-28,-21,-2,0,-2,-11,-12
1537921690458011,30,91,9,6,4,19,42,41
1537921690466987,-13,-88,-8,-14,-24,-19,-45,-85
1537921690466987,3,-36,-8,2,-7,-28,-17,31
1537921690473969,-18,53,-32,-10,38,38,61,26
1537921690473969,-14,-113,-13,-32,-86,-82,-80,-82
1537921690474966,18,33,36,27,90,55,71,77
1537921690474966,-9,5,-39,1,2,6,-86,22
1537921690480950,-33,-17,-6,-48,-87,-62,38,5
1537921690480950,51,73,46,13,59,-6,-49,46
1537921690481947,32,20,-50,-1,-24,-13,40,4
1537921690481947,-33,-80,36,-7,-9,-33,-87,-57
1537921690494912,-1,75,6,41,92,108,95,60
1537921690494912,-23,-3,-53,-38,-41,-54,-47,38
1537921690502891,-1,-10,3,16,24,-35,17,-16
1537921690502891,-17,72,16,11,29,56,58,-11
1537921690517851,-5,-51,-11,-4,-40,-38,-53,-60
1537921690517851,-18,-79,32,21,44,98,46,4
1537921690518849,31,31,-13,-12,-58,-95,-61,-12
1537921690518849,2,14,-20,-15,-13,11,31,-17
1537921690533808,0,1,31,-1,-12,-12,-27,28
1537921690533808,0,29,-10,12,39,30,29,-25
1537921690539793,-1,5,-9,-10,-10,30,24,29
1537921690539793,-15,-19,11,-5,-24,-13,17,7
1537921690554753,-18,-9,26,10,16,-12,-40,-33
1537921690554753,-4,-8,-18,1,-2,6,11,11
1537921690562732,-4,-4,6,-5,-12,10,-13,0
1537921690562732,17,9,12,-2,3,-12,18,-10
1537921690578689,70,5,-7,2,10,6,-21,29
1537921690578689,-48,-8,-9,4,-25,-18,2,-35
1537921690578689,-16,19,18,-10,4,24,7,15
1537921690578689,58,17,-3,18,13,-7,-4,-15
1537921690593649,-76,-22,-7,-11,-9,36,5,-28
1537921690593649,72,16,10,45,11,-29,3,29
1537921690599633,-47,-12,2,-26,-16,45,-7,-16
1537921690599633,89,36,-5,-17,-12,-50,6,22
1537921690615590,-78,-11,13,30,4,-26,-10,4
1537921690615590,-41,-27,5,-12,3,40,15,-29
1537921690622572,39,9,-7,48,26,1,-9,19
1537921690622572,60,38,10,-5,5,37,28,24
1537921690638529,-26,-49,-9,-41,-29,1,-20,-25
1537921690638529,79,38,5,28,34,62,24,11
1537921690638529,5,0,7,5,-8,-68,-16,-9
1537921690638529,49,9,-5,-15,-28,-16,8,23
1537921690662465,-5,-18,1,19,2,-15,-12,-24
1537921690662465,-61,-4,-4,-19,-3,22,-3,-10
1537921690662465,73,3,-4,-12,6,28,11,13
1537921690662465,-33,-13,5,14,12,6,3,-6
1537921690675430,82,28,-4,-12,6,24,1,2
1537921690675430,15,0,-6,-13,-19,-57,-4,-22
1537921690682412,-8,11,9,10,-2,-6,-12,17
1537921690682412,-32,-12,-1,-21,0,-6,4,17
1537921690698369,7,9,-2,9,0,16,1,1
1537921690698369,-46,-13,1,-10,-2,-6,-9,-23
1537921690699366,17,-30,-24,11,41,53,31,-3
1537921690699366,-29,-2,-9,-9,-39,-19,-27,-6
1537921690714327,-7,-84,7,-14,-58,-55,-13,0
1537921690714327,31,88,-45,45,89,69,30,-7
1537921690720310,-67,-110,69,-58,-110,-88,-53,-88
1537921690720310,9,87,-67,-13,-11,-37,-43,81
1537921690735270,10,-49,6,23,80,74,50,-27
1537921690735270,-26,86,85,-11,-103,-78,-40,-26
1537921690742252,46,18,-69,6,47,-9,36,62
1537921690742252,-40,57,-33,-13,34,108,-6,-128
1537921690758209,-24,-19,83,8,-76,-118,-38,-3
1537921690758209,58,-59,-29,-14,60,10,93,111
1537921690759207,-38,-38,-10,-5,47,47,24,-36
1537921690759207,2,-17,-33,7,18,-15,-42,67
1537921690774167,7,51,-35,25,125,127,62,30
1537921690774167,-10,-27,29,-4,-47,-45,-16,-30
1537921690780150,11,36,5,-7,-76,-49,-25,20
1537921690780150,-18,-72,23,14,19,-12,26,-24
1537921690795110,-6,35,-13,-4,8,26,-43,-17
1537921690795110,17,-29,2,-17,-22,-70,-28,24
1537921690803089,11,28,8,11,28,-21,-7,3
1537921690803089,-47,-33,-2,68,10,96,12,-36
1537921690818049,81,59,27,-30,-58,-94,23,40
1537921690818049,16,12,-25,47,12,19,-3,-51
1537921690819047,-16,25,0,-7,55,-91,-4,65
1537921690819047,-81,-63,25,65,1,61,-8,-81
1537921690834006,91,45,-10,-51,-33,-42,5,24
1537921690834006,0,-34,-8,-1,-5,-8,8,23
1537921690839991,-47,2,-9,-33,-36,-39,-54,-84
1537921690839991,-42,26,38,-42,14,22,31,68
1537921690854951,25,-24,-27,66,1,40,-1,-45
1537921690854951,81,49,-9,-16,55,62,-33,11
1537921690862929,-8,16,18,11,-36,-75,23,3
1537921690862929,27,-38,-3,-40,-15,-95,9,4
1537921690877890,-37,18,1,22,18,18,-2,32
1537921690877890,6,-6,0,-16,-16,12,4,34
1537921690878887,-11,12,-4,12,19,91,4,-53
1537921690878887,71,12,15,1,-5,-43,10,3
1537921690893846,-4,4,-18,-19,4,-8,-8,25
1537921690893846,-55,-30,1,-1,-9,-3,-10,-18
1537921690899830,31,-13,-37,-18,-11,40,11,43
1537921690899830,-24,-90,33,-3,2,-3,6,-10
1537921690914790,-8,27,19,5,-4,-18,-20,-27
1537921690914790,-31,9,-14,-22,-14,-1,1,5
1537921690922769,18,4,10,21,13,51,18,-1
1537921690922769,-3,13,-20,-13,-3,-15,-11,-1
1537921690937729,-14,-4,-11,-6,0,-8,-16,-16
1537921690937729,-7,-30,8,-1,-5,-13,2,-9
1537921690938726,5,15,-3,0,4,35,6,16
1537921690938726,-38,8,3,0,0,-11,9,-10
1537921690953686,14,6,-3,-15,-9,-13,-7,-8
1537921690953686,30,7,-3,2,-6,1,-16,-70
1537921690959670,-52,-31,6,4,1,23,-5,8
1537921690959670,7,31,-1,-7,-9,-5,10,25
1537921690974630,-14,-28,-5,-4,-1,-3,-7,-7
1537921690974630,-13,9,-3,-14,-3,4,5,6
1537921690982609,19,4,12,11,10,20,-4,2
1537921690982609,10,-5,1,-2,-2,-19,1,-18
1537921690998566,58,13,-7,48,18,-6,5,24
1537921690998566,-48,-18,-2,-23,-28,-4,-3,-7
1537921690998566,3,10,0,-13,-5,0,-10,-2
1537921690998566,-9,-7,-6,-12,-4,20,1,-11
1537921691014524,19,21,2,-13,3,6,0,-1
1537921691014524,-18,-27,-4,4,2,5,1,11
1537921691020508,32,19,4,5,-2,9,1,-4
1537921691020508,-2,4,-2,-4,0,-2,5,-5
1537921691035468,-22,-9,-2,-11,-6,-19,-8,0
1537921691035468,13,-1,3,6,4,-1,-2,3
1537921691042449,-24,0,-2,-6,-2,8,0,5
1537921691042449,20,6,-2,6,1,0,1,2
1537921691058407,-65,-20,-8,-12,-5,-3,0,-16
1537921691058407,-18,-5,1,0,1,-2,1,15
1537921691059404,10,9,5,4,2,1,-3,1
1537921691059404,1,3,6,4,0,-2,2,1
1537921691074364,8,-1,-7,-10,-6,4,-3,0
1537921691074364,0,1,0,0,0,-4,-1,-4
1537921691080348,-6,-4,1,2,-2,5,-2,-1
1537921691080348,7,3,1,2,1,-2,0,0
1537921691095308,-18,-3,0,-8,-4,-1,0,0
1537921691095308,4,3,-3,0,1,-3,-2,1
1537921691102290,5,5,1,1,1,1,1,2
1537921691102290,2,5,-3,-1,-1,-3,2,0
1537921691118246,-12,2,0,-1,-2,-4,-2,3
1537921691118246,-13,-11,-5,-2,-1,1,0,1
1537921691119244,-22,4,0,-1,-3,3,-4,-10
1537921691119244,25,15,7,4,3,-3,0,7
1537921691134203,1,-26,-2,-5,-2,3,1,5
1537921691134203,0,24,0,0,-1,-1,1,11
1537921691140188,-2,-25,-3,-1,1,1,1,-8
1537921691140188,-16,2,0,0,-1,-1,-1,8
1537921691155147,67,20,1,-2,-2,-3,0,2
1537921691155147,-37,-24,-8,-4,0,0,-1,-4
1537921691162129,4,12,3,1,0,0,-1,0
1537921691162129,-8,-10,-4,-2,0,-1,0,-4
1537921691178086,3,9,-3,-1,-4,1,0,5
1537921691178086,11,-6,2,2,1,-1,0,-16
1537921691179084,-25,-2,-2,-2,-1,1,-1,4
1537921691179084,-15,-8,2,-2,-3,0,0,-7
1537921691194044,-14,3,-4,-4,-1,0,-1,-3
1537921691194044,31,5,-3,-1,-3,-3,0,4
1537921691200028,6,1,0,0,0,0,2,5
1537921691200028,3,3,1,2,0,-1,-1,-1
1537921691214988,-23,-10,-3,-4,1,-1,0,-7
1537921691214988,-9,9,1,-2,0,2,0,-1
1537921691222967,28,-3,-3,-3,-2,0,-1,4
1537921691222967,-32,-5,-3,-3,-2,0,-3,-9
1537921691237927,22,3,1,-1,-4,0,-1,0
1537921691237927,-16,-7,-1,0,1,-2,0,-7
1537921691238925,15,-5,-4,-2,0,-1,1,9
1537921691238925,2,5,8,1,0,-2,1,0
1537921691252887,-21,10,3,-1,-1,0,-1,-9
1537921691252887,26,-2,2,1,0,-1,0,6
1537921691259868,-42,-7,-1,1,-1,1,-4,-4
1537921691259868,18,1,-5,-1,-4,-2,1,7
1537921691274828,4,0,3,2,2,-1,-1,5
1537921691274828,-12,-1,-5,-4,2,0,-2,-6
1537921691282807,14,5,3,0,-1,-2,1,2
1537921691282807,10,0,0,2,-1,1,0,-3
1537921691297767,-4,-3,-3,-6,-1,-1,1,2
1537921691297767,-18,-3,0,1,-3,-2,-2,-12
1537921691298764,24,6,-1,-3,-1,-1,-1,15
1537921691298764,-50,-9,-4,-2,0,0,-4,-28
1537921691312727,4,0,2,0,-1,-1,-3,-3
1537921691312727,8,-3,2,2,-2,0,0,7
1537921691319708,2,9,-1,-1,0,0,0,5
1537921691319708,8,-5,-2,-3,1,-1,-3,-13
1537921691334668,12,-9,-1,1,2,-2,0,5
1537921691334668,-47,-10,0,0,0,1,-4,5
1537921691342647,-18,0,-1,1,-1,2,-2,-21
1537921691342647,11,2,-5,-3,0,-1,1,14
1537921691357608,-1,0,-1,-1,-1,-1,-2,-1
1537921691357608,16,4,0,-4,-2,0,2,9
1537921691365585,-13,4,2,3,-2,-1,1,-9
1537921691365585,13,9,-1,2,-1,-1,1,6
1537921691372567,10,-3,-3,-2,-1,0,-1,-2
1537921691372567,12,-17,1,2,-2,2,1,8
1537921691380545,-14,-1,-6,-4,-3,-2,-7,-16
1537921691380545,6,0,-2,-2,-1,-2,-2,1
1537921691395505,-25,-1,2,2,1,0,-1,-5
1537921691395505,16,7,-1,-2,-1,-2,-1,-7
1537921691402487,10,-9,-2,1,0,1,2,3
1537921691402487,22,5,0,-3,1,-1,2,17
1537921691417447,-57,-16,0,0,0,0,-6,-36
1537921691417447,2,3,-3,-1,0,0,-2,-1
1537921691425425,9,4,4,0,-2,-1,1,2
1537921691425425,6,5,-1,0,-1,-1,-1,-1
1537921691440386,3,1,-1,-2,-1,0,2,12
1537921691440386,11,8,0,-1,-2,-3,0,-5
1537921691441383,37,5,3,0,-3,-1,2,7
1537921691441383,-61,-11,-3,-1,-1,-1,0,-7
1537921691455345,-16,-13,-4,-2,-2,0,-4,-8
1537921691455345,-2,7,2,2,1,-1,-4,-2
1537921691462327,37,9,0,0,-1,-1,1,6
1537921691462327,18,-3,-1,-2,-4,0,0,5
1537921691477287,-2,6,1,0,1,-1,2,7
1537921691477287,9,5,-1,-2,-3,-2,-2,-7
1537921691485265,-26,-1,-2,0,0,0,-1,-4
1537921691485265,31,6,4,2,-1,0,-1,1
1537921691501222,-25,-21,-6,-5,-1,0,-2,-2
1537921691501222,22,10,1,1,1,0,1,8
1537921691501222,-21,-9,-2,-3,1,-1,-1,-1
1537921691501222,6,7,3,2,-4,0,-2,-4
1537921691515185,18,6,0,-1,-2,0,2,6
1537921691515185,-32,-12,-2,1,-1,0,-1,1
1537921691522166,13,-3,-1,-3,-3,-3,-1,-14
1537921691522166,27,14,-1,-1,0,-2,1,12
1537921691539121,17,-16,0,1,0,-1,1,8
1537921691539121,-6,23,0,-1,1,1,-3,-23
1537921691546102,28,-6,0,-1,0,-2,-3,-2
1537921691546102,-60,-11,-9,-4,0,-2,-3,-1
1537921691561062,26,-28,-11,-4,-3,5,-5,11
1537921691561062,21,64,26,6,9,13,22,-22
1537921691561062,88,61,-13,6,11,6,11,69
1537921691561062,-50,-92,2,-7,-5,3,4,-49
1537921691575025,12,2,-8,0,5,-14,9,56
1537921691575025,2,51,-26,-2,44,8,-32,-80
1537921691583004,-10,-104,35,-6,-59,-32,15,12
1537921691583004,9,124,29,2,18,27,49,-55
1537921691597964,4,69,-27,6,-2,-11,-8,14
1537921691597964,-38,-126,5,-26,-77,-21,57,43
1537921691604945,-2,70,54,40,41,-1,17,-8
1537921691604945,-9,-28,-43,4,79,71,-38,61
1537921691620903,-5,0,-49,-61,-74,-61,-53,4
1537921691620903,30,21,49,-6,-63,-57,79,26
1537921691621900,-50,-46,-27,18,88,71,-94,-23
1537921691621900,-1,-79,-8,-25,-108,-84,64,-8
1537921691634865,53,75,3,53,127,85,-41,-1
1537921691634865,-22,-56,-45,-9,-21,40,58,6
1537921691642844,-22,-18,8,-15,-49,-49,26,9
1537921691642844,37,48,25,21,56,50,11,40
1537921691657804,-16,-51,3,-7,-23,-7,-66,-46
1537921691657804,-8,3,13,9,22,4,-26,4
1537921691664785,-19,32,-2,2,14,33,21,-15
1537921691664785,21,23,-24,-7,-23,-20,-9,6
1537921691680743,-26,-15,26,-4,-32,-13,55,-10
1537921691680743,3,4,14,6,15,0,-36,20
1537921691681740,24,19,-36,-15,-8,-4,-10,1
1537921691681740,-9,-32,-4,-5,-17,-27,-31,-12
1537921691694705,-19,-20,31,8,-1,-2,39,-7
1537921691694705,17,14,-18,6,34,14,-41,1
1537921691702684,-19,-16,-10,-7,-13,-14,-3,-10
1537921691702684,-2,-10,7,1,-6,-8,-7,-7
1537921691717644,61,14,13,2,3,6,22,1
1537921691717644,-42,-13,-19,-2,6,33,-7,9
1537921691725622,-25,-6,-6,-3,-13,-18,1,-24
1537921691725622,-9,2,17,5,0,-31,-8,2
1537921691740583,22,11,-11,-5,-1,26,5,0
1537921691740583,36,0,-5,-4,1,-17,-16,0
1537921691741580,-11,-8,3,-3,-5,-2,7,5
1537921691741580,62,17,1,8,12,9,-10,8
1537921691755542,83,6,3,-9,-2,-15,13,54
1537921691755542,-4,0,0,-8,-6,44,-9,-42
1537921691762524,-84,-22,-7,17,8,-15,-5,-38
1537921691762524,45,12,-6,4,5,29,-2,4
1537921691777484,-69,-7,10,-5,-6,-1,18,-5
1537921691777484,103,19,5,8,1,-60,-19,40
1537921691785463,-29,13,-12,-17,-1,44,8,0
1537921691785463,-14,2,8,32,12,8,5,0
1537921691800422,-118,-30,-9,-39,-14,16,-10,-32
1537921691800422,-35,-30,-10,25,14,-18,-24,-19
1537921691801420,16,-2,-2,-32,-11,17,2,7
1537921691801420,32,12,5,-9,-6,-34,0,10
1537921691815383,-55,20,12,29,9,-6,11,-2
1537921691815383,88,12,-6,-33,-9,-10,-1,4
1537921691822364,-21,6,-4,25,4,-11,-9,-5
1537921691822364,-55,-9,0,-16,-7,26,-2,10
1537921691837324,1,-15,-4,8,1,-5,-1,-24
1537921691837324,0,9,4,1,4,2,8,41
1537921691845303,6,-10,1,4,1,3,-5,-64
1537921691845303,20,4,-7,-3,-1,-11,-10,24
1537921691860263,13,-12,0,10,31,17,18,-36
1537921691860263,-35,-30,-44,-9,-14,-5,2,91
1537921691861260,35,-26,30,5,16,-29,10,-30
1537921691861260,-38,-36,-53,-20,-30,29,43,31
1537921691875223,28,51,58,-1,-7,-51,-84,-72
1537921691875223,-8,-33,-23,32,81,96,-19,58
1537921691882204,15,103,-70,-56,-56,-3,107,82
1537921691882204,-59,-90,87,20,28,-49,-125,-93
1537921691897164,23,71,-55,9,28,77,17,96
1537921691897164,-31,-84,12,-26,-94,-75,-56,-91
1537921691906140,45,-12,47,40,49,39,47,82
1537921691906140,18,-44,-111,-38,-24,-54,-17,-32
1537921691921100,-18,103,84,-8,-59,-53,78,54
1537921691921100,-14,-33,4,34,79,30,15,-53
1537921691921100,-27,-59,-66,-28,-19,-35,-12,-9
1537921691921100,31,44,47,27,126,110,-84,11
1537921691935062,-3,-81,-57,-6,-34,15,24,-4
1537921691935062,9,61,-3,-22,-97,-83,39,11
1537921691943041,-6,-28,52,18,13,-26,-30,-7
1537921691943041,1,44,-8,-4,0,25,60,-11
1537921691958001,9,-43,-22,-4,21,4,-48,-19
1537921691958001,-21,44,35,12,11,24,31,13
1537921691965980,17,-4,-9,3,2,-2,-46,17
1537921691965980,-4,10,-5,-6,-33,-36,12,-2
1537921691980940,-30,-57,7,5,-5,12,28,-10
1537921691980940,4,9,1,-5,6,0,-9,-2
1537921691980940,33,-9,3,4,3,4,-13,-3
1537921691980940,-15,12,-1,-2,-28,-6,13,2
1537921691994903,-41,-8,3,-13,-5,13,12,12
1537921691994903,-37,-36,-18,-9,8,-19,-33,-52
1537921692002881,46,50,-4,1,-7,-8,-34,2
1537921692002881,-31,-3,23,4,-1,-28,43,12
1537921692018839,93,-14,-18,6,-20,-48,-29,-32
1537921692018839,78,25,13,35,37,77,12,23
1537921692025821,-55,-4,7,-11,-20,12,17,-10
1537921692025821,-32,-2,3,-37,-15,-3,-4,20
1537921692040780,8,-11,-10,6,29,-2,-2,-34
1537921692040780,-81,-26,-7,-6,-12,-15,3,15
1537921692041778,17,1,11,8,3,4,-12,-33
1537921692041778,48,10,1,5,-3,28,12,14
1537921692054743,-23,1,-6,-5,-7,-15,-11,29
1537921692054743,-48,5,6,-2,7,-3,4,-13
1537921692062722,69,2,-9,2,7,29,-8,16
1537921692062722,-88,-3,-4,-1,-20,-40,-8,-44
1537921692077682,16,-23,3,2,2,6,3,7
1537921692077682,0,12,3,2,-1,5,4,-9
1537921692085660,10,1,1,-12,-2,2,0,14
1537921692085660,27,11,0,5,-6,-9,6,8
1537921692100621,33,4,7,8,1,12,6,8
1537921692100621,-17,6,2,-8,3,-5,-5,-8
1537921692101618,2,-15,-20,-7,-8,-15,-5,19
1537921692101618,2,7,3,10,-3,2,-3,-51
1537921692114583,-37,-20,-2,3,9,1,-4,18
1537921692114583,23,8,3,-9,-4,-5,-3,-23
1537921692122562,-22,-9,0,0,0,-5,-4,-25
1537921692122562,4,-21,-11,2,-4,7,8,10
1537921692137522,25,16,-6,-5,0,0,0,7
1537921692137522,-9,-22,-4,-9,-2,14,0,6
1537921692145500,49,12,6,5,-6,-34,-7,6
1537921692145500,-50,-14,-6,-1,-3,-2,1,-10
1537921692160460,-8,2,2,5,5,-1,-4,-13
1537921692160460,10,5,2,-2,-3,9,2,13
1537921692161457,-16,3,2,-19,-6,1,-3,-22
1537921692161457,22,-2,2,15,5,3,3,18
1537921692175420,-2,-4,2,1,-2,-8,0,-4
1537921692175420,0,9,-1,1,1,-1,-1,-2
1537921692182401,-15,3,-1,0,-3,10,2,1
1537921692182401,28,10,2,-8,-2,-6,3,12
1537921692197361,-15,2,3,2,2,10,-1,-12
1537921692197361,-7,-11,-8,0,-1,-7,-5,-10
1537921692205340,-23,8,3,4,2,7,4,-5
1537921692205340,20,1,-4,-5,-6,0,-5,8
1537921692220300,4,-11,-2,1,4,2,1,-3
1537921692220300,17,20,4,-6,-4,-12,-5,6
1537921692221297,-7,-13,-5,2,2,-1,-1,-9
1537921692221297,16,4,2,5,0,4,6,14
1537921692235260,-43,-3,5,-1,-1,-2,-2,-15
1537921692235260,16,16,1,0,-3,-9,-1,3
1537921692242242,-31,-38,-9,-1,-2,3,-6,-14
1537921692242242,-8,19,1,1,-3,1,2,2
1537921692257202,-1,-15,-1,-1,-3,-4,-5,-7
1537921692257202,4,6,0,-2,-2,-5,3,2
1537921692266178,22,7,2,1,5,4,0,1
1537921692266178,-12,-11,-1,1,-1,1,3,4
1537921692280141,-9,9,0,-6,-2,-2,0,-7
1537921692280141,10,-7,-3,0,-2,-1,-1,6
1537921692288119,-3,10,-4,2,-1,0,-3,0
1537921692288119,3,-7,-1,-4,-5,-1,0,-3
1537921692295101,-2,-7,-1,2,-1,-3,1,1
1537921692295101,7,2,-3,-4,2,-2,-2,-5
1537921692302082,-15,0,4,1,2,19,0,14
1537921692302082,-6,-3,-1,2,1,-12,-7,-9
1537921692317041,22,5,-5,-2,0,4,2,11
1537921692317041,-13,0,0,0,1,-13,-6,-3
1537921692326018,-20,-5,3,0,0,3,0,-6
1537921692326018,5,3,-3,-3,-3,4,3,4
1537921692339980,11,0,2,1,-1,0,-3,-8
1537921692339980,-4,-7,-4,-3,-4,0,-1,3
1537921692347959,-11,3,1,1,1,-4,-2,-5
1537921692347959,10,3,1,0,-1,0,-1,-6
1537921692362919,-61,-22,-3,-2,-1,-3,-1,-6
1537921692362919,-5,6,1,2,1,3,2,22
1537921692363916,18,12,1,-2,-2,-7,-2,-23
1537921692363916,-12,-38,-3,2,2,0,-1,-20
1537921692377879,19,12,-2,-1,-2,1,0,2
1537921692377879,-8,-5,0,0,1,2,-1,-9
1537921692385857,4,-1,-3,-2,-3,-4,-1,12
1537921692385857,3,2,5,4,2,1,0,9
1537921692399820,6,0,-2,-3,-1,-1,-3,-8
1537921692399820,6,4,1,-4,1,-1,0,-8
1537921692407799,-5,2,-4,-2,1,-4,-1,4
1537921692407799,19,2,2,-1,-2,0,1,3
1537921692422759,9,6,1,0,-1,-2,-2,6
1537921692422759,-4,2,0,-1,-2,-1,-1,-8
1537921692423756,-8,-1,-6,0,-2,0,1,0
1537921692423756,4,3,-1,-3,-1,0,1,5
1537921692437719,12,3,0,0,0,-3,0,0
1537921692437719,-5,0,-1,0,-2,0,-3,-3
1537921692445698,23,5,3,1,-1,-4,1,10
1537921692445698,-27,-8,-6,-2,-3,0,-4,-15
1537921692483596,22,15,-1,-4,-3,-4,-3,-22
1537921692483596,8,-6,-3,-3,-2,-1,-1,-5
1537921692491575,5,1,2,0,0,-2,-1,2
1537921692491575,26,8,1,0,1,1,2,18
1537921692505538,-20,-12,-3,0,0,0,1,7
1537921692505538,-10,1,1,1,-1,0,-1,-8
1537921692506535,-4,-4,1,1,-2,0,-1,-1
1537921692506535,27,14,-1,-2,-1,0,3,8
