timestamp,emg1,emg2,emg3,emg4,emg5,emg6,emg7,emg8
1537922109108936,2,13,-4,-2,-1,-3,-1,1
1537922109108936,-4,-17,-11,-6,-4,-2,-1,-2
1537922109109933,-1,-5,-4,-4,0,-1,-2,-1
1537922109109933,-1,-1,-4,-3,-1,-1,-4,0
1537922109114919,-2,5,5,-1,-2,-2,0,1
1537922109114919,-1,9,-1,3,3,0,-1,1
1537922109114919,-1,-2,0,0,0,-1,0,-1
1537922109114919,1,3,-2,-4,-4,-3,1,-1
1537922109119906,-2,-14,3,-1,2,1,0,-3
1537922109119906,-1,0,0,-5,-4,-5,-2,-1
1537922109129879,2,2,6,2,-1,-1,0,1
1537922109129879,0,11,-11,-6,0,0,-1,0
1537922109136861,-5,-33,-12,-17,-6,-3,-1,-2
1537922109136861,2,33,26,38,12,3,2,2
1537922109149826,-5,-44,2,-13,-2,-1,-1,-2
1537922109149826,-1,-7,-15,9,-4,-3,-1,-2
1537922109161794,1,5,10,12,2,0,1,0
1537922109161794,-1,-7,-1,-8,0,1,-1,-1
1537922109182738,3,27,-3,-7,-4,-2,-2,1
1537922109182738,2,12,-21,-14,-1,1,-1,1
1537922109184733,-5,-27,4,8,2,1,-4,-1
1537922109184733,-2,14,12,-3,-3,-2,-1,-1
1537922109194705,0,0,15,8,1,0,1,-1
1537922109194705,-3,-11,-9,-13,-3,-2,-2,-2
1537922109236594,-5,3,8,10,2,0,-1,-2
1537922109236594,1,24,3,0,-1,-3,-1,1
1537922109241580,-5,-15,-2,-1,0,-1,0,0
1537922109241580,-1,6,-7,-7,-3,-1,0,0
1537922109241580,-1,-5,-5,-5,-4,-2,-1,0
1537922109241580,0,0,6,-2,-3,-1,0,0
1537922109242578,-1,6,-13,1,0,0,0,-1
1537922109242578,-2,7,-2,1,-3,-2,-1,0
1537922109247564,2,4,33,-2,-3,-2,0,-1
1537922109247564,-4,-56,-27,-1,1,0,1,-2
1537922109256540,0,2,2,-2,-1,-2,-2,-1
1537922109256540,0,-14,-8,2,-1,0,0,-1
1537922109270503,-2,13,-1,5,0,-1,-2,0
1537922109270503,-1,8,8,-2,0,0,-1,-1
1537922109278481,0,-19,4,6,1,0,1,-2
1537922109278481,-1,0,-7,-12,-3,-3,-3,-2
1537922109285464,3,22,-3,4,1,2,0,-1
1537922109285464,-2,-28,8,4,0,-1,-1,1
1537922109308402,-1,10,-12,-23,-6,-2,-2,1
1537922109308402,0,16,6,26,5,0,0,-1
1537922109309399,-2,-26,-3,-4,-3,-3,0,-3
1537922109309399,1,14,-5,8,1,1,1,-3
1537922109322364,0,3,12,0,-2,-1,-1,-2
1537922109322364,1,-4,6,-13,-2,-1,-1,1
1537922109330343,-1,-4,-15,-8,-1,-1,-1,0
1537922109330343,0,11,2,-1,-1,-3,-3,0
1537922109345303,-2,1,4,-1,-2,-1,-1,-3
1537922109345303,-2,-5,-6,-2,0,1,-1,-1
1537922109346301,0,0,-7,2,-2,-1,0,0
1537922109346301,1,22,10,-3,0,1,-1,-1
1537922109368242,-5,-43,-16,0,-1,-3,0,-1
1537922109368242,-1,2,7,5,3,2,1,-2
1537922109369240,1,-2,-1,2,2,0,1,-2
1537922109369240,-1,-2,-6,-6,-2,-1,-2,-2
1537922109382204,1,26,7,3,-1,-1,-2,2
1537922109382204,-3,-29,-13,-5,-1,-1,-1,0
1537922109390183,-1,19,17,0,-3,-3,-1,0
1537922109390183,-2,-33,-9,-2,-1,0,1,0
1537922109406140,2,11,-5,5,-2,-3,1,0
1537922109406140,-1,2,11,-6,-3,-1,-2,-3
1537922109406140,1,5,-11,-1,-1,1,0,0
1537922109406140,-4,-7,2,0,0,-1,-1,-1
1537922109428081,-1,0,-12,1,1,-1,0,-2
1537922109428081,0,-1,5,-4,-1,-2,-2,0
1537922109429079,-1,-8,-6,-2,2,0,-2,-1
1537922109429079,0,13,10,0,-1,-2,-1,-1
1537922109442044,-1,-2,6,-4,-5,-1,-2,0
1537922109442044,-1,7,1,2,-1,-1,1,-2
1537922109450023,0,-7,0,0,0,0,0,-2
1537922109450023,0,2,-8,-3,-4,0,0,-3
1537922109465980,4,10,7,-7,-2,-1,0,0
1537922109465980,0,20,-1,11,3,-1,-2,1
1537922109465980,-2,-53,-9,3,1,-1,-1,-1
1537922109465980,-3,-1,-1,-1,0,-3,-3,-1
1537922109487922,0,31,4,3,3,1,0,0
1537922109487922,-1,-55,-6,-10,-4,-2,1,-2
1537922109488919,0,15,1,0,-3,-5,-4,-3
1537922109488919,-4,-32,-8,0,2,2,2,-1
1537922109510860,-1,2,4,-1,-1,0,0,-2
1537922109510860,0,7,-2,-2,-3,-3,-1,0
1537922109511858,-2,15,0,-5,-2,0,-1,0
1537922109511858,2,10,-1,-3,-3,-2,-2,0
1537922109525820,-2,-3,0,2,2,2,-1,-1
1537922109525820,-1,8,7,1,-1,-1,-1,-1
1537922109526818,1,-9,-6,-2,1,1,2,-1
1537922109526818,0,19,5,-4,-5,-4,-1,-1
1537922109547762,-3,-13,0,3,1,1,-1,-2
1537922109547762,-1,5,-10,-5,1,1,-2,1
1537922109548759,2,6,4,9,5,1,0,1
1537922109548759,0,-1,-4,1,1,-1,0,0
1537922109570701,0,-1,3,3,-3,-3,0,-1
1537922109570701,-1,1,-1,-5,-7,-3,-2,-2
1537922109571698,-3,1,2,0,-1,-1,-1,0
1537922109571698,1,-6,-1,-5,3,2,0,0
1537922109585661,0,-8,0,12,0,-1,-1,-1
1537922109585661,1,10,5,-1,2,1,-1,1
1537922109586658,-1,-6,-5,-8,-2,1,1,-1
1537922109586658,0,6,-1,-3,-5,-2,-2,1
1537922109608599,-1,-1,0,-3,1,1,0,-2
1537922109608599,-2,-5,-2,1,3,0,-1,-2
1537922109608599,2,4,-1,-1,-2,-2,-1,-1
1537922109608599,0,7,1,-1,-1,-3,0,0
1537922109630540,2,-2,-4,-6,-3,-2,-4,-1
1537922109630540,-2,1,1,2,-4,-2,-1,-1
1537922109631538,1,-5,-1,0,2,2,-1,-1
1537922109631538,0,5,2,1,0,-1,0,-1
1537922109645501,0,-5,-2,-4,-2,-2,-1,-1
1537922109645501,0,9,4,0,-1,0,0,0
1537922109646498,-3,-7,-5,-6,-6,-4,-3,0
1537922109646498,0,13,0,2,3,3,0,-2
1537922109676418,-1,-16,-1,-4,-3,0,0,-1
1537922109676418,-3,10,-4,-2,-1,0,-1,1
1537922109677416,0,-3,4,-1,1,1,-2,-1
1537922109677416,1,34,3,1,-3,-2,-1,-1
1537922109690381,-8,-23,-3,0,4,2,1,-4
1537922109690381,1,9,5,1,0,0,0,-3
1537922109691379,0,1,-3,-3,-5,-4,-2,-1
1537922109691379,2,14,1,0,-1,0,1,0
1537922109705341,3,0,-3,-2,-4,-2,-1,1
1537922109705341,2,-4,0,0,-2,-1,-1,0
1537922109706338,-8,-36,-14,-2,0,0,0,-1
1537922109706338,0,-2,2,0,-1,2,0,0
1537922109728279,-1,28,-1,-1,-1,-1,-1,1
1537922109728279,0,13,6,1,1,2,0,-1
1537922109729277,2,16,3,-4,-3,-2,-1,0
1537922109729277,-4,-26,-8,-3,-2,-2,-2,-2
1537922109750222,1,13,4,2,-1,0,0,2
1537922109750222,-13,-1,-3,1,1,2,1,-3
1537922109751219,0,1,1,2,3,1,-1,-2
1537922109751219,4,9,2,0,-1,-2,-3,-3
1537922109766180,2,16,5,2,1,-1,-2,2
1537922109766180,-6,-60,-23,-9,-7,-6,-3,-1
1537922109766180,-6,-11,-3,0,1,2,2,0
1537922109766180,-5,-4,1,0,0,0,-1,-2
1537922109788120,0,10,4,2,-1,0,-2,-4
1537922109788120,7,0,3,0,-1,-2,-2,2
1537922109789117,-2,6,-6,-3,-3,-3,-2,-2
1537922109789117,38,8,-8,-6,-6,-7,-5,21
1537922109811058,11,-33,-12,-5,-3,-2,0,0
1537922109811058,16,-8,4,1,0,1,1,13
1537922109811058,-14,15,13,1,-4,-4,-3,-8
1537922109811058,-2,-38,-10,-3,-1,-1,4,-5
1537922109826018,-4,5,-5,-14,2,2,2,28
1537922109826018,0,29,-32,-24,-10,-6,-13,-50
1537922109826018,30,50,13,-8,6,1,-6,39
1537922109826018,-13,-26,97,15,-14,-7,-5,-37
1537922109847959,-47,-48,-88,20,5,6,9,-13
1537922109847959,16,55,100,-6,7,4,8,-18
1537922109848957,-39,1,-13,61,22,23,13,-39
1537922109848957,28,-21,-71,-96,-15,-12,-21,82
1537922109870898,31,-3,-8,49,-23,-17,-16,-53
1537922109870898,29,46,-17,5,35,23,67,-6
1537922109870898,-54,-17,43,-65,-24,0,-44,-7
1537922109870898,27,-5,14,116,20,2,63,75
1537922109885858,62,-3,-75,-128,-29,-45,-59,38
1537922109885858,-17,-95,76,111,21,-30,-56,-62
1537922109886856,68,53,96,-49,17,39,-3,55
1537922109886856,-88,-4,-52,-52,-45,15,75,-40
1537922109907799,-30,2,2,100,25,-43,-40,-12
1537922109907799,19,61,-6,-107,-21,43,31,-3
1537922109908798,8,-9,48,-2,-9,-18,6,78
1537922109908798,-31,-38,72,70,-5,-29,-60,-97
1537922109930739,2,30,73,-9,36,50,-9,44
1537922109930739,-31,-14,-117,-12,3,-26,74,-2
1537922109931736,-17,25,23,11,19,2,-21,-10
1537922109931736,48,61,-112,-38,-13,32,-36,19
1537922109945699,-25,-69,-67,-33,-16,18,-11,-34
1537922109945699,81,55,100,-2,-22,0,-34,32
1537922109946696,-63,-98,-36,26,2,-47,61,-18
1537922109946696,-5,7,27,38,36,22,4,5
1537922109968637,14,27,12,-5,9,47,85,-1
1537922109968637,-19,-10,61,-50,-17,16,47,85
1537922109968637,2,11,-118,-14,-14,-48,-83,-123
1537922109968637,10,33,3,-16,3,-42,-72,-5
1537922109998557,8,33,28,-11,5,16,6,63
1537922109998557,-51,-39,-49,-41,-21,1,6,-74
1537922109999554,11,-20,8,31,2,33,57,24
1537922109999554,-42,-38,28,-8,13,10,0,-23
1537922110005539,8,-3,33,-30,-13,-5,16,-11
1537922110005539,-3,-33,-17,46,7,-7,-28,17
1537922110006536,5,-2,-6,4,1,-5,-22,5
1537922110006536,21,21,-12,-25,8,3,0,-2
1537922110028477,4,8,23,1,-10,-17,17,-5
1537922110028477,-7,3,-14,23,7,-12,-38,4
1537922110028477,17,12,-13,-6,-4,6,3,-6
1537922110028477,3,6,3,-29,-10,0,28,13
1537922110050418,-14,3,27,8,1,-5,-2,-23
1537922110050418,-20,-11,-4,19,5,-3,-29,16
1537922110051415,16,9,-10,-25,-13,1,12,1
1537922110051415,-1,-46,10,5,6,2,8,-7
1537922110065378,-18,-44,16,5,-3,-12,-13,-8
1537922110065378,-6,-21,-23,-8,-1,-3,-14,7
1537922110073357,10,-21,-2,-3,-2,0,15,1
1537922110073357,1,9,4,0,1,-6,-3,-8
1537922110088317,11,23,7,0,1,0,-1,-6
1537922110088317,2,9,-9,-5,-3,-2,1,13
1537922110089314,6,16,2,3,-2,3,2,-8
1537922110089314,-12,15,5,-5,4,0,-3,0
1537922110110258,-11,1,7,-4,-1,-3,1,-4
1537922110110258,-14,1,-6,4,-3,-5,-8,2
1537922110111255,-5,-2,-2,-1,0,0,-5,0
1537922110111255,3,3,-3,-5,2,0,-1,0
1537922110125218,1,6,4,-2,-4,-4,4,-2
1537922110125218,-2,5,-2,5,2,-2,-10,-1
1537922110133197,-6,15,7,-1,1,3,0,-3
1537922110133197,-7,8,-5,-4,-1,0,7,4
1537922110148157,-9,13,4,0,0,-1,0,-4
1537922110148157,-3,-2,-3,4,5,0,-7,5
1537922110149154,8,-4,-8,-9,-8,-3,1,0
1537922110149154,3,-1,6,4,2,3,2,-1
1537922110171096,1,6,11,2,-1,-2,-4,-1
1537922110171096,5,-4,-13,-5,-2,-2,-2,2
1537922110172093,1,-11,-7,-1,-3,-1,2,1
1537922110172093,4,-23,-4,-5,-3,-4,-2,-1
1537922110185059,0,6,1,5,7,5,1,-2
1537922110185059,4,2,1,-2,-1,-1,1,2
1537922110193037,2,23,3,0,-3,-1,0,1
1537922110193037,-3,-44,-7,-2,1,1,-4,22
1537922110215976,-4,-37,-8,-5,-2,-3,0,13
1537922110215976,-1,-6,-11,1,-2,1,-2,5
1537922110217971,1,1,2,1,-1,-2,-1,-6
1537922110217971,4,6,-8,1,3,1,0,-13
1537922110230936,0,18,7,1,0,-2,2,-10
1537922110230936,1,36,9,-2,-1,-3,-2,-13
1537922110237917,2,13,-8,-5,-3,-1,-1,-5
1537922110237917,-6,-39,7,-6,-1,0,2,-11
1537922110253874,-3,-13,-14,3,0,-2,0,-8
1537922110253874,-3,-27,-8,-4,-1,0,-2,-2
1537922110254872,3,6,-1,-2,-2,-2,0,1
1537922110254872,5,20,5,0,0,1,-1,1
1537922110276813,-2,9,1,0,-2,-1,-2,0
1537922110276813,-1,-2,5,3,3,2,0,2
1537922110277811,-2,-14,0,-1,-1,-1,0,2
1537922110277811,-1,14,-5,-3,0,-2,1,-2
1537922110289779,0,20,5,-3,-2,-2,-1,-2
1537922110289779,-3,-47,0,-2,-2,-2,-1,0
1537922110298755,0,5,-6,-1,-2,-1,-2,1
1537922110298755,-4,-41,-14,0,3,3,1,-3
1537922110313715,0,4,1,-2,-2,-1,-2,-1
1537922110313715,-1,-1,1,3,0,0,0,1
1537922110315710,-1,11,11,-3,-1,-2,0,-1
1537922110315710,2,26,-7,-3,-3,-2,-1,-1
1537922110336654,0,-4,-4,1,0,0,-3,0
1537922110336654,0,15,24,-2,-1,-1,-1,-1
1537922110337651,-3,-28,-28,-3,-2,-1,-1,0
1537922110337651,0,35,7,-1,-2,-4,0,-1
1537922110349619,-2,-22,-7,-2,0,0,0,-2
1537922110349619,-1,-1,0,-2,-1,-2,-1,-2
1537922110358595,-2,-11,2,0,2,1,0,0
1537922110358595,2,10,-2,-3,-5,0,-2,0
1537922110373555,-1,8,20,1,-1,0,0,-1
1537922110373555,1,3,-12,-1,-3,-2,-2,1
1537922110375550,1,19,16,-3,-4,-1,-1,0
1537922110375550,-1,-40,-32,-2,3,0,0,-2
1537922110396494,0,10,-4,-1,-2,-2,-1,0
1537922110396494,0,-17,-9,0,1,3,0,0
1537922110397491,-6,-3,3,4,2,2,0,-3
1537922110397491,1,-47,27,3,0,0,0,0
1537922110410456,-11,14,-20,-13,-7,-4,-3,-6
1537922110410456,-3,16,-15,-3,-1,-3,-1,-2
1537922110417438,3,6,7,2,1,-1,0,3
1537922110417438,2,26,13,5,3,3,1,1
1537922110433395,4,38,12,1,1,2,1,-1
1537922110433395,0,-43,-2,2,-2,-1,0,0
1537922110435390,-6,-37,-7,-3,-1,-1,-6,-5
1537922110435390,4,33,-16,-3,-2,-3,4,2
1537922110456333,-3,25,8,1,0,1,-2,2
1537922110456333,11,40,5,8,4,5,-2,2
1537922110458328,-28,-117,-27,-14,-8,-4,5,-6
1537922110458328,-2,65,-11,-9,-4,-6,-6,-6
1537922110470296,5,55,17,4,4,1,4,3
1537922110470296,18,-1,39,10,5,0,-3,6
1537922110477277,8,112,-26,-3,-2,1,0,11
1537922110477277,-28,-105,-48,-7,-4,-3,-2,-17
1537922110494232,-13,-47,-20,-8,-7,-7,-10,-12
1537922110494232,-17,-26,15,-5,-2,0,4,-8
1537922110495230,18,-1,5,13,12,11,7,-4
1537922110495230,19,51,29,-5,-7,-13,-9,31
1537922110516173,26,-6,5,5,4,20,14,43
1537922110516173,6,100,-2,-18,-7,-12,-15,-13
1537922110518168,-15,-42,-31,-15,-9,6,3,6
1537922110518168,15,-20,-47,-56,3,21,11,-16
1537922110530135,-54,-73,-33,-80,-23,16,11,-18
1537922110530135,1,-33,55,77,28,2,49,0
1537922110539112,8,61,-4,-25,-21,-61,-67,85
1537922110539112,13,33,28,46,10,-21,-29,-26
1537922110554072,49,4,-32,96,46,4,17,77
1537922110554072,-2,-32,-95,-23,5,57,29,29
1537922110555069,3,4,92,3,-17,2,-23,-70
1537922110555069,-17,7,56,92,56,10,49,60
1537922110576013,59,70,52,-128,-10,8,-53,24
1537922110576013,-14,-75,-83,87,-14,-34,60,-33
1537922110578008,-30,22,-52,-84,-7,33,43,-33
1537922110578008,86,40,79,-128,-72,23,-23,5
1537922110589976,-45,-76,-3,127,34,-71,-54,-28
1537922110589976,37,125,-127,-128,11,21,3,60
1537922110598952,11,-39,-75,-111,-83,-48,-68,-13
1537922110598952,2,31,-100,113,38,57,94,82
1537922110613912,-29,63,49,11,59,78,92,-123
1537922110613912,19,-16,127,-28,-22,-63,-110,34
1537922110614909,-39,23,3,100,125,110,103,-9
1537922110614909,-11,-11,-41,-121,-36,-75,-6,36
1537922110636850,25,-10,-82,-59,-49,-33,-21,-19
1537922110636850,-68,13,18,-64,-41,24,59,60
1537922110637848,1,-9,32,-8,-46,-92,-81,-118
1537922110637848,-8,4,-5,18,13,42,39,69
1537922110649816,-28,-44,-43,-112,-25,-31,-46,3
1537922110649816,63,-13,57,89,31,-31,-13,-71
1537922110658792,-36,-9,57,26,5,39,32,29
1537922110658792,7,-11,-54,-45,-5,-19,-19,-81
1537922110673752,-3,-34,-34,-84,-19,-16,35,15
1537922110673752,-22,-55,-26,54,8,29,-40,-35
1537922110675746,35,-12,12,40,32,2,23,43
1537922110675746,-2,10,24,44,5,-12,-17,-31
1537922110696691,-15,42,27,2,-18,10,1,-11
1537922110696691,-16,39,-27,-42,-10,0,-23,-20
1537922110697688,38,28,-9,-5,-13,-5,22,30
1537922110697688,-34,15,19,-33,-12,-18,-32,-47
1537922110709656,-1,-4,-5,26,-1,5,-20,2
1537922110709656,-1,-7,-3,-12,-1,-6,10,21
1537922110718633,15,7,-27,-6,0,-13,-3,8
1537922110718633,-14,-6,10,-2,-2,7,-22,-26
1537922110733593,1,1,19,43,6,3,14,14
1537922110733593,1,-15,-15,-19,-7,-7,1,-9
1537922110735588,5,-10,5,-9,4,9,3,6
1537922110735588,-14,-35,4,8,0,1,-15,-16
1537922110756531,-2,-5,6,13,-7,-3,9,8
1537922110756531,-7,2,2,-27,-2,-4,-10,-12
1537922110757529,4,-20,-11,3,7,5,-9,2
1537922110757529,-4,-15,9,5,-3,-3,4,4
1537922110770494,26,1,-2,9,1,-2,3,29
1537922110770494,-9,15,-2,-15,-4,3,-5,-21
1537922110778473,6,12,-1,6,3,-2,3,8
1537922110778473,9,11,0,0,-4,-5,-5,-10
1537922110793433,2,11,5,-1,-4,3,2,2
1537922110793433,-17,7,-4,-5,1,2,-5,-1
1537922110795428,-12,7,5,6,6,2,6,5
1537922110795428,-20,4,5,-8,-1,-4,-10,-13
1537922110816371,-8,-1,0,4,-4,-1,-6,-4
1537922110816371,-2,-6,0,-3,0,1,1,4
1537922110817369,1,-3,-8,-5,-4,-4,-1,-1
1537922110817369,-7,3,5,4,2,1,-5,-6
1537922110830333,-12,-7,6,9,0,1,2,-4
1537922110830333,-2,0,-2,-5,-1,-1,3,-4
1537922110839310,-3,-3,-2,-6,-4,-3,0,6
1537922110839310,-8,-5,0,1,1,-1,-6,-1
1537922110854269,15,11,8,5,2,2,4,-2
1537922110854269,-6,-13,-2,-6,-2,-3,-2,-2
1537922110855267,2,-2,-10,-1,-2,0,-2,0
1537922110855267,9,2,1,1,-1,-3,-2,4
1537922110876211,-7,-9,-4,-1,-5,-3,-2,-10
1537922110876211,6,5,2,-3,-1,0,-2,0
1537922110878205,1,-4,0,3,2,0,1,3
1537922110878205,0,1,0,-2,-4,-1,-1,-6
1537922110899150,1,-3,7,3,2,3,1,2
1537922110899150,-1,2,-15,-4,0,0,-2,0
1537922110900147,-2,-1,-1,-2,-1,-4,-1,0
1537922110900147,-7,-3,2,-2,0,-2,-1,-4
1537922110913112,6,-3,-2,0,-2,-1,-2,-3
1537922110913112,0,-4,2,3,4,1,1,-1
1537922110920093,2,-1,-5,-3,-4,-1,1,1
1537922110920093,2,1,11,2,1,0,-3,-3
1537922110936051,-6,-5,-14,-3,-2,-3,-1,-2
1537922110936051,6,-13,-13,-4,-1,-2,1,2
1537922110938046,-12,-2,-2,-2,0,-1,-1,-3
1537922110938046,-4,-1,-2,-4,-2,-2,-3,-2
1537922110958989,-2,-5,11,0,-2,0,-2,-1
1537922110958989,0,9,2,0,0,0,-1,0
1537922110959987,-1,-2,10,-6,-5,-2,-2,0
1537922110959987,-5,-23,-27,1,2,1,-1,-4
1537922110972952,-1,-11,-20,5,2,1,0,-3
1537922110972952,0,38,31,-1,-4,-3,0,2
1537922110979934,2,-17,-13,-1,1,0,-2,-6
1537922110979934,3,14,-5,-4,-3,-3,1,-1
1537922110995891,-5,-35,-11,-5,-2,-2,-1,1
1537922110995891,-2,-20,-7,0,0,0,0,-1
1537922110997886,0,19,21,0,1,0,1,0
1537922110997886,1,0,-14,-2,0,-1,-1,-1
1537922111018830,-2,4,-2,-3,0,0,-3,-1
1537922111018830,0,6,16,-1,-3,-1,0,1
1537922111019827,2,0,-13,-2,-2,0,-2,1
1537922111019827,-3,-4,-2,1,-2,3,0,-1
1537922111032792,0,7,10,0,1,0,0,0
1537922111032792,0,-13,-8,-4,0,-1,-1,-1
1537922111039774,1,4,-5,-1,0,2,1,-3
1537922111039774,-1,9,17,1,-2,-1,-1,0
1537922111056728,-2,-6,-4,0,-3,-1,0,-2
1537922111056728,-1,-1,-7,-3,-4,-1,0,-3
1537922111057726,-1,-10,-4,3,2,-1,0,0
1537922111057726,-1,0,1,-3,-2,0,-1,-1
1537922111078669,1,3,5,3,0,-2,1,-1
1537922111078669,-2,1,5,-1,1,0,-2,-2
1537922111080664,0,1,1,-3,-2,-3,-2,3
1537922111080664,-3,-8,-6,0,2,0,-2,-1
1537922111093629,0,4,-3,-2,-1,-2,-1,0
1537922111093629,-1,-6,-9,4,5,3,0,-1
1537922111099613,2,1,7,1,-2,-2,-1,1
1537922111099613,-1,1,6,1,0,-2,-2,-1
1537922111116568,-2,2,-3,-2,-3,-2,-2,0
1537922111116568,0,2,-6,-2,-1,-2,-1,0
1537922111117565,-3,1,7,-1,-1,-2,-1,-1
1537922111117565,-2,-5,0,-2,-1,-1,1,1
1537922111138509,-1,2,-7,1,0,-1,0,-2
1537922111138509,-1,-2,-3,-2,-3,-2,-2,0
1537922111140504,1,-4,-6,0,-1,2,0,-1
1537922111140504,-4,-1,1,2,-1,1,0,-2
1537922111153469,1,7,10,-1,0,-2,0,1
1537922111153469,-1,-1,-3,-2,-2,-1,0,1
1537922111160451,-1,-4,-5,1,1,0,-1,1
1537922111160451,0,-1,4,-4,-5,-2,-2,0
1537922111176408,0,8,13,1,1,2,-1,-1
1537922111176408,-1,-7,-12,2,2,1,-2,-1
1537922111177406,-2,-3,-7,0,-3,-1,-1,-2
1537922111177406,1,0,-1,-1,-1,-1,0,0
1537922111199347,-2,0,-3,-3,-2,0,-1,-1
1537922111199347,-1,2,6,1,0,0,0,0
1537922111200345,-3,0,2,0,0,-1,-2,1
1537922111200345,-1,-1,-2,-3,-2,-1,-1,0
1537922111213310,0,-1,0,-2,-1,-1,0,1
1537922111213310,-1,1,-2,-3,-1,1,0,-3
1537922111221288,0,1,1,5,5,3,3,-1
1537922111221288,1,0,6,-1,-1,-3,0,0
1537922111236248,-1,-1,-7,1,-3,-1,-1,-1
1537922111236248,-2,-3,-6,-4,-4,-3,-2,0
1537922111238243,-2,-2,-2,-1,-1,-1,1,1
1537922111238243,0,-2,-2,-1,0,0,0,0
1537922111259187,1,1,4,-2,1,0,0,-2
1537922111259187,0,0,-1,-1,-3,-2,-2,-1
1537922111260185,0,-3,-1,-3,-4,-2,-1,-2
1537922111260185,-1,-1,1,3,3,1,-2,-1
1537922111273149,-1,0,-3,-1,1,1,-1,-1
1537922111273149,-2,-1,-3,-2,-1,-1,1,1
1537922111280131,1,-1,1,-3,-2,0,0,-1
1537922111280131,-2,-3,-1,-1,-1,0,0,-1
1537922111296088,-3,-2,-2,-1,0,-3,0,-2
1537922111296088,0,-1,2,2,4,2,1,-1
1537922111298083,-1,1,-1,-4,-4,-2,-4,0
1537922111298083,-2,0,-3,-2,-2,-1,1,0
1537922111319027,-3,-1,0,2,3,2,1,-1
1537922111319027,-1,0,1,1,-3,-3,-1,0
1537922111320025,-1,1,-1,-1,-1,-2,0,0
1537922111320025,0,-1,-3,-3,-2,-1,-2,-1
1537922111332990,0,-2,0,-4,-2,0,-2,1
1537922111332990,0,-1,-1,-2,0,-1,0,-1
1537922111339971,-2,2,-1,2,0,1,-1,-1
1537922111339971,-1,4,1,0,-1,1,-2,-2
1537922111355929,0,2,0,0,-3,-2,-1,-1
1537922111355929,-2,-2,1,2,2,-1,-1,-2
1537922111357924,0,-8,-4,-4,-4,-4,-2,-1
1537922111357924,-1,-5,-1,1,2,2,2,0
1537922111378868,1,-5,-2,-2,-2,0,-1,-2
1537922111378868,-2,-3,-1,-2,-1,-1,-1,-1
1537922111379865,-1,1,2,-1,0,1,0,-1
1537922111379865,-1,1,1,0,1,2,0,0
1537922111392830,0,-1,-2,-2,-2,-2,-3,0
1537922111392830,0,-1,1,-1,-1,1,-1,0
1537922111399811,1,0,-1,-2,-3,0,0,-1
1537922111399811,1,0,-1,-1,-2,-2,-1,-2
1537922111416766,-3,1,1,2,2,0,0,1
1537922111416766,0,0,-2,-3,-2,0,-1,-1
1537922111417764,1,-2,-1,-4,-1,-2,-1,-1
1537922111417764,-1,-2,0,0,0,0,-2,-2
1537922111438707,-2,-1,-1,1,-2,1,0,-1
1537922111438707,1,-2,-1,-1,-2,-1,1,-1
1537922111440702,-2,-1,0,1,-1,-1,0,1
1537922111440702,-1,-3,-2,-3,-4,-3,-1,-2
1537922111452670,-2,0,-2,-4,-2,-3,-3,1
1537922111452670,-2,1,2,6,5,2,0,-2
1537922111461646,-1,1,0,0,1,1,-1,-1
1537922111461646,-1,0,0,-1,0,-3,0,0
1537922111476606,-3,-1,-3,-4,-4,-2,1,1
1537922111476606,-2,1,-1,0,2,1,0,-1
1537922111477603,-1,0,-2,2,-3,-2,0,0
1537922111477603,-1,0,-1,-2,0,-1,0,0
1537922111498547,0,0,-1,0,0,-1,-2,0
1537922111498547,0,0,-1,-3,-2,-1,-2,0
1537922111500542,-1,-1,-1,4,4,0,-1,-2
1537922111500542,-3,0,-1,-1,-1,0,-3,-1
1537922111512510,1,-2,0,0,-1,0,0,-1
1537922111512510,1,-1,-1,-3,-3,-3,-1,-1
1537922111521486,-2,-1,-1,-2,0,-1,0,0
1537922111521486,1,0,-2,0,-3,-3,0,-1
1537922111536445,-1,0,0,0,-1,-1,-1,-1
1537922111536445,-1,0,-3,-4,-5,-2,-2,0
1537922111537443,0,-2,0,-1,3,1,-1,0
1537922111537443,0,-2,0,3,3,3,1,-1
1537922111558387,-1,0,-1,-3,-2,-5,-1,-1
1537922111558387,-2,-2,0,0,1,0,-2,1
1537922111560382,0,1,0,-1,-5,-1,0,-1
1537922111560382,0,-1,0,-1,0,1,0,1
1537922111572350,2,0,-1,0,0,1,-2,-1
1537922111572350,-1,0,-2,-3,-5,-2,1,-2
1537922111581326,-1,0,-1,1,2,3,-1,-2
1537922111581326,0,-1,0,-1,0,-4,-1,-1
1537922111596286,-3,-2,-3,-3,-4,-1,-2,-1
1537922111596286,-1,-2,0,1,-1,-1,0,-1
1537922111598280,-1,-2,-1,-1,0,-2,-1,0
1537922111598280,-1,-3,-1,-1,-2,-1,-1,-1
1537922111619225,0,0,-2,-1,-3,-3,1,0
1537922111619225,-2,1,-2,0,1,-1,0,0
1537922111620222,-1,-1,-2,-2,-3,-1,0,-2
1537922111620222,0,-1,-1,-2,-2,-3,-2,-1
1537922111632190,0,-1,3,4,3,3,3,-2
1537922111632190,0,-1,-1,-2,-1,-1,-1,0
1537922111641165,-2,-1,-2,-1,-2,-2,0,-1
1537922111641165,-1,-1,-2,-5,-5,-3,-1,0
1537922111656126,-1,0,0,2,4,2,-1,-1
1537922111656126,-1,1,-1,-1,2,0,-1,0
1537922111658121,1,1,2,1,0,1,-1,0
1537922111658121,-3,-2,-4,-4,-4,-2,-2,0
1537922111679065,-2,-1,0,-2,-3,-2,0,0
1537922111679065,1,-1,2,2,0,0,0,-2
1537922111680062,-1,-3,-2,-3,-3,-3,-2,0
1537922111680062,-1,-1,-2,1,1,0,-2,0
1537922111692030,-1,0,-2,-1,-2,-1,-3,-1
1537922111692030,-3,-1,-2,-2,-3,-1,0,-1
1537922111701006,0,-2,0,0,0,-1,-1,-1
1537922111701006,-1,0,1,1,0,0,2,-1
1537922111715966,-1,-2,0,-2,-1,-2,0,-2
1537922111715966,-1,-2,-1,-2,-4,-4,-2,0
1537922111717961,-1,-1,-1,-2,-2,-2,-1,-1
1537922111717961,0,-1,-1,-1,-2,-1,0,0
1537922111738905,1,0,1,5,3,2,-1,1
1537922111738905,-1,-2,-1,1,-1,-1,-1,-1
1537922111739902,-1,-3,-4,-3,-3,-3,-1,0
1537922111739902,-1,0,2,3,2,1,-1,-3
1537922111752867,2,0,-1,-5,-4,-3,-2,-2
1537922111752867,0,-2,-1,-3,0,0,-2,0
1537922111761843,-1,-1,0,2,3,1,0,0
1537922111761843,-2,-1,-2,-1,-1,0,1,-1
1537922111776803,0,0,-2,2,0,-1,-1,-2
1537922111776803,-1,-2,-1,-1,-3,0,0,-1
1537922111777801,1,-1,-3,-3,-2,-1,0,0
1537922111777801,1,-2,-1,0,-1,0,-1,-1
1537922111798745,-1,2,0,1,2,0,0,0
1537922111798745,0,-2,-2,-3,-2,-1,-1,-2
1537922111800740,-2,-1,0,1,2,2,-2,0
1537922111800740,0,-1,0,-1,-1,-1,0,-2
1537922111812707,0,-2,-2,-4,-1,-4,-1,-1
1537922111812707,-2,-2,-1,2,1,1,0,-2
1537922111821684,-1,-1,-1,2,-2,0,-1,-5
1537922111821684,3,-2,1,-1,0,-3,-3,12
1537922111836643,1,1,-3,-6,0,-1,0,-2
1537922111836643,3,16,-26,-83,-7,10,-14,29
1537922111837641,-18,-24,-40,-5,-20,-19,7,-16
1537922111837641,18,37,0,-23,3,4,18,4
1537922111858585,-5,-39,6,-17,-14,-5,-3,-20
1537922111858585,17,64,-46,-90,-20,24,15,40
1537922111860580,-37,-85,9,67,-29,-32,-17,6
1537922111860580,7,1,51,-58,-11,-8,-26,-26
1537922111881523,-28,-7,61,107,53,14,40,-28
1537922111881523,17,-26,-71,-42,9,-37,-28,20
1537922111882521,7,19,83,40,37,35,60,10
1537922111882521,24,43,-68,-6,33,12,-53,8
1537922111895486,41,-42,79,58,15,-3,22,39
1537922111895486,57,80,74,-9,-8,39,55,-12
1537922111902467,-56,-42,-111,-89,-55,-13,-49,-81
1537922111902467,15,-44,127,127,8,-47,42,57
1537922111918425,44,61,-7,-128,-55,-26,-79,-89
1537922111918425,2,-54,100,127,34,70,74,-37
1537922111920420,29,26,63,-36,-29,-104,-91,124
1537922111920420,-34,-6,-128,-37,-5,40,-34,-34
1537922111941364,37,15,-15,60,7,-6,76,122
1537922111941364,-6,-22,1,-74,-20,-44,-44,-38
1537922111942361,2,44,-100,-11,34,89,-8,7
1537922111942361,-29,-34,-21,-28,2,10,94,30
1537922111955326,-46,2,67,71,19,-16,-115,-48
1537922111955326,-83,-29,-61,29,-9,-22,15,-19
1537922111962307,1,21,-27,-65,-6,11,63,-8
1537922111962307,17,17,-10,-7,-8,-13,-28,-8
1537922111979262,11,-2,-70,-31,-7,20,51,8
1537922111979262,12,-9,2,14,3,-15,-29,-7
1537922111980259,32,10,39,26,14,-4,-35,1
1537922111980259,-11,-6,14,-8,-8,1,30,-3
1537922112001203,-14,-2,-21,-10,-3,12,-10,-1
1537922112001203,-18,-12,10,25,6,-16,-29,3
1537922112003198,12,9,26,-2,5,2,33,3
1537922112003198,-1,-11,-2,1,-8,7,-8,-14
1537922112015166,-14,-4,-39,-22,-5,-1,4,10
1537922112015166,6,-1,3,6,1,-7,-9,7
1537922112022148,10,-1,8,16,13,14,25,-13
1537922112022148,-3,-3,0,-3,-8,-7,-16,-12
1537922112039102,-9,5,-14,-13,-9,-3,-12,-11
1537922112039102,-4,-5,1,-6,-1,-1,15,8
1537922112040099,6,1,13,21,5,4,-1,-13
1537922112040099,-11,-4,6,9,3,-3,-9,-8
1537922112061043,-9,-16,-17,-19,-12,-6,13,9
1537922112061043,-8,10,1,17,6,5,-4,-2
1537922112063038,-9,6,0,-2,4,-1,6,-2
1537922112063038,-1,-4,1,-11,-3,-3,-6,0
1537922112076003,1,-6,-13,-6,-5,3,9,6
1537922112076003,3,-11,2,8,5,1,-3,-6
1537922112081987,10,6,10,7,6,1,-3,1
1537922112081987,11,4,-1,-6,-6,-4,4,-13
1537922112098942,15,5,-6,-6,-1,3,-2,4
1537922112098942,13,0,5,8,-3,-6,-10,1
1537922112099939,3,1,6,-4,0,-1,7,-5
1537922112099939,-8,-4,-2,0,-2,4,-2,0
1537922112120883,-20,8,8,-2,3,1,1,1
1537922112120883,-10,-2,9,4,-2,-6,-5,0
1537922112122878,-10,-9,-41,-5,1,2,3,-7
1537922112122878,-8,7,16,-1,-3,-4,-4,0
1537922112135843,-7,8,-6,-5,-4,-1,-3,-6
1537922112135843,-3,-2,3,-1,0,-1,3,2
1537922112142825,1,6,44,10,3,2,-1,0
1537922112142825,-6,-14,-26,-2,-4,-1,-7,-4
1537922112158782,0,6,-21,-3,-1,1,4,-1
1537922112158782,1,13,8,-1,-3,-3,11,7
1537922112160777,3,23,-2,2,1,1,-2,0
1537922112160777,1,-74,16,3,-2,0,-7,-14
1537922112188702,5,23,-7,-4,1,-3,14,28
1537922112188702,-12,-39,-35,-10,-5,-5,-15,-42
1537922112190697,9,24,25,5,2,6,18,7
1537922112190697,3,49,-24,-7,-6,-11,-58,-6
1537922112194686,-13,-99,-27,-5,0,1,8,0
1537922112194686,1,25,19,-1,-1,-4,-1,11
1537922112203662,-11,-29,-31,-4,-3,-2,3,2
1537922112203662,0,42,55,9,6,5,-10,-22
1537922112218622,-9,19,-15,-10,-6,-4,9,-1
1537922112218622,17,1,-5,8,3,5,-6,16
1537922112220617,-12,-7,4,-4,-4,-2,16,-5
1537922112220617,-7,-89,-55,-13,-9,-4,35,16
1537922112241560,14,102,39,9,4,2,-19,-8
1537922112241560,-16,-69,5,-2,0,2,2,-3
1537922112242558,9,-38,-3,1,-1,0,-16,2
1537922112242558,5,17,4,3,4,2,11,9
1537922112254526,3,-14,-9,-2,0,0,-5,-8
1537922112254526,13,95,7,1,1,0,4,1
1537922112263502,7,-69,-22,2,3,2,-5,-2
1537922112263502,-3,117,41,-2,-2,-1,9,2
1537922112278462,-3,-87,14,-6,-8,-2,-4,-10
1537922112278462,0,-14,4,9,6,-1,-15,1
1537922112280457,-4,15,9,-4,-2,-4,-1,1
1537922112280457,26,109,2,10,6,7,13,9
1537922112301402,-4,-92,-30,-7,0,1,-16,47
1537922112301402,0,-12,-24,-17,-2,20,13,-29
1537922112302399,-14,27,33,-74,-20,-15,-2,38
1537922112302399,25,-38,-68,-16,2,31,53,9
1537922112315364,-105,-66,5,43,-14,-67,-96,-81
1537922112315364,18,32,-2,-17,-22,-50,40,75
1537922112324340,63,36,53,87,24,41,25,-49
1537922112324340,69,-17,-87,-94,-1,85,34,24
1537922112339300,39,9,108,102,40,-70,-67,40
1537922112339300,33,23,-7,-33,12,-9,53,9
1537922112340298,44,7,-112,-66,-43,-4,64,-118
1537922112340298,-4,-37,94,99,20,-87,-109,78
1537922112361241,-21,43,-12,-128,-12,60,24,-62
1537922112361241,-60,-27,-11,-61,-66,-41,-27,66
1537922112363236,98,75,45,66,65,76,2,77
1537922112363236,-113,15,-18,-114,-45,-13,-56,-22
1537922112375204,72,-29,-75,127,34,-28,-77,41
1537922112375204,39,10,101,56,37,33,50,2
1537922112384181,-128,-30,-52,-107,-47,-63,-37,-76
1537922112384181,9,-61,92,28,-18,22,55,88
1537922112399140,27,76,-10,-22,43,76,127,38
1537922112399140,58,1,-62,48,16,3,-64,24
1537922112400137,-51,-46,1,29,18,-24,-81,-33
1537922112400137,-7,-16,-91,-51,-3,-9,72,38
1537922112421081,1,48,-15,-61,-55,-11,89,-128
1537922112421081,-29,-25,-10,4,26,84,76,6
1537922112423076,1,-11,-10,-20,-35,-119,-122,-24
1537922112423076,24,21,8,14,-4,-18,-9,-14
1537922112435044,11,20,-6,-22,-4,49,33,49
1537922112435044,-9,-7,7,16,13,20,-46,-37
1537922112444020,-13,-3,-17,7,9,17,-1,13
1537922112444020,-17,-17,14,16,7,-3,-5,-70
1537922112458980,7,-9,13,0,0,4,-7,39
1537922112458980,-30,-2,-27,-11,-5,-31,-45,-46
1537922112459978,1,6,5,-13,-13,7,35,25
1537922112459978,14,-12,7,25,8,7,12,-13
1537922112480922,-3,6,-7,-25,-8,-4,-12,10
1537922112480922,-1,-2,-6,1,2,-11,-9,-18
1537922112482916,15,1,13,14,12,28,45,41
1537922112482916,-1,-23,-2,7,6,-1,-15,-27
1537922112494884,-7,-1,-8,-7,-5,-6,-17,-8
1537922112494884,-5,-14,-7,-25,-17,-13,-5,-12
1537922112503860,15,6,12,12,7,15,14,34
1537922112503860,-11,15,-14,2,-1,-17,-17,-33
1537922112518820,-1,5,-2,-16,-11,-1,3,2
1537922112518820,11,-37,4,5,4,2,3,4
1537922112519818,-4,-13,2,-1,-1,7,9,15
1537922112519818,-10,-18,7,8,5,-2,-2,-9
1537922112541758,-10,3,-6,-6,-3,1,6,0
1537922112541758,-1,11,6,-2,0,1,-6,-3
1537922112542756,9,10,1,-2,-1,-1,0,-5
1537922112542756,13,15,2,2,-1,-4,0,-11
1537922112554724,-1,9,4,1,-3,0,-1,15
1537922112554724,-22,7,-12,-5,-7,-8,-12,-13
1537922112563700,-16,3,13,-1,-3,1,8,4
1537922112563700,-5,4,12,13,6,1,6,-3
1537922112578660,-6,4,-12,-6,-3,-2,-3,2
1537922112578660,0,4,-16,-8,-7,-3,-2,-4
1537922112580655,-6,-14,-28,0,0,5,11,12
1537922112580655,-2,-8,1,5,3,1,-5,-10
1537922112601599,1,4,12,-3,-3,-4,-5,1
1537922112601599,-5,6,9,-2,-1,-2,0,-3
1537922112602596,4,-2,6,3,4,4,4,9
1537922112602596,1,-3,-4,0,-2,-4,-4,-9
1537922112614564,-2,-1,-2,-5,-6,-3,-1,0
1537922112614564,5,13,1,0,2,1,0,0
1537922112623540,9,-5,3,1,1,2,1,6
1537922112623540,-4,-7,-7,-2,0,-3,-3,-7
1537922112638500,8,-4,-2,-1,-1,1,2,3
1537922112638500,3,-4,-3,-1,0,-2,-2,-3
1537922112640495,0,0,1,-4,-2,-1,-1,-3
1537922112640495,6,0,-3,1,2,1,-2,-1
1537922112661439,1,-1,7,4,4,3,0,2
1537922112661439,-2,-14,19,2,-3,-3,-4,-4
1537922112662436,-6,8,-32,-3,-3,0,2,0
1537922112662436,-3,14,1,-5,-3,-3,0,-4
1537922112675401,-2,-6,-5,-2,-2,-1,0,5
1537922112675401,-4,-4,-6,-3,-4,0,-3,-3
1537922112684377,1,-1,19,3,0,1,2,2
1537922112684377,1,-8,-7,2,0,0,-2,-2
1537922112698340,1,1,1,-1,0,-2,-2,-1
1537922112698340,-1,-4,-2,0,-1,0,-1,0
1537922112700335,2,-4,-4,-3,-2,-1,1,2
1537922112700335,-1,3,10,0,1,1,-3,-6
1537922112721278,0,1,-7,-3,-3,-3,-1,-3
1537922112721278,-1,0,13,-3,-3,-3,0,2
1537922112723273,-1,-14,-46,-5,0,0,-1,-2
1537922112723273,-1,-5,-3,0,0,0,0,-1
1537922112735241,0,-13,-11,-3,-4,-2,1,1
1537922112735241,-5,9,-2,1,3,0,0,-3
1537922112744217,-2,-1,20,4,1,1,-1,2
1537922112744217,0,15,7,-5,-4,-3,-3,-2
1537922112758180,0,10,1,0,-2,-2,-2,-2
1537922112758180,-1,2,-12,-4,0,-1,0,-2
1537922112765161,-1,3,24,2,0,-3,0,2
1537922112765161,-3,-23,-12,0,1,0,1,-1
1537922112781119,0,-4,-16,-2,-1,0,-2,0
1537922112781119,0,-2,-4,0,-1,-1,-1,0
1537922112783113,0,4,17,-2,-2,-1,-1,0
1537922112783113,-3,1,-8,-2,-2,-2,-1,-2
1537922112795081,-1,1,12,3,4,2,0,-2
1537922112795081,-2,-6,-11,-2,-3,-3,0,0
1537922112804057,3,2,-2,-3,-3,-2,-2,0
1537922112804057,0,-3,-2,0,0,1,1,1
1537922112819017,-2,-1,3,-3,-3,-1,0,-3
1537922112819017,-1,-3,-9,-3,-2,-2,-1,0
1537922112820014,-2,0,3,2,0,-1,0,-2
1537922112820014,-1,-5,-5,0,1,-1,1,0
1537922112840958,-1,3,5,2,4,-1,1,-1
1537922112840958,-2,2,3,-2,-2,0,0,0
1537922112842953,0,-1,-3,-1,-1,2,1,0
1537922112842953,-1,1,4,-2,-2,-3,-2,-1
1537922112863897,-1,-6,-2,3,4,-1,1,-2
1537922112863897,1,-8,-12,-2,-2,-3,-1,-1
1537922112864894,-2,12,12,-2,0,-1,-2,-2
1537922112864894,0,-6,-20,-4,-4,-1,-1,0
1537922112877860,-2,0,8,-2,-2,1,-1,0
1537922112877860,1,0,-4,-4,0,-1,-2,0
1537922112884841,1,-4,16,4,2,1,0,-2
1537922112884841,0,-7,-8,-2,-1,-2,-1,-2
1537922112900799,-4,-3,-12,-2,0,-2,-1,-1
1537922112900799,-2,-3,2,1,-1,-1,0,-1
1537922112902793,0,-3,-4,1,1,-1,-2,-1
1537922112902793,-1,6,12,1,1,0,-1,0
1537922112923738,0,-2,-3,1,2,2,-2,0
1537922112923738,1,1,-3,-5,-5,-2,-1,0
1537922112925733,-1,0,0,-1,1,0,1,0
1537922112925733,0,-2,-5,-2,-2,-3,-1,-1
1537922112937700,-2,1,2,-5,-2,-2,-3,0
1537922112937700,-1,3,16,1,2,0,-1,-1
1537922112944681,-1,-3,-11,-1,-2,-2,0,-1
1537922112944681,-3,-3,12,3,4,3,-1,-3
1537922112961636,-1,-11,-32,-3,-5,-2,-1,-1
1537922112961636,0,8,7,0,1,-1,-1,-1
1537922112962633,0,1,2,-2,-1,0,1,-2
1537922112962633,0,5,14,3,0,0,1,0
1537922112983577,0,-14,-20,-1,-4,-2,0,-1
1537922112983577,-2,-1,2,1,4,3,-1,-2
1537922112985572,-1,-2,1,-1,1,0,0,1
1537922112985572,0,1,-4,-5,-4,-3,-1,-1
1537922112998537,-1,4,11,1,1,1,0,-1
1537922112998537,1,-5,-4,2,1,0,0,-1
1537922113006516,-1,-3,-4,-3,-4,-2,-1,0
1537922113006516,-1,1,1,3,4,3,-2,-1
1537922113021476,0,2,6,-2,-2,-1,0,0
1537922113021476,-1,0,-1,0,0,-2,-1,-1
1537922113022473,-2,-2,-3,-4,-1,-3,-1,0
1537922113022473,-1,-5,-9,0,1,1,0,-3
1537922113043417,2,9,21,0,-1,-1,1,0
1537922113043417,-1,-3,-7,-2,-4,-3,-1,-2
1537922113045412,0,-8,-11,-1,-1,1,-2,-1
1537922113045412,-1,-1,-6,-1,-3,-3,-2,-1
1537922113058377,-1,2,5,1,1,1,-1,-1
1537922113058377,0,-1,0,-1,-2,-2,0,-1
1537922113065359,-2,-1,13,2,-3,2,1,0
1537922113065359,0,-2,-21,-4,-2,-2,-1,0
1537922113081316,-1,1,2,-4,-4,-2,1,-1
1537922113081316,0,-3,-1,0,1,0,2,0
1537922113082313,-2,0,-3,2,3,1,-1,-1
1537922113082313,-1,-2,6,1,1,0,1,0
1537922113104255,0,1,-2,-4,-7,-4,-2,-1
1537922113104255,-3,-3,-5,0,-2,-1,-1,-1
1537922113105252,0,-1,-4,-1,0,0,-1,-2
1537922113105252,1,1,1,-3,-5,-1,-1,0
1537922113118217,-1,-2,-1,-1,2,-1,-1,0
1537922113118217,0,-1,2,0,-1,1,-1,-1
1537922113125199,0,2,-2,0,0,-1,-2,0
1537922113125199,0,-1,0,-2,-4,-2,-1,0
1537922113141156,-2,3,8,2,0,1,0,-1
1537922113141156,-1,-2,-4,-1,0,1,-1,0
1537922113143151,-1,0,-11,-3,-2,-2,0,0
1537922113143151,-2,-4,-3,0,-1,0,0,-1
1537922113164095,-2,1,3,-1,-1,-1,-1,0
1537922113164095,-1,0,3,1,1,-1,0,-1
1537922113165093,-1,-2,-4,0,1,0,0,-2
1537922113165093,-1,-1,8,-2,-1,-1,0,-1
1537922113178058,0,-1,-1,1,0,0,-1,-3
1537922113178058,-1,0,-4,-4,-6,-3,-4,-1
1537922113185039,0,-2,-3,-1,2,0,-1,-1
1537922113185039,-1,-3,0,1,-1,-1,-3,0
1537922113200997,-2,-1,-2,0,1,0,-2,-1
1537922113200997,-1,-1,-4,-5,-4,-5,-2,0
1537922113202991,-1,-3,4,2,-1,2,0,-1
1537922113202991,0,5,0,-2,-1,-1,-1,-1
1537922113223935,0,-2,-5,0,1,0,0,-2
1537922113223935,-1,0,-6,1,0,0,0,1
1537922113224932,0,1,2,-1,-2,-4,0,-2
1537922113224932,0,-2,7,0,1,0,0,-2
1537922113237897,1,-5,-10,-7,-4,-3,-2,2
1537922113237897,-1,4,10,5,7,5,1,-1
1537922113244878,0,-1,-1,0,1,-1,0,0
1537922113244878,0,2,-1,0,-1,0,-2,-2
1537922113260836,-1,-2,0,-2,-2,-3,-1,-2
1537922113260836,0,-3,-3,-3,-3,-3,-2,-2
1537922113262831,-1,-1,-5,-6,-6,-4,-2,0
1537922113262831,0,-2,-1,7,7,5,1,-3
1537922113283775,2,4,3,2,-1,-1,0,0
1537922113283775,1,0,1,0,-3,0,0,-2
1537922113284772,1,2,1,1,-1,1,0,-2
1537922113284772,-1,-6,-17,-5,-3,-2,-1,0
1537922113297737,-1,-6,4,-1,-1,-1,0,-1
1537922113297737,-1,-1,0,0,-2,-1,-1,-1
1537922113304719,-1,1,3,0,-1,-1,0,-2
1537922113304719,1,3,6,1,0,-2,-1,-2
1537922113321674,-1,4,17,3,2,2,-2,0
1537922113321674,0,-8,-25,-6,-2,-3,-1,-1
1537922113322671,-1,-5,-6,-4,-3,-2,-1,-1
1537922113322671,-3,-5,-9,-2,-1,-2,0,-1
1537922113342618,0,-1,-4,3,4,2,0,-1
1537922113342618,-1,4,17,0,0,-1,-1,-1
1537922113343615,0,-6,-8,-1,0,0,-3,0
1537922113343615,-2,4,7,2,0,-1,-3,0
1537922113366554,0,1,-5,-4,-6,-4,-1,-1
1537922113366554,1,-4,-2,1,1,0,1,-2
1537922113366554,-2,-1,-4,-1,-2,-2,-2,0
1537922113366554,0,2,10,-3,-4,-2,-2,-2
1537922113380516,-2,-1,-3,2,2,0,1,-2
1537922113380516,-2,2,3,2,1,0,-2,0
1537922113381514,-1,2,-7,-5,-4,-1,0,0
1537922113381514,1,-14,-6,-1,2,2,1,0
1537922113403455,-1,7,3,-2,-1,-1,-1,-1
1537922113403455,0,-3,-4,-1,-3,-1,0,1
1537922113403455,-1,-4,18,1,1,-1,-1,-2
1537922113403455,6,21,-20,0,-2,-1,0,3
1537922113417418,1,13,6,-3,0,-2,-3,-1
1537922113417418,-8,-16,-12,-3,-3,-3,-3,-1
1537922113425397,1,5,4,3,2,1,0,1
1537922113425397,0,-4,8,0,-1,-2,-1,0
1537922113440356,12,91,-1,6,3,3,0,3
1537922113440356,-15,-89,-21,-9,-3,-4,-2,-4
1537922113441354,1,11,0,-2,-3,-3,0,-1
1537922113441354,-6,-5,8,-5,-3,-4,-1,-3
1537922113463296,-7,-44,-23,-3,-5,-2,-1,0
1537922113463296,9,66,33,9,6,3,1,1
1537922113464293,0,-4,-13,0,2,1,0,0
1537922113464293,-1,-29,7,0,0,0,1,3
1537922113477258,2,-22,-3,-1,0,1,0,0
1537922113477258,-7,-59,-26,-7,-5,-4,-8,-6
1537922113485236,1,17,2,2,2,2,3,6
1537922113485236,0,33,11,0,-3,0,-1,0
1537922113500196,5,27,-1,0,-2,0,-3,-20
1537922113500196,-6,-63,-9,-2,-1,1,1,-1
1537922113501194,-5,7,6,-7,-6,-4,-4,-5
1537922113501194,-2,-45,-10,1,4,-1,-2,-3
1537922113523135,-9,-65,1,-3,-1,-2,-1,1
1537922113523135,12,81,10,2,-2,-1,-3,3
1537922113524132,-1,-8,-1,3,2,-2,0,-7
1537922113524132,-2,-7,-23,-4,-4,3,1,1
1537922113537097,2,25,10,-2,1,0,0,0
1537922113537097,4,10,12,-2,-2,0,2,16
1537922113546073,-2,-21,-21,-1,-1,-3,-7,-2
1537922113546073,1,15,8,1,0,-2,3,-1
1537922113561034,-2,-16,-2,-2,-1,-1,-2,3
1537922113561034,1,13,-4,-1,-1,-1,2,-1
1537922113561034,3,5,10,0,0,1,2,0
1537922113561034,-3,7,0,-1,-4,-4,-4,-2
1537922113582975,-3,-5,-3,0,-4,-2,1,0
1537922113582975,-1,2,0,1,1,-1,1,-2
1537922113583973,3,11,-3,3,-1,0,-1,1
1537922113583973,-4,-27,7,-7,-5,-4,-8,-9
1537922113605914,-4,-1,-8,-3,1,-2,7,4
1537922113605914,1,16,8,1,1,0,0,-1
1537922113606911,-1,-16,-5,0,0,2,2,0
1537922113606911,2,9,-5,-1,-1,-1,-2,2
1537922113620874,-1,9,30,2,-2,-2,-3,1
1537922113620874,-3,-18,-63,0,1,-1,-2,-6
1537922113620874,-3,20,13,-3,-5,-3,-2,-4
1537922113620874,-1,-9,-2,6,6,3,1,1
1537922113642815,-2,-1,0,-2,-3,-2,-2,0
1537922113642815,3,18,21,0,-1,-1,-1,-2
1537922113643814,-4,-13,-4,-1,0,-1,-3,0
1537922113643814,-1,8,-8,2,2,2,-2,1
1537922113657776,0,-4,6,0,-1,-1,-3,-1
1537922113657776,2,15,2,-1,0,0,0,-1
1537922113665754,-4,-25,-9,-2,1,1,3,0
1537922113665754,3,60,13,0,1,-1,-2,0
1537922113680715,-4,-12,-10,1,2,2,-2,-2
1537922113680715,-2,12,2,-6,-5,-4,-4,-3
1537922113681711,3,11,6,1,0,0,-3,-6
1537922113681711,4,40,4,0,-1,-2,3,2
1537922113702655,3,-27,1,2,2,-1,0,0
1537922113702655,7,79,6,1,-3,-4,1,13
1537922113703653,-4,-48,-24,-5,2,-1,-15,-12
1537922113703653,-8,-79,-27,-76,-12,2,-6,35
1537922113717616,-27,-22,8,-21,-11,-8,8,-23
1537922113717616,-6,-28,-27,-58,-11,12,37,-32
1537922113725594,8,32,10,65,-3,-35,-8,48
1537922113725594,-1,-5,-70,54,23,49,-41,-89
1537922113740554,5,53,-103,-107,-20,-46,2,51
1537922113740554,-16,-51,77,122,42,29,-29,-51
1537922113741551,-9,30,-89,-72,-29,-21,41,35
1537922113741551,-11,-30,99,118,9,11,-24,4
1537922113763493,6,44,102,-57,-29,-12,1,4
1537922113763493,1,-20,-101,59,63,47,36,1
1537922113763493,60,-20,115,25,-20,-50,-50,17
1537922113763493,-7,49,-98,-60,-9,6,26,23
1537922113786432,-37,-18,37,-23,-28,12,-1,-92
1537922113786432,-57,-4,127,91,-14,-63,-9,-32
1537922113787429,38,-47,-67,-35,6,42,31,70
1537922113787429,29,35,-76,-99,-40,-17,-5,-9
1537922113800395,46,-23,98,127,60,-10,-8,2
1537922113800395,-41,76,-24,-128,-4,58,33,-20
1537922113801392,-66,-41,-72,-14,7,-16,-36,-47
1537922113801392,4,36,107,66,59,19,15,-44
1537922113823333,55,-2,-128,-107,-69,40,0,4
1537922113823333,10,-44,35,127,26,-49,29,26
1537922113823333,3,55,38,-33,15,25,7,44
1537922113823333,-17,-25,-45,9,17,-17,-27,-37
1537922113846272,2,-11,-82,-17,-16,-37,84,69
1537922113846272,20,6,-32,-57,-5,52,-84,-17
1537922113847269,9,6,-59,-87,-31,-25,16,-9
1537922113847269,-14,-19,83,45,-21,-61,-70,5
1537922113860234,-1,10,95,94,62,52,77,110
1537922113860234,-3,-3,-8,-26,-17,28,51,-43
1537922113861232,-12,-13,-51,119,29,-28,-63,-29
1537922113861232,-13,-6,25,-41,-15,-2,28,-49
1537922113883173,-25,18,-103,-72,-23,-4,-60,-36
1537922113883173,10,-26,-36,40,-10,41,81,63
1537922113884171,-33,-55,114,75,22,23,-49,-34
1537922113884171,13,4,123,85,63,8,54,40
1537922113906111,0,-3,-29,-18,30,10,-27,-22
1537922113906111,42,9,-56,-73,-12,-40,-35,35
1537922113907109,8,24,-31,-74,-33,-5,10,-35
1537922113907109,-3,-8,-61,-55,-40,-6,12,33
1537922113921071,0,-14,21,28,18,11,-6,-8
1537922113921071,12,-2,-10,-50,-30,-35,-33,0
1537922113921071,-9,20,32,3,-5,14,20,-4
1537922113921071,4,-5,-10,-17,-5,11,26,23
1537922113943013,-8,-15,-5,3,-1,-9,-25,-22
1537922113943013,35,-9,13,-12,-12,-33,-32,14
1537922113944010,27,6,13,5,9,21,36,-12
1537922113944010,5,-8,-32,-20,-6,0,6,20
1537922113965951,-23,-5,5,13,2,-10,-21,-14
1537922113965951,-10,4,10,-9,-8,-13,-13,12
1537922113966950,-17,8,17,-2,11,17,23,2
1537922113966950,3,-5,-21,-19,-11,-3,0,2
1537922113980911,3,2,16,15,-3,-6,-12,-1
1537922113980911,-20,0,13,-4,4,-3,-1,25
1537922113980911,-22,10,-6,-18,-5,5,6,-31
1537922113980911,-17,-1,-12,-12,-8,-10,-6,11
1537922114002853,-22,1,6,16,2,2,0,-19
1537922114002853,-3,-1,-2,-10,-1,-9,-8,12
1537922114003850,0,2,3,-9,-1,1,2,1
1537922114003850,-3,-1,-6,-5,-6,-2,3,8
1537922114025792,-1,-6,13,18,12,8,-1,2
1537922114025792,5,1,-6,-14,-10,-12,-9,-6
1537922114026789,1,3,9,-6,0,3,5,0
1537922114026789,4,-6,-3,2,4,6,5,0
1537922114040751,6,0,-4,-3,-3,-5,-5,0
1537922114040751,3,-5,-1,-4,-5,-8,-6,-3
1537922114041749,5,10,6,2,5,5,8,-1
1537922114041749,12,1,-1,-10,-6,-6,0,7
1537922114062693,4,4,12,2,-1,-4,-6,-1
1537922114062693,-2,-5,-6,-1,-1,-3,-5,-6
1537922114063690,-4,-1,-13,-3,1,5,4,-3
1537922114063690,4,-4,-11,-16,-10,-6,-1,3
1537922114086629,-4,-4,5,16,6,3,-2,-3
1537922114086629,2,-1,3,-3,0,-1,-1,2
1537922114086629,3,-6,2,-1,-1,2,2,3
1537922114086629,2,14,-2,-1,-3,-1,-2,0
1537922114100591,-5,-1,-3,-13,-9,-7,-1,-3
1537922114100591,3,8,14,2,0,0,-2,4
1537922114101589,-1,-8,-12,1,4,1,2,-3
1537922114101589,0,-7,-15,-10,-2,1,2,2
1537922114123530,2,-2,5,10,4,0,-1,-2
1537922114123530,-3,-3,-19,-5,-3,-3,-5,-2
1537922114123530,-1,10,45,3,0,0,1,2
1537922114123530,-2,-8,-38,-6,2,0,-1,2
1537922114146469,1,-4,-8,-6,-2,-2,-3,-2
1537922114146469,-4,0,0,-6,-4,-3,-1,-4
1537922114146469,-1,0,-3,-1,-1,0,0,0
1537922114146469,2,0,6,-11,-4,0,0,4
1537922114160431,-5,-1,0,10,2,2,0,3
1537922114160431,-3,-5,4,-2,-2,-2,-2,0
1537922114161429,0,0,-10,0,1,1,1,-1
1537922114161429,-1,-4,1,-2,-3,-1,0,-3
1537922114183371,5,3,-1,-5,-1,0,-1,-2
1537922114183371,-6,1,5,-4,-2,-2,-3,-3
1537922114183371,0,-2,-2,2,0,0,0,0
1537922114183371,-2,-2,2,0,-1,-3,-2,0
1537922114206309,-1,-1,-4,2,2,1,1,-2
1537922114206309,1,1,-2,2,0,0,-2,2
1537922114207307,-5,0,-3,-3,0,0,-2,0
1537922114207307,-6,2,2,4,-2,-3,-1,0
1537922114220272,-2,-6,-5,-7,-2,-3,-2,1
1537922114220272,-1,0,3,1,2,3,0,0
1537922114221269,2,7,2,0,-1,-2,0,-2
1537922114221269,2,0,13,3,2,0,-1,0
1537922114243210,-1,-4,-19,-3,-3,-3,-1,-2
1537922114243210,2,-4,-5,-4,-3,-3,-1,-1
1537922114244207,-1,-6,-2,-3,-2,-3,-2,1
1537922114244207,2,3,7,3,1,1,-1,-1
1537922114267146,4,-1,2,-1,0,1,-2,1
1537922114267146,-1,-2,-3,-2,-3,-4,-1,-1
1537922114267146,1,-7,2,1,-1,-2,1,-2
1537922114267146,0,10,14,-2,-2,0,-2,0
1537922114280111,0,0,-4,-2,0,-2,-2,-1
1537922114280111,-3,-3,-20,-2,-1,-1,0,-2
1537922114281109,-2,-1,-16,-6,-3,-3,1,-3
1537922114281109,1,-12,0,7,5,2,3,2
1537922114303050,1,2,12,-1,-2,-2,-2,-4
1537922114303050,-2,-1,11,-2,0,0,-3,1
1537922114304048,-2,-2,-9,-4,-2,-1,-1,0
1537922114304048,-3,-4,-6,-3,-3,-1,-2,-2
1537922114325989,-1,2,4,8,5,4,2,-1
1537922114325989,5,14,9,0,0,-3,-2,-3
1537922114326986,-2,0,-10,-4,-2,-1,-3,-1
1537922114326986,-1,-6,-4,4,-1,-2,0,-1
1537922114339951,-3,-4,1,-1,1,0,-2,-3
1537922114339951,0,-6,1,2,0,0,1,2
1537922114347930,0,5,12,1,-4,-2,0,-1
1537922114347930,1,-5,-5,2,4,1,1,0
1537922114362890,-1,7,-11,-10,-8,-5,-2,0
1537922114362890,-6,6,-2,0,3,1,0,-3
1537922114363888,-1,-16,-8,-2,2,0,0,-1
1537922114363888,-1,4,10,4,2,-1,-1,-1
1537922114386826,0,-9,9,1,-1,-2,-1,1
1537922114386826,2,-3,-29,-8,-3,-2,-1,1
1537922114387824,-2,6,5,1,-1,0,-2,-2
1537922114387824,1,-1,2,-1,0,-1,0,1
1537922114399792,4,-2,1,1,1,0,-3,2
1537922114399792,-5,19,5,-2,-4,-3,-3,-3
1537922114407771,-3,-10,12,6,9,5,1,-2
1537922114407771,-1,3,-16,-5,-6,-2,0,-1
1537922114422731,-8,-16,-2,0,-1,-1,1,-2
1537922114422731,3,2,2,1,-2,-1,1,1
1537922114423728,2,7,6,1,-1,0,0,1
1537922114423728,0,-12,-11,-2,-2,-1,-1,-1
1537922114446667,5,27,5,-1,-1,0,0,0
1537922114446667,-6,-41,-8,3,5,3,-1,-2
1537922114446667,3,4,-3,-2,-5,-2,-2,0
1537922114446667,2,-2,10,1,1,1,0,1
1537922114459632,-1,1,-23,0,-2,0,-1,-1
1537922114459632,0,5,10,-3,-3,-3,-1,-2
1537922114468608,-2,-13,-8,-6,-2,-2,-4,1
1537922114468608,-1,1,7,-1,-1,-2,-3,0
1537922114483568,-1,4,-4,0,-1,0,-1,0
1537922114483568,0,7,6,3,3,2,2,0
1537922114483568,0,2,-3,0,-3,-4,1,-2
1537922114483568,-3,2,1,-6,-1,1,-1,-3
1537922114506507,-2,-7,-7,1,2,1,-1,-2
1537922114506507,1,1,7,-2,-3,-2,-2,1
1537922114506507,-1,0,-2,-1,0,-1,-2,-2
1537922114506507,-2,4,4,-1,0,-2,-1,-1
1537922114519472,-1,3,7,-1,-2,0,0,-2
1537922114519472,1,-5,-9,1,0,1,-1,0
1537922114528447,-4,4,1,2,-1,-1,-1,0
1537922114528447,-1,-4,-2,-3,-2,-2,-2,-1
1537922114543407,-2,-10,6,-3,0,-3,-1,0
1537922114543407,1,0,-13,-3,-4,-3,-2,-1
1537922114543407,-1,5,0,-1,-1,1,0,0
1537922114543407,0,-1,-6,-1,-1,0,-2,-2
1537922114566347,-1,-4,3,5,5,3,2,-1
1537922114566347,-2,3,9,-2,-4,-4,0,2
1537922114567344,1,8,9,3,2,3,-1,-1
1537922114567344,1,5,-27,3,-1,1,1,0
1537922114580309,-6,-30,1,-4,-4,-2,-4,-1
1537922114580309,-3,1,1,-4,-2,-2,-2,0
1537922114588288,1,-6,-9,-3,-3,-2,0,0
1537922114588288,-1,8,6,1,1,1,0,-1
1537922114603248,4,9,1,0,-1,-1,-1,1
1537922114603248,0,-2,2,0,0,-2,-1,-2
1537922114604245,-1,-1,-4,-4,-3,-1,-1,0
1537922114604245,-2,-2,2,-3,-1,-4,-1,0
1537922114626186,-2,3,-2,1,2,1,-1,-1
1537922114626186,1,-2,2,2,1,3,0,-2
1537922114627183,-1,3,-2,0,0,-1,1,-1
1537922114627183,-2,-5,0,0,-1,0,-1,0
1537922114640149,-3,0,-1,-1,0,0,-1,0
1537922114640149,-1,2,-3,-2,-1,-1,-1,-1
1537922114648128,1,-2,-2,-1,-2,-1,0,-1
1537922114648128,-2,-6,1,-1,-1,-1,-2,-3
1537922114663088,-1,-1,-11,-4,-4,-5,-2,0
1537922114663088,0,1,2,2,1,1,0,0
1537922114664086,0,-3,0,2,2,0,0,0
1537922114664086,-1,-1,1,-1,-1,-2,0,-1
1537922114686026,0,4,1,-1,0,2,0,0
1537922114686026,-1,-3,0,1,-3,-2,-1,0
1537922114687024,-4,-4,-1,-1,-3,-2,-1,-2
1537922114687024,-2,0,1,0,0,-1,-1,-1
1537922114708965,0,1,-1,-1,-1,0,-1,0
1537922114708965,0,-2,-4,-1,-2,-3,-4,-2
1537922114709962,0,-1,-1,-1,-3,-4,-2,-1
1537922114709962,0,2,0,0,0,0,0,1
1537922114722928,-1,0,-1,-3,-2,-3,-2,-1
1537922114722928,-1,-1,-1,0,3,0,1,-1
1537922114723927,0,0,0,0,-2,0,-2,-1
1537922114723927,-1,-4,-3,-2,-3,-3,-3,-1
1537922114745867,-1,-1,2,1,0,0,-1,-1
1537922114745867,1,3,1,1,1,1,0,0
1537922114746864,-1,0,0,1,2,2,0,0
1537922114746864,-3,-2,-2,-3,-4,-3,-1,-4
1537922114768806,0,2,0,-2,-3,-3,-1,-1
1537922114768806,-1,-1,-1,0,-1,-1,-1,0
1537922114769803,-1,0,-2,-1,2,0,0,0
1537922114769803,0,-1,-2,-1,-2,1,-1,-1
1537922114782768,-1,-1,-3,-4,-4,-4,-1,1
1537922114782768,-2,-1,1,2,5,2,1,-2
1537922114783766,-2,-1,-3,-1,-1,-1,-1,0
1537922114783766,0,-1,-1,-2,1,-2,0,-1
1537922114806704,0,0,0,-2,-4,-2,0,0
1537922114806704,0,-3,0,-2,-1,-1,0,-1
1537922114806704,0,-2,-2,-4,-4,-1,-3,-1
1537922114806704,-1,-2,2,4,4,1,0,-2
1537922114828645,-1,-1,-2,2,1,-1,-1,-1
1537922114828645,-1,-1,-1,-2,-2,-1,-1,1
1537922114829643,0,0,-3,-2,-1,-3,-2,0
1537922114829643,-1,0,-2,-3,-4,-3,-2,0
1537922114842608,-1,-2,0,3,2,1,-1,-2
1537922114842608,1,0,-1,0,-1,-3,-2,-6
1537922114843605,4,-2,-2,-1,-3,-2,0,2
1537922114843605,5,24,-1,-1,-1,1,4,9
1537922114866544,4,22,9,0,1,-1,-1,2
1537922114866544,-9,19,-6,-11,-6,-3,-5,-13
1537922114866544,-4,-79,-54,-98,-13,-1,-7,16
1537922114866544,-18,-42,57,64,9,0,-1,-49
1537922114888485,15,34,-52,-54,-1,12,-5,-8
1537922114888485,-6,11,-30,-18,-3,1,-1,33
1537922114889483,2,17,44,93,9,-22,16,-5
1537922114889483,5,39,-80,-114,-22,11,3,-41
1537922114902448,-26,-29,127,72,25,-11,-30,-19
1537922114902448,10,-15,2,90,24,12,13,-17
1537922114911425,8,20,-60,-97,-25,-2,6,0
1537922114911425,-33,-32,-47,27,0,-27,-45,22
1537922114926384,30,50,-75,38,23,27,12,-12
1537922114926384,5,-63,45,-17,-5,7,6,25
1537922114927381,14,28,-74,-32,-41,-49,-12,-4
1537922114927381,-33,-18,127,-47,-47,-6,10,-22
1537922114948325,29,1,25,61,66,42,31,50
1537922114948325,-54,25,-46,-84,10,10,-21,-26
1537922114950320,-6,-38,70,127,32,28,9,-3
1537922114950320,19,5,-16,-92,-33,-16,-6,36
1537922114962287,-30,-26,-6,-41,-53,-31,-26,-11
1537922114962287,15,-32,29,102,73,20,41,30
1537922114971264,20,45,-1,-128,-4,2,-6,4
1537922114971264,5,-17,-32,127,64,19,13,3
1537922114986224,-46,-8,7,-41,-15,-8,-8,-48
1537922114986224,-10,37,-68,-120,-71,-16,-12,-35
1537922114987221,-7,-8,24,90,2,0,-7,13
1537922114987221,13,-16,-127,-30,16,14,5,9
1537922115009162,9,-4,-17,-59,-40,-22,0,25
1537922115009162,-5,7,51,79,32,-7,-11,-5
1537922115010160,-22,-13,-75,-72,-9,21,6,-17
1537922115010160,25,18,50,54,24,-8,7,14
1537922115022128,17,-2,-104,-79,-18,-12,-8,-4
1537922115022128,11,10,-68,-74,-38,-25,-17,0
1537922115031104,10,10,36,42,15,14,10,8
1537922115031104,-6,8,96,48,18,12,6,1
1537922115046064,-4,-9,-94,0,1,-5,4,7
1537922115046064,6,-15,-93,51,-2,-1,5,4
1537922115048058,-6,6,17,-6,3,1,-1,-4
1537922115048058,0,8,-55,-72,-22,-10,-9,-6
1537922115069003,-5,-9,82,28,3,0,5,-2
1537922115069003,14,2,86,20,11,3,6,5
1537922115070000,-4,-1,-39,-23,-1,0,-3,-10
1537922115070000,-2,2,17,-10,-8,-4,-12,2
1537922115081968,2,-14,16,23,1,3,8,8
1537922115081968,-1,-2,-20,-33,-20,-6,-8,-4
1537922115090944,-5,1,8,2,6,0,-4,-1
1537922115090944,-6,-1,-16,-7,-12,-1,6,0
1537922115105904,2,0,16,2,8,1,7,2
1537922115105904,5,4,2,1,1,-1,-7,8
1537922115107899,-6,-2,24,17,4,-1,-2,-11
1537922115107899,7,5,11,6,4,3,5,3
1537922115128843,-1,-2,-20,-22,-8,-2,-1,-7
1537922115128843,3,-2,24,-3,-6,-3,1,8
1537922115129840,-1,-1,4,16,10,1,-3,0
1537922115129840,2,1,-25,0,-2,1,-1,0
1537922115142805,1,4,6,-7,-11,-6,-2,7
1537922115142805,-3,-4,5,-10,0,1,-2,-10
1537922115151781,-6,-11,10,14,2,1,-4,0
1537922115151781,3,2,-12,-14,-3,-2,0,-1
1537922115165744,-10,11,13,3,-1,-3,0,-2
1537922115165744,-3,-25,14,-1,-1,1,1,-6
1537922115167739,7,11,-5,-1,-1,-4,-3,-2
1537922115167739,-9,-9,1,-3,-2,-3,-1,-1
1537922115188682,18,2,9,9,3,4,4,9
1537922115188682,-2,12,-7,-11,-9,-4,-4,-10
1537922115190678,3,-5,2,2,3,1,-1,-5
1537922115190678,28,10,-1,1,1,1,4,2
1537922115202645,-3,9,3,4,-3,-3,-2,3
1537922115202645,-9,-4,-1,-12,-4,-3,-1,6
1537922115211622,-15,-2,3,2,1,-2,-2,-6
1537922115211622,24,8,3,7,6,5,1,-2
1537922115226581,12,0,-9,-6,-7,-3,-4,-7
1537922115226581,14,0,11,4,5,4,2,14
1537922115227580,-8,-2,-2,3,0,-2,-1,-21
1537922115227580,-15,2,-8,-4,-7,-4,-1,1
1537922115248523,-24,-24,-1,2,2,0,0,-2
1537922115248523,3,4,-3,-4,-4,-2,0,-7
1537922115250518,10,-1,3,4,1,1,-1,8
1537922115250518,-6,12,-2,-3,-1,0,2,5
1537922115262486,4,-26,-5,-2,-3,-2,-3,-6
1537922115262486,19,27,2,-2,-2,-2,0,-4
1537922115271462,-8,1,-6,-6,-2,-3,-3,-3
1537922115271462,39,3,-1,-3,-1,-1,-1,14
1537922115286421,-2,16,3,4,5,3,0,-6
1537922115286421,-7,-21,-1,-4,-4,0,0,2
1537922115287419,6,6,1,0,-3,-2,-1,1
1537922115287419,4,-47,-16,-4,-2,0,1,5
1537922115308363,-7,-5,-5,1,0,0,0,-1
1537922115308363,-14,-15,-6,-4,2,1,-2,-10
1537922115310357,39,2,0,-4,-4,-4,1,23
1537922115310357,-58,-13,7,0,0,-3,-1,-17
1537922115322325,12,1,-1,-1,-1,-2,-1,-5
1537922115322325,-29,6,0,-2,1,0,2,14
1537922115331301,-39,16,-2,3,3,2,-6,-58
1537922115331301,-27,3,-4,4,4,4,1,-16
1537922115346261,6,-9,-2,-6,-3,-3,-5,9
1537922115346261,-11,12,0,-11,-3,-2,-1,-5
1537922115347258,39,-1,0,11,1,1,3,38
1537922115347258,-26,13,-4,-5,-1,-1,-3,-8
1537922115369200,2,-4,1,5,1,1,3,0
1537922115369200,8,7,-1,-1,-3,-2,-4,-24
1537922115370197,41,-18,-16,-14,-10,-9,-6,30
1537922115370197,-13,13,0,2,2,1,-9,-23
1537922115382165,-17,-4,3,-16,-3,12,3,-6
1537922115382165,-7,-8,-41,10,7,-6,7,19
1537922115391141,26,7,50,-47,-14,-12,-1,2
1537922115391141,-17,-38,-11,27,-6,-3,-4,-34
1537922115406101,16,-18,-92,-30,6,2,4,-19
1537922115406101,21,-13,95,67,4,0,-25,-19
1537922115408096,-51,-3,-69,-38,5,13,6,-11
1537922115408096,42,24,-70,-65,-17,-6,6,45
1537922115429040,20,-17,48,86,13,-1,-1,-17
1537922115429040,-24,14,44,12,7,0,20,-1
1537922115430038,-19,21,-89,-67,-21,-9,2,-21
1537922115430038,-19,-14,116,97,15,7,-11,15
1537922115442005,26,13,-109,-106,-30,-1,3,11
1537922115442005,-58,-81,78,49,13,-7,-17,-47
1537922115450982,21,93,70,70,78,47,47,53
1537922115450982,52,13,-106,-128,-70,-19,-24,9
1537922115465942,12,-62,127,91,15,-1,0,12
1537922115465942,63,72,-109,-128,-97,-36,8,37
1537922115467937,-55,-95,10,116,77,3,-34,-14
1537922115467937,-9,8,-7,-37,13,0,-18,1
1537922115488880,15,25,-71,-115,-86,-57,-36,6
1537922115488880,34,-39,-47,85,30,35,24,6
1537922115489878,57,32,52,-120,28,18,49,43
1537922115489878,-13,12,-26,118,95,12,-15,-10
1537922115502843,-39,30,-72,56,42,46,59,-1
1537922115502843,-1,24,-68,-91,-95,-75,-98,-23
1537922115518801,28,23,-44,112,-23,4,-3,-3
1537922115518801,1,-51,39,-57,-47,-6,12,15
1537922115525782,-38,-60,116,41,-10,-3,9,-3
1537922115525782,-30,52,-16,109,70,40,26,9
1537922115527777,-41,2,-34,-3,-13,-5,0,-34
1537922115527777,-36,-25,-113,-68,-45,-15,-27,-34
1537922115548720,-23,22,98,-82,-52,-14,27,15
1537922115548720,33,12,54,-59,39,8,-29,33
1537922115550716,6,-25,-37,-50,0,-6,-5,-53
1537922115550716,-15,-7,103,-70,-23,31,41,-1
1537922115571659,-2,-34,32,-63,-9,-36,-57,21
1537922115571659,14,53,18,-18,17,15,8,-19
1537922115572656,-14,-59,73,48,-29,-22,-6,-5
1537922115572656,2,19,23,36,23,18,8,-16
1537922115585621,-42,18,-78,-82,-11,25,75,3
1537922115585621,-13,0,14,-128,-69,-52,-78,-21
1537922115592603,-13,44,103,77,36,22,-6,1
1537922115592603,29,50,-1,-88,-18,-16,22,-1
1537922115608560,37,-40,66,73,73,26,35,25
1537922115608560,-33,-39,14,-109,-53,-25,-25,17
1537922115610555,-40,-22,16,39,-29,-14,-29,-53
1537922115610555,-28,-48,51,84,38,7,15,13
1537922115631499,10,-8,-109,-47,-16,-10,-72,-22
1537922115631499,10,80,-22,104,76,36,61,2
1537922115632497,64,-75,-38,-27,-37,-29,-40,41
1537922115632497,2,16,35,-6,17,6,18,-34
1537922115645462,-2,47,-39,4,-6,-14,-31,-21
1537922115645462,-8,-39,-43,-17,-26,5,26,2
1537922115652444,-10,22,-2,-4,7,4,2,13
1537922115652444,16,15,-40,13,-9,-10,-5,7
1537922115668401,-20,12,-13,1,3,3,-3,1
1537922115668401,24,-27,28,43,18,8,5,1
1537922115670396,0,6,-27,-56,-20,-11,17,5
1537922115670396,6,21,-13,7,-8,-5,-9,12
1537922115691339,9,-12,19,43,33,6,-14,-10
1537922115691339,4,6,-3,35,14,6,29,3
1537922115692337,-8,-19,-32,-42,-19,-2,-6,-4
1537922115692337,-6,3,-13,13,1,-7,-3,20
1537922115705302,2,17,21,28,-4,-3,-6,-3
1537922115705302,-1,-23,-12,1,6,7,13,-12
1537922115712284,-18,8,-23,-13,13,8,6,10
1537922115712284,20,6,15,27,6,-3,-11,17
1537922115728241,9,18,-2,8,6,0,7,3
1537922115728241,2,-32,-23,-5,-6,0,5,3
1537922115730236,-16,7,7,-30,-20,-4,-8,-3
1537922115730236,17,11,1,29,15,4,7,9
1537922115751180,1,-1,0,18,5,5,-6,-12
1537922115751180,-43,-26,-13,-6,2,1,3,-6
1537922115753174,-5,6,-5,-3,-7,-6,-2,-1
1537922115753174,-3,-14,-15,-3,-3,-6,-2,-3
1537922115765142,-8,12,-4,3,4,3,0,0
1537922115765142,17,-2,5,8,1,2,1,1
1537922115772123,5,5,-6,-13,-6,-3,5,2
1537922115772123,-16,-11,-10,-1,-3,-2,-4,-3
1537922115789078,10,7,7,4,1,-1,-3,1
1537922115789078,2,-3,2,10,8,5,7,1
1537922115790076,-7,-5,-12,-10,-8,-2,-2,-4
1537922115790076,7,-3,1,-1,-3,-3,-2,-2
1537922115811019,11,3,-5,6,-2,-3,-2,-1
1537922115811019,11,-1,-3,2,6,4,4,-3
1537922115813014,-1,4,-5,-2,-3,0,-2,-1
1537922115813014,3,6,3,5,4,-1,-3,-2
1537922115825979,-17,5,4,6,1,-4,2,4
1537922115825979,-12,0,2,2,0,1,2,-2
1537922115831963,-6,1,-7,-4,-7,-6,-2,0
1537922115831963,-9,-7,-2,5,3,1,2,0
1537922115848918,-7,0,-7,0,1,-1,-1,-5
1537922115848918,0,2,-4,-1,3,1,2,-1
1537922115849915,-3,-1,5,0,-1,0,-1,-3
1537922115849915,1,-4,-9,-6,-7,-4,-3,-1
1537922115870860,-1,-3,-4,-1,-2,0,-1,0
1537922115870860,5,7,0,6,7,1,1,1
1537922115872854,-25,-4,0,0,-1,1,-1,-4
1537922115872854,0,7,-5,-1,0,-1,-1,1
1537922115884822,-8,-3,11,2,1,1,0,-3
1537922115884822,2,-4,-10,-5,-2,-2,-1,2
1537922115893798,5,-4,-3,-6,-4,-1,-2,-2
1537922115893798,-2,5,20,5,1,-1,-2,-3
1537922115908758,-4,0,-31,-6,-2,0,-2,0
1537922115908758,-1,-2,-15,-1,-1,1,1,-1
1537922115909756,1,5,-1,-3,-1,1,-2,-1
1537922115909756,-3,-9,-5,4,1,-1,0,-1
1537922115930700,-1,0,21,4,4,0,-1,-2
1537922115930700,-2,-12,-2,-2,-3,-3,-2,0
1537922115937681,7,-3,-9,-5,-2,-1,-2,0
1537922115937681,0,-7,3,0,-4,-2,-1,-1
1537922115944663,5,15,7,1,0,1,1,1
1537922115944663,-3,-6,1,-8,-2,1,-2,-1
1537922115953639,8,-3,2,9,3,1,0,3
1537922115953639,7,-3,-5,0,-1,-1,-1,-1
1537922115968598,3,-5,-7,-6,-1,-1,0,-1
1537922115968598,2,5,1,1,-3,-3,-1,0
1537922115970593,5,-13,-9,-2,0,-2,1,0
1537922115970593,-1,18,2,-1,-3,-4,-1,0
1537922115991537,0,-25,-13,-2,-1,1,-2,-4
1537922115991537,-3,-11,11,1,4,2,0,0
1537922115992535,-3,-2,3,1,0,-2,-1,0
1537922115992535,4,13,3,-2,-4,-1,2,2
1537922116005500,-5,12,22,0,-1,-1,-3,-1
1537922116005500,-4,-14,-43,-1,-2,0,0,-1
1537922116012481,1,9,-6,-7,-3,-3,1,-1
1537922116012481,-5,-32,-4,-3,0,-4,-3,-3
1537922116028438,5,24,14,7,6,3,0,0
1537922116028438,-5,-4,1,-2,-3,-2,0,-4
1537922116030433,-2,23,9,-2,-3,-2,-2,0
1537922116030433,0,-23,-17,-4,-1,0,1,1
1537922116050379,-3,-8,-5,0,1,-1,-2,0
1537922116050379,7,23,15,2,-1,1,0,3
1537922116058358,0,-6,-8,-3,-4,0,0,-2
1537922116058358,-7,-8,-2,-3,0,-1,-2,-1
1537922116065340,-4,-5,-7,-2,-3,-1,0,1
1537922116065340,2,4,5,-2,-1,-1,-1,-1
1537922116072321,1,12,7,0,1,0,1,-1
1537922116072321,-1,6,2,5,3,2,-1,-2
1537922116088278,0,-5,-16,-3,-2,-2,-2,-1
1537922116088278,5,19,7,-2,-4,-4,-2,1
1537922116090273,-1,-16,-1,2,3,4,1,-1
1537922116090273,-4,-2,-3,0,1,0,-1,-2
1537922116111216,0,4,0,-1,-2,-2,1,-1
1537922116111216,0,-5,5,2,-1,-1,0,1
1537922116112214,-2,-6,0,-2,-5,-3,-1,-1
1537922116112214,2,4,-3,0,0,1,-2,0
1537922116125179,1,4,3,2,2,1,2,-1
1537922116125179,-1,-6,-1,-2,0,-1,-1,-1
1537922116134156,-2,-4,1,-1,1,0,0,-2
1537922116134156,1,6,0,0,-3,-2,1,0
1537922116149115,-2,-2,-3,-3,-4,-3,-2,-2
1537922116149115,0,-7,0,0,-2,1,-1,-2
1537922116150113,-1,2,-1,-1,-2,-2,-2,0
1537922116150113,-2,1,-1,-2,-1,1,0,-1
1537922116171057,-1,-2,-1,0,-2,0,1,0
1537922116171057,-2,-4,-2,1,0,-2,1,-1
1537922116173051,0,1,1,-1,0,0,-1,0
1537922116173051,0,2,-1,2,3,2,-1,0
1537922116185019,0,-1,0,0,0,-2,1,-1
1537922116185019,1,0,1,-2,-2,-1,-1,-1
1537922116193995,-2,0,-4,-5,-5,-7,-2,-1
1537922116193995,-2,1,2,2,2,2,0,-3
1537922116208955,-1,-2,-2,-4,-2,-1,-3,-2
1537922116208955,-1,-3,-1,1,1,0,-1,-1
1537922116209953,1,-2,-1,0,1,-2,1,0
1537922116209953,0,0,-3,-6,-3,-3,-1,0
1537922116230897,-2,0,-2,-3,-1,-3,-1,0
1537922116230897,-2,0,1,0,0,-1,0,-2
1537922116232892,-2,0,-2,-1,-4,-3,-2,-2
1537922116232892,-1,0,-2,-3,-5,-2,-3,-1
1537922116244860,-1,0,1,1,2,1,-1,0
1537922116244860,-1,-2,-2,-1,0,0,0,1
1537922116260817,0,-1,2,3,3,-1,0,-2
1537922116260817,-1,0,-3,-4,-2,-3,-1,-1
1537922116268796,0,-1,-2,-2,-1,-3,-1,-2
1537922116268796,-3,-2,-1,1,1,1,-2,-1
1537922116269793,0,0,-1,-2,-1,1,-3,-1
1537922116269793,0,-1,-2,-2,-4,-5,0,0
1537922116291734,-1,-2,-3,-2,-1,-2,0,-1
1537922116291734,-1,-2,1,1,1,2,0,0
1537922116292732,-1,-1,0,-1,0,0,0,2
1537922116292732,1,-1,-2,-2,0,-2,-1,0
1537922116304700,0,0,2,3,2,3,0,-1
1537922116304700,0,4,0,-5,-2,-3,-1,1
1537922116313676,2,12,2,3,1,2,0,0
1537922116313676,-2,6,2,-2,0,0,-1,-1
1537922116327638,-2,-11,-4,-2,-4,-3,-2,-1
1537922116327638,0,18,4,0,-3,0,1,-2
1537922116334621,4,24,5,2,0,0,-1,1
1537922116334621,-7,-76,-22,-1,2,0,-2,-3
1537922116351575,-4,18,4,-2,-3,-2,0,-1
1537922116351575,0,-4,-2,-1,-1,-1,3,2
1537922116352572,4,29,8,1,1,-2,0,2
1537922116352572,7,20,15,3,-1,0,1,0
1537922116364540,3,83,-1,0,-2,-1,-1,0
1537922116364540,-9,-31,-11,-4,-2,-3,-5,-10
1537922116379499,2,8,-6,2,-1,-1,4,6
1537922116379499,-2,-39,-20,-27,-13,-4,2,26
1537922116388475,6,16,0,-17,-1,-7,-9,-31
1537922116388475,22,100,-19,-21,-18,1,-7,45
1537922116394459,-19,-8,37,0,3,-2,6,-8
1537922116394459,-19,7,-89,-14,-21,-5,-20,-28
1537922116411414,14,-16,10,-29,-2,2,46,79
1537922116411414,-4,7,-25,36,41,-3,-31,-64
1537922116412411,9,18,-49,49,8,40,-6,-7
1537922116412411,-19,-29,127,-1,-6,-86,-19,-15
1537922116424379,52,34,-102,-56,1,4,4,87
1537922116424379,-19,-24,57,90,47,65,44,-73
1537922116433355,-26,-44,44,93,76,10,-44,25
1537922116433355,22,18,-76,54,-5,-11,9,20
1537922116448315,-10,-17,23,-68,-81,-34,-27,-43
1537922116448315,-4,-75,-105,-128,-85,-44,81,-34
1537922116450310,-3,0,4,-109,-58,50,6,-88
1537922116450310,8,7,12,50,109,103,44,34
1537922116471254,5,-21,4,32,7,-82,-94,-5
1537922116471254,-28,41,-33,-78,-16,-15,-6,34
1537922116472252,6,-8,78,88,-8,-48,68,-24
1537922116472252,4,35,-90,-88,-116,-25,-59,66
1537922116485217,-6,-86,111,25,107,123,44,-58
1537922116485217,7,-22,36,63,29,-20,43,-33
1537922116494193,-9,6,-17,-53,23,-6,-29,39
1537922116494193,26,24,56,99,31,29,-11,-76
1537922116508156,-35,-5,-58,-19,-46,-62,-4,93
1537922116508156,26,29,15,-16,-31,-22,-33,34
1537922116515137,-2,-10,-45,-53,-14,-10,29,-13
1537922116515137,12,21,36,-27,-28,-8,-23,36
1537922116531094,-27,-22,-51,-47,-19,57,10,-46
1537922116531094,6,-9,7,19,31,25,8,8
1537922116537078,13,15,-40,-1,-12,-37,-41,43
1537922116537078,-33,1,43,-57,18,12,0,-42
1537922116554033,10,16,41,118,30,-4,26,-20
1537922116554033,1,-38,4,-7,-23,-6,-27,24
1537922116555031,5,-5,-30,-46,-41,7,-11,-5
1537922116555031,-15,-12,-6,-13,37,-16,14,-5
1537922116567996,5,24,11,28,-10,-11,23,-12
1537922116567996,3,2,26,49,32,19,-19,9
1537922116581959,-9,-20,-23,-9,-10,-10,-8,4
1537922116581959,10,19,-3,-34,-22,-8,32,-8
1537922116590940,5,-3,0,12,10,7,-9,-5
1537922116590940,-13,0,-2,-5,-11,-10,-32,-7
1537922116592929,-1,-7,-2,-11,-1,4,12,5
1537922116592929,-3,0,-1,-11,3,1,8,-1
1537922116613873,-9,-10,-3,18,2,1,-10,-18
1537922116613873,-7,-11,-2,-7,-7,-7,-10,12
1537922116614870,5,6,7,-4,5,1,13,6
1537922116614870,2,-1,2,24,-9,13,8,-9
1537922116627835,-10,-9,-11,-17,4,0,-6,-2
1537922116627835,5,10,9,-7,1,-3,5,10
1537922116634817,4,0,2,4,2,1,-1,6
1537922116634817,-6,-5,-11,0,-3,0,-3,-1
1537922116650774,-3,-1,-4,-10,-1,-5,4,-6
1537922116650774,4,2,5,-4,-4,2,-5,12
1537922116652769,0,-5,-5,4,2,-1,-4,-2
1537922116652769,-3,-3,-7,-3,-5,-6,0,1
1537922116673713,-1,6,5,-4,0,2,6,-8
1537922116673713,1,2,2,13,5,6,-4,1
1537922116674710,-3,-4,-3,-1,5,-4,-1,2
1537922116674710,3,7,1,2,3,0,8,-4
1537922116687676,-1,-3,-5,-10,-11,-4,-5,5
1537922116687676,-3,-1,-3,-8,-2,2,-6,-12
1537922116694657,3,2,1,5,2,-3,2,0
1537922116694657,1,1,-2,3,5,0,2,-2
1537922116711611,-5,-1,-5,-3,-7,-3,-2,-3
1537922116711611,-3,-3,-1,-8,-1,-2,-2,9
1537922116712609,3,1,4,1,2,0,3,2
1537922116712609,1,-2,4,3,1,3,0,-3
1537922116733553,-3,-7,-6,-2,-8,-1,-2,-5
1537922116733553,2,3,-4,-4,-1,-1,0,3
1537922116735548,-1,-3,1,3,0,0,-1,-3
1537922116735548,-2,-2,-3,4,3,-1,0,3
1537922116748513,1,0,0,-1,3,2,1,-5
1537922116748513,0,-1,0,-1,-3,-1,-2,1
1537922116754497,-2,-2,-2,-5,-2,-3,-2,-2
1537922116754497,2,24,1,-4,-4,-3,0,-1
1537922116771452,-1,-27,1,3,4,0,2,-3
1537922116771452,-2,5,1,-1,-1,1,-2,1
1537922116772449,3,30,0,0,-2,2,-1,0
1537922116772449,-7,-51,-12,-10,-12,-9,-1,-3
1537922116793393,1,13,0,9,9,5,-1,-2
1537922116793393,-6,-50,-6,-5,-5,-3,-5,2
1537922116795388,-1,7,4,0,-1,0,0,-1
1537922116795388,3,27,8,4,4,1,0,0
1537922116808353,3,-8,2,0,-4,-2,-1,-1
1537922116808353,-5,3,-6,-2,-3,-3,-3,0
1537922116815334,-2,-10,-3,-1,-1,0,1,-2
1537922116815334,0,-10,2,5,3,2,2,-1
1537922116831291,1,34,3,-2,-3,-2,-1,-2
1537922116831291,0,1,-5,-1,0,-1,-1,1
1537922116832289,-4,-44,-5,-7,-3,-3,-3,-2
1537922116832289,-8,-37,-14,-3,-1,0,-1,-1
1537922116853233,4,41,12,3,3,0,1,1
1537922116853233,11,40,13,3,-3,-1,1,4
1537922116855228,-12,-59,-20,-4,-3,-3,-4,-5
1537922116855228,-1,-7,-4,-4,-5,-1,0,0
1537922116867196,3,1,0,-1,-2,0,-2,-10
1537922116867196,3,4,-1,-1,2,2,3,20
1537922116876172,8,36,11,3,-1,-1,-4,-17
1537922116876172,-5,-20,-3,1,3,1,2,9
1537922116891132,-12,-6,-16,-8,-6,-7,-7,-23
1537922116891132,4,26,6,1,-1,0,1,17
1537922116893126,1,1,1,3,2,0,-1,-26
1537922116893126,17,51,6,-3,3,5,-14,-6
1537922116914071,10,-2,1,-18,-12,-5,23,38
1537922116914071,-24,8,-6,15,4,3,-1,-66
1537922116915068,-20,-31,-13,0,2,11,14,-8
1537922116915068,2,25,10,-97,-24,-10,-34,1
1537922116927036,-11,-42,-94,68,5,-20,-24,-59
1537922116927036,7,16,8,-4,-14,-58,41,47
1537922116936012,18,55,76,-19,-3,51,32,-15
1537922116936012,-40,-44,-67,99,9,-77,-69,-14
1537922116949975,8,14,114,8,26,88,45,59
1537922116949975,18,-47,-10,-101,-41,-83,-25,13
1537922116958952,16,-5,-51,106,40,36,47,2
1537922116958952,-9,19,35,-52,2,70,7,-52
1537922116973911,21,-20,-87,5,-6,-39,-74,10
1537922116973911,27,18,-26,-47,-33,-18,54,48
1537922116974908,16,-20,87,41,-3,13,35,14
1537922116974908,-44,41,49,-41,-29,-69,-52,-67
1537922116986876,-12,-7,-67,-36,-6,-10,64,-97
1537922116986876,-16,36,-21,-125,-15,127,68,18
1537922117002833,53,-60,-50,36,2,-50,-63,116
1537922117002833,28,31,13,127,75,-24,-50,-60
1537922117010812,-40,-7,78,3,6,58,-24,17
1537922117010812,31,-7,7,-40,23,-69,1,-23
1537922117012806,-95,33,-37,-42,7,32,-4,35
1537922117012806,85,9,-5,50,70,77,102,93
1537922117033750,-50,-16,-46,-9,-44,-109,2,46
1537922117033750,-41,-14,-17,6,12,85,47,-99
1537922117034748,24,19,32,10,-23,-40,-128,-30
1537922117034748,-23,-15,12,-34,-27,-6,74,27
1537922117047713,70,14,-10,-91,-28,-85,-113,66
1537922117047713,-71,10,64,-19,-26,81,92,-77
1537922117056689,48,23,28,60,43,-49,-56,78
1537922117056689,-78,-27,-11,-12,-8,30,2,-112
1537922117071649,50,7,-32,-69,-2,73,85,102
1537922117071649,60,-17,74,77,23,-43,-128,31
1537922117072646,-63,9,15,4,-9,-60,-76,-92
1537922117072646,5,-2,14,-3,-6,20,27,39
1537922117093590,-15,7,3,16,-11,0,0,-59
1537922117093590,28,-14,-78,13,22,6,10,28
1537922117095585,1,-2,-29,-44,14,59,-7,-12
1537922117095585,36,-16,0,-8,-32,-43,-11,11
1537922117107553,-23,1,-9,-19,-8,15,7,-38
1537922117107553,-18,-9,-2,56,46,-38,-52,-4
1537922117116529,10,-2,4,-26,-47,-17,54,1
1537922117116529,9,-1,-36,-46,-6,8,26,30
1537922117131489,1,-2,24,30,46,34,-2,-14
1537922117131489,-1,-10,2,24,-10,-9,-26,15
1537922117132486,-14,-5,-22,-35,-14,-2,35,-5
1537922117132486,1,-5,-26,-23,-15,0,-8,22
1537922117153430,-5,-4,28,6,-15,-5,4,-24
1537922117153430,-4,-8,7,42,11,-4,-31,16
1537922117155425,10,3,-33,-48,-11,3,40,-18
1537922117155425,19,-4,-3,-9,-18,-1,-5,13
1537922117167394,-3,-4,30,23,17,3,-2,-4
1537922117167394,-14,-3,-18,12,-8,-1,-6,3
1537922117182353,-14,3,-11,-29,4,11,18,-8
1537922117182353,-9,0,5,-4,-2,7,1,10
1537922117191329,3,0,15,16,15,8,3,17
1537922117191329,-14,-2,-10,5,-14,-9,-17,-26
1537922117192327,-9,-3,-10,-23,-4,0,16,-13
1537922117192327,0,-1,8,19,19,14,-6,16
1537922117213271,-7,0,-4,-8,-1,0,6,-5
1537922117213271,-4,-4,-4,12,-13,-8,-14,-7
1537922117215266,4,-1,2,-7,-5,-4,10,1
1537922117215266,1,-1,-11,-17,-6,1,7,3
1537922117227233,0,0,4,13,-1,-5,-3,-8
1537922117227233,1,-8,-1,8,8,5,-3,7
1537922117236209,2,-6,-7,-7,-5,-2,6,-2
1537922117236209,-2,-6,-7,-9,-6,0,-2,8
1537922117251170,2,-2,4,-5,-9,-6,-6,-8
1537922117251170,7,0,2,9,5,2,0,24
1537922117252167,-3,3,-4,-5,6,6,2,-11
1537922117252167,-4,-3,3,1,-6,-4,-1,2
1537922117274109,-4,-3,5,4,4,-2,-1,-8
1537922117274109,2,2,-8,1,2,3,-1,7
1537922117275106,-3,-9,-15,-12,-10,-5,7,1
1537922117275106,2,-2,-6,-2,-2,0,-2,1
1537922117287074,-12,-8,-1,0,-2,-2,-2,-3
1537922117287074,-3,-4,-1,0,1,1,-6,1
1537922117296050,6,10,3,-9,-4,-1,5,0
1537922117296050,1,3,3,0,-2,-3,-4,2
1537922117311010,0,3,11,4,4,3,2,-8
1537922117311010,0,-2,-15,-2,-7,-6,-6,-4
1537922117313005,0,1,4,-2,1,0,1,-1
1537922117313005,0,-6,-14,-1,-1,1,2,6
1537922117333949,1,-2,-4,-2,-4,-3,-1,-1
1537922117333949,2,10,14,5,5,2,-2,1
1537922117334946,-5,-12,-4,-1,-1,1,0,0
1537922117334946,-1,13,4,-1,-1,-1,0,2
1537922117346914,1,16,7,-1,-4,-1,-2,-1
1537922117346914,-3,2,-5,0,-5,-5,-3,-2
1537922117355890,-3,-46,-14,-2,11,7,0,-3
1537922117355890,2,-26,-16,-5,-7,-13,0,2
1537922117370850,-4,-31,-11,1,3,17,2,-1
1537922117370850,4,48,16,0,-3,-2,-3,-2
1537922117372845,8,36,15,-3,-4,1,2,1
1537922117372845,-6,-1,-2,-2,-2,-1,2,-1
1537922117393788,-2,-4,4,2,1,-5,-2,-1
1537922117393788,1,-23,-6,3,0,0,0,-1
1537922117394785,1,1,-3,-1,-4,-1,-2,-1
1537922117394785,4,1,-10,0,2,1,-3,3
1537922117407751,1,0,-5,-3,-2,-4,0,-1
1537922117407751,0,-11,-5,-8,-7,-1,-4,-3
1537922117416726,4,13,4,-1,0,-4,-3,-4
1537922117416726,-2,23,11,6,1,3,2,2
1537922117430689,-6,-17,-3,-1,-3,-2,-1,-3
1537922117430689,-7,8,6,0,-2,-3,-3,-1
1537922117444652,-1,-25,-14,-3,-3,-1,1,5
1537922117444652,-4,0,6,-2,0,2,-2,-4
1537922117452630,4,15,-4,1,3,-4,0,0
1537922117452630,-1,-7,2,-2,-1,-2,-1,1
1537922117461606,-7,7,4,1,-2,-5,-1,-4
1537922117461606,5,37,21,1,1,7,3,6
1537922117476566,-5,-13,-28,-3,-5,-8,-2,-11
1537922117476566,-5,-10,-1,-4,6,4,3,-3
1537922117477564,-3,1,13,-3,-3,-2,0,3
1537922117477564,-2,-19,-16,-3,-5,-8,-11,-12
1537922117490529,3,41,22,0,1,-2,-2,0
1537922117490529,-3,-46,-17,1,1,5,14,9
1537922117497511,-3,12,4,0,0,-7,-11,-14
1537922117497511,-1,-38,-4,1,3,6,1,8
1537922117513468,-2,31,16,0,-1,-3,-9,-2
1537922117513468,-6,-4,-18,1,-2,-6,23,2
1537922117515463,2,42,11,1,2,2,-10,8
1537922117515463,5,-40,-13,4,0,-10,-10,-1
1537922117536407,-12,-48,-6,-5,-3,5,18,1
1537922117536407,2,15,13,-4,-3,-2,0,1
1537922117537404,1,-18,-18,-3,-2,-2,5,-1
1537922117537404,8,26,3,0,1,3,-1,0
1537922117558348,7,4,3,1,-2,-3,-7,6
1537922117558348,6,-10,-2,3,2,-2,-7,-2
1537922117560343,-1,34,-4,-3,-8,-9,-2,-2
1537922117560343,-5,-10,14,2,3,16,8,3
1537922117573308,-1,-21,-22,-4,-4,-3,-5,-15
1537922117573308,2,12,1,-1,-2,3,-11,-2
1537922117575303,1,19,-2,0,-2,-3,2,-2
1537922117575303,-2,-18,-1,-3,-5,-5,2,-2
1537922117596247,2,21,22,5,2,2,0,4
1537922117596247,-8,6,0,-1,3,0,-8,-5
1537922117602231,-3,-17,-28,-2,1,3,3,0
1537922117602231,0,23,10,-3,-4,-6,-4,-2
1537922117611207,-3,-46,-15,0,-2,1,-3,-5
1537922117611207,2,-28,7,-1,2,-4,8,5
1537922117612204,-9,2,-2,-2,-2,-1,-11,-3
1537922117612204,8,51,8,0,-4,-1,-10,-4
1537922117634145,7,44,5,1,2,4,37,13
1537922117634145,-10,-69,-21,-2,-4,-13,-21,-13
1537922117635143,5,26,16,1,-2,2,-13,4
1537922117635143,-1,-30,-12,-2,-3,-4,11,-14
1537922117656087,10,88,23,5,2,-26,-34,17
1537922117656087,-3,-45,-26,-8,-1,25,12,-1
1537922117658081,-2,-15,13,-3,-1,-4,15,13
1537922117658081,-16,6,14,0,1,3,-3,-16
1537922117670049,-16,-34,-17,-4,-3,1,3,-1
1537922117670049,-4,15,2,2,-3,-9,-10,7
1537922117677031,7,5,12,2,0,-3,7,9
1537922117677031,7,-4,-9,6,7,12,5,-16
1537922117693985,-21,-18,1,-10,-7,-5,9,-4
1537922117693985,6,14,-21,-4,-1,-5,-16,-3
1537922117694983,17,-3,-1,1,1,6,-19,-11
1537922117694983,10,-7,-2,-4,-4,-6,44,19
1537922117715927,10,35,1,-1,1,3,-22,-16
1537922117715927,0,57,24,1,-2,-2,-1,-1
1537922117717922,-5,7,6,4,4,7,47,5
1537922117717922,-1,25,5,0,-1,-23,-44,3
1537922117730887,6,-9,-22,-3,2,25,-1,21
1537922117730887,-6,-52,-10,1,1,7,20,-7
1537922117736871,-17,7,12,-2,-4,-18,-13,-8
1537922117736871,-20,-3,14,-2,1,21,11,3
1537922117753826,5,-2,6,3,3,-3,1,13
1537922117753826,0,32,-17,-4,-3,-1,-10,-3
1537922117754823,9,4,13,9,9,5,9,8
1537922117754823,-1,-74,-47,-5,-5,-6,-2,-4
1537922117775767,16,25,11,-1,-3,-6,-7,-6
1537922117775767,14,8,11,6,5,8,7,0
1537922117777762,-4,-26,-20,-3,-2,1,-20,-9
1537922117777762,-15,-22,6,-7,-12,-25,2,4
1537922117789730,-16,-46,-26,-4,4,30,-6,-19
1537922117789730,14,-1,34,6,2,-7,-5,5
1537922117798706,-20,32,22,-3,-5,6,11,-26
1537922117798706,8,18,-48,-1,3,0,1,8
1537922117813665,16,9,13,2,0,-17,6,19
1537922117813665,-20,58,-14,-3,-10,9,-14,-32
1537922117814663,4,-48,-8,-5,-4,-10,-35,6
1537922117814663,5,127,65,2,-2,0,30,-3
1537922117836604,-43,-75,-103,-12,-9,-40,-52,-20
1537922117836604,5,99,36,1,8,47,30,7
1537922117837601,14,-9,-43,2,2,4,2,7
1537922117837601,-3,82,39,0,1,10,1,0
1537922117849569,7,78,60,9,3,-9,3,-8
1537922117849569,-17,-101,-69,-9,-3,-29,-14,-9
1537922117858545,2,56,-2,6,4,12,-1,-15
1537922117858545,-14,-8,7,-7,-2,-2,-15,12
1537922117872508,17,52,68,6,-2,-25,2,-8
1537922117872508,-21,-42,-79,-11,-4,4,5,25
1537922117881484,-2,-30,-19,-8,-8,-20,-24,-62
1537922117881484,1,-80,37,10,0,14,-14,21
1537922117896445,-6,-49,-34,-8,6,22,30,-9
1537922117896445,0,-71,53,1,0,4,5,-21
1537922117897442,-1,31,52,3,1,-10,15,23
1537922117897442,20,46,-24,0,0,6,-2,31
1537922117910407,4,37,4,6,-5,-22,-29,-71
1537922117910407,15,-21,-13,-5,-11,-10,6,2
1537922117917389,-5,24,-7,-1,3,13,19,17
1537922117917389,7,-62,-18,2,0,-6,-4,-1
1537922117933346,3,-25,-25,1,2,34,6,21
1537922117933346,14,105,2,0,0,-27,-8,38
1537922117935341,21,127,124,5,-3,-5,-5,10
1537922117935341,-21,-80,-108,-20,-11,-35,-3,-10
1537922117956285,-6,-38,13,0,5,47,19,10
1537922117956285,25,118,77,15,13,-19,-16,-2
1537922117957282,-23,-124,-62,-10,0,50,13,-10
1537922117957282,-3,41,20,-1,-3,-10,-6,-13
1537922117970247,-3,-82,-51,-7,-4,-12,1,15
1537922117970247,-5,59,71,6,-1,-9,2,15
1537922117979224,-7,-54,-67,-5,-2,-12,1,14
1537922117979224,-6,33,7,2,-2,-10,-20,-23
1537922118002162,5,5,9,-2,8,19,14,3
1537922118002162,10,36,43,6,2,2,2,5
1537922118004157,2,-1,-23,1,-2,-10,-8,-12
1537922118004157,-7,-43,-44,-5,-2,6,0,-10
1537922118016124,11,71,35,2,-4,-9,4,18
1537922118016124,-8,-13,-9,-3,-3,2,-7,-6
1537922118018120,-10,-3,-9,-2,0,0,11,5
1537922118018120,15,70,34,4,3,0,-12,-7
1537922118030087,-1,-2,3,4,5,6,12,4
1537922118030087,-11,-39,-31,-4,-3,1,-2,-12
1537922118039063,3,-1,-3,-3,-7,-11,-7,1
1537922118039063,3,-3,18,3,4,9,0,-6
1537922118061004,-1,23,17,-3,-3,-10,-3,9
1537922118061004,-6,-31,-25,-2,-1,9,3,-2
1537922118062999,1,-3,10,-1,-3,-7,-5,3
1537922118062999,-1,-6,5,-1,0,2,-2,-3
1537922118075964,-7,5,-1,-1,-3,-6,2,-3
1537922118075964,-1,-22,-11,-1,-2,-2,-6,-3
1537922118077959,-2,-17,-4,-1,0,0,0,1
1537922118077959,-2,1,4,-1,0,6,2,-6
1537922118089927,15,71,10,2,-3,-4,-4,12
1537922118089927,-25,-89,-29,-8,-5,-5,-8,-28
1537922118098903,0,19,9,1,0,-3,2,3
1537922118098903,0,-11,-6,-2,0,3,3,2
1537922118113863,-2,9,9,1,-2,-6,-1,0
1537922118113863,8,56,13,3,2,2,-1,5
1537922118114860,-4,-42,-12,-1,2,1,1,1
1537922118114860,2,18,-2,0,0,2,0,-3
1537922118135804,-6,-31,-6,-6,-5,-7,-5,-3
1537922118135804,1,1,-4,1,0,1,2,13
1537922118137799,-16,-54,2,-1,0,-8,-15,-35
1537922118137799,9,5,7,-2,1,-1,-2,-3
1537922118149767,1,-5,3,-2,3,6,4,56
1537922118149767,-3,14,-10,-5,9,31,0,-68
1537922118158744,0,14,-23,-23,-15,-18,11,50
1537922118158744,3,-25,24,-35,1,14,5,-2
1537922118173704,-13,-18,-77,36,-13,-29,2,-1
1537922118173704,31,41,2,-13,9,1,-22,6
1537922118174701,2,8,94,72,0,-7,23,-10
1537922118174701,-11,-10,-84,-64,-13,-24,-16,15
1537922118197641,9,5,76,16,14,34,33,28
1537922118197641,-13,-6,-24,-71,17,81,-71,-29
1537922118198637,-18,-45,-47,74,-24,-87,39,71
1537922118198637,10,28,79,18,7,62,15,-65
1537922118217586,-5,-27,-81,-22,-23,-84,-56,16
1537922118217586,-15,-4,-33,-31,-34,30,64,-8
1537922118218583,-1,21,-5,-62,36,21,23,19
1537922118218583,-8,-19,32,-13,20,25,-68,-67
1537922118234541,-37,-22,-128,-128,-58,32,36,-4
1537922118234541,3,-18,123,125,23,-111,3,-30
1537922118235538,9,24,-25,41,51,74,70,17
1537922118235538,-33,-20,71,57,-25,-58,-2,32
1537922118255484,21,51,69,-7,127,-23,-62,-126
1537922118255484,-38,-49,-107,18,-20,41,37,39
1537922118256482,7,4,12,-73,-38,-23,4,19
1537922118256482,19,15,41,65,-27,-49,-18,96
1537922118278423,10,-3,4,7,-65,31,62,119
1537922118278423,-13,-4,8,-21,17,15,-19,-42
1537922118278423,57,36,-45,-66,-6,-1,-45,-46
1537922118278423,-11,-18,-93,-55,-9,37,9,53
1537922118293383,5,-10,4,-14,-3,39,51,-15
1537922118293383,-25,20,21,8,-24,-118,-73,-54
1537922118293383,1,9,14,9,-11,28,-3,36
1537922118293383,15,12,11,-1,15,-11,14,-1
1537922118323303,12,1,-26,39,32,39,21,-12
1537922118323303,22,-1,38,11,28,60,47,74
1537922118324301,-22,-19,17,10,-1,-2,-34,-39
1537922118324301,-4,-9,-18,11,-32,-51,3,-38
1537922118338264,-4,1,21,16,57,13,1,5
1537922118338264,16,8,-22,-32,-10,-1,-1,20
1537922118338264,-20,-5,-4,-13,6,-22,-43,-54
1537922118338264,5,7,-33,11,12,31,42,11
1537922118353223,-6,-11,23,-8,-48,-31,-35,-15
1537922118353223,5,-1,9,-4,-16,-26,-1,19
1537922118353223,-2,0,-6,18,20,20,4,-3
1537922118353223,-9,2,-17,-16,4,27,11,2
1537922118375165,-8,-7,21,1,-18,-20,-22,-22
1537922118375165,4,-6,-5,6,-6,-9,5,7
1537922118376163,3,3,-11,-6,-6,10,2,11
1537922118376163,-6,-7,-20,-10,6,3,-1,-14
1537922118398105,3,-4,20,-12,-27,-21,-23,-21
1537922118398105,9,-2,-18,-7,-10,-9,18,18
1537922118399102,0,0,0,2,23,26,-6,-2
1537922118399102,10,6,6,8,24,4,-4,18
1537922118413063,-5,-8,12,22,4,1,7,-12
1537922118413063,5,1,-7,-19,-13,10,5,28
1537922118414061,-2,2,-1,-19,-15,-10,-12,-37
1537922118414061,-3,-3,-4,8,-15,-24,6,-2
1537922118435005,-3,1,6,12,32,12,-5,13
1537922118435005,-5,-1,-3,-4,0,0,-1,1
1537922118436002,-6,2,3,2,-10,-8,-8,0
1537922118436002,1,-2,-8,-1,8,13,11,12
1537922118457943,-7,-5,6,-3,-23,-8,-12,-21
1537922118457943,0,11,3,-4,1,-8,3,4
1537922118458941,6,-2,0,8,4,7,-1,3
1537922118458941,-9,6,-5,-13,-11,-7,0,-9
1537922118472903,0,-6,3,0,-4,-1,-3,2
1537922118472903,5,-11,-3,6,12,4,-1,-6
1537922118473901,0,0,-9,-6,-13,-3,3,8
1537922118473901,2,1,-6,-12,2,2,-3,-8
1537922118495842,0,16,13,12,5,-5,-2,-3
1537922118495842,-8,-12,-7,-3,0,3,4,4
1537922118495842,-2,20,4,-3,-9,-2,-3,1
1537922118495842,-3,-2,-3,-4,1,1,-2,-6
1537922118517783,-3,-10,-1,2,3,4,1,0
1537922118517783,1,-1,-6,-4,-7,-1,4,4
1537922118518781,-6,-21,-6,-2,2,-1,-2,18
1537922118518781,-11,-6,-5,4,7,2,-1,-16
1537922118532743,-5,5,-2,-2,-6,-1,1,4
1537922118532743,1,3,-2,-4,-3,-2,-2,0
1537922118533740,0,-2,-3,0,0,-1,1,-1
1537922118533740,13,9,3,5,9,5,4,3
1537922118555682,-1,-6,0,-2,-8,-4,-3,-1
1537922118555682,11,3,-2,-3,-1,-1,-1,1
1537922118556680,8,-2,0,0,-3,0,-3,-5
1537922118556680,9,-10,-5,1,0,0,2,2
1537922118577623,7,16,5,0,-2,-3,-2,-3
1537922118577623,6,11,2,-6,-3,-1,-2,1
1537922118578620,-3,-12,-3,0,-5,-2,0,-4
1537922118578620,-4,0,-4,3,3,-1,-1,-1
1537922118592583,-2,-38,-6,-2,2,0,1,-1
1537922118592583,-1,4,1,2,-6,-4,0,2
1537922118593581,-4,-3,-2,0,13,8,-1,-3
1537922118593581,-5,0,0,-4,-1,-3,0,-3
1537922118623500,1,14,3,1,0,1,-2,0
1537922118623500,-3,25,4,-2,-4,-2,-1,0
1537922118624498,-8,-40,-5,-2,-3,-2,-2,-5
1537922118624498,-3,-2,-4,0,0,-1,-1,-3
1537922118638460,-1,62,9,-1,-2,2,0,-2
1537922118638460,8,18,4,5,2,2,0,2
1537922118638460,-12,-53,-9,-5,-5,0,-1,-3
1537922118638460,-8,-64,-8,-4,0,-4,0,-1
1537922118661399,-10,7,-15,-3,-5,-1,0,-3
1537922118661399,-1,12,6,0,2,-1,1,0
1537922118661399,7,71,10,1,-2,2,0,0
1537922118661399,-1,-21,-2,0,0,2,1,-1
1537922118675362,11,23,10,1,-1,-2,-2,2
1537922118675362,4,-40,0,3,2,0,-3,-9
1537922118676360,12,87,9,-1,2,-2,-13,31
1537922118676360,-26,-48,-14,-15,-1,-5,-14,-10
1537922118698301,25,6,-21,-27,-5,45,56,38
1537922118698301,-48,-40,17,-15,-10,-18,7,-26
1537922118698301,7,20,-40,23,14,-35,-23,-18
1537922118698301,2,31,-73,-69,-19,21,-35,69
1537922118713261,-34,-25,43,28,-28,-44,7,-30
1537922118713261,31,72,0,-118,2,64,1,50
1537922118713261,-24,-105,52,100,-32,-67,19,28
1537922118713261,75,85,127,103,79,-23,18,60
1537922118736200,23,-5,-5,-15,72,80,77,-18
1537922118736200,-59,-12,-60,95,-32,-83,-73,-61
1537922118737197,17,22,60,-104,-22,63,49,9
1537922118737197,-7,-18,-128,-106,-87,-75,-81,-19
1537922118758141,22,8,127,116,93,98,94,15
1537922118758141,-21,2,-88,-66,6,102,-29,-51
1537922118759138,-75,-92,-94,-84,-77,-66,-93,35
1537922118759138,14,42,85,-29,38,-42,-10,-65
1537922118773101,7,26,-84,63,63,-41,-28,99
1537922118773101,52,-16,127,127,98,77,110,2
1537922118774099,-21,28,0,-20,-27,101,93,89
1537922118774099,25,-5,-22,-95,-76,12,38,-78
1537922118795042,-70,-7,-50,-107,31,-100,-128,113
1537922118795042,14,-40,-42,81,-7,-128,-51,-1
1537922118796040,2,26,-10,23,30,75,72,10
1537922118796040,-8,-7,-19,-6,-75,-71,-57,19
1537922118817982,18,-1,-39,-109,-102,13,71,-64
1537922118817982,18,13,19,-68,15,-7,21,108
1537922118818979,32,29,84,115,15,17,-27,-20
1537922118818979,-55,-15,-6,17,20,70,-5,-13
1537922118832941,8,-27,-74,-58,1,-12,-2,37
1537922118832941,15,2,12,19,12,-30,-23,-25
1537922118833939,27,15,-15,-26,30,-44,-2,-36
1537922118833939,-16,14,48,125,30,24,11,14
1537922118855880,14,-14,17,9,-60,-7,-40,-15
1537922118855880,3,-12,11,-51,-3,38,32,26
1537922118855880,-6,-3,-39,-46,1,-11,-31,-56
1537922118855880,-16,-4,-13,10,-26,-6,26,-15
1537922118878819,6,-12,22,8,-16,1,-18,-33
1537922118878819,-22,-6,-19,-17,19,22,-4,-19
1537922118879816,4,4,-2,44,36,-6,-21,-18
1537922118879816,7,-1,0,-13,-11,9,23,23
1537922118900760,-7,-13,28,-2,5,-7,-16,-47
1537922118900760,-3,3,-4,25,-33,-1,10,2
1537922118901758,3,-2,-2,-17,23,10,0,6
1537922118901758,18,9,24,22,21,2,18,-6
1537922118915720,-11,-13,-9,19,-23,-10,-16,-18
1537922118915720,-15,-10,-12,-26,-26,-15,-12,-6
1537922118915720,2,1,0,2,9,-4,-4,-11
1537922118915720,-7,-3,1,15,23,27,14,-7
1537922118938658,-4,-7,-8,14,-17,-15,-19,-20
1537922118938658,8,5,0,-35,-15,-2,4,10
1537922118939656,3,-4,2,-1,-6,-16,-2,1
1537922118939656,-7,0,-11,-4,25,15,17,11
1537922118952622,-5,-2,4,3,1,6,-5,-13
1537922118952622,-9,-2,6,3,-10,5,27,25
1537922118953619,3,-2,-9,-18,-12,-31,-41,-9
1537922118953619,-6,1,-3,6,-1,0,0,3
1537922118975560,0,-5,4,4,15,2,-6,-19
1537922118975560,8,1,-1,4,-5,5,2,7
1537922118976557,20,-1,-7,-11,-7,14,3,-6
1537922118976557,14,1,1,-10,32,13,8,2
1537922118998499,10,-3,8,37,-13,-5,-2,6
1537922118998499,6,3,-5,-7,9,4,-5,-6
1537922118999496,-4,0,0,3,6,-5,2,-7
1537922118999496,-9,-2,-3,-10,-10,0,2,7
1537922119012461,-12,-1,0,0,-4,6,3,-6
1537922119012461,-9,2,-5,-1,-8,-7,-11,-5
1537922119020440,-11,-3,-1,0,6,-7,0,-9
1537922119020440,-4,3,0,7,7,7,7,8
1537922119035400,-3,0,-5,-4,-3,-3,-4,0
1537922119035400,-1,-2,-1,-11,-6,-10,-7,-4
1537922119036397,-1,5,2,-3,-1,0,2,4
1537922119036397,-10,-2,-4,1,7,9,4,8
1537922119058338,-1,-3,-1,1,-5,-5,-4,-21
1537922119058338,7,-1,5,1,-2,-4,-2,0
1537922119059336,1,-16,-3,-3,-2,10,4,-4
1537922119059336,-10,15,2,4,3,-3,-1,-2
1537922119072301,-11,20,5,-1,-5,-5,-3,-3
1537922119072301,-10,1,0,-1,1,0,-1,1
1537922119080279,-5,-3,-3,-1,-2,-3,-2,-4
1537922119080279,3,-13,0,0,5,5,3,1
1537922119095240,1,-7,1,10,6,0,0,5
1537922119095240,3,2,-2,-2,-7,-2,-2,-4
1537922119096237,0,1,-1,-5,-2,-5,0,0
1537922119096237,4,-6,-4,-1,-7,-2,-1,0
1537922119118178,2,-2,-2,-6,-1,-2,-1,0
1537922119118178,-1,-2,2,3,0,-1,-2,0
1537922119119176,-1,8,-1,-8,0,-5,-1,-3
1537922119119176,-2,-3,-2,2,-11,-2,0,-2
1537922119132141,0,3,3,1,7,1,-4,1
1537922119132141,0,-1,-1,0,-2,-4,0,0
1537922119140120,-5,-2,-4,-5,-4,-2,-1,-3
1537922119140120,1,1,0,-2,-6,-2,-1,-2
1537922119155080,0,-6,-2,-2,9,11,1,3
1537922119155080,-3,0,2,0,2,-4,-2,-3
1537922119156077,0,8,2,0,0,-1,-1,0
1537922119156077,2,-1,-2,4,2,0,6,0
1537922119179016,-2,-7,-4,-10,-13,-4,-8,-2
1537922119179016,1,4,2,3,5,0,-2,0
1537922119179016,-2,-2,0,1,-1,0,1,-1
1537922119179016,-1,-4,0,4,2,-1,-1,0
1537922119191981,-2,-2,0,-4,-9,-2,2,0
1537922119191981,-3,-4,-5,-5,-3,0,-4,-3
1537922119200957,0,-1,-2,1,-4,-3,-3,0
1537922119200957,-2,1,3,3,7,5,1,1
1537922119215917,-1,-1,-4,-1,-5,-1,1,-2
1537922119215917,-6,-4,0,-4,-5,-5,-2,-3
1537922119215917,-2,6,7,5,4,6,1,-3
1537922119215917,3,-2,0,5,12,0,0,1
1537922119238858,2,-1,-6,-8,-2,-3,0,1
1537922119238858,0,-1,-2,10,-10,-8,-1,0
1537922119239854,-1,-3,-5,-6,2,5,0,-1
1537922119239854,-3,-1,1,0,3,-2,-1,-3
1537922119260797,-1,-1,0,0,-3,0,1,1
1537922119260797,2,-2,-2,-6,-2,-3,1,1
1537922119261795,0,3,1,1,4,3,-1,-1
1537922119261795,-1,0,1,1,-1,6,-2,0
1537922119275757,0,0,-2,0,-3,-10,-3,-2
1537922119275757,2,2,1,-3,3,2,0,0
1537922119275757,-4,-6,-3,-1,-3,0,-1,-3
1537922119275757,1,1,0,-1,0,2,0,1
1537922119298696,-5,-4,-4,-3,-5,-2,-1,-2
1537922119298696,5,-2,0,-4,1,0,0,-2
1537922119299693,9,3,2,3,-7,-8,-2,2
1537922119299693,-2,-4,-6,-6,3,1,0,-2
1537922119312658,-4,0,3,6,0,-2,-1,0
1537922119312658,-5,1,0,-2,-1,1,-1,-3
1537922119320637,6,3,0,-3,-3,-3,-1,2
1537922119320637,1,-5,-3,-2,-6,-1,1,-2
1537922119335597,4,5,2,-4,4,-2,0,1
1537922119335597,-4,-4,-1,2,6,4,1,0
1537922119336595,-3,0,1,7,-2,-2,0,-1
1537922119336595,-5,-1,-1,-1,-2,-4,-2,-3
1537922119358536,-1,-6,-3,-2,-5,-3,0,0
1537922119358536,0,-1,-1,1,3,-1,0,0
1537922119359534,-2,-3,-2,-7,-4,-2,0,1
1537922119359534,2,3,-1,1,2,-1,-2,1
1537922119381475,-4,-7,-2,0,1,1,0,-2
1537922119381475,-2,0,-4,-8,-5,0,-4,-1
1537922119382473,-3,0,0,2,3,3,0,-2
1537922119382473,-1,1,0,0,-1,-2,-2,0
1537922119395439,2,3,3,1,-6,-7,2,0
1537922119395439,-2,-3,-2,-3,4,5,-1,-1
1537922119396435,-3,-3,-3,-2,-2,-4,0,0
1537922119396435,3,2,4,-1,-3,-4,-1,1
1537922119418377,1,2,-2,7,5,2,2,0
1537922119418377,-4,4,-2,-3,-3,-3,0,-2
1537922119419374,-3,-2,-2,-1,-4,0,1,-2
1537922119419374,0,2,4,-3,3,-3,-1,0
1537922119441315,0,-8,-13,-4,-9,-4,0,-1
1537922119441315,4,1,4,2,1,1,1,2
1537922119442312,-3,-4,-5,-4,0,-1,-3,-3
1537922119442312,0,19,0,0,-4,-1,-2,-1
1537922119455277,-4,-39,1,1,3,4,-2,-2
1537922119455277,1,-5,-2,0,-1,-6,-1,0
1537922119456274,0,-15,-5,-7,-7,-10,-3,-1
1537922119456274,5,83,16,13,10,11,4,1
1537922119478216,-2,10,-1,-1,3,2,-2,-1
1537922119478216,-10,-38,-12,-4,-1,0,0,-3
1537922119479213,-1,3,1,0,-1,-2,-2,1
1537922119479213,10,73,12,-3,-4,-5,-1,0
1537922119501154,4,63,6,3,4,1,1,1
1537922119501154,-1,32,-1,1,-1,1,-1,-1
1537922119502152,3,11,-5,-2,2,2,0,-1
1537922119502152,-4,-34,-8,-4,-4,-2,-4,-9
1537922119515117,-6,-55,-2,2,2,-2,-5,-1
1537922119515117,-15,8,-8,-11,4,5,-21,-5
1537922119516115,-4,-7,-5,-27,-10,-3,18,21
1537922119516115,10,-7,-27,-19,8,30,64,14
1537922119546034,-11,-18,18,-40,-36,-73,-85,-11
1537922119546034,21,11,-41,39,6,-9,7,-46
1537922119547032,-7,15,72,-47,-1,68,-39,-31
1537922119547032,-38,-72,-44,109,1,-75,31,12
1537922119560994,19,53,14,-78,8,66,65,12
1537922119560994,-3,-20,91,-38,1,26,0,13
1537922119561992,1,7,35,107,0,-62,-32,21
1537922119561992,38,-7,-16,-128,-6,82,-37,21
1537922119574957,-6,-18,8,-43,-49,-76,18,45
1537922119574957,-22,21,-54,39,51,53,66,-44
1537922119575954,-68,1,-118,-20,16,1,-74,-51
1537922119575954,-83,-42,-19,-19,6,-29,-7,10
1537922119598893,21,2,61,112,4,31,120,41
1537922119598893,-7,-16,-18,-100,5,36,-23,72
1537922119598893,52,-31,27,16,-56,-59,-50,-91
1537922119598893,25,19,-43,-47,30,-47,-93,26
1537922119620834,44,30,41,34,-9,45,10,-84
1537922119620834,81,-15,3,-8,-4,12,-1,120
1537922119621832,68,7,49,-74,34,66,92,13
1537922119621832,37,7,-53,30,-43,-38,47,-8
1537922119635795,-13,-20,49,23,20,3,-47,65
1537922119635795,-101,10,31,40,-77,-100,-26,-33
1537922119635795,16,8,-18,-83,25,51,-7,67
1537922119635795,-18,-11,51,89,4,-30,-64,-128
1537922119658733,-5,-16,-66,-12,-22,-19,30,32
1537922119658733,37,20,-29,28,1,-14,0,7
1537922119659731,-47,-8,-51,-33,45,33,40,7
1537922119659731,13,-4,27,-32,-1,23,-4,20
1537922119681672,-18,14,-17,29,62,29,-47,-26
1537922119681672,-30,-14,-24,-56,-53,-12,-4,-39
1537922119681672,-10,-1,-6,17,-23,-84,23,0
1537922119681672,9,-5,45,15,50,44,15,18
1537922119694637,-2,7,-39,-12,5,4,-16,-21
1537922119694637,15,-4,-1,-2,5,-19,-15,-20
1537922119709598,14,4,14,28,-42,-37,15,25
1537922119709598,2,-6,-2,-8,-6,25,8,7
1537922119718574,-19,-8,-37,-45,-38,-33,-30,-22
1537922119718574,16,6,30,24,29,19,17,-5
1537922119719571,-10,2,0,36,26,10,-9,5
1537922119719571,-10,-5,-3,-52,-37,10,11,5
1537922119741512,6,4,-6,11,28,14,0,-5
1537922119741512,8,4,19,29,-8,2,-10,5
1537922119741512,-8,0,-6,13,16,18,5,4
1537922119741512,-4,-5,1,-9,-34,-18,-3,3
1537922119754480,-4,0,-6,-19,9,-4,0,2
1537922119754480,0,4,1,8,3,2,-5,-5
1537922119763454,-15,-6,-11,-9,-16,-8,-1,4
1537922119763454,-9,-2,4,-6,11,-5,17,-10
1537922119778414,-22,-3,-7,3,-6,11,-3,13
1537922119778414,-20,-8,-6,0,16,1,-8,-8
1537922119780409,7,15,8,-16,-18,4,4,1
1537922119780409,42,2,8,14,-10,-10,-7,13
1537922119801353,25,4,-2,4,6,-6,-4,-14
1537922119801353,15,-1,1,-13,-2,-4,0,4
1537922119802349,-8,-5,-3,4,-3,-8,2,11
1537922119802349,-14,16,3,2,-1,4,1,0
1537922119814318,5,0,-4,-8,3,2,-7,-10
1537922119814318,12,12,-9,-10,-3,0,7,6
1537922119823294,14,11,-1,14,-3,-3,-6,-1
1537922119823294,-24,10,10,7,11,11,3,1
1537922119838255,-29,-103,-20,-6,-7,-1,-3,-3
1537922119838255,-7,80,18,-2,-3,-9,0,-3
1537922119840249,-3,20,1,7,0,0,2,4
1537922119840249,-3,-51,-14,-1,-2,4,3,-4
1537922119861192,-10,19,-4,-8,-1,-3,-5,4
1537922119861192,2,-61,-16,-1,4,0,-4,-6
1537922119862190,7,37,9,3,2,4,14,6
1537922119862190,-5,48,13,-2,-5,0,4,9
1537922119875155,4,-56,-12,0,-1,0,-3,-5
1537922119875155,6,4,-3,-6,0,-8,-2,-1
1537922119884132,20,67,15,6,-3,0,-3,1
1537922119884132,-18,-44,-8,-1,-4,-1,-1,2
1537922119899091,-9,96,9,4,8,3,-4,-2
1537922119899091,-8,20,-2,-6,-3,-1,-1,-9
1537922119900089,-28,-128,-17,-16,-9,-1,3,25
1537922119900089,-3,73,19,17,4,5,-2,-26
1537922119921032,-8,-19,-11,-11,18,18,-20,50
1537922119921032,-7,-28,-8,-8,4,7,33,-41
1537922119923027,13,-4,-4,-60,-4,57,51,8
1537922119923027,-40,-42,-28,-23,-25,-85,-100,77
1537922119934995,-62,44,-68,24,-13,-30,101,-101
1537922119934995,-13,13,46,31,-1,26,-24,-38
1537922119943972,10,-46,-50,-79,4,42,54,69
1537922119943972,41,-9,-70,-5,5,-23,14,-73
1537922119958932,-11,-8,103,76,25,0,-22,42
1537922119958932,15,29,60,-6,-2,4,41,58
1537922119959929,-41,-1,27,21,-48,-105,-122,-107
1537922119959929,25,21,-38,-20,0,70,28,-37
1537922119980873,11,-14,-115,-110,-31,9,46,4
1537922119980873,19,-8,-117,-80,-6,-20,-45,-105
1537922119982868,-23,23,96,37,29,88,47,114
1537922119982868,-1,-34,1,61,-5,-58,-61,-41
1537922119994835,5,2,63,30,32,65,81,-4
1537922119994835,26,-2,-25,-63,1,92,102,42
1537922120003812,57,27,31,-21,24,-128,-122,-46
1537922120003812,36,-5,127,84,86,127,26,123
1537922120018771,14,11,4,-83,20,-34,-59,13
1537922120018771,14,-7,114,111,-51,-72,63,-56
1537922120019769,37,5,-86,-17,5,120,53,87
1537922120019769,-76,-19,-80,-59,-22,-14,127,10
1537922120040713,23,24,12,-43,21,105,-128,-62
1537922120040713,-64,-30,-128,-128,-62,-113,-118,37
1537922120042708,75,-15,81,105,-33,-65,79,-15
1537922120042708,-22,9,-58,5,42,44,-59,-27
1537922120054675,46,-14,23,24,-50,-35,4,-42
1537922120054675,57,24,-82,-73,9,27,-75,116
1537922120063651,18,-24,20,43,-18,-93,-62,-111
1537922120063651,-1,26,94,43,-32,-6,-41,-46
1537922120078611,-51,-9,7,15,-12,-47,2,22
1537922120078611,38,-8,8,15,102,109,91,127
1537922120079608,-27,35,-24,-11,-32,-86,56,-8
1537922120079608,26,-4,-14,-101,-33,6,34,32
1537922120101550,-25,0,13,57,6,-24,-40,38
1537922120101550,-34,-6,34,49,-3,-18,-8,-46
1537922120102547,-56,-10,-54,-40,28,69,-17,-53
1537922120102547,-18,-4,24,-7,-27,-24,14,0
1537922120114515,6,0,-39,-29,-66,-23,55,23
1537922120114515,-14,-8,16,8,59,5,-19,-15
1537922120123491,-27,-5,1,15,22,37,-23,21
1537922120123491,13,1,-12,-28,-25,-38,11,7
1537922120138451,20,7,-4,-21,-46,-33,-26,-20
1537922120138451,-3,-10,22,22,-37,-30,-22,4
1537922120140446,-16,9,-2,18,45,34,20,5
1537922120140446,4,-8,0,0,27,15,14,15
1537922120161389,8,2,-2,-1,39,25,6,37
1537922120161389,-24,-5,22,17,-24,-32,-4,-32
1537922120162387,-10,-1,-29,-21,-24,18,19,12
1537922120162387,9,2,2,-7,6,6,-12,4
1537922120174355,4,-2,-2,-5,-3,-24,-7,5
1537922120174355,-8,-11,3,15,1,0,9,-10
1537922120183331,-2,5,-10,-17,-23,-8,-18,-9
1537922120183331,9,6,0,2,13,4,1,24
1537922120198291,0,-22,-3,-11,14,10,6,-12
1537922120198291,-1,-2,5,15,-5,11,12,0
1537922120205272,-8,-11,-16,-7,2,-14,-18,16
1537922120205272,-7,26,7,-2,26,13,9,6
1537922120221230,6,1,-13,-4,8,18,15,11
1537922120221230,-8,-8,5,0,-3,0,-8,-8
1537922120222227,0,-9,-4,-8,-8,6,-2,2
1537922120222227,10,2,-5,-5,-9,-19,-2,-1
1537922120235192,13,33,9,9,10,5,-5,-1
1537922120235192,3,-2,11,7,5,6,-3,2
1537922120243171,-14,-35,-3,-1,-4,1,3,1
1537922120243171,5,6,-12,-7,-13,-2,-4,-3
1537922120258131,-2,23,-2,-5,8,-2,3,9
1537922120258131,-8,-22,4,5,-8,-3,0,-9
1537922120265112,2,10,6,2,11,14,6,8
1537922120265112,-1,-12,-11,-3,-1,-1,-3,-4
1537922120281070,5,21,-6,2,-3,0,0,3
1537922120281070,-3,-20,-19,-5,-6,-9,-2,-1
1537922120283064,5,10,-2,-10,1,9,-3,5
1537922120283064,0,-15,4,4,-8,-1,-2,-18
1537922120304009,-7,-32,-2,4,12,4,5,1
1537922120304009,2,40,14,0,-1,1,-3,1
1537922120305006,-2,-14,-8,0,4,7,1,1
1537922120305006,-2,17,12,-5,-10,-9,-3,3
1537922120318969,2,-24,-1,-2,-3,-4,1,0
1537922120318969,4,34,14,2,2,-1,-3,-4
1537922120319966,-10,-13,-22,-5,-7,-2,-7,-2
1537922120319966,-4,-43,-9,-2,-1,-2,-1,0
1537922120340910,0,49,11,-22,-2,5,2,1
1537922120340910,-6,-99,-15,16,8,4,0,5
1537922120342905,5,49,16,10,9,4,0,2
1537922120342905,12,-2,-4,-5,-6,-6,-2,0
1537922120363849,11,-11,-2,4,-3,-5,-2,0
1537922120363849,-2,22,7,-2,-4,0,-2,-2
1537922120364846,-6,16,13,-5,-7,-1,6,0
1537922120364846,-4,-30,-21,-5,2,4,-5,1
1537922120378808,-2,0,4,8,8,2,0,1
1537922120378808,-3,14,0,-3,-13,-6,0,-1
1537922120379806,-3,-23,-8,0,6,4,1,-3
1537922120379806,-11,16,11,4,4,0,1,4
1537922120400750,-9,-6,-3,-4,-11,-10,-2,-2
1537922120400750,-7,20,3,4,7,1,1,-4
1537922120402744,-6,-2,0,-4,-1,3,1,-1
1537922120402744,-1,4,9,0,0,2,1,-1
1537922120423689,-1,-6,-13,1,-3,0,-2,1
1537922120423689,-1,-13,-2,-2,-1,0,-1,-1
1537922120424686,4,-14,-9,1,0,1,-1,0
1537922120424686,4,37,10,-3,1,-2,0,1
1537922120438649,-2,-36,-8,-1,-8,-4,-3,1
1537922120438649,0,16,14,0,2,-1,-1,-2
1537922120439646,2,-12,-13,-3,-1,-4,1,1
1537922120439646,0,-2,2,4,0,2,-2,-2
1537922120461588,1,2,-8,-6,-7,-6,0,-1
1537922120461588,2,5,-6,-2,-6,-3,-1,-2
1537922120462585,0,1,11,3,17,16,2,-1
1537922120462585,-6,-13,-3,1,0,-6,1,-1
1537922120483529,1,-2,13,-5,4,2,1,1
1537922120483529,3,2,-18,3,-6,-12,-3,1
1537922120485524,-5,3,-3,0,2,-4,-3,-3
1537922120485524,0,3,0,-5,-5,3,1,1
1537922120497491,1,1,3,0,-1,-5,-2,-2
1537922120497491,-2,-3,2,0,1,7,0,-2
1537922120504473,-1,24,5,-2,-7,-2,-2,-2
1537922120504473,-3,-41,-8,-3,-5,-6,-1,-2
1537922120521428,2,-3,-3,9,0,2,0,-2
1537922120521428,-1,11,8,-3,4,5,1,0
1537922120522425,2,16,9,0,-4,-2,-1,1
1537922120522425,0,-6,-17,-2,-1,-2,0,-1
1537922120543369,0,-6,-11,0,-2,-1,-1,0
1537922120543369,2,2,16,2,6,5,-1,0
1537922120545363,3,25,-11,-1,-3,-6,-1,-2
1537922120545363,0,-15,8,1,-6,-3,-1,-2
1537922120558329,-2,-27,-5,-4,-3,0,0,0
1537922120558329,2,1,-15,-7,-4,1,-3,0
1537922120564312,1,11,11,7,4,3,2,-1
1537922120564312,-6,-31,-6,-7,-8,-4,-2,-2
1537922120581267,4,72,22,6,11,5,1,-1
1537922120581267,-3,-54,-14,-5,-3,-1,-1,-1
1537922120582264,-3,-54,-12,-3,-4,-3,1,-1
1537922120582264,-4,42,-3,-3,-6,-5,-1,-2
1537922120603208,11,14,5,-1,3,4,2,0
1537922120603208,0,0,-1,-2,-1,-3,-1,-1
1537922120605203,-10,3,-2,-5,-6,-4,1,0
1537922120605203,-14,4,8,7,6,5,1,0
1537922120618168,-9,10,1,2,-5,-3,-4,1
1537922120618168,8,92,17,4,9,7,1,1
1537922120625150,-12,-98,-26,-7,-5,-6,-3,-5
1537922120625150,3,20,5,-5,-5,-4,-2,0
1537922120641107,-1,-24,-3,2,-2,-3,-1,-1
1537922120641107,3,-2,-15,-6,2,-1,0,1
1537922120642104,5,40,10,4,1,5,-2,1
1537922120642104,17,60,17,4,5,-6,0,2
1537922120664046,-17,-113,-33,-8,-4,0,-1,-10
1537922120664046,-10,4,-4,-1,-5,-2,2,0
1537922120665043,-50,25,4,-2,-8,-10,0,0
1537922120665043,-24,-5,0,2,14,15,2,2
1537922120678008,-8,20,10,0,-4,-5,-1,2
1537922120678008,9,-8,0,-1,-1,-2,0,-2
1537922120684990,23,8,-1,-2,-1,5,-1,-1
1537922120684990,16,-12,-3,-2,-2,-4,-2,-2
1537922120700947,8,13,3,1,0,-1,-1,-2
1537922120700947,8,-17,-4,-3,0,-1,-1,-3
1537922120702942,21,3,8,2,-1,-1,0,-1
1537922120702942,2,65,8,-1,-5,-3,-2,-1
1537922120723886,-3,-48,-11,-1,1,1,-2,-2
1537922120723886,-3,-15,-3,-1,-4,-3,-2,-1
1537922120724883,10,-11,-3,-3,0,-1,-2,0
1537922120724883,15,3,2,4,5,4,1,0
1537922120737848,9,86,8,-3,-5,-5,-2,-1
1537922120737848,0,-16,-2,3,2,4,3,-1
1537922120744830,15,45,15,2,-1,-3,-2,1
1537922120744830,-20,-115,-31,-10,-2,4,-1,-9
1537922120760787,-2,-10,0,-3,-6,-4,1,2
1537922120760787,-6,9,6,1,4,-2,0,0
1537922120762782,3,35,3,2,5,4,1,0
1537922120762782,8,8,6,4,-1,-2,-1,-3
1537922120783726,3,-5,-4,2,1,2,3,20
1537922120783726,4,9,12,1,-2,3,5,23
1537922120784724,-6,63,-13,-5,0,3,-8,-22
1537922120784724,-16,24,2,-1,2,-2,0,-14
1537922120797689,-17,-6,-6,0,7,6,-6,61
1537922120797689,-22,-5,-18,-7,-2,4,-6,-46
1537922120805667,22,-16,-27,-39,-10,6,39,10
1537922120805667,39,7,-17,-94,-30,-45,-69,-33
1537922120821625,3,-66,10,95,30,29,81,-8
1537922120821625,6,87,-65,-94,-14,-39,-106,48
1537922120822622,-97,-104,13,127,-12,-73,30,-60
1537922120822622,26,33,70,8,12,89,69,-25
1537922120843566,-24,34,78,-124,-41,-66,-105,48
1537922120843566,13,-66,-49,127,61,79,127,19
1537922120845561,-44,2,75,4,49,59,-39,-34
1537922120845561,13,-28,-38,-38,-31,-93,-73,0
1537922120857529,32,51,-83,-98,-10,43,-2,-13
1537922120857529,-108,-56,106,-96,-95,-121,-65,-78
1537922120866506,84,61,-80,-61,8,95,91,39
1537922120866506,-7,-17,-96,117,67,14,-57,-56
1537922120881465,22,-10,77,113,-13,-43,40,-38
1537922120881465,77,22,55,-41,6,88,-3,-8
1537922120882463,-6,-21,-39,-63,-19,-36,53,34
1537922120882463,-43,4,1,80,36,91,104,126
1537922120903406,-15,-17,-1,-7,-14,-114,-97,-101
1537922120903406,26,-2,-94,31,27,47,62,35
1537922120905401,77,4,-29,-100,-40,-32,-99,9
1537922120905401,72,13,61,-15,-22,-29,-7,62
1537922120917369,-104,-19,-18,-32,-15,-52,101,21
1537922120917369,21,18,3,40,-8,20,-10,-40
1537922120926345,17,-8,-29,-1,20,-1,-116,120
1537922120926345,27,3,-12,-50,-30,-42,28,-11
1537922120941305,25,-4,-15,19,2,2,-76,-74
1537922120941305,21,7,24,-11,2,-9,44,-6
1537922120942303,1,-13,-23,-17,-7,-1,13,-32
1537922120942303,-16,-14,13,29,-4,-13,-17,-19
1537922120963246,25,32,32,13,74,100,44,34
1537922120963246,-12,1,-23,-19,6,3,15,26
1537922120965241,-22,-19,14,38,-22,-29,-21,2
1537922120965241,-30,-1,34,-8,31,-18,7,-15
1537922120977209,-3,11,-34,-14,-3,37,8,-14
1537922120977209,-22,-12,-4,-10,-32,-64,-37,41
1537922120986185,-25,0,44,39,54,36,10,-34
1537922120986185,-31,-5,-7,-27,-41,-24,-1,-16
1537922121001145,10,8,-23,-16,11,25,11,43
1537922121001145,-14,-5,6,23,13,-8,-19,-13
1537922121002143,-5,7,29,2,-12,-25,10,-9
1537922121002143,-7,10,-14,-20,-12,17,12,3
1537922121024084,8,-32,-17,11,9,-9,-14,11
1537922121024084,1,5,27,2,-8,-19,-7,-6
1537922121025082,5,5,-2,-1,-17,-5,10,-15
1537922121025082,-9,-37,-14,-17,12,5,-6,21
1537922121037050,5,9,2,6,-9,8,-2,-6
1537922121037050,13,-10,1,-4,-6,-5,-4,-7
1537922121054004,11,2,15,1,7,-5,11,13
1537922121054004,-2,17,3,3,5,18,-1,-5
1537922121060986,20,1,-17,-13,-29,-9,6,8
1537922121060986,-3,12,-5,-1,38,25,-4,-7
1537922121062980,-14,1,14,15,1,2,0,1
1537922121062980,-23,-14,4,-2,-19,-11,-6,-4
1537922121083924,-19,-8,-1,-5,-19,-5,2,-7
1537922121083924,-12,23,-10,1,8,0,-4,13
1537922121084921,-11,-5,17,2,-4,-1,1,-4
1537922121084921,-12,5,-6,2,6,5,12,6
1537922121096889,-1,-41,-7,-6,-6,17,-4,0
1537922121096889,0,18,2,7,12,-7,-5,2
1537922121105865,-4,34,11,-1,-7,-6,-2,-15
1537922121105865,0,-22,-3,-11,-12,-2,2,0
1537922121120825,7,-2,-7,7,10,10,-3,7
1537922121120825,2,-12,13,-2,-9,-5,1,0
1537922121122820,5,7,-8,5,4,2,3,-2
1537922121122820,12,12,4,-3,-1,-1,-5,6
1537922121143763,5,45,28,5,6,-12,1,-2
1537922121143763,-8,-59,-41,-7,-1,15,-1,-4
1537922121144761,-4,-24,-2,2,-4,-8,3,4
1537922121144761,2,3,-10,-5,-8,0,-7,-8
1537922121157726,5,-8,-4,2,4,-1,7,5
1537922121157726,3,44,17,-4,-11,-2,29,-15
1537922121165705,-6,-26,-8,-1,0,-7,-49,9
1537922121165705,4,-9,4,2,5,8,-3,-1
1537922121180665,1,46,17,0,-4,-1,-2,-2
1537922121180665,1,-13,3,1,7,-2,-5,4
1537922121187647,-5,-39,-15,-1,-9,-1,14,-9
1537922121187647,1,18,10,2,4,2,1,-5
1537922121203604,2,36,-11,-2,1,3,-10,4
1537922121203604,-15,-77,-12,-4,-6,-8,-4,-4
1537922121204601,2,31,8,-1,-2,1,7,-1
1537922121204601,-4,-21,-5,-5,0,-3,-5,4
1537922121217566,6,-4,-6,1,-3,4,5,-1
1537922121217566,-2,-8,3,1,-4,-5,-6,3
1537922121226543,1,-7,-6,-2,6,3,7,0
1537922121226543,-2,24,6,-2,-1,2,3,0
1537922121241503,-1,-30,0,4,6,4,0,-4
1537922121241503,16,30,8,-1,-3,-5,-4,1
1537922121242500,11,9,2,1,-5,-6,0,-1
1537922121242500,-5,16,-8,-3,-2,-3,-2,-3
1537922121263444,-30,11,1,0,-1,-1,2,4
1537922121263444,-5,24,11,3,-1,3,4,10
1537922121265439,-2,-1,-9,0,6,4,-2,-15
1537922121265439,-8,-32,-13,-7,-8,-4,-3,-3
1537922121286383,-6,8,4,-1,0,1,1,1
1537922121286383,-36,38,-3,1,4,-3,0,1
1537922121287381,-13,21,21,3,-3,0,6,6
1537922121287381,-14,-4,-33,-1,5,6,0,-1
1537922121301343,-10,23,4,-4,-2,-2,-2,-2
1537922121301343,1,-47,-5,-2,-4,-5,-4,-1
1537922121302340,-25,39,1,-6,-7,1,1,0
1537922121302340,17,44,15,6,6,1,-4,1
1537922121324281,7,-55,-27,-9,-7,0,1,-8
1537922121324281,67,-2,14,6,9,-1,-7,-10
1537922121326276,35,-29,-22,-5,2,14,3,20
1537922121326276,31,-25,-17,-41,-4,25,15,22
1537922121346223,23,3,-4,-46,-22,-40,3,-55
1537922121346223,65,28,-107,-59,-9,27,7,91
1537922121347220,14,-64,83,61,29,-60,-66,37
1537922121347220,-57,39,-19,-93,-21,75,77,-81
1537922121360185,8,-46,74,98,11,-61,6,-2
1537922121360185,-1,50,121,-5,-2,-52,-74,20
1537922121367167,-40,5,-127,-94,-3,92,86,43
1537922121367167,-97,-62,127,127,33,-65,-114,-34
1537922121383124,40,45,-26,-79,-15,-67,-15,-17
1537922121383124,-59,-15,-84,-18,-3,18,48,-111
1537922121385119,15,-24,-40,-67,-40,51,5,27
1537922121385119,-37,9,35,50,39,-19,-54,-59
1537922121406063,33,35,-111,-93,-34,19,9,53
1537922121406063,0,-18,127,127,-4,-89,-118,17
1537922121407061,46,23,-121,-126,-54,54,81,18
1537922121407061,45,-49,81,-3,37,26,16,-77
1537922121420025,-47,17,80,30,-15,-22,60,60
1537922121420025,91,-3,-95,41,83,28,-35,67
1537922121427007,31,7,61,115,88,30,34,65
1537922121427007,52,8,-119,-68,-32,22,25,22
1537922121443961,-49,0,72,19,26,69,8,-22
1537922121443961,-43,-1,-38,-83,-66,17,76,40
1537922121444959,-38,-12,37,31,-30,-80,27,-112
1537922121444959,-44,10,8,0,-19,-69,-89,-42
1537922121465903,-76,-17,-40,-39,16,102,-26,-27
1537922121465903,-63,-19,-28,-69,-50,-79,62,47
1537922121467898,59,14,5,51,4,-44,22,45
1537922121467898,-8,18,-24,-29,-32,-21,24,50
1537922121479866,30,-11,-12,20,12,45,-47,-21
1537922121479866,19,-6,29,22,46,56,-35,-47
1537922121488842,44,23,19,-20,4,-32,-28,-42
1537922121488842,35,-3,-12,-2,-22,-13,13,28
1537922121503802,5,-16,-10,18,-31,-38,-26,18
1537922121503802,-7,5,12,5,61,45,33,-47
1537922121504799,-50,-3,17,-7,-3,1,-22,-25
1537922121504799,1,0,-20,3,6,16,13,43
1537922121525744,13,-6,-7,22,0,-28,-10,-7
1537922121525744,1,8,-7,-36,-57,-8,23,-13
1537922121527738,-42,1,18,6,34,13,-45,-30
1537922121527738,6,-4,10,23,10,8,10,32
1537922121539705,23,-19,-32,-18,-4,-24,15,2
1537922121539705,-25,-17,3,-6,-10,10,-2,-29
1537922121548681,-19,-18,-1,-10,-10,1,-32,-7
1537922121548681,31,25,7,13,-12,-11,24,17
1537922121563641,11,5,6,-4,13,6,9,2
1537922121563641,-8,1,1,3,-16,3,-7,-11
1537922121564638,-2,-3,6,11,-7,-7,-16,-14
1537922121564638,19,8,-9,-8,27,6,28,24
1537922121586580,2,1,4,3,13,10,-7,16
1537922121586580,-7,-15,2,7,-11,-7,-13,-19
1537922121587577,6,25,35,-2,5,-7,-8,-20
1537922121587577,10,-9,-34,-18,-28,-7,5,8
1537922121608521,31,4,-14,8,26,18,7,7
1537922121608521,-2,19,3,-11,-6,-9,14,5
1537922121610515,-27,-29,-14,-7,-16,-12,-15,-20
1537922121610515,-15,14,12,-1,-13,12,-3,9
1537922121623481,-15,-1,5,6,2,-12,-6,-5
1537922121623481,-2,4,0,-2,2,8,4,-8
1537922121625476,1,6,6,0,-4,-8,-11,-6
1537922121625476,14,-7,-2,5,16,10,3,2
1537922121646420,15,15,-1,0,-9,-4,-1,0
1537922121646420,-10,38,6,-7,-4,-3,-2,-8
1537922121647417,-35,-67,9,6,-1,-5,-6,3
1537922121647417,-10,-35,-18,-4,-3,-10,1,-4
1537922121659385,-13,8,-21,-3,2,1,4,-5
1537922121659385,0,7,14,-9,2,2,2,2
1537922121668361,6,40,-7,6,5,-2,-1,-1
1537922121668361,6,9,9,-3,-5,-7,2,7
1537922121683321,-5,-12,12,3,4,5,0,-7
1537922121683321,0,-4,-9,4,8,9,-2,-1
1537922121685316,6,8,3,-5,-7,-7,-1,1
1537922121685316,5,1,4,-1,0,-3,2,2
1537922121706260,0,3,2,3,1,3,0,-2
1537922121706260,5,-5,-5,1,3,0,0,-5
1537922121707257,5,-12,-4,-5,-9,-10,-4,2
1537922121707257,9,0,-11,6,6,3,0,5
1537922121720222,-10,-7,3,-4,-2,-14,-5,-8
1537922121720222,-2,-10,2,-4,3,33,8,-2
1537922121728201,-11,39,3,-2,-6,-10,-2,-1
1537922121728201,6,8,2,-4,4,10,2,3
1537922121743161,4,-25,-6,0,-2,-4,1,0
1537922121743161,1,-9,0,3,1,-13,-5,-2
1537922121745156,4,13,-14,0,-6,1,0,3
1537922121745156,-5,-38,-12,-5,-1,-1,-2,-4
1537922121766100,-1,4,8,2,4,13,2,-2
1537922121766100,10,-17,-4,1,3,-3,-2,-3
1537922121767098,-2,6,8,3,2,-1,-1,0
1537922121767098,-9,16,1,2,-5,-10,-1,1
1537922121780063,-9,-3,-5,-4,-7,-2,0,-2
1537922121780063,-1,0,-8,0,-1,-4,-2,-1
1537922121789039,3,-4,2,-5,-3,-4,-3,0
1537922121789039,4,9,2,0,-2,1,2,-1
1537922121803999,-13,3,6,2,0,-2,-2,-1
1537922121803999,-5,2,-1,-2,3,-1,1,1
1537922121804997,1,-4,-1,3,1,-1,-2,-1
1537922121804997,5,-2,4,-11,-1,-1,-1,-1
1537922121825940,7,6,-2,6,-1,2,0,-1
1537922121825940,0,-12,-8,-4,-5,-10,-2,-2
1537922121827935,0,-7,-9,0,2,3,0,-2
1537922121827935,-3,7,2,1,-5,-4,-2,-1
1537922121839903,1,5,7,-1,4,1,1,-1
1537922121839903,-1,-7,1,-2,-3,-6,-1,0
1537922121848879,2,-4,-5,1,-8,-2,-2,0
1537922121848879,0,-1,-3,-3,9,0,-1,-1
1537922121863839,3,-8,-4,-2,-2,-1,0,-2
1537922121863839,-6,12,5,-1,1,0,-1,-1
1537922121864837,-7,3,1,1,1,1,-1,-4
1537922121864837,0,5,4,1,-6,-4,0,0
1537922121885780,0,-7,-6,-1,-3,-2,0,0
1537922121885780,-1,-10,-5,-1,0,-4,-1,0
1537922121887776,4,-5,-4,1,0,0,2,-1
1537922121887776,-3,14,18,-3,-5,-3,-3,-2
1537922121899743,1,-11,-17,-10,-3,-3,-1,1
1537922121899743,0,-6,-16,6,1,2,0,1
1537922121908719,0,-5,-5,-7,-1,-2,-1,-2
1537922121908719,0,0,2,3,-1,1,2,-1
1537922121922682,2,6,9,1,1,-2,-1,0
1537922121922682,-4,-3,-1,-4,-13,-7,-5,-3
1537922121931657,-2,-1,1,-6,1,4,0,-2
1537922121931657,0,1,-2,7,17,3,0,0
1537922121945620,2,5,4,-1,-4,-1,1,1
1537922121945620,0,-4,3,0,-6,-7,-1,0
1537922121947615,0,-5,-7,1,5,2,-1,-1
1537922121947615,-1,0,-4,-10,-7,-3,-2,-1
1537922121959583,-1,0,-10,5,1,3,0,0
1537922121959583,-1,9,12,1,4,1,-1,-1
1537922121968559,0,12,19,-1,3,0,0,0
1537922121968559,-2,-41,-35,-1,-1,1,0,-1
1537922121983519,-15,12,-21,-1,-1,-3,0,-2
1537922121983519,-13,-1,-1,-7,-6,-1,0,-2
1537922121984516,-5,-4,1,-4,-4,-5,-1,-1
1537922121984516,0,9,9,2,0,1,0,1
1537922122006457,6,-5,12,1,-1,2,-2,-1
1537922122006457,3,-2,-3,1,5,-2,1,-2
1537922122007455,2,-7,-2,4,-3,-4,-2,0
1537922122007455,2,1,0,1,-3,-8,-1,-2
1537922122019423,0,-2,-5,-8,13,9,0,0
1537922122019423,2,9,9,10,3,5,0,0
1537922122028399,0,5,8,-1,-5,-2,-1,-2
1537922122028399,-2,-12,-7,-1,1,3,2,-1
1537922122043359,-2,-6,-8,-5,-7,-6,-1,-1
1537922122043359,0,-6,-7,-3,1,2,-1,0
1537922122045354,0,-3,-9,-1,2,0,0,-1
1537922122045354,1,15,7,1,-1,0,-2,0
1537922122066297,0,-24,6,0,-4,-2,-1,-2
1537922122066297,1,-2,3,-1,0,-2,0,-2
1537922122067295,0,0,-5,-1,-6,-2,-1,0
1537922122067295,7,9,-5,-4,-2,-1,-1,-1
1537922122079263,-1,5,8,5,3,1,0,-2
1537922122079263,-2,-5,-1,-4,-1,-2,0,2
1537922122088239,-6,-11,-2,0,-2,1,-2,-3
1537922122088239,-3,3,0,-2,-4,0,0,-1
1537922122103199,4,2,-2,1,-5,1,0,-2
1537922122103199,5,0,0,-7,1,1,1,0
1537922122105193,3,2,-4,4,-1,0,1,1
1537922122105193,-4,-2,5,-3,-5,-6,-3,-1
1537922122126138,-1,1,5,-2,-1,1,0,-2
1537922122126138,-5,-2,-9,-1,-3,1,0,-2
1537922122127135,-1,-1,2,1,5,-1,-1,1
1537922122127135,-5,-8,-4,-6,-3,-1,-1,-1
1537922122140100,-3,6,8,4,-1,-1,-2,0
1537922122140100,-2,4,10,5,3,2,1,-1
1537922122149076,0,5,-9,-3,4,2,0,0
1537922122149076,-4,-31,4,-4,-4,-2,1,-2
1537922122164036,0,-17,-9,0,0,-1,-1,2
1537922122164036,1,27,-25,-7,-4,-1,-1,0
1537922122165034,-2,-35,0,1,-1,-1,-1,-4
1537922122165034,1,22,-11,-5,-1,-1,-1,0
1537922122185977,-4,-2,9,0,-2,0,-1,0
1537922122185977,0,-10,9,4,-5,0,-2,1
1537922122187972,-1,9,3,-1,9,2,0,-1
1537922122187972,0,2,-1,3,-2,1,-1,1
1537922122208916,-5,0,3,-3,-5,-5,0,-2
1537922122208916,1,-1,-2,-1,-1,-1,-1,-1
1537922122209913,-2,5,0,-3,-5,-2,-3,-2
1537922122209913,-1,-7,1,-1,-2,-1,-1,-1
1537922122223876,-15,12,2,5,1,-2,2,-1
1537922122223876,-6,-6,4,0,-1,-3,-1,-1
1537922122224874,-2,-1,-4,-11,-8,-6,-3,-2
1537922122224874,4,-1,-2,7,2,4,0,1
1537922122245817,7,6,4,1,9,0,-2,-2
1537922122245817,2,-9,-10,0,2,0,2,-2
1537922122247812,3,-7,-2,1,-6,-2,-1,1
1537922122247812,2,13,3,-1,-1,1,-1,0
1537922122268756,2,3,1,-4,-5,-3,-2,1
1537922122268756,-2,-14,2,4,-2,0,-1,0
1537922122269754,1,9,16,-1,-4,-4,0,0
1537922122269754,-3,-3,-14,-2,-3,-3,0,-1
1537922122283716,1,-3,-7,-2,1,1,2,-1
1537922122283716,0,-1,4,-5,-7,-5,-3,-3
1537922122284714,0,8,-1,-4,9,7,2,0
1537922122284714,-4,-1,6,5,4,0,0,0
1537922122305657,1,1,-1,2,3,2,-1,0
1537922122305657,-2,2,4,1,1,0,-1,-1
1537922122307653,-5,-4,-6,-1,-2,-3,0,-1
1537922122307653,-3,-2,-1,-5,-3,-1,-1,-1
1537922122328596,3,10,-2,-4,-2,-2,-1,2
1537922122328596,2,-18,-1,-7,-6,-6,-4,-2
1537922122329594,1,2,2,4,2,4,0,-2
1537922122329594,1,0,5,-1,9,2,0,-1
1537922122342559,-1,-6,-21,-2,-7,-5,-2,-3
1537922122342559,0,6,1,-2,0,-3,-1,-1
1537922122349540,-8,8,-2,1,-3,-6,-4,-2
1537922122349540,-4,-3,4,-8,-5,-3,-1,-1
1537922122366495,-1,-4,-3,2,-2,1,-1,-2
1537922122366495,0,9,9,1,-6,1,0,-3
1537922122367493,6,4,2,1,16,4,1,2
1537922122367493,-4,-8,-3,3,3,2,-1,-2
1537922122388436,-1,0,-3,-8,-6,-6,-3,-1
1537922122388436,-11,-3,0,2,3,2,0,0
1537922122390431,-2,-5,-11,-2,-9,-4,-1,-2
1537922122390431,-3,-1,0,-1,-2,-4,-1,-1
1537922122403396,7,-3,0,-2,1,0,-1,-1
1537922122403396,2,2,-3,-7,-2,-2,-2,0
1537922122409380,2,3,10,4,0,-5,0,0
1537922122409380,0,3,-3,6,7,10,1,0
1537922122426335,-8,8,4,-1,-6,-2,-2,-4
1537922122426335,-3,-7,4,-10,1,-2,1,1
1537922122427333,-12,-16,-23,2,-4,-4,-2,-1
1537922122427333,-1,-2,-4,-3,-7,-7,-2,-3
1537922122448276,2,6,5,-2,1,1,1,1
1537922122448276,5,5,0,-1,0,-3,-1,0
1537922122450271,8,-6,1,1,-1,2,0,-1
1537922122450271,6,3,-1,0,-4,-3,1,0
1537922122463237,4,-2,3,-1,-1,-2,1,-1
1537922122463237,1,-3,-7,5,2,-6,-1,-2
1537922122470218,0,-6,-4,0,4,6,-1,0
1537922122470218,0,32,18,1,-2,-2,-4,0
1537922122486175,-3,-28,-9,-5,-1,-1,-2,0
1537922122486175,0,-1,-5,1,0,5,1,1
1537922122487173,-2,3,3,0,-4,-4,-2,-1
1537922122487173,-3,-13,-17,-7,4,-2,0,0
1537922122508117,-1,-3,-2,-2,-8,-4,-1,0
1537922122508117,-1,0,1,9,2,1,1,-1
1537922122510112,0,0,6,-4,1,3,0,-1
1537922122510112,2,-5,3,2,-2,1,0,0
1537922122523077,-2,3,-1,-2,0,0,-2,0
1537922122523077,0,-1,-7,-5,0,-1,-1,-1
1537922122530058,-3,1,3,1,-3,-1,-1,-2
1537922122530058,-1,-3,-2,-2,-2,-2,1,0
1537922122546015,-3,0,-2,1,3,-2,-1,0
1537922122546015,-1,2,2,1,-3,-5,0,1
1537922122548010,-2,3,-2,-6,-6,5,-1,-3
1537922122548010,-5,-5,-2,1,-4,-9,-3,-4
1537922122568954,-1,-1,-16,-9,3,1,1,1
1537922122568954,0,13,7,8,0,0,0,0
1537922122569951,-3,-4,-7,-3,-3,-4,-1,0
1537922122569951,-1,-14,1,-2,-4,-1,0,-1
1537922122582917,-2,1,6,-2,2,2,-2,0
1537922122582917,2,-8,-2,3,3,2,-2,0
1537922122589898,2,9,3,6,3,4,0,0
1537922122589898,1,1,0,3,3,1,2,0
1537922122605855,1,-3,5,0,-5,-4,-2,-1
1537922122605855,1,3,-3,-2,4,6,2,-2
1537922122607850,3,1,1,-3,-7,-5,-1,1
1537922122607850,-3,-1,1,0,2,0,-2,-1
1537922122628794,0,0,6,-1,-3,-5,0,-1
1537922122628794,-3,0,6,0,-2,2,-1,-1
1537922122629791,-2,-10,-12,-5,-2,-1,0,0
1537922122629791,2,-1,-9,0,5,-1,2,-2
1537922122642756,-4,0,-13,3,2,2,1,0
1537922122642756,1,-2,-2,-2,0,-1,-2,-1
1537922122649738,0,5,9,1,-3,-5,-1,1
1537922122649738,2,4,15,-3,-3,-3,-3,1
1537922122665695,-4,-14,-29,-12,-1,4,-1,-1
1537922122665695,-4,-8,-4,5,-2,-11,-2,-1
1537922122667690,0,2,-3,-2,-2,1,0,1
1537922122667690,-5,8,-1,-4,-1,-2,-2,1
1537922122688634,2,-11,17,7,2,0,-1,-1
1537922122688634,-1,-5,-4,-2,-2,1,-1,-1
1537922122689631,0,0,-3,-6,-5,-4,-2,-2
1537922122689631,-1,6,0,4,-3,2,-1,-2
1537922122702596,3,9,6,2,11,4,0,-1
1537922122702596,-1,-7,-11,-7,-3,-1,0,-1
1537922122718554,-1,-1,4,4,2,-4,-1,0
1537922122718554,-2,-4,-5,-3,-5,0,0,-1
1537922122726532,0,-2,0,-3,-7,-5,-2,0
1537922122726532,2,-4,-1,0,4,3,0,-1
1537922122727530,-1,-6,13,1,2,1,0,-2
1537922122727530,-4,4,-27,-4,-7,-2,-1,-1
1537922122748474,-1,-3,8,3,-4,0,1,-3
1537922122748474,-1,-4,1,1,4,4,0,-1
1537922122750468,0,-6,-5,-3,-2,-1,0,1
1537922122750468,3,38,15,3,4,2,0,3
1537922122762436,-13,-44,3,-2,-4,-5,-1,-6
1537922122762436,5,-6,-8,-5,-1,2,0,1
1537922122771412,-5,5,2,1,1,-3,-1,-10
1537922122771412,0,-13,-4,2,4,7,-1,20
1537922122786372,5,6,-19,-44,-5,-7,-10,11
1537922122786372,5,4,-60,-22,1,29,17,57
1537922122787370,-29,-24,58,11,-2,-6,19,-69
1537922122787370,-6,23,-50,53,17,-6,-40,-23
1537922122808314,-47,14,-70,-73,-21,-19,-13,-35
1537922122808314,-44,9,86,101,21,16,83,-31
1537922122810309,-25,19,-99,-49,-1,58,-25,79
1537922122810309,-6,-13,111,-86,-23,34,-79,-13
1537922122822277,25,10,4,105,-3,-92,20,82
1537922122822277,-67,-80,-53,40,15,35,37,-113
1537922122831253,64,21,-23,-39,45,99,117,29
1537922122831253,-19,0,54,3,-71,-99,-85,11
1537922122846214,95,24,27,82,26,-7,52,10
1537922122846214,42,3,34,-84,-6,-13,-62,46
1537922122847211,34,-33,-115,-26,-8,33,52,-20
1537922122847211,28,-38,42,49,4,-2,5,-35
1537922122868156,14,21,44,-80,-33,-29,-88,20
1537922122868156,-18,8,-4,-41,-60,-90,42,-74
1537922122870150,64,19,107,56,76,98,25,71
1537922122870150,95,3,-128,-44,0,-71,84,65
1537922122882117,8,25,127,127,58,72,-27,23
1537922122882117,-57,11,-121,-4,27,13,-9,-62
1537922122891094,-111,-32,-29,-128,-128,-128,-88,26
1537922122891094,-80,14,113,127,55,66,127,-74
1537922122906053,-35,-6,-16,30,23,80,27,-30
1537922122906053,25,-21,-67,-86,-56,-92,-128,12
1537922122908048,65,27,-14,3,40,74,27,5
1537922122908048,17,-20,-101,-61,-31,-51,3,-58
1537922122928993,-7,-18,-45,-84,-14,22,9,-36
1537922122928993,58,15,38,31,1,7,-26,-12
1537922122929989,18,-1,33,64,6,-19,35,14
1537922122929989,21,-4,-6,-16,25,41,-39,-21
1537922122941957,-43,-2,-35,-53,-14,0,12,24
1537922122941957,-26,14,36,20,42,39,38,57
1537922122950933,-19,0,17,47,-24,-62,-42,-2
1537922122950933,-8,1,-27,-15,35,17,11,61
1537922122965893,-18,-4,-27,-22,-52,-26,-10,-43
1537922122965893,5,0,18,1,32,9,27,39
1537922122967888,-30,-1,6,-5,9,-23,-39,-46
1537922122967888,-28,-4,-7,-10,-18,17,-8,14
1537922122987834,-11,-2,-12,0,-1,13,20,5
1537922122987834,1,12,23,-9,-39,31,-14,4
1537922122994815,-24,-1,1,20,14,-42,-23,-16
1537922122994815,-31,-4,-5,10,22,28,13,15
1537922123001797,-38,-3,-2,-1,6,-14,7,2
1537922123001797,-5,5,7,0,-10,-11,3,31
1537922123010773,-16,-2,-7,-5,-17,-6,-12,-27
1537922123010773,4,-1,1,-11,-17,-5,4,17
1537922123025733,-42,-13,-14,-7,3,3,3,-10
1537922123025733,-63,5,15,4,-8,-2,4,16
1537922123031717,-18,4,2,6,3,-14,-12,-8
1537922123031717,9,-5,-11,0,9,4,-6,-21
1537922123048672,69,5,-2,-3,2,1,-1,2
1537922123048672,73,-2,0,0,8,4,1,1
1537922123049669,33,-7,1,8,-20,-20,-3,4
1537922123049669,28,1,-3,-18,-5,12,6,18
1537922123062634,19,-1,-6,-3,7,1,-1,-14
1537922123062634,22,-3,6,8,-10,-5,2,3
1537922123071610,53,2,1,-1,-3,0,-7,-7
1537922123071610,64,-9,-7,-1,8,4,0,14
1537922123084576,-7,2,-1,5,9,-2,6,0
1537922123084576,-4,3,3,-2,3,1,-4,4
1537922123092554,27,-2,0,2,-5,-5,-4,-12
1537922123092554,-67,-5,1,-11,-14,-4,1,1
1537922123107514,-59,-4,-2,4,16,-4,0,12
1537922123107514,-78,7,8,14,10,8,8,7
1537922123108511,-79,-6,-10,-8,2,-6,-13,-10
1537922123108511,-18,-8,-19,-4,-19,-8,1,2
1537922123130453,-10,-2,1,-5,-6,-1,-2,-3
1537922123130453,-10,-1,-3,-4,2,3,3,2
1537922123131450,-13,-2,0,3,1,0,-2,0
1537922123131450,8,5,2,1,3,1,-3,16
1537922123144415,24,1,-4,-1,-3,-1,0,7
1537922123144415,61,1,3,-3,3,5,-1,-13
1537922123153391,10,-6,-6,5,-2,-6,2,-8
1537922123153391,-9,0,-3,1,3,0,1,8
1537922123167354,13,-2,-6,-12,-9,-5,0,10
1537922123167354,24,2,4,3,-6,-3,-1,-8
1537922123168352,-7,4,5,-3,14,5,1,2
1537922123168352,-4,-2,3,9,5,0,-6,-15
1537922123190293,24,5,6,2,-3,-1,2,-8
1537922123190293,14,-1,-10,-6,1,4,-1,21
1537922123191290,-12,0,1,5,0,-2,1,-3
1537922123191290,-2,1,0,1,-4,-4,0,-12
1537922123205253,10,-1,-1,-6,-1,0,-3,-6
1537922123205253,1,-4,-2,-3,-5,-4,0,13
1537922123206251,4,-1,3,2,2,3,1,-5
1537922123206251,-3,1,3,-9,0,2,1,6
1537922123228191,-12,-3,-2,1,-6,-1,-2,-8
1537922123228191,-39,-1,-4,-4,-1,-2,-3,-6
1537922123228191,-13,1,0,5,-1,-3,1,3
1537922123228191,-1,-2,-3,-3,-3,1,0,-7
1537922123250133,12,-2,-4,-3,-3,-4,-2,-1
1537922123250133,27,4,-1,1,-4,-8,-1,2
1537922123251130,7,-4,1,-2,-5,0,-3,-5
1537922123251130,-1,1,1,3,3,3,0,5
1537922123265093,8,0,0,2,0,0,2,13
1537922123265093,11,0,0,1,-7,-1,-5,-8
1537922123266090,-2,-1,-2,-5,0,-2,-3,-6
1537922123266090,1,1,-2,-1,3,0,-2,-2
1537922123288032,4,2,-2,0,1,-1,0,0
1537922123288032,6,1,6,-1,-9,0,5,-5
1537922123289029,0,-3,0,3,13,4,-2,19
1537922123289029,-4,-7,-3,-10,-5,-1,-3,-4
1537922123318949,-1,-6,-1,2,-2,-2,-1,-4
1537922123318949,0,-1,-3,0,5,5,-2,3
1537922123318949,-5,2,0,-4,-7,-1,0,-6
1537922123318949,-4,2,2,0,0,-3,0,2
1537922123324934,-3,2,-1,-1,-2,0,-1,-8
1537922123324934,4,0,-4,-5,1,-2,-4,-3
1537922123325931,1,0,-3,-1,-10,-8,4,11
1537922123325931,-1,-1,3,0,-8,-5,-3,2
1537922123347872,-11,-6,-1,0,14,12,4,-5
1537922123347872,1,0,2,6,10,1,0,0
1537922123348870,-3,-2,-2,1,-2,0,-4,-9
1537922123348870,-2,0,-1,2,-3,-4,-1,5
1537922123370811,0,0,-5,-12,-9,-3,-2,-1
1537922123370811,0,-2,-1,0,3,-2,-2,0
1537922123370811,-1,2,0,2,-2,-1,2,0
1537922123370811,-5,-3,-5,-8,-5,-3,-3,-18
1537922123385770,0,1,-2,-5,-11,-4,-4,0
1537922123385770,-4,0,6,6,14,9,1,5
1537922123385770,0,2,4,-6,-9,2,-1,-10
1537922123385770,-6,-2,2,16,12,5,2,2
1537922123407712,0,-2,-3,-5,-2,-1,-1,-4
1537922123407712,0,-1,-3,-4,-6,-6,-1,-3
1537922123408709,0,-2,-3,-3,0,-1,0,1
1537922123408709,-3,0,-3,-7,-1,1,-2,0
1537922123430650,0,1,-1,1,-1,-5,-2,1
1537922123430650,-3,0,-1,0,-5,-2,-1,1
1537922123430650,-3,0,2,3,13,10,2,-6
1537922123430650,3,1,0,5,2,-1,-1,1
1537922123445610,-5,-5,-1,-7,5,1,-2,-7
1537922123445610,2,1,1,2,-6,-2,-1,-1
1537922123445610,-1,-4,-3,-4,-1,-3,-2,-3
1537922123445610,-1,-2,-2,-3,-2,-2,-1,2
1537922123467552,3,1,2,-1,-2,-1,-1,2
1537922123467552,-7,-8,-7,-6,-6,-3,-2,-4
1537922123468550,-2,0,2,2,3,0,-1,2
1537922123468550,0,0,4,-3,2,2,2,0
1537922123490491,0,0,1,1,-3,-3,1,-1
1537922123490491,-1,-3,-1,-3,-1,0,0,-1
1537922123491488,-1,1,-4,2,-7,-8,-4,-4
1537922123491488,-1,1,-1,-5,1,-1,-1,0
1537922123505451,-2,-3,-1,1,1,4,0,0
1537922123505451,0,1,-4,3,4,1,0,-2
1537922123506448,-1,-1,2,0,-3,-2,-1,-1
1537922123506448,-1,-1,-2,1,-2,0,-1,-1
1537922123527392,-1,1,1,-4,-3,-2,-1,1
1537922123527392,-1,-3,0,1,1,-3,-1,0
1537922123528389,0,-2,-6,1,5,2,-1,-1
1537922123528389,0,3,-1,-4,-6,-1,-1,-2
1537922123550331,0,4,3,1,-3,0,-2,1
1537922123550331,2,2,4,-5,-4,0,-2,1
1537922123551329,-1,-7,-13,-6,0,-1,-1,-2
1537922123551329,-1,-2,0,7,4,1,0,-1
1537922123565291,-3,2,0,0,5,1,1,-2
1537922123565291,0,3,2,-3,-6,-4,-2,0
1537922123566288,1,1,5,4,-1,-2,0,-1
1537922123566288,-1,-2,-2,-6,-3,-1,1,0
1537922123588229,0,-3,-2,4,0,-2,0,-2
1537922123588229,1,-2,-3,0,-1,1,-1,1
1537922123588229,-3,0,3,-1,-3,-2,-2,-2
1537922123588229,-1,-2,-2,-1,-2,0,0,0
1537922123610171,-2,-4,-1,1,-2,-3,-2,-1
1537922123610171,0,-3,-4,-3,1,1,1,2
1537922123611168,0,9,-1,3,-4,5,0,1
1537922123611168,-3,0,0,-8,-4,-10,-3,-3
1537922123625130,-1,-5,1,2,-2,-2,0,-1
1537922123625130,0,13,1,-1,1,3,0,2
1537922123626128,3,29,10,3,1,-1,-2,1
1537922123626128,-5,-34,-10,-5,-3,2,-1,-3
1537922123648069,-3,8,-7,-4,-1,-2,-1,-4
1537922123648069,-2,-41,-4,0,1,-2,-2,-1
1537922123649067,2,47,10,-2,-4,-4,-3,0
1537922123649067,-7,-59,-10,-1,-1,0,1,-2
1537922123670010,-5,-50,-12,-3,2,-3,1,-1
1537922123670010,0,5,2,0,2,0,2,0
1537922123671008,-1,-8,-1,-2,-2,-4,-3,-10
1537922123671008,8,50,-6,-19,-2,1,-6,18
1537922123684970,2,15,-24,-86,-10,5,-15,-22
1537922123684970,5,-18,-87,23,15,41,43,10
1537922123685978,32,-24,29,23,-5,-14,-3,10
1537922123685978,38,31,-84,-9,1,-8,-38,4
1537922123707910,-4,26,100,-25,-29,-70,38,-31
1537922123707910,-44,9,-47,60,61,85,12,20
1537922123708907,-63,-55,21,-40,-32,-18,31,79
1537922123708907,-9,-50,107,111,15,-11,-41,-1
1537922123730848,6,75,30,-107,7,77,61,65
1537922123730848,54,-22,5,105,-25,-120,-70,-73
1537922123730848,31,18,-6,-1,31,67,-5,-24
1537922123730848,-25,-7,-94,-84,3,75,28,13
1537922123744811,-80,-40,-3,-52,-71,-89,-122,-27
1537922123744811,-57,39,127,-96,20,109,77,16
1537922123752789,-20,-10,23,66,-23,-68,-34,-26
1537922123752789,6,25,-67,-75,-27,-2,37,8
1537922123767749,55,-77,-80,77,16,55,48,27
1537922123767749,-59,6,64,7,75,94,80,-36
1537922123768747,31,0,-58,-79,-44,-119,-128,64
1537922123768747,78,61,94,113,33,65,43,-60
1537922123790688,-75,-16,65,-48,-28,24,-20,69
1537922123790688,80,25,111,73,-18,-128,9,-12
1537922123790688,1,4,-88,-74,54,127,126,-44
1537922123790688,74,-2,-97,-109,-47,-90,4,66
1537922123813626,127,13,68,125,19,1,51,4
1537922123813626,-96,-27,-83,-35,-19,-21,-126,5
1537922123814624,-2,-7,-9,6,14,45,10,124
1537922123814624,-48,2,40,-91,-22,-41,4,80
1537922123827589,-4,15,-48,93,25,-68,3,-113
1537922123827589,4,2,-4,-20,-19,-7,3,1
1537922123828586,-13,-5,0,7,-13,-15,12,-105
1537922123828586,-88,-29,-4,0,6,15,-42,1
1537922123850528,17,32,5,13,28,25,38,64
1537922123850528,5,-11,-28,-29,-43,-65,-25,-10
1537922123851525,-28,6,-12,1,11,14,23,1
1537922123851525,-19,-4,31,20,2,33,34,-61
1537922123864490,-28,-4,-21,16,2,-14,-29,-3
1537922123864490,13,13,-53,-82,-56,11,8,14
1537922123872469,-9,-4,30,30,46,61,16,-33
1537922123872469,-4,2,37,44,35,-7,-1,20
1537922123887429,-25,0,-30,1,-20,-24,-20,-20
1537922123887429,5,-2,-12,-23,18,33,-2,27
1537922123888427,6,-7,10,0,-24,-24,-3,7
1537922123888427,-5,-2,14,28,4,-28,-24,-28
1537922123910368,-14,-1,-35,-22,8,25,-7,13
1537922123910368,20,-3,-1,-11,-24,-5,7,1
1537922123911366,3,6,19,14,18,-12,-6,-2
1537922123911366,-9,0,-13,4,-8,-9,9,-13
1537922123924331,-10,-22,-16,-13,-2,7,2,-6
1537922123924331,16,-4,7,1,4,7,3,29
1537922123933307,1,18,7,10,12,-16,1,-10
1537922123933307,-10,-9,12,-8,-21,-2,1,-4
1537922123948267,1,18,1,12,48,24,-3,8
1537922123948267,9,16,2,1,0,6,-6,8
1537922123948267,-3,-7,-17,-9,-29,-52,-9,-16
1537922123948267,-8,-21,-5,1,0,10,-1,-9
1537922123970208,-11,-31,-13,-9,-6,-13,-5,-4
1537922123970208,3,-16,-7,-1,11,1,-2,3
1537922123971205,-6,43,15,-2,-8,14,27,19
1537922123971205,-2,25,20,13,-1,-5,-25,-27
1537922123984171,-15,-9,-13,0,-2,-2,1,11
1537922123984171,-16,-46,-25,-16,-3,-9,0,-10
1537922123993147,-1,31,27,-1,-4,0,-3,0
1537922123993147,-1,-25,-12,16,4,-9,2,-2
1537922124008107,-1,38,-8,-7,0,8,-8,-7
1537922124008107,13,-2,-21,-7,-9,-8,7,1
1537922124008107,5,-35,-5,4,4,0,-13,-8
1537922124008107,-1,-3,-3,-1,4,4,21,10
1537922124030048,5,1,9,-4,3,16,1,0
1537922124030048,9,40,7,1,-3,-9,-1,17
1537922124031046,10,-6,0,3,-13,-22,-7,-20
1537922124031046,3,34,21,-1,-3,12,-8,4
1537922124053984,-1,-75,-27,1,4,6,26,-13
1537922124053984,6,-7,-23,-5,-13,-18,-20,4
1537922124053984,1,-26,-7,2,14,13,6,14
1537922124053984,-7,-23,-1,-6,-8,-11,-6,-5
1537922124067947,22,58,20,-5,-3,4,0,5
1537922124067947,32,-1,19,6,0,-1,5,1
1537922124068945,14,-1,-14,-1,-8,-1,-2,-7
1537922124068945,-19,55,20,3,6,4,1,0
1537922124089888,-55,-44,-33,-2,4,-2,-5,9
1537922124089888,-41,-49,-8,1,1,0,0,-7
1537922124090886,-9,47,-7,-1,-6,3,4,4
1537922124090886,20,58,7,-2,1,-4,9,6
1537922124113824,17,-25,11,-1,-8,2,-6,-17
1537922124113824,1,-33,-4,3,5,1,-21,2
1537922124113824,-89,-76,-11,-2,2,1,7,8
1537922124113824,-60,-4,0,2,1,1,5,1
1537922124127787,-21,34,9,0,-2,-3,-1,5
1537922124127787,9,11,0,-3,0,8,3,4
1537922124128784,26,-24,-2,1,-1,2,-7,-9
1537922124128784,35,12,2,0,2,-1,2,0
1537922124150725,22,-28,-14,-2,-1,-3,-5,0
1537922124150725,22,57,26,-2,-4,-7,7,3
1537922124151723,25,-10,-12,6,5,8,-1,2
1537922124151723,7,-39,-12,-3,-5,-1,-2,-5
1537922124173664,16,55,18,2,11,9,2,-1
1537922124173664,1,-13,0,1,-4,-3,5,-3
1537922124174662,8,60,-17,-11,-13,-10,-7,-2
1537922124174662,4,-126,-30,2,3,1,3,-4
1537922124187627,8,11,7,2,-3,-3,-7,3
1537922124187627,7,29,31,-1,-2,2,3,-2
1537922124188624,-1,-82,-37,-5,-7,-3,-2,2
1537922124188624,-2,83,7,-3,-2,1,-3,-9
1537922124210566,-2,-65,-23,-7,-8,-7,-22,-6
1537922124210566,-32,-35,9,-7,0,3,31,0
1537922124211563,8,31,5,1,1,-3,-8,-5
1537922124211563,8,27,-3,2,2,2,13,7
1537922124233504,6,34,17,5,3,3,-5,0
1537922124233504,5,12,-2,4,3,1,-5,7
1537922124234502,-1,-14,9,4,2,2,3,-26
1537922124234502,7,35,-1,4,1,4,-4,3
