timestamp,emg1,emg2,emg3,emg4,emg5,emg6,emg7,emg8
1537921720572510,10,10,-1,0,2,0,1,0
1537921720572510,3,3,2,1,-1,1,2,5
1537921720573508,4,6,-2,0,-1,0,0,4
1537921720573508,7,6,2,1,0,-1,-1,-6
1537921720574505,-1,44,5,1,-1,-1,-2,0
1537921720574505,4,-37,-9,-4,-2,-2,-1,-1
1537921720577497,-9,0,-1,2,-3,-1,1,0
1537921720577497,-6,1,-11,-4,-3,-1,-1,-2
1537921720585475,-13,-6,5,3,0,-1,-3,-2
1537921720585475,3,8,5,-2,0,-2,-1,0
1537921720593455,-16,1,0,3,0,-2,-1,-2
1537921720593455,25,49,-7,-3,-1,0,3,8
1537921720599437,-6,8,7,-1,-2,1,-1,-1
1537921720599437,-1,0,-3,5,2,-1,-1,-1
1537921720614398,-1,-17,-1,-3,0,1,1,-1
1537921720614398,-6,-7,3,-1,-2,-1,-1,0
1537921720624371,6,-19,0,-1,-1,0,-1,0
1537921720624371,3,42,3,-5,-2,0,-2,1
1537921720631353,-1,-25,2,2,3,0,-3,-1
1537921720631353,-3,-21,3,1,-1,-1,0,0
1537921720645315,1,-5,-2,-1,-4,-2,0,-1
1537921720645315,1,-29,2,0,1,-1,0,-2
1537921720653294,2,24,-6,1,-1,0,-2,-1
1537921720653294,-12,18,5,-5,-3,-2,-3,-4
1537921720693188,15,58,2,2,1,-1,0,2
1537921720693188,-22,-98,-8,-5,-1,2,-1,0
1537921720693188,0,71,2,-2,0,-2,-3,-4
1537921720693188,4,-9,-4,1,-1,0,0,-1
1537921720694185,-3,4,4,-2,-4,-2,0,1
1537921720694185,12,25,-7,2,1,1,1,2
1537921720697177,-10,-41,-4,0,-1,0,1,-3
1537921720697177,-4,-4,-1,-2,-2,1,0,-1
1537921720705155,3,-4,6,-2,-1,-2,-1,1
1537921720705155,1,11,-3,-5,-2,-2,-2,-4
1537921720712137,-1,-15,0,0,0,0,0,2
1537921720712137,2,18,3,-2,1,-2,0,1
1537921720719118,-5,-38,-3,2,1,-3,-2,-2
1537921720719118,2,38,0,-1,-2,-2,-2,-2
1537921720734078,3,-3,-4,-1,-1,-2,-1,-1
1537921720734078,2,12,2,2,-2,2,0,-1
1537921720742057,-5,-15,-3,-2,-2,-2,0,-4
1537921720742057,0,14,0,2,2,-1,0,0
1537921720751033,7,-7,4,1,1,1,0,0
1537921720751033,-4,-6,-2,-4,-2,-3,-6,-4
1537921720764995,-1,5,1,-1,1,2,-1,-2
1537921720764995,1,2,4,1,-2,-2,1,1
1537921720771977,3,10,-2,-1,-3,-3,-3,-2
1537921720771977,-2,-27,4,1,1,1,-1,-1
1537921720778958,-5,3,0,-2,-1,1,-1,-3
1537921720778958,0,-5,-1,1,1,-2,0,-1
1537921720793918,0,-3,-5,0,-2,-1,0,1
1537921720793918,-1,1,-4,2,0,-3,0,-1
1537921720801896,-1,-8,-1,-1,1,0,0,-3
1537921720801896,3,13,7,0,-2,1,-1,-1
1537921720816856,-2,-4,1,-3,-1,-2,1,-2
1537921720816856,2,10,3,-2,-3,-4,-1,-2
1537921720824835,1,10,1,-1,-4,-1,-1,0
1537921720824835,1,-32,-4,-2,-1,1,-1,-2
1537921720831817,-1,0,0,1,1,0,0,-1
1537921720831817,-2,-1,0,-2,-1,2,0,0
1537921720839795,0,6,1,0,1,-1,-1,0
1537921720839795,-2,-12,-7,-4,-3,-2,-1,-1
1537921720854755,-3,0,2,-1,-3,-1,-2,-2
1537921720854755,-4,-13,-4,-2,0,-1,-1,-3
1537921720861737,-8,4,0,-1,-1,0,-1,5
1537921720861737,4,16,1,0,1,1,0,-3
1537921720870712,1,-38,-2,-4,0,0,1,-2
1537921720870712,9,59,10,1,0,0,0,3
1537921720884675,8,-2,-9,-4,1,-1,-4,-6
1537921720884675,-4,20,-1,-1,2,-1,0,2
1537921720891656,0,4,-1,-1,0,1,2,3
1537921720891656,-8,11,-2,-3,-3,0,1,9
1537921720899635,5,2,6,1,-1,-1,1,6
1537921720899635,2,13,3,1,-1,-1,-4,-9
1537921720914595,-3,22,-3,-3,-2,1,0,-2
1537921720914595,3,-6,-6,-1,1,-2,1,6
1537921720921577,25,32,-1,8,3,1,-1,-8
1537921720921577,-7,-65,0,-3,-2,1,-1,1
1537921720936536,-62,-47,-13,-10,-6,-2,-7,1
1537921720936536,7,34,14,2,0,0,-2,-7
1537921720945512,5,8,-1,2,-1,-1,2,-1
1537921720945512,24,30,11,2,1,-3,0,-10
1537921720951496,27,36,-13,1,2,1,1,8
1537921720951496,48,42,5,3,1,1,-2,-25
1537921720959476,1,-14,1,-1,-4,-3,-3,-2
1537921720959476,-52,-6,-7,-2,-2,-1,-4,-12
1537921720974435,21,59,4,1,-2,-4,-4,-9
1537921720974435,31,40,2,3,0,-2,1,-1
1537921720981416,-62,-75,-4,-7,-3,4,3,11
1537921720981416,-8,56,1,1,-1,0,3,12
1537921720996376,-19,3,-2,-1,-1,-3,-5,-25
1537921720996376,-20,-14,-8,-4,0,-1,0,2
1537921721005352,3,-45,3,-3,0,1,1,3
1537921721005352,21,39,6,3,2,-1,1,11
1537921721011336,16,-69,4,-1,-1,1,0,9
1537921721011336,-73,32,-3,-1,-1,-3,-4,-5
1537921721019315,13,7,5,-4,-2,-4,-6,-1
1537921721019315,-56,-45,-7,-6,-5,1,2,7
1537921721034275,-30,18,-3,2,-1,0,-3,-8
1537921721034275,7,-12,-10,0,-1,-3,0,-7
1537921721042254,57,65,4,7,5,0,-2,-11
1537921721042254,1,-63,1,0,-1,0,3,18
1537921721057214,-91,-74,3,-4,-4,-1,1,24
1537921721057214,52,-20,1,0,-2,0,2,-9
1537921721065192,-22,-68,-21,-5,-2,0,-1,5
1537921721065192,34,56,1,0,0,-1,-2,1
1537921721072174,-19,-47,9,-2,4,3,4,28
1537921721072174,-10,-66,-5,-3,-3,-1,-2,-5
1537921721079155,5,41,2,0,2,-3,0,4
1537921721079155,-2,-46,-9,-14,-9,-4,-5,-16
1537921721096110,27,90,18,13,5,-4,-3,15
1537921721096110,-45,-67,-9,-3,-3,1,5,2
1537921721102094,38,75,5,8,2,-13,-1,-5
1537921721102094,-45,10,-5,-5,2,16,-2,10
1537921721117054,52,-37,-17,-15,-9,-6,-26,-24
1537921721117054,-20,-50,1,-9,-1,2,-6,31
1537921721126030,-51,46,10,12,1,3,4,1
1537921721126030,18,60,5,-1,-4,-6,-2,0
1537921721133011,26,-50,-9,-5,-3,2,9,-6
1537921721133011,-47,-62,-1,0,4,0,-3,-10
1537921721138995,-1,1,-5,-17,-11,1,-7,-2
1537921721138995,17,-12,-3,4,1,-2,1,-8
1537921721153955,10,60,0,4,1,3,7,1
1537921721153955,15,-20,11,2,1,-4,4,7
1537921721161934,26,54,-21,-9,-7,-1,-2,-16
1537921721161934,-42,-23,7,-2,-1,-3,1,8
1537921721176895,8,5,14,8,3,-3,2,-10
1537921721176895,-27,102,-14,-7,-5,-1,-2,15
1537921721184872,26,-29,21,7,5,3,3,-7
1537921721184872,33,52,-12,-3,-2,-2,-3,-9
1537921721191854,2,34,-6,-4,-2,0,1,7
1537921721191854,21,31,20,11,3,1,-1,-9
1537921721199833,-17,-78,-19,2,0,0,0,5
1537921721199833,27,89,37,13,3,-4,-2,-2
1537921721236734,33,24,-14,-1,-1,1,1,-22
1537921721236734,6,-8,-1,-7,-3,-2,0,-1
1537921721245710,-25,35,-8,-8,-3,3,0,7
1537921721245710,-6,-39,11,4,0,-3,0,15
1537921721252691,18,-1,-1,0,-1,-2,-1,-7
1537921721252691,15,4,-3,-4,-2,0,-2,-4
1537921721259673,23,-8,9,4,5,1,3,32
1537921721259673,-47,-61,-12,-4,-5,-1,1,-5
1537921721268649,48,81,5,8,2,-6,-8,-15
1537921721268649,86,39,7,5,6,1,-19,16
1537921721269646,15,-66,-8,-3,-5,10,11,-20
1537921721269646,70,98,1,4,2,-8,-4,1
1537921721282611,-4,39,18,-3,-7,13,-9,-14
1537921721282611,3,-41,-1,0,2,-3,0,-14
1537921721283609,3,82,9,3,6,3,5,3
1537921721283609,-34,-70,-5,-9,-3,6,0,13
1537921721305550,10,-45,-1,1,-1,0,1,5
1537921721305550,-18,16,4,-3,-7,6,10,-8
1537921721306548,-32,-4,4,-5,3,-1,-23,-6
1537921721306548,17,4,4,-1,-12,1,4,-9
1537921721328489,-63,10,13,-3,-2,1,6,23
1537921721328489,-3,-23,-14,-4,-2,11,24,-8
1537921721328489,-27,-43,1,-6,-3,-10,-20,-18
1537921721328489,89,49,4,2,10,3,-2,-7
1537921721342452,18,-18,13,-1,-1,1,4,0
1537921721342452,-24,58,4,0,2,2,1,-9
1537921721343449,37,-4,0,0,-3,-2,6,-4
1537921721343449,-7,8,8,3,1,4,1,5
1537921721365390,-12,-28,6,-2,-3,-3,1,-8
1537921721365390,10,19,-3,-5,-3,-4,-11,-2
1537921721366388,-24,1,1,0,-4,3,3,9
1537921721366388,-32,-28,-13,-5,-7,-8,-6,4
1537921721388329,-25,10,1,8,4,4,3,-15
1537921721388329,-3,-30,1,-2,-3,0,-6,3
1537921721389327,-1,3,10,2,-5,-12,0,-1
1537921721389327,-25,30,7,1,5,-7,4,29
1537921721402293,3,-55,-6,-3,0,14,6,12
1537921721402293,-17,10,4,1,1,-6,-9,-42
1537921721411268,24,18,-2,-11,-11,-11,-21,11
1537921721411268,-41,2,1,-2,-1,-4,-13,-36
1537921721425231,4,24,-3,-2,0,-8,-1,-6
1537921721425231,-13,-52,0,0,-1,6,9,12
1537921721427225,45,86,0,6,5,7,20,17
1537921721427225,-52,40,-4,-4,-2,-3,-16,-20
1537921721448169,-12,-26,-17,-14,-3,-6,-6,-21
1537921721448169,11,44,4,1,1,-1,6,20
1537921721450164,7,11,-5,1,-1,-6,2,-5
1537921721450164,39,1,4,1,1,2,25,13
1537921721462131,-3,25,10,4,-1,-4,-19,1
1537921721462131,-17,-6,-4,1,-1,-5,-9,2
1537921721471107,10,-14,0,1,-2,-1,14,-14
1537921721471107,25,-39,-1,-3,2,31,1,-14
1537921721486067,-7,-32,-2,-4,0,-12,-1,11
1537921721486067,7,-72,-6,1,-2,3,0,-4
1537921721487065,-22,-10,6,0,-3,-11,-7,-1
1537921721487065,-34,-10,-6,1,-2,-4,-1,7
1537921721508009,13,56,0,-3,-1,6,-1,1
1537921721508009,16,96,-6,1,4,-7,-1,16
1537921721510003,-62,-36,-4,-4,-7,3,-1,-1
1537921721510003,21,-64,-9,0,5,-11,0,11
1537921721521971,71,100,11,10,3,-2,-3,-6
1537921721521971,-5,16,-3,-7,-6,0,14,-13
1537921721530948,8,-11,-3,-2,6,-2,-9,0
1537921721530948,-36,-43,-5,-4,-1,2,4,0
1537921721545908,26,30,2,2,-2,-13,-10,2
1537921721545908,-2,-34,-3,2,-3,1,24,9
1537921721546905,-30,-30,1,2,5,8,11,40
1537921721546905,-4,43,-2,-2,-6,-24,-23,3
1537921721567849,-15,66,-1,-1,7,25,11,9
1537921721567849,0,-36,-2,-3,-3,-7,1,-3
1537921721569844,-65,49,-12,-6,-5,4,4,3
1537921721569844,32,34,12,7,-1,-10,-27,-13
1537921721590787,-73,-85,-1,-4,-7,0,-5,-7
1537921721590787,12,9,6,-3,-2,-12,-13,6
1537921721591786,-59,-6,-10,-8,-2,4,1,6
1537921721591786,-11,-67,-28,-1,-2,5,11,-11
1537921721605747,46,27,1,9,4,-3,0,0
1537921721605747,19,-10,1,-2,3,-1,-11,2
1537921721606745,109,56,15,5,-1,-6,-1,-19
1537921721606745,-19,-17,0,-4,-1,5,1,-20
1537921721628686,-40,-67,3,-4,-3,-7,3,10
1537921721628686,17,37,0,2,-1,6,0,1
1537921721629683,27,14,-1,2,-1,-3,2,-4
1537921721629683,41,19,0,-2,-1,-7,-5,14
1537921721641651,36,2,-6,-2,-4,-6,1,-4
1537921721641651,-44,-44,0,-5,-3,-4,-16,-16
1537921721650628,7,-3,-9,-6,-3,7,18,-23
1537921721650628,-30,15,13,6,5,2,-4,15
1537921721664590,-78,-17,0,-3,0,-4,8,-3
1537921721664590,29,-24,-7,2,-4,4,-6,8
1537921721673566,81,-16,-5,1,-5,-13,-18,-28
1537921721673566,0,40,0,-3,1,0,7,10
1537921721688526,-20,-9,5,1,4,-1,4,-4
1537921721688526,-42,19,-5,-8,-4,-2,-2,-12
1537921721689524,24,-1,6,6,5,0,-4,15
1537921721689524,22,11,-2,-8,-1,3,2,-17
1537921721709470,-61,-38,1,2,1,1,9,5
1537921721709470,9,48,5,6,-1,-9,-11,28
1537921721718447,-66,-76,-7,-3,-5,-1,-2,2
1537921721718447,22,35,3,1,-6,-14,-10,-8
1537921721733406,27,-14,-8,-8,-7,9,5,-1
1537921721733406,-8,5,-2,-1,0,-6,0,-12
1537921721734404,101,81,5,4,5,-2,-6,26
1537921721734404,83,-49,1,-1,-1,-1,-8,-7
1537921721747369,11,-63,-16,-6,-5,-2,0,-2
1537921721747369,-5,54,12,8,1,-1,-9,-5
1537921721754351,-47,-8,-8,-8,-1,0,-15,-34
1537921721754351,74,-62,7,2,2,4,15,3
1537921721770308,-23,45,-5,-5,-2,-9,0,3
1537921721770308,-53,8,-5,-5,2,3,-4,8
1537921721772303,-27,15,0,1,-2,2,13,9
1537921721772303,-10,53,1,9,9,6,7,-10
1537921721793247,19,34,3,0,-1,-3,1,7
1537921721793247,5,-113,-5,-4,-3,2,5,1
1537921721794245,-47,-24,-14,-2,1,-5,-7,-5
1537921721794245,-30,81,6,5,-1,-2,3,0
1537921721808207,127,66,4,16,9,4,7,46
1537921721808207,38,-74,-13,-10,-6,-4,-8,-43
1537921721809204,4,72,2,0,-2,-13,-11,1
1537921721809204,11,-26,-6,-3,-3,6,-3,6
1537921721831145,15,-9,-6,-1,-3,-3,-4,-7
1537921721831145,-1,64,5,1,3,4,8,15
1537921721832143,-23,-25,-4,-6,-9,2,18,-12
1537921721832143,20,-2,-5,-1,-2,2,-9,-9
1537921721853086,14,-14,-1,-2,-3,-6,0,-7
1537921721853086,-18,26,4,5,3,2,20,22
1537921721855081,7,-51,-4,-2,3,1,-6,-13
1537921721855081,27,27,-6,0,-1,2,-7,-11
1537921721869044,-18,-23,-10,-11,-8,-12,-23,-32
1537921721869044,31,2,0,-3,5,1,-1,-8
1537921721870041,66,-17,6,4,0,8,13,35
1537921721870041,-43,-22,-9,-12,-8,-3,4,-6
1537921721890985,-7,33,-20,6,6,4,-6,8
1537921721890985,-14,-59,-7,4,1,-2,-7,-21
1537921721891982,-23,-42,-2,-8,1,8,-2,11
1537921721891982,24,24,2,1,-1,0,3,-16
1537921721912926,-15,2,10,-4,-2,-8,-15,-18
1537921721912926,-40,17,-3,-2,1,4,10,26
1537921721914921,-11,-6,4,5,3,0,-2,-1
1537921721914921,-23,-20,1,-2,-1,6,8,13
1537921721927886,-18,-15,1,-2,-5,-10,-5,17
1537921721927886,11,96,10,2,0,18,3,2
1537921721933870,-32,21,-14,-7,-3,-12,-22,-35
1537921721933870,21,-8,-2,-3,1,2,-7,-1
1537921721950825,2,37,10,3,4,6,13,10
1537921721950825,-4,-10,1,-5,-6,-4,0,-3
1537921721951822,-24,44,3,-2,0,9,11,4
1537921721951822,-45,21,0,4,2,-3,5,-15
1537921721972766,7,6,-2,-8,-5,6,-5,-22
1537921721972766,1,-5,-1,-4,0,1,7,16
1537921721974761,27,51,6,1,4,8,11,10
1537921721974761,-75,-22,1,-2,-5,-10,-12,-6
1537921721987727,60,-53,1,3,2,6,4,0
1537921721987727,4,8,-8,-5,-4,-14,-22,-17
1537921721994708,-37,-19,1,1,-1,3,-2,-19
1537921721994708,70,47,0,1,3,6,3,-13
1537921722010665,47,-4,2,-2,3,3,9,10
1537921722010665,-2,-58,6,0,-6,3,8,9
1537921722012660,34,11,9,6,2,-5,-9,-4
1537921722012660,-9,-16,-10,-11,-6,3,-1,2
1537921722033604,-24,16,1,-2,0,2,27,-2
1537921722033604,-11,18,4,0,0,0,-11,6
1537921722034601,28,8,14,10,5,4,11,-8
1537921722034601,-13,-35,-5,-7,-2,6,-3,2
1537921722047566,-52,14,-11,-9,-4,2,0,-7
1537921722047566,71,-41,5,2,0,-3,4,4
1537921722054548,-39,27,7,-1,-1,-2,2,18
1537921722054548,26,7,0,1,-4,-3,2,18
1537921722070505,17,14,12,2,2,11,-6,-23
1537921722070505,29,16,4,0,2,-4,0,15
1537921722072500,-26,-68,-4,-8,-6,1,-9,-32
1537921722072500,5,6,6,5,4,0,9,27
1537921722093444,-51,-6,8,-1,-5,3,-8,0
1537921722093444,5,68,8,1,-2,-10,-9,-22
1537921722099428,-11,-28,-7,-2,-1,-1,-2,1
1537921722099428,-20,71,-4,-8,-6,0,2,-8
1537921722107406,7,18,9,1,-1,0,1,7
1537921722107406,28,-16,-6,-1,4,4,6,18
1537921722114388,32,49,8,0,-3,-3,-6,-25
1537921722114388,-39,-128,-1,-4,-7,-4,-3,1
1537921722130345,14,36,3,1,3,-1,-5,3
1537921722130345,7,21,-1,-4,-10,-6,-6,-7
1537921722132340,-6,6,3,-1,1,-1,-4,-2
1537921722132340,-4,5,6,4,-2,-10,11,-8
1537921722153284,0,-54,-10,-2,2,-2,1,5
1537921722153284,-27,26,1,2,-3,0,-10,-13
1537921722154281,-22,-36,-3,-1,0,0,-13,19
1537921722154281,-46,32,11,8,4,-4,2,-8
1537921722167247,-13,-12,-10,-6,-2,-8,-4,-30
1537921722167247,43,20,-6,1,0,0,-17,-4
1537921722174228,33,7,-5,-2,-2,-3,2,-2
1537921722174228,1,22,2,4,2,-3,-2,12
1537921722190185,19,-63,-9,-1,-3,-5,1,10
1537921722190185,-31,13,-4,3,4,0,5,-2
1537921722198164,5,-8,-2,-3,-3,-4,-2,7
1537921722198164,-25,-61,-7,-1,4,1,-6,16
1537921722238058,-11,1,-3,3,0,-10,-5,-12
1537921722238058,-29,-48,-3,4,1,-4,-1,-8
1537921722239055,0,21,-7,-4,-5,-5,-1,21
1537921722239055,-30,40,5,-2,-4,-3,25,0
1537921722245039,-7,-67,-15,-4,-3,-4,-11,7
1537921722245039,2,-2,-3,-1,0,-5,0,-2
1537921722246036,-27,-24,0,4,6,3,8,16
1537921722246036,-18,4,-6,-5,2,4,-1,-39
1537921722247034,-14,-13,1,2,0,-3,3,3
1537921722247034,-10,15,-8,-5,-3,1,-8,-16
1537921722251023,25,-16,-5,1,5,0,2,-8
1537921722251023,21,8,-1,5,-2,-1,3,45
1537921722265983,-9,35,5,2,-4,-8,-3,-17
1537921722265983,-60,-39,0,4,1,9,-17,1
1537921722266980,-34,-52,-10,-11,-2,5,-1,-2
1537921722266980,0,-7,0,-6,3,-7,-21,-6
1537921722278948,11,57,2,1,-2,-8,1,9
1537921722278948,-39,3,-1,4,7,3,5,-4
1537921722287924,-23,2,-9,-5,-12,-7,-6,0
1537921722287924,45,25,2,6,5,8,-4,8
1537921722302884,-10,12,0,0,1,5,6,2
1537921722302884,7,-5,-3,-7,-2,-7,7,-8
1537921722308868,17,8,1,6,1,5,3,8
1537921722308868,37,-10,-1,-1,-4,0,26,-2
1537921722316846,22,19,4,2,2,0,-30,-16
1537921722316846,11,28,-2,-3,-2,3,10,4
1537921722325823,-3,7,0,-3,-1,-8,-10,-3
1537921722325823,-32,-14,-1,-2,1,3,2,31
1537921722339785,-8,-24,-2,-4,-4,3,-4,-5
1537921722339785,15,56,4,0,-4,-5,7,6
1537921722347764,-15,-35,-8,-3,4,-1,-1,-21
1537921722347764,-12,9,-1,-2,-7,-6,-2,9
1537921722362724,-2,-1,3,1,-2,11,6,6
1537921722362724,-3,-12,2,-1,-2,-19,-14,-9
1537921722376687,-16,47,8,3,-2,5,9,23
1537921722376687,17,-54,-15,-5,-1,1,-8,-23
1537921722385663,1,8,-5,0,5,6,4,16
1537921722385663,8,-12,1,-4,-12,1,12,-2
1537921722386660,16,40,15,2,-3,-1,-2,-1
1537921722386660,18,-15,-5,-4,-1,0,-13,-11
1537921722399625,-33,6,8,0,-5,-2,1,-9
1537921722399625,28,24,4,3,7,7,4,7
1537921722408602,-5,-64,-1,-1,-4,-2,2,18
1537921722408602,21,9,4,3,3,2,-6,-6
1537921722422564,-20,-1,4,-5,0,3,1,-10
1537921722422564,20,6,2,-1,1,-3,6,10
1537921722429545,-30,-24,2,-4,-4,-2,-1,-6
1537921722429545,27,44,12,0,4,2,-3,1
1537921722445503,-5,-5,-1,0,0,-1,-1,22
1537921722445503,-8,-22,2,-2,-2,4,-2,-5
1537921722447497,25,-8,5,3,3,6,3,-17
1537921722447497,-18,21,4,-3,-1,-4,-9,-7
1537921722459466,1,0,4,-1,-3,0,3,11
1537921722459466,-70,-37,-1,-4,-2,0,-2,-11
1537921722468441,10,21,3,1,-3,-3,28,8
1537921722468441,-30,-44,-7,-2,-5,-4,-21,7
1537921722482404,-14,13,5,2,3,0,-1,-9
1537921722482404,42,4,1,-1,-2,0,-4,-7
1537921722489385,19,20,2,1,-2,-4,-4,-9
1537921722489385,-63,-9,8,-1,-8,0,20,-11
1537921722513321,-20,-41,-12,-5,-2,-12,-7,-1
1537921722513321,-28,-20,-2,0,2,-2,-8,-10
1537921722514319,17,18,4,5,0,-2,-12,0
1537921722514319,6,35,2,-1,2,2,-1,-10
1537921722519305,25,-3,1,1,-5,-6,-6,3
1537921722519305,-19,-22,-2,1,-1,-3,-2,0
1537921722528282,15,9,-3,1,0,-4,-9,-14
1537921722528282,-5,-31,-7,0,-1,-4,-9,15
1537921722542244,27,45,0,3,4,-2,2,-16
1537921722542244,-52,-33,-5,-4,-9,-5,-10,-9
1537921722549226,31,42,1,1,1,-6,-19,-2
1537921722549226,-7,-39,-4,0,3,0,9,-17
1537921722565183,45,14,3,3,-1,1,12,-1
1537921722565183,-1,7,-4,1,1,-6,-2,10
1537921722567178,-22,3,-4,1,2,4,1,-16
1537921722567178,8,21,-4,-1,-4,-7,-3,8
1537921722579145,-7,-6,-1,3,0,-1,23,12
1537921722579145,17,3,1,-1,2,-1,-19,0
1537921722588122,0,-9,-1,0,0,0,-10,12
1537921722588122,26,-20,-1,2,0,2,-5,-2
1537921722602084,-25,43,0,-4,-3,-16,-6,1
1537921722602084,20,-17,4,-1,0,-2,6,-2
1537921722609066,-25,-24,-13,-6,-3,-3,1,3
1537921722609066,16,-4,1,-4,1,-1,-4,-10
1537921722626020,-15,-5,2,-5,-3,6,-7,0
1537921722626020,15,17,-2,1,1,0,3,4
1537921722627017,15,32,11,4,2,-5,-5,-4
1537921722627017,-39,-76,-10,-3,-3,-5,0,-19
1537921722638985,-10,-14,-3,0,0,4,-1,7
1537921722638985,20,4,-9,0,-1,1,1,7
1537921722647961,-23,-12,-1,-4,-3,-7,1,-1
1537921722647961,39,46,5,-1,-7,0,0,-8
1537921722662921,-21,-16,0,-3,0,0,-8,-5
1537921722662921,8,23,1,0,-1,1,5,15
1537921722668905,-33,-52,-8,-3,0,0,-3,-2
1537921722668905,1,35,5,6,-1,-1,-5,3
1537921722692841,-34,-11,3,-1,4,3,14,14
1537921722692841,10,-8,-4,-5,-5,-2,-19,-10
1537921722694836,3,-1,0,-3,0,2,1,2
1537921722694836,15,14,4,0,-1,-5,-8,-5
1537921722706804,-25,-35,-9,-3,-4,2,3,9
1537921722706804,47,46,8,6,4,3,9,5
1537921722715781,16,-45,-10,-9,-5,-1,2,-7
1537921722715781,17,33,3,0,5,-2,-40,-1
1537921722730740,37,41,11,10,-1,-4,-7,-12
1537921722730740,4,-67,-18,-12,-4,-4,6,1
1537921722731738,8,28,2,0,-2,6,-1,-6
1537921722731738,-8,14,4,0,1,3,14,-7
1537921722753678,25,12,1,3,3,-2,-10,4
1537921722753678,8,-15,0,-2,-2,0,0,-8
1537921722754676,6,24,-3,0,0,-3,3,0
1537921722754676,-27,-31,-3,-4,0,-2,6,1
1537921722766644,15,24,5,3,2,1,-6,-1
1537921722766644,-48,18,7,2,-1,-1,2,-11
1537921722775620,17,-3,-9,-4,-3,-2,0,3
1537921722775620,59,31,-1,4,2,1,7,14
1537921722790580,-3,7,3,-7,-6,-3,-4,7
1537921722790580,-32,-64,-10,-4,0,0,-1,5
1537921722796564,29,28,9,7,1,-4,-6,3
1537921722796564,-18,-5,2,-2,-2,8,3,9
1537921722813519,-6,-24,-5,-5,-6,-3,9,12
1537921722813519,28,72,1,2,-1,-3,-2,-1
1537921722814516,-29,-12,2,-1,1,1,-6,-13
1537921722814516,-18,-47,-5,0,1,0,2,1
1537921722826485,-18,4,-1,-3,-6,-4,-5,-4
1537921722826485,0,1,2,3,1,2,13,-1
1537921722835460,-3,-36,-4,-5,-2,3,6,7
1537921722835460,28,31,4,1,-2,0,-3,-4
1537921722850420,-3,-19,-1,-4,1,-1,-1,-11
1537921722850420,8,-1,0,-3,-2,-3,-1,12
1537921722852415,-24,2,3,3,1,3,7,6
1537921722852415,-3,0,-2,3,0,0,2,-13
1537921722873359,-30,16,-4,-1,2,1,-3,-9
1537921722873359,-17,-61,-7,-5,-5,0,-4,-2
1537921722874356,23,29,2,1,0,1,1,5
1537921722874356,-21,12,3,1,0,-2,25,-3
1537921722895300,-26,-24,0,-3,-1,2,-6,-6
1537921722895300,14,26,1,-1,-1,-8,-5,10
1537921722897295,-13,-5,0,0,-3,-3,-3,-14
1537921722897295,29,-20,-6,-5,-5,-5,-1,2
1537921722910261,5,-3,1,1,-2,4,3,-16
1537921722910261,4,13,5,4,2,5,6,-5
1537921722912255,-7,-40,-7,-2,-2,-3,-2,23
1537921722912255,-9,29,4,1,-1,-1,-2,18
1537921722933211,-8,0,0,2,5,-2,2,-2
1537921722933211,-8,-33,-6,-7,-3,7,-2,-20
1537921722934196,-43,3,1,-1,-3,-9,-20,-5
1537921722934196,10,-45,1,1,1,2,-4,3
1537921722947162,5,47,-3,-4,-3,-8,0,12
1537921722947162,23,22,4,1,0,-3,-3,-11
1537921722956138,26,-18,-5,1,-3,2,5,-6
1537921722956138,-30,6,-4,-4,2,-1,-3,2
1537921722971097,-39,-52,-2,-2,0,5,3,-7
1537921722971097,25,14,1,0,0,-5,-8,-4
1537921722972095,-15,-9,-1,-4,6,1,14,5
1537921722972095,-29,20,-5,-2,-11,-8,-10,-11
1537921722993040,28,-13,-2,-1,0,2,-1,9
1537921722993040,-40,6,3,0,-3,-1,1,8
1537921722995034,39,20,3,2,4,3,-1,-14
1537921722995034,-28,-19,-1,0,-1,-4,8,0
1537921723014980,0,52,-2,-4,-2,0,-3,0
1537921723014980,-22,-19,-1,2,1,4,-2,-7
1537921723030938,5,28,6,0,1,1,2,13
1537921723030938,13,-20,-8,-4,-3,-3,-4,1
1537921723032932,12,-15,-2,-5,-5,-6,-12,-32
1537921723032932,16,12,4,7,3,3,1,-6
1537921723036921,-50,-6,-1,2,-2,0,3,-9
1537921723036921,21,13,-2,-1,2,2,2,5
1537921723052879,14,-14,-1,3,-1,-1,0,1
1537921723052879,-17,17,1,-2,3,1,5,3
1537921723054874,39,25,0,-2,2,0,-4,-9
1537921723054874,29,2,2,1,-4,-1,0,3
1537921723075818,31,4,-1,0,-1,-8,-4,-15
1537921723075818,-31,14,1,-5,-4,-2,-3,8
1537921723076815,13,5,-2,1,-1,-1,-1,7
1537921723076815,-54,6,4,0,6,4,-3,-3
1537921723090778,53,6,-3,1,-6,-5,11,37
1537921723090778,10,15,-8,-3,-5,-5,-3,-29
1537921723091775,0,-14,1,-4,-3,-3,-7,-1
1537921723091775,16,19,-2,1,0,-2,-2,-3
1537921723112719,-10,7,6,5,7,4,10,-3
1537921723112719,-7,-38,-5,-4,-3,-4,-17,10
1537921723114714,0,1,3,3,-1,2,3,5
1537921723114714,-1,17,-3,-2,-1,3,0,-4
1537921723135658,-6,-26,0,-3,-2,2,0,20
1537921723135658,-1,19,5,0,7,0,-17,-21
1537921723136655,-11,-24,-7,-6,-6,-4,-8,-18
1537921723136655,30,-10,2,2,2,2,-4,-9
1537921723150618,-19,6,-4,-1,-2,-1,-5,-4
1537921723150618,6,9,5,2,0,3,15,23
1537921723152612,-36,-24,-2,-2,-1,-3,-2,-2
1537921723152612,-43,12,2,-1,-1,-3,-7,-12
1537921723173556,9,-9,-3,-2,3,3,5,3
1537921723173556,-11,-34,0,-2,-4,-4,5,0
1537921723174554,40,4,-3,-1,-2,-3,-1,-4
1537921723174554,28,23,2,-2,0,-3,2,15
1537921723195498,-7,-9,2,0,0,-6,-8,-18
1537921723195498,41,29,0,4,5,0,3,-2
1537921723197493,-13,-11,-1,-4,-4,-2,-4,10
1537921723197493,-3,-19,-1,1,-3,4,9,-2
1537921723210458,56,16,2,2,4,3,-5,-2
1537921723210458,-15,-2,-4,-2,-1,1,24,18
1537921723216442,20,11,1,3,4,-3,7,-40
1537921723216442,46,-11,-4,-2,-1,-1,-6,-7
1537921723233396,-29,-6,-3,-4,-8,3,13,-5
1537921723233396,17,-6,2,3,6,1,-3,5
1537921723234394,37,77,5,2,-1,8,8,22
1537921723234394,-41,-65,-6,-3,-1,-6,-4,-10
1537921723255338,13,-38,-10,-4,-4,-3,-4,-7
1537921723255338,7,26,-4,-2,-2,0,-2,-4
1537921723257332,-52,-4,1,0,-5,-3,2,4
1537921723257332,9,21,6,1,-1,2,-7,-2
1537921723270298,-1,0,-1,-1,0,-4,-5,16
1537921723270298,32,-5,-3,-2,-4,-5,-2,8
1537921723277279,48,-4,0,-3,0,-3,-8,-11
1537921723277279,-45,46,6,0,1,-1,0,-4
1537921723293237,38,24,1,-1,2,4,2,-4
1537921723293237,-23,30,0,1,-3,-14,-5,-1
1537921723294234,32,-14,-11,-2,-3,1,-1,19
1537921723294234,16,-12,5,-1,1,0,2,1
1537921723315178,-94,5,-3,-6,-4,1,1,-4
1537921723315178,-38,-35,-6,-3,-2,-1,-6,1
1537921723317173,27,-30,-4,-3,-3,0,-5,3
1537921723317173,-10,30,-2,2,1,-4,-1,-16
1537921723330138,-36,0,2,2,0,-1,-3,-3
1537921723330138,-12,-26,0,-4,-5,1,-5,2
1537921723337119,-55,10,-3,-2,-1,1,-2,-12
1537921723337119,83,-8,-5,-2,-1,-1,2,20
1537921723353077,-25,35,9,6,2,1,1,-2
1537921723353077,52,-14,1,-2,-4,0,-6,-21
1537921723355071,-35,-41,-1,1,3,1,7,11
1537921723355071,-7,-20,2,3,-2,2,-1,-23
1537921723376015,-16,7,-10,-7,-4,-4,-10,0
1537921723376015,6,16,3,1,1,5,-1,-8
1537921723377013,-61,0,3,-1,-1,-1,-2,11
1537921723377013,33,-10,-3,-4,-1,1,5,24
1537921723389978,39,-49,0,2,0,-1,0,-11
1537921723389978,-4,-19,-4,1,-1,0,-2,-9
1537921723396960,-14,-18,8,0,-5,1,1,-9
1537921723396960,4,20,-13,-1,6,-3,-4,-9
1537921723412917,-22,8,4,3,-3,0,-2,-7
1537921723412917,-7,16,-1,-2,3,-1,0,5
1537921723414911,6,-11,-2,1,-3,-1,-5,-8
1537921723414911,-23,2,2,-2,-3,-1,-1,2
1537921723435855,20,-15,0,1,5,5,7,9
1537921723435855,-8,-4,-3,-4,-8,-2,-7,-3
1537921723436853,-2,17,-2,-2,-4,-1,-6,2
1537921723436853,-2,3,0,-1,-2,-6,-2,-16
1537921723449818,30,-15,-6,-1,0,-2,-4,1
1537921723449818,24,16,2,4,5,-2,3,12
1537921723456799,-39,36,1,-8,-7,-3,-1,-1
1537921723456799,-20,-6,-2,0,2,1,-2,10
1537921723472756,50,-32,-1,-7,-2,-2,-6,6
1537921723472756,25,37,8,6,3,2,-6,-18
1537921723474751,77,7,-2,5,6,2,11,-20
1537921723474751,-34,3,7,2,-2,0,-3,5
1537921723495695,36,21,-6,-2,2,1,9,-9
1537921723495695,-36,-3,0,-3,-10,-1,-4,15
1537921723496693,74,6,0,2,9,-1,-5,10
1537921723496693,-68,-27,-1,-3,-2,-4,-4,-13
1537921723509658,56,-11,-5,-2,0,4,3,-5
1537921723509658,-13,-16,-6,-6,-6,-3,1,4
1537921723516639,1,7,0,-1,-1,-2,-7,7
1537921723516639,12,4,-1,4,1,1,-1,6
1537921723533594,-12,9,6,2,-2,-4,-6,6
1537921723533594,-29,19,-5,-3,1,1,3,3
1537921723534591,-62,-25,-2,-4,-5,-1,5,11
1537921723534591,12,-36,0,-1,-2,-1,2,-8
1537921723555535,-29,78,6,4,0,-1,-6,6
1537921723555535,-11,-24,0,3,3,0,8,-1
1537921723557530,-85,-76,-5,0,2,1,5,-2
1537921723557530,-10,66,-1,-10,-7,0,-19,-17
1537921723569498,-60,-110,-1,-3,-5,-1,3,-12
1537921723569498,76,52,-2,6,2,-5,2,7
1537921723578474,57,58,4,1,2,-1,-2,0
1537921723578474,12,-71,-6,-3,-1,1,3,7
1537921723593434,18,80,5,4,0,-5,-1,1
1537921723593434,-56,-59,4,-1,0,2,4,11
1537921723594432,-82,10,-4,-3,-1,1,-2,-3
1537921723594432,-5,-58,-9,-8,-6,-1,0,-10
1537921723615376,-57,21,2,-4,1,2,0,15
1537921723615376,-49,11,-1,-5,-4,-1,1,-5
1537921723617370,45,4,-2,-1,-3,-3,-3,-5
1537921723617370,7,35,7,7,3,0,5,6
1537921723629338,-12,-15,-7,-2,-3,1,-4,-4
1537921723629338,-26,-29,-7,-8,-1,0,-2,-12
1537921723638314,25,6,2,-1,-1,-1,-3,-6
1537921723638314,-3,39,5,3,3,1,4,8
1537921723653274,52,-39,-7,-2,-2,-3,-3,4
1537921723653274,1,17,4,2,2,0,0,-5
1537921723654271,-18,-27,-1,1,-1,-3,-3,-8
1537921723654271,40,20,-6,-3,-3,-3,1,3
1537921723675215,50,28,2,2,2,-3,3,12
1537921723675215,9,-53,1,-4,-1,0,-6,-9
1537921723677210,27,-46,-13,-3,-5,-3,-5,-7
1537921723677210,-82,-35,-5,-7,-2,1,-3,-8
1537921723689178,26,41,-1,1,-1,0,-1,-12
1537921723689178,17,20,3,-2,0,1,5,9
1537921723698154,-6,22,9,2,1,-2,-2,-8
1537921723698154,26,20,4,1,-2,-3,0,5
1537921723713114,-35,-38,-9,-5,-2,-2,-2,3
1537921723713114,-11,-12,-1,2,2,-1,0,5
1537921723714112,2,23,3,3,3,-1,3,6
1537921723714112,13,3,-7,-1,-2,1,1,-3
1537921723736053,-23,3,4,-1,3,-1,-5,-4
1537921723736053,78,42,0,-1,-1,-2,4,0
1537921723737051,-24,-7,-4,-1,-1,-4,-6,8
1537921723737051,-21,-5,-4,-2,-2,-2,-1,1
1537921723749019,-31,-30,1,-1,-1,1,2,-6
1537921723749019,3,9,-2,0,-2,-3,-1,-3
1537921723757995,-6,24,1,-5,-2,1,2,-15
1537921723757995,-60,-43,-8,-8,-5,1,-2,5
1537921723772955,-38,-7,3,-1,1,2,2,-3
1537921723772955,-54,-14,2,3,1,3,3,1
1537921723774950,56,-21,-3,-2,-3,0,-1,6
1537921723774950,70,42,-4,2,-1,-5,-9,-11
1537921723795894,-38,-32,2,-4,-4,0,0,7
1537921723795894,-38,6,-3,-1,-5,-1,-2,-8
1537921723796891,-27,54,2,5,4,1,7,15
1537921723796891,-4,-85,-8,-6,-4,-3,-5,-10
1537921723808859,38,13,-1,0,2,1,-5,-2
1537921723808859,31,41,3,2,-9,-4,-7,1
1537921723817836,-9,48,-1,1,3,2,1,-2
1537921723817836,63,-24,-9,-3,1,-7,-8,-19
1537921723832795,-24,48,4,-4,-4,0,9,4
1537921723832795,4,-55,-2,1,-1,-1,1,-5
1537921723834790,49,-14,-2,-1,1,1,-4,-8
1537921723834790,-86,-20,4,0,2,2,-1,5
1537921723856731,38,42,2,5,1,-3,-3,0
1537921723856731,76,44,0,-3,0,-2,-4,-6
1537921723857728,-37,-54,-6,-1,-4,-1,4,15
1537921723857728,68,126,-4,1,1,-3,2,9
1537921723869696,24,-19,-3,-1,-1,-2,0,0
1537921723869696,-28,10,1,-5,2,3,3,-4
1537921723878672,21,32,9,4,0,-3,-4,-1
1537921723878672,32,39,7,1,1,1,3,17
1537921723893632,-58,-69,-10,-6,-4,-3,-3,-19
1537921723893632,10,35,6,2,1,0,1,11
1537921723894630,-102,-81,-14,-10,-4,-2,-5,-20
1537921723894630,-19,94,9,5,3,1,5,8
1537921723915574,56,73,12,5,1,-3,0,9
1537921723915574,-25,-59,-11,-2,-1,0,-2,-6
1537921723917568,33,-7,-5,-4,-4,-3,-2,2
1537921723917568,-12,-1,7,4,1,2,4,4
1537921723929536,-5,23,-9,-1,-4,-2,-4,-6
1537921723929536,20,-3,-2,-5,-1,-1,1,2
1537921723945493,14,23,4,0,-2,0,-3,-2
1537921723945493,2,-46,2,4,1,0,-1,-8
1537921723953472,8,4,-1,1,0,-2,-1,2
1537921723953472,-15,-2,-4,-4,-2,-2,-2,2
1537921723954470,8,-2,-1,-5,-3,-1,-2,-2
1537921723954470,-6,-25,-9,-4,-1,-1,-3,-15
1537921723975413,17,6,7,3,1,0,3,13
1537921723975413,-19,-61,-5,-1,-1,0,2,-10
1537921723977408,7,9,1,-2,-1,1,-1,2
1537921723977408,-14,22,6,0,-2,0,-1,7
1537921723998352,-15,-19,-2,-3,-2,-1,-2,-3
1537921723998352,16,33,0,2,1,-2,1,20
1537921723999349,15,-7,-1,0,0,0,-1,-8
1537921723999349,-40,-44,-2,-4,-2,1,2,6
1537921724012314,-16,-10,-4,1,-1,0,-4,-15
1537921724012314,16,54,11,2,1,1,2,12
1537921724013312,-55,-85,-15,-4,-1,-2,-2,-12
1537921724013312,7,55,3,0,-2,-2,-3,0
1537921724035253,-10,-27,0,-1,0,0,-2,-1
1537921724035253,24,35,-3,-1,0,-1,1,7
1537921724042235,29,49,2,3,1,-2,0,-5
1537921724042235,-67,-30,-4,-7,-4,-1,-2,-2
1537921724057194,16,10,1,2,1,0,-1,1
1537921724057194,0,-42,-3,3,-1,0,-3,-9
1537921724058192,16,94,2,0,1,0,-1,6
1537921724058192,5,-100,-1,-3,-2,-1,4,3
1537921724074149,-14,-9,-8,-4,0,-3,-2,-1
1537921724074149,-4,25,3,2,1,0,0,6
1537921724074149,-63,-82,-5,-3,-1,2,-3,-18
1537921724074149,39,61,1,3,0,-3,-5,-6
1537921724095093,-8,-46,-4,-4,-2,-1,3,-2
1537921724095093,8,1,1,-1,-2,-1,-2,0
1537921724096091,-12,-82,-9,-3,1,3,-1,1
1537921724096091,10,31,-1,3,-2,-1,0,-10
1537921724118032,9,-3,3,-3,-2,0,-1,-6
1537921724118032,-8,28,-1,1,0,0,-1,-4
1537921724118032,30,50,7,3,0,-3,2,9
1537921724118032,-1,59,-5,-1,0,-2,-2,-5
1537921724131995,5,57,3,2,1,-2,-1,-3
1537921724131995,19,-39,-1,1,2,0,-2,-10
1537921724132992,9,15,5,0,-2,0,-2,-7
1537921724132992,10,-26,-11,-7,-5,-1,-2,-2
1537921724154933,16,53,0,0,-1,0,-2,-11
1537921724154933,-30,-8,-1,-2,0,-4,-4,-11
1537921724155931,26,25,5,3,1,-2,0,6
1537921724155931,35,-10,5,2,1,2,4,20
1537921724177872,-12,-42,-4,-2,-2,-1,-1,-3
1537921724177872,-14,7,0,-2,0,-1,-1,3
1537921724177872,12,31,2,0,1,-1,1,5
1537921724177872,5,6,0,0,-2,-3,0,5
1537921724192833,-56,-34,-5,-4,-2,-2,-3,9
1537921724192833,-2,2,-3,0,-3,0,-1,-1
1537921724192833,8,51,2,-2,-1,0,0,6
1537921724192833,-4,-5,4,-1,-1,2,2,3
1537921724214773,1,-42,-6,-4,-3,-2,-2,-2
1537921724214773,-5,10,-1,-3,-1,0,-2,-3
1537921724215771,-9,-1,-3,-4,-2,-2,0,0
1537921724215771,32,27,11,9,3,1,-2,2
1537921724237713,15,7,-4,-1,-3,1,0,-2
1537921724237713,-51,-17,-8,-8,-5,-2,-2,-12
1537921724237713,61,7,3,1,0,-3,-3,6
1537921724237713,-5,1,2,-1,0,0,2,5
1537921724252672,2,-8,3,0,1,0,0,-4
1537921724252672,-8,39,-4,3,-2,-2,-1,5
1537921724253669,16,47,-1,0,-2,-2,-4,-3
1537921724253669,-3,-26,-5,-3,-3,-1,-2,-1
1537921724275611,30,82,8,5,1,0,-3,-5
1537921724275611,-48,-16,-5,-3,-1,0,0,13
1537921724276609,65,-1,1,0,-3,-3,-4,1
1537921724276609,-80,-87,-16,-13,-2,4,1,-21
1537921724297552,-26,-8,46,2,1,2,5,13
1537921724297552,23,4,-22,-17,-8,-2,-7,-18
1537921724298550,62,41,22,-5,2,-2,2,15
1537921724298550,10,-49,19,20,7,-2,-5,-19
1537921724313510,32,34,-91,-15,-2,7,3,9
1537921724313510,-12,-44,97,-20,-5,-4,-1,3
1537921724319493,-74,-40,-70,12,4,-3,-16,-38
1537921724319493,-1,23,-9,41,11,10,13,-24
1537921724336448,71,73,12,21,4,-3,5,17
1537921724336448,40,-128,-111,4,1,-1,1,-6
1537921724337446,-75,103,69,-24,-6,4,7,21
1537921724337446,-67,-13,21,-9,-4,-2,5,22
1537921724357392,-20,-102,-66,-10,-3,-2,-5,1
1537921724357392,49,127,-7,1,-1,-2,-1,-1
1537921724358390,-5,5,0,-3,1,0,3,6
1537921724358390,94,-3,42,-28,-9,-6,-10,0
1537921724372352,-49,-57,10,16,5,0,-5,-17
1537921724372352,-7,-10,-40,10,2,0,-1,-2
1537921724373350,-108,-8,39,-6,-10,-2,2,-22
1537921724373350,20,-16,75,-47,-14,-5,-4,23
1537921724395291,-17,114,-111,-7,2,-4,-6,-26
1537921724395291,84,-80,11,-12,-3,-5,-11,-18
1537921724395291,65,-21,-6,49,13,-2,-8,-20
1537921724395291,-60,-54,38,35,8,8,10,-6
1537921724417233,28,95,48,-35,-19,-4,-12,-38
1537921724417233,-10,-20,20,-16,-4,-3,0,10
1537921724418230,45,7,21,-12,-4,-3,2,25
1537921724418230,26,-9,-6,14,0,-2,-2,4
1537921724432193,-17,-105,21,-12,-4,0,-3,-18
1537921724432193,9,100,0,6,-1,2,6,8
1537921724433190,-4,-26,-37,10,5,2,6,11
1537921724433190,69,32,-25,5,3,-3,-4,-11
1537921724455131,-47,6,4,17,5,1,8,10
1537921724455131,-6,20,-17,-10,-1,1,-1,8
1537921724456128,-10,-27,-37,-6,0,1,-1,-2
1537921724456128,33,79,-25,-4,-1,0,-3,4
1537921724477072,33,-10,11,1,-2,-3,1,14
1537921724477072,2,6,8,6,0,0,-4,-16
1537921724478069,-16,-74,-26,-18,-5,3,4,8
1537921724478069,-35,80,-44,-7,-4,-4,-6,-8
1537921724492031,19,9,21,4,3,-1,-3,-3
1537921724492031,-47,61,18,27,9,2,3,14
1537921724493030,43,-1,-5,-12,-7,-2,-1,-4
1537921724493030,-38,16,-34,-13,-4,-1,4,13
1537921724514970,66,-7,7,-2,-3,-3,-1,17
1537921724514970,-16,-3,22,5,2,-2,-1,2
1537921724515968,10,21,2,-1,0,0,-1,1
1537921724515968,9,-42,-31,-13,-2,-5,-7,-12
1537921724537909,31,5,21,9,2,2,4,22
1537921724537909,6,6,4,0,-2,1,-1,-16
1537921724537909,-15,-32,-5,-9,-4,0,-1,-8
1537921724537909,-6,0,-15,6,3,-2,-1,5
1537921724551872,-28,-51,19,3,0,-1,1,1
1537921724551872,-1,99,0,1,-1,1,0,0
1537921724559851,-33,-14,-3,4,1,0,-1,-4
1537921724559851,5,49,3,0,0,-1,-1,-6
1537921724574811,-5,-34,4,-2,-2,-1,-1,1
1537921724574811,5,40,8,4,1,0,2,9
1537921724582789,-4,5,-7,-3,-1,-2,-3,-6
1537921724582789,5,20,-1,2,0,1,2,5
1537921724597750,65,79,7,0,-3,-4,-4,-5
1537921724597750,23,-30,-9,-2,0,-1,-2,1
1537921724597750,14,-9,4,2,2,0,3,7
1537921724597750,-52,56,-8,-9,-4,1,-3,-13
1537921724611713,-17,27,4,2,1,-1,1,1
1537921724611713,-15,-47,0,0,0,0,0,-1
1537921724619691,13,60,8,6,0,-1,-1,6
1537921724619691,-2,-79,-10,-12,-5,0,1,7
1537921724634651,-38,-13,-8,1,-2,-1,-1,4
1537921724634651,-18,-18,-3,1,0,-2,1,-6
1537921724635649,-8,45,7,4,-1,0,-4,-2
1537921724635649,8,-16,-1,4,-1,-1,1,4
1537921724657590,-26,-11,7,-6,-6,-2,0,1
1537921724657590,-9,-51,0,0,1,-3,-3,2
1537921724658587,4,2,-3,0,-1,-2,1,-2
1537921724658587,9,-4,1,-2,-1,-2,-3,-7
1537921724671552,-7,-20,2,-2,0,2,1,-6
1537921724671552,1,22,-1,-1,-2,0,-1,-2
1537921724679531,-6,-57,-2,-2,-2,1,1,1
1537921724679531,-3,33,-3,-1,-4,-1,-1,8
1537921724694491,5,-19,3,1,1,0,0,-2
1537921724694491,-4,14,-2,1,0,-1,4,10
1537921724695488,2,26,-2,-5,-1,-2,-3,-14
1537921724695488,-4,-68,-9,0,-1,1,-1,5
1537921724717429,31,123,3,3,0,-3,-5,-16
1537921724717429,-42,52,-2,-10,-4,0,0,-8
1537921724718427,22,-32,-4,-3,0,0,0,-2
1537921724718427,42,127,32,-6,-3,-4,1,20
1537921724731392,-69,-94,-39,3,4,3,1,-5
1537921724731392,2,47,-77,-34,-19,-9,-16,-32
1537921724740368,-30,-37,39,5,-4,-4,-5,-26
1537921724740368,80,44,71,-17,-13,-8,-6,-4
1537921724755328,0,-73,-77,6,2,2,16,43
1537921724755328,51,30,-72,15,4,5,-10,-77
1537921724755328,62,107,49,-17,-7,-5,2,14
1537921724755328,-33,-93,-123,34,16,7,5,4
1537921724777270,-90,41,127,20,4,-6,-8,-33
1537921724777270,19,-128,-98,-30,-16,-9,-8,-6
1537921724778267,-96,1,-12,-34,-12,-6,-8,-29
1537921724778267,-93,13,52,9,9,4,-7,-54
1537921724793228,41,66,-125,34,10,1,4,34
1537921724793228,-94,-84,26,23,7,7,9,22
1537921724800209,48,62,-74,-10,-8,-4,-6,-20
1537921724800209,-12,-12,59,-25,-12,-5,1,3
1537921724815169,-22,83,65,-39,-6,-2,-3,8
1537921724815169,5,-45,-12,29,16,4,8,44
1537921724815169,-55,5,-18,6,-5,1,-3,5
1537921724815169,72,-5,35,4,4,-4,-1,-8
1537921724837110,-21,-108,-70,-34,-20,-7,-18,-72
1537921724837110,-22,67,117,23,1,4,12,25
1537921724838107,54,-48,-34,20,20,12,11,37
1537921724838107,-80,-29,-29,18,13,4,6,-14
1537921724852069,-10,-12,51,0,-9,-2,-10,-10
1537921724852069,92,-63,-5,-29,-11,-5,2,41
1537921724860048,39,-48,-16,2,-9,-2,1,10
1537921724860048,29,51,-11,-14,-4,-3,-3,-6
1537921724875008,25,5,-7,25,17,2,0,20
1537921724875008,-29,-28,32,9,10,2,1,-4
1537921724876006,31,-29,15,12,1,0,3,15
1537921724876006,71,63,-48,-13,-7,-6,-9,-2
1537921724896949,-34,-62,-7,-10,-2,0,-2,-4
1537921724896949,-3,50,10,-5,-2,-1,0,0
1537921724897947,-7,-26,21,-14,-8,-8,-11,-13
1537921724897947,-25,-43,-36,-2,-4,-3,0,7
1537921724920886,94,-8,-12,3,1,2,3,4
1537921724920886,-31,52,30,-5,-4,-1,-4,-9
1537921724920886,9,-7,-6,4,6,2,2,-7
1537921724920886,-4,-15,-15,8,0,2,3,11
1537921724934848,-13,19,13,-4,-4,-2,2,4
1537921724934848,6,-28,-1,-1,5,-3,1,2
1537921724935846,7,78,10,10,3,0,-1,7
1537921724935846,-18,-81,-30,-5,-3,3,1,6
1537921724957787,-18,61,6,-9,-5,-1,0,-5
1537921724957787,11,3,-4,-10,-5,-1,-2,-15
1537921724957787,-81,-48,-6,6,7,4,4,2
1537921724957787,18,20,16,7,0,-1,0,3
1537921724980726,20,19,1,-2,-1,1,3,13
1537921724980726,-17,-46,-5,0,0,0,-2,0
1537921724981723,-10,-25,-4,-4,-1,-1,-2,-2
1537921724981723,24,19,-4,0,-1,-2,1,11
1537921724996683,-17,-39,-6,-3,-3,1,1,-7
1537921724996683,51,57,7,2,-2,-2,0,-2
1537921724996683,26,37,1,-2,-1,1,-2,-2
1537921724996683,-9,32,0,-1,0,-1,-1,2
1537921725017627,47,-63,-10,-2,1,2,3,6
1537921725017627,-27,47,9,5,0,1,0,-6
1537921725018625,-9,40,-5,1,0,-1,0,3
1537921725018625,-12,8,-3,-2,-1,1,-3,-4
1537921725040566,2,-11,2,-3,1,-1,0,1
1537921725040566,6,2,-1,-2,0,0,0,1
1537921725041563,-5,1,1,2,-1,-1,2,6
1537921725041563,-7,21,-4,1,-3,-2,-3,-2
1537921725054529,14,16,2,-2,-5,-1,0,-2
1537921725054529,3,-24,1,3,4,1,-3,1
1537921725055526,2,18,-1,0,0,-1,-1,1
1537921725055526,13,11,7,2,0,-1,-1,4
1537921725077467,-32,-28,-3,-2,0,0,-2,-10
1537921725077467,-32,23,-8,-5,-5,-3,-6,-8
1537921725078465,0,-31,-1,0,-1,0,1,1
1537921725078465,12,42,-6,1,1,0,1,4
1537921725100406,8,9,4,1,0,-2,0,5
1537921725100406,8,-6,6,4,1,1,3,5
1537921725101403,-28,20,-7,-1,0,-2,-1,-6
1537921725101403,-30,-21,-3,-4,-1,-2,-3,-7
1537921725115366,18,47,2,0,-1,0,-2,3
1537921725115366,13,-12,1,-1,-2,-2,0,1
1537921725115366,2,65,3,1,1,-2,-1,0
1537921725115366,-9,-95,-6,-2,-1,2,1,-2
1537921725138305,-10,24,-1,-1,-1,-1,-2,-4
1537921725138305,22,73,12,2,1,1,1,5
1537921725139302,1,-80,-9,-6,-2,-2,-3,-11
1537921725139302,4,-58,-8,-2,0,-2,-2,-3
1537921725160246,1,52,1,-2,-1,-1,0,7
1537921725160246,-8,-60,-3,0,0,-1,-4,-14
1537921725161243,8,-15,5,2,3,0,2,16
1537921725161243,13,25,3,0,1,-1,0,6
1537921725175206,26,31,2,1,1,-1,-2,-2
1537921725175206,-19,19,1,-1,1,-2,3,5
1537921725175206,15,-69,-3,-3,-3,0,-3,-1
1537921725175206,15,42,2,-1,0,-1,-1,-8
1537921725198145,-10,-1,-1,1,1,0,2,4
1537921725198145,11,10,0,0,-1,-2,-1,-2
1537921725199142,-9,13,-1,2,-2,-2,0,-6
1537921725199142,7,42,1,2,-2,-2,-1,0
1537921725221083,-23,-7,-5,-3,-2,-3,-1,-5
1537921725221083,-6,-5,-3,-2,1,-1,-3,-5
1537921725221083,13,-22,-4,-5,-1,1,1,0
1537921725221083,-18,-19,0,1,0,-3,1,13
1537921725235046,5,101,5,2,0,-1,-1,-1
1537921725235046,47,-24,-7,-4,-3,-2,0,-1
1537921725242028,-78,32,3,-4,-2,1,-4,-9
1537921725242028,10,47,-2,0,-1,-2,-3,-10
1537921725259980,31,26,-9,0,-1,-2,-1,-6
1537921725259980,-6,13,7,0,0,1,-1,-8
1537921725264966,16,-34,-4,1,0,1,3,5
1537921725264966,-8,86,2,-1,-1,-1,-2,-5
1537921725273942,-9,-86,5,-1,-1,1,-1,-7
1537921725273942,11,30,-7,-2,0,-2,1,3
1537921725275937,11,-16,-1,-1,-2,0,-2,1
1537921725275937,-23,-14,0,0,-3,-1,-4,0
1537921725286908,16,28,-6,1,-1,-1,-1,3
1537921725286908,-18,-44,-4,-5,-1,0,1,4
1537921725293889,2,46,4,3,1,1,2,-2
1537921725293889,-3,-105,-6,-4,0,-1,1,1
1537921725308849,-30,56,4,1,0,1,-1,1
1537921725308849,-3,5,-2,-4,-2,0,-4,-4
1537921725317825,-6,19,-11,-1,-2,-1,1,4
1537921725317825,24,32,4,0,-1,3,2,-8
1537921725332785,31,-53,0,-3,-3,3,5,10
1537921725332785,-4,-77,-6,-1,-1,1,2,4
1537921725332785,15,64,5,2,2,0,2,3
1537921725332785,22,-87,-7,-3,-2,2,0,-4
1537921725346747,-12,-6,3,-2,0,2,-1,-2
1537921725346747,6,27,2,3,-3,1,0,-2
1537921725354726,-2,5,-3,-3,-2,0,-1,-3
1537921725354726,-10,35,3,-3,0,-2,0,0
1537921725369686,-13,-100,-7,-3,0,-2,1,-4
1537921725369686,-5,18,-2,-4,-1,1,0,-5
1537921725377665,-1,52,4,1,-1,0,1,2
1537921725377665,1,-7,3,-3,-3,0,1,3
1537921725392625,-6,-18,6,2,0,2,-4,-9
1537921725392625,6,104,-3,-1,-2,1,1,7
1537921725393623,-5,21,0,-1,2,2,0,-2
1537921725393623,12,-76,-1,1,-3,-1,2,6
1537921725406588,-19,45,2,-1,0,-2,0,-7
1537921725406588,-15,-17,2,-1,-1,2,4,6
1537921725414566,6,16,3,-4,-1,-1,0,-11
1537921725414566,1,22,3,1,0,3,1,7
1537921725429526,-1,-38,-1,-1,-3,1,2,9
1537921725429526,-15,26,11,2,1,0,-2,-7
1537921725437505,6,-49,-10,-5,-5,1,-3,-5
1537921725437505,-31,68,-3,-2,0,0,-3,-6
1537921725452465,4,-15,-7,-3,0,2,-2,-4
1537921725452465,13,8,-1,-1,-4,-3,1,1
1537921725453463,8,-2,4,0,-1,0,0,6
1537921725453463,-9,-1,-1,1,0,-1,-2,-5
1537921725466428,-8,-2,-1,-4,-3,-3,1,3
1537921725466428,4,-5,1,0,0,-2,-1,4
1537921725474406,4,-30,-5,1,1,-1,-1,4
1537921725474406,-30,44,3,0,-2,-1,-1,-6
1537921725489366,16,111,2,1,-1,-4,-1,5
1537921725489366,-5,-115,-9,1,1,2,0,3
1537921725497345,-7,-9,-6,-5,-5,0,-3,-16
1537921725497345,7,38,4,1,-2,1,-1,-3
1537921725512305,-14,1,-2,0,1,0,-1,-1
1537921725512305,7,39,3,-1,-1,-1,1,5
1537921725513302,-31,-40,2,0,-1,-2,-3,0
1537921725513302,48,-7,-3,-1,-3,0,-1,4
1537921725526267,-28,-43,0,-1,-2,-2,0,-5
1537921725526267,24,9,-4,1,1,-2,-2,0
1537921725534246,15,15,0,1,0,1,-1,0
1537921725534246,5,19,0,-3,0,-3,0,-1
1537921725549206,8,-87,-3,-1,0,0,-1,-7
1537921725549206,-8,24,-1,-2,-2,0,-3,0
1537921725557185,17,18,2,1,1,-3,-1,1
1537921725557185,-22,-56,-11,-3,0,-1,-1,-2
1537921725572145,1,37,1,0,-2,-4,-1,-1
1537921725572145,6,-16,-1,-1,-2,-3,-4,-19
1537921725573142,6,3,1,-1,-3,-2,-4,-11
1537921725573142,-41,2,0,2,2,0,-1,-2
1537921725587105,37,8,-2,-1,-3,-3,-3,3
1537921725587105,-28,-13,-5,-2,0,-1,-4,-9
1537921725594087,-24,-75,-3,1,0,-1,0,3
1537921725594087,29,28,2,4,1,-4,0,1
1537921725611041,-30,-7,-8,-6,0,-2,0,-5
1537921725611041,-1,23,9,1,0,-1,-1,4
1537921725617025,8,8,-5,1,-1,-2,0,6
1537921725617025,-4,7,-2,0,-2,-1,1,3
1537921725631985,-8,-4,-2,-2,1,-1,-1,1
1537921725631985,11,-33,-7,-1,-1,0,-3,1
1537921725632982,-5,38,2,1,1,-2,0,0
1537921725632982,2,-26,-3,-2,-3,0,-1,0
1537921725655921,-2,12,2,2,0,1,0,-1
1537921725655921,0,54,7,1,-1,-3,-2,-1
1537921725656919,10,-17,-14,-3,-1,0,0,-2
1537921725656919,-7,-6,1,-1,1,0,-3,2
1537921725668886,-13,-9,-1,-3,-2,0,-3,-9
1537921725668886,-6,51,1,0,-1,-3,1,-1
1537921725677862,-2,-26,2,3,1,1,-2,1
1537921725677862,17,13,-2,-4,-4,0,0,-4
1537921725692823,-10,21,0,2,1,3,-1,1
1537921725692823,15,-5,-5,-2,-2,0,2,9
1537921725692823,-9,25,4,-2,-2,-3,-3,-10
1537921725692823,26,36,-3,-3,-2,-1,-4,-9
1537921725707782,-10,6,5,1,1,0,-2,-1
1537921725707782,-10,17,1,0,0,-2,-1,-2
1537921725714764,10,-6,-2,-3,-2,-1,0,9
1537921725714764,-4,-15,1,1,0,0,1,3
1537921725729723,2,1,0,-1,-2,-2,-1,-1
1537921725729723,10,-31,-3,-2,-3,-1,-3,-2
1537921725737702,-13,30,7,2,-2,-2,1,8
1537921725737702,-8,-9,1,1,0,-2,0,0
1537921725752662,5,-52,-9,-3,-1,0,-2,-2
1537921725752662,-17,15,0,0,-2,-2,0,4
1537921725752662,-10,-4,0,-1,0,1,-1,3
1537921725752662,7,18,7,3,1,-1,-1,-6
1537921725766625,4,-30,-3,0,0,-1,0,5
1537921725766625,1,-3,-2,-4,-2,0,0,-2
1537921725774603,-8,-15,1,-2,-1,-2,1,-6
1537921725774603,-1,27,2,0,0,-1,1,3
1537921725789563,20,39,3,2,0,0,-1,3
1537921725789563,-2,-110,-8,-5,-1,2,1,-4
1537921725797542,1,61,1,0,-1,-1,0,-2
1537921725797542,-12,-34,-1,-2,-1,1,1,3
1537921725812502,3,22,0,-1,-2,-1,0,1
1537921725812502,3,18,3,2,3,-2,0,1
1537921725813499,9,-46,-1,-1,0,1,1,6
1537921725813499,10,45,9,4,0,-2,-5,-9
1537921725826465,-13,-52,11,-8,-8,0,3,9
1537921725826465,-51,127,14,-4,-4,-1,-6,-15
1537921725842422,-44,-94,-27,-3,7,3,3,0
1537921725842422,12,26,-17,-25,-9,-3,-4,-13
1537921725849404,23,33,15,25,6,2,5,18
1537921725849404,-15,-110,24,0,-2,-2,-4,-6
1537921725857382,37,127,41,-8,-3,4,7,12
1537921725857382,-9,-48,32,-12,-3,-2,-1,-8
1537921725872342,-78,-87,-53,30,8,-2,-6,-8
1537921725872342,23,45,-111,10,5,6,11,21
1537921725873340,57,-45,53,3,-5,-3,-8,-27
1537921725873340,-60,-35,44,-5,0,-3,-6,-28
1537921725886305,85,75,3,-19,-10,-3,-3,-2
1537921725886305,-107,-91,26,-6,-5,-5,-2,2
1537921725902262,55,76,-60,1,-3,-4,0,9
1537921725902262,-3,49,25,-8,-4,-2,3,32
1537921725909244,19,24,-27,-11,-1,-3,-2,5
1537921725909244,-26,-54,11,-14,-5,-5,-8,-33
1537921725917222,-11,60,7,6,0,0,0,4
1537921725917222,75,-27,-31,11,3,-1,-1,23
1537921725932182,59,51,30,-13,-2,-1,6,20
1537921725932182,118,2,-36,2,3,4,1,-20
1537921725940161,-7,-98,16,6,4,0,2,3
1537921725940161,-50,-36,-26,10,0,2,-4,-19
1537921725948140,40,34,12,-3,2,2,0,-20
1537921725948140,24,-57,1,-3,-8,-2,0,9
1537921725954124,-33,75,24,5,3,0,-3,-6
1537921725954124,27,-80,-14,6,2,4,7,7
1537921725969084,-16,-12,-32,-9,-3,3,0,-4
1537921725969084,-30,-50,27,7,-1,0,0,4
1537921725977063,9,55,-13,-5,-6,-5,-10,-26
1537921725977063,0,30,-9,-2,1,3,2,18
1537921725992022,-54,-35,13,0,-1,0,-3,-12
1537921725992022,53,29,12,2,1,-3,-4,-3
1537921726000001,4,-27,-9,-6,-3,0,1,13
1537921726000001,10,19,-14,2,2,-1,-2,-5
1537921726006982,5,-13,19,4,4,-1,-1,-1
1537921726006982,23,-18,-4,-8,-2,-2,-2,-6
1537921726013964,-50,-89,-19,0,0,1,-2,-1
1537921726013964,-12,74,-3,-6,-6,-3,-4,-10
1537921726028924,19,-6,-11,-1,-4,-4,-3,-5
1537921726028924,-18,-6,12,-2,-1,1,1,12
1537921726037900,0,7,4,-5,-1,-1,-1,1
1537921726037900,-1,-63,-3,2,0,0,1,-1
1537921726051863,-17,7,-2,-5,-1,-2,-1,2
1537921726051863,6,44,4,2,2,0,-1,2
1537921726059841,28,22,-1,0,1,-2,1,-1
1537921726059841,0,2,0,3,0,-1,1,6
1537921726074801,-34,-68,-2,-1,-2,0,-1,-7
1537921726074801,13,101,9,0,-1,1,0,7
1537921726075799,6,75,-7,-4,-4,-3,-2,0
1537921726075799,-4,33,-2,4,2,2,1,9
1537921726089761,-49,3,5,3,0,-1,-3,-17
1537921726089761,16,98,6,2,0,-2,1,8
1537921726097740,-3,-7,-9,-7,-7,-4,-6,-17
1537921726097740,38,-34,-4,1,-2,1,1,4
1537921726111702,31,33,10,0,3,-1,1,9
1537921726111702,-15,6,-1,-2,1,-1,-1,-5
1537921726119681,-9,-6,-1,1,1,-2,0,5
1537921726119681,-10,-43,-3,-3,-2,-1,0,-5
1537921726134641,0,3,0,-2,-1,0,-2,-5
1537921726134641,-4,-21,1,0,0,-1,0,7
1537921726135638,-10,-38,-4,-3,-1,0,2,8
1537921726135638,0,24,4,3,-1,-3,-3,-4
1537921726165558,1,28,-4,-3,-3,1,-1,1
1537921726165558,-3,-2,-2,-2,-2,-3,-1,-1
1537921726167553,5,-9,-2,0,0,0,-1,2
1537921726167553,-5,9,0,-5,-1,-3,0,1
1537921726180518,-1,2,2,0,-1,0,0,-1
1537921726180518,15,-19,0,0,0,1,2,2
1537921726182513,-10,-26,-7,0,-2,0,-1,-5
1537921726182513,-10,-30,-4,-4,-1,-1,1,-2
1537921726203457,1,-3,3,-1,-2,-5,-1,0
1537921726203457,-8,4,-2,-2,0,-1,1,1
1537921726204455,12,-2,1,0,1,1,3,14
1537921726204455,-33,0,-7,-3,-3,-1,-2,-19
1537921726216422,10,21,2,4,-1,-2,-1,4
1537921726216422,-17,-4,-4,-4,0,0,-2,-5
1537921726225399,25,64,6,2,-1,-2,0,3
1537921726225399,-14,-72,-4,1,1,1,2,7
1537921726240359,-39,71,-6,-7,-3,-3,-4,2
1537921726240359,-14,-19,3,1,1,1,8,12
1537921726242354,-25,18,-31,-19,-4,-1,-11,-38
1537921726242354,-20,102,29,8,6,7,8,34
1537921726263297,38,-84,-85,-10,-3,0,-1,-4
1537921726263297,-31,53,-9,12,2,1,-6,-12
1537921726264295,102,91,56,-16,-5,0,8,19
1537921726264295,17,107,-47,24,8,1,6,3
1537921726277260,77,106,73,16,2,2,5,-1
1537921726277260,60,60,-26,-40,-14,-5,-6,-12
1537921726285239,-16,-128,-38,16,7,10,11,-18
1537921726285239,104,-58,14,-6,-3,0,-5,-20
1537921726301197,-26,10,-35,10,8,0,11,43
1537921726301197,69,7,86,14,-2,-8,-7,-13
1537921726303192,-1,52,14,2,1,-4,0,24
1537921726303192,-74,-128,-50,-27,-14,-5,-11,-29
1537921726323137,6,1,-27,-3,-3,1,-2,-10
1537921726323137,-28,82,72,-24,-11,-4,-9,-15
1537921726324135,-71,-45,-75,1,9,1,3,8
1537921726324135,5,15,44,16,5,-2,1,23
1537921726337100,3,43,-12,5,1,-2,-8,-66
1537921726337100,-97,-122,-32,7,5,5,3,-7
1537921726346076,52,127,17,0,-9,-7,-9,4
1537921726346076,-58,-35,-14,-18,-6,-2,1,-3
1537921726361036,-6,-95,1,-3,-5,1,-4,-2
1537921726361036,0,-17,14,7,11,0,1,17
1537921726362033,-17,-61,-8,15,7,0,1,-4
1537921726362033,91,29,-37,-12,-8,-5,-6,2
1537921726382977,5,97,45,-15,-8,-3,-3,14
1537921726382977,42,39,-64,10,-1,4,4,5
1537921726384972,-53,-128,-28,0,-5,-2,-7,-7
1537921726384972,35,127,55,9,4,-2,-2,13
1537921726396940,-43,-83,9,0,-1,2,2,0
1537921726396940,13,17,-20,16,10,3,5,9
1537921726405916,10,28,21,-17,-7,-5,-3,-2
1537921726405916,-17,17,2,1,0,-1,0,-3
1537921726421874,-29,8,1,-2,3,1,-2,1
1537921726421874,-4,-17,-5,-7,-2,-2,2,8
1537921726423868,-6,30,16,-1,1,-1,-2,-9
1537921726423868,-28,-29,-4,-3,-2,-2,-7,-7
1537921726442818,7,-14,3,-6,-1,1,-3,4
1537921726442818,-19,2,-2,-2,-2,-4,-3,-2
1537921726444812,18,75,15,7,-1,1,1,7
1537921726444812,8,-69,-10,1,1,3,3,-4
1537921726456780,4,68,11,-2,-1,-5,-2,-3
1537921726456780,-7,-32,-11,-4,-1,0,3,0
1537921726465757,6,-41,5,3,-1,3,-1,-4
1537921726465757,14,103,12,4,1,-2,-2,3
1537921726480716,-21,-72,-9,-6,-4,-2,-3,-9
1537921726480716,33,-5,1,4,-1,2,2,12
1537921726481714,4,-8,1,-7,-2,1,-1,-2
1537921726481714,-45,-25,8,1,0,2,3,6
1537921726502657,14,-42,2,0,0,-1,-4,-18
1537921726502657,36,63,-6,-3,-2,0,0,8
1537921726504652,-10,-40,4,-1,-3,-1,1,3
1537921726504652,-1,-8,-1,0,0,0,0,3
1537921726516620,1,-21,2,3,0,0,2,15
1537921726516620,-18,15,-2,-2,-2,-1,-1,-7
1537921726525596,-3,-10,3,3,-1,-1,0,-5
1537921726525596,8,-11,-1,-1,0,-2,-2,-9
1537921726540556,6,40,7,1,1,2,1,11
1537921726540556,-7,-40,-7,0,-1,-2,-4,-5
1537921726542551,19,29,-6,-6,-1,0,-4,-4
1537921726542551,-3,-14,-2,0,1,0,0,-1
1537921726563495,5,32,2,-1,-2,-1,-4,3
1537921726563495,-18,23,5,2,-1,0,1,1
1537921726564492,-14,-65,-4,-1,-4,-1,-2,-1
1537921726564492,7,36,3,-3,-2,-3,-2,-5
1537921726576460,-20,28,1,0,0,-3,0,3
1537921726576460,19,10,0,1,0,-3,0,-5
1537921726585436,5,-48,1,2,1,-2,2,5
1537921726585436,6,72,-7,-9,-5,-1,-4,-11
1537921726600396,-28,-76,-5,-5,-4,1,1,2
1537921726600396,-4,21,2,0,0,-1,1,2
1537921726602391,-3,4,1,-1,-1,-2,-5,-5
1537921726602391,-21,-27,2,0,-1,1,0,-4
1537921726630317,26,13,0,0,0,1,1,6
1537921726630317,3,-15,-3,-4,-1,-1,0,-8
1537921726632312,3,35,3,1,3,1,0,2
1537921726632312,3,-6,1,1,-2,-1,0,5
1537921726636300,-8,-26,-4,-2,-2,-1,1,-2
1537921726636300,-8,-7,-4,-1,-2,-1,-4,-3
1537921726645277,20,89,10,3,0,0,1,2
1537921726645277,-30,-103,-15,-6,-3,0,0,-6
1537921726660237,17,26,7,-1,0,1,-2,5
1537921726660237,-9,2,3,3,-1,-2,-1,-2
1537921726662232,-6,-107,-6,-2,-3,1,0,0
1537921726662232,17,81,-6,-5,-3,-2,-4,-15
1537921726683176,-9,-7,-1,-1,2,1,0,4
1537921726683176,2,-6,0,-2,0,1,-3,-18
1537921726684173,32,112,19,4,2,-1,3,20
1537921726684173,-76,-89,-13,-5,-3,-3,-6,-13
1537921726697138,-6,25,-6,-1,-2,-2,-3,-5
1537921726697138,16,9,-2,0,0,1,0,5
1537921726706114,2,20,3,0,1,0,2,5
1537921726706114,18,-1,8,2,0,1,0,4
1537921726721074,6,10,2,0,-2,-3,-2,-1
1537921726721074,-9,0,-3,0,1,-1,0,4
1537921726722072,-28,-21,-7,-3,-1,1,-2,-10
1537921726722072,-13,-77,1,0,2,0,1,4
1537921726743015,8,52,-4,-1,-1,0,-2,-5
1537921726743015,-7,77,1,1,-1,-1,-1,1
1537921726745010,-26,-58,-13,-6,-3,-2,-4,-13
1537921726745010,27,66,9,2,1,-1,1,3
1537921726756977,-7,8,3,0,1,-2,3,-1
1537921726756977,-8,-18,-1,0,-2,-2,-1,0
1537921726765954,-6,-41,-11,-3,-1,0,-2,-3
1537921726765954,22,6,3,1,0,-2,-1,-6
1537921726780913,45,22,5,2,1,-2,0,13
1537921726780913,-17,-32,-5,-4,-1,-2,-1,-4
1537921726782908,-6,0,-2,-3,0,-3,-2,-6
1537921726782908,17,-4,1,1,1,0,1,8
1537921726802854,-5,7,1,0,-3,-1,-1,-1
1537921726802854,20,2,0,1,-1,-1,2,4
1537921726804849,-7,-24,0,0,-1,1,2,0
1537921726804849,29,18,-6,-2,-3,-1,-1,3
1537921726825793,-25,-24,2,-2,0,0,-1,-7
1537921726825793,-4,-22,-5,-2,-1,-1,-3,3
1537921726826791,6,26,2,-1,-2,-2,1,-1
1537921726826791,5,5,6,2,1,-2,1,6
1537921726839756,-9,12,-4,1,-1,-2,-2,-2
1537921726839756,6,23,2,-2,0,-3,-2,-4
1537921726846737,-24,27,-5,0,-1,-1,-1,-1
1537921726846737,16,40,6,3,1,-1,0,5
1537921726862695,-43,17,-5,-2,0,0,-3,-8
1537921726862695,-16,4,-1,-5,-3,-1,0,7
1537921726864689,29,69,6,4,2,0,-1,-5
1537921726864689,-19,-33,-8,-7,-5,-1,0,-5
1537921726885633,7,-28,-1,1,1,1,-1,-4
1537921726885633,-11,-2,-2,-2,-4,-1,-3,1
1537921726886631,-5,13,0,-2,1,-1,-2,-5
1537921726886631,9,22,6,4,-1,2,2,4
1537921726899596,12,14,2,3,1,-2,-2,-1
1537921726899596,0,-65,-6,-4,-3,1,0,0
1537921726906577,-11,10,5,-1,-2,0,1,3
1537921726906577,-40,-57,-8,-5,-3,-2,-2,-2
1537921726923532,-7,-2,-6,-4,-2,-2,-1,0
1537921726923532,12,13,4,5,2,1,1,5
1537921726924530,-6,-53,-5,-7,-4,-2,-3,-5
1537921726924530,-1,19,2,-1,-1,0,-1,-2
1537921726945474,-3,19,1,1,-3,1,1,2
1537921726945474,10,53,5,2,2,0,0,-1
1537921726947468,-6,-31,-6,-2,-1,-3,-2,-4
1537921726947468,11,31,2,2,2,0,-2,-9
1537921726960434,0,-23,-6,-2,0,1,1,-4
1537921726960434,10,7,4,2,0,-1,0,-6
1537921726968412,14,1,2,0,-2,0,0,5
1537921726968412,-2,-21,-5,-5,-3,-2,-3,-1
1537921726983372,13,-51,-2,0,0,-1,-2,-5
1537921726983372,-18,-19,-1,2,0,-1,-2,2
1537921726984369,8,49,-1,-2,-1,-1,-1,6
1537921726984369,-2,59,4,2,1,0,-2,-2
1537921727005313,2,-57,3,3,-1,-1,1,6
1537921727005313,-2,23,-15,-11,-6,-3,0,-8
1537921727007308,-14,7,-1,-1,-2,0,-1,-4
1537921727007308,-7,14,0,3,1,3,1,17
1537921727020274,0,30,9,1,2,-3,-3,-11
1537921727020274,-1,-61,-4,1,0,1,1,2
1537921727027255,-14,-32,-7,-5,-3,0,-4,-7
1537921727027255,9,28,5,-1,0,-2,1,2
1537921727043212,-7,28,0,0,-2,-2,-1,3
1537921727043212,3,-51,3,3,2,0,0,1
1537921727045207,4,5,1,2,2,3,0,2
1537921727045207,-18,-26,-1,0,-2,-1,-1,-2
1537921727065153,-3,-13,-2,-1,-5,-1,1,1
1537921727065153,-3,27,-5,-3,-2,0,-1,0
1537921727067148,16,27,3,2,0,-3,1,-3
1537921727067148,7,-37,-7,-1,-1,-1,-1,-2
1537921727080114,-5,10,4,-2,-1,1,-1,-2
1537921727080114,0,-17,-4,-5,-2,1,-1,3
1537921727087095,3,3,1,2,0,-1,0,6
1537921727087095,-8,7,1,-2,2,1,0,-7
1537921727103052,-8,18,-1,-5,-3,-1,-1,-4
1537921727103052,3,-14,2,5,1,-3,0,4
1537921727105047,-27,-2,4,4,-4,-2,-2,-11
1537921727105047,15,60,-9,-3,0,-2,-2,7
1537921727125991,-6,-78,-6,-6,-1,-1,-1,-2
1537921727125991,-8,13,-6,-13,-8,-1,0,-2
1537921727126989,13,-7,8,4,14,2,2,8
1537921727126989,-10,-1,9,6,1,3,1,-4
1537921727138956,6,43,-2,5,0,2,1,2
1537921727138956,6,2,-4,-4,-4,0,-1,-1
1537921727147932,26,79,2,-7,-11,-3,1,8
1537921727147932,-24,-37,0,5,13,1,-2,-8
1537921727162893,3,7,-3,-1,1,-2,-1,-1
1537921727162893,-1,12,8,7,2,0,-1,-7
1537921727164887,-4,-3,-13,-10,-6,-2,0,-2
1537921727164887,16,-28,9,-6,-8,-4,1,2
1537921727185831,-5,10,-6,-1,-1,-1,-4,-3
1537921727185831,-9,15,-4,2,3,0,-1,-1
1537921727187826,7,4,6,3,-1,0,0,1
1537921727187826,7,-3,-2,2,-2,-2,-2,0
1537921727198796,-2,8,-4,-6,-3,-4,-3,1
1537921727198796,9,32,12,5,2,-2,-3,-1
1537921727207772,-6,-58,-9,-1,4,0,0,0
1537921727207772,7,-16,-1,-3,-4,1,-1,1
1537921727222732,-3,-6,-3,-3,-2,-1,-2,-2
1537921727222732,-9,43,-2,-6,-3,-3,-3,-3
1537921727224727,-5,-4,-1,0,-1,-2,-2,-2
1537921727224727,5,54,-3,0,-1,-1,0,-2
1537921727245671,5,-25,-1,-1,1,1,1,3
1537921727245671,4,-14,-1,0,1,2,1,-1
1537921727246668,-6,-5,-1,-2,0,-2,-2,-3
1537921727246668,20,9,-2,-3,-4,-1,-2,-13
1537921727259634,7,20,11,4,1,1,2,2
1537921727259634,-2,-22,-8,-1,-2,-1,0,-2
1537921727268610,-8,-6,-6,1,0,-1,-3,-9
1537921727268610,-4,11,-3,-3,0,-1,0,3
1537921727282572,8,12,7,0,1,0,-4,-9
1537921727282572,13,-38,-1,-1,-1,1,-2,-8
1537921727289554,-2,-6,-1,1,-1,-1,1,4
1537921727289554,-4,-3,1,1,0,-1,0,0
1537921727305512,3,15,3,2,0,0,0,1
1537921727305512,-10,-10,-2,0,0,0,0,4
1537921727307507,5,16,0,-2,-1,-1,0,2
1537921727307507,-4,-4,-3,0,-2,-1,-4,-1
1537921727319475,-8,-17,-5,-2,-2,0,1,1
1537921727319475,-1,6,-3,-1,-2,-1,-2,-1
1537921727328450,3,-14,1,-1,-1,1,-1,0
1537921727328450,-4,8,2,0,-2,-1,-1,1
1537921727343409,7,-25,-2,1,0,-1,1,-3
1537921727343409,3,14,2,-1,0,2,0,-2
1537921727344407,0,28,2,-1,0,0,-1,-3
1537921727344407,-6,-40,-2,-6,-3,1,1,1
1537921727366348,3,19,4,1,-4,1,-1,0
1537921727366348,0,-3,0,-3,-3,-1,-1,0
1537921727367346,0,-4,-1,-2,-3,2,-2,-2
1537921727367346,-3,6,-2,-1,-4,1,1,1
1537921727379313,3,-1,0,-1,-2,1,-1,2
1537921727379313,-2,-3,4,2,0,0,3,16
1537921727388290,-48,-19,-2,-1,-3,-1,-1,-10
1537921727388290,-54,-14,9,-14,-5,-3,-7,-18
1537921727403250,75,94,59,-13,-10,-9,-6,6
1537921727403250,91,-3,-50,-5,2,1,5,32
1537921727409234,92,52,65,-1,1,-6,-11,-12
1537921727409234,-26,10,-116,-4,2,9,23,70
1537921727425191,44,-104,41,-5,3,2,16,-11
1537921727425191,-79,-12,41,-24,-9,10,-3,-43
1537921727427186,122,74,-91,3,-7,-9,2,64
1537921727427186,-6,100,63,5,-1,-11,-36,-66
1537921727439154,13,-70,-81,23,4,-12,-1,37
1537921727439154,-67,108,75,76,17,-11,1,-2
1537921727448130,-2,-101,-109,-52,-16,19,-2,20
1537921727448130,40,86,110,-24,-13,-26,-20,-48
1537921727463090,-31,-14,-128,15,-3,-15,0,8
1537921727463090,7,-124,26,51,20,-12,-6,-8
1537921727464087,-31,51,4,7,6,16,30,51
1537921727464087,-31,-40,-128,-1,-8,3,-6,-32
1537921727486028,24,78,109,-71,0,15,22,53
1537921727486028,-18,-68,-128,-24,-6,15,8,-35
1537921727487026,18,106,127,23,5,-52,-43,-28
1537921727487026,79,-25,120,-22,1,22,24,61
1537921727498994,-128,-103,-41,46,13,13,-12,-81
1537921727498994,127,123,16,-27,-14,7,10,29
1537921727507970,-103,-12,-21,-17,-3,15,4,-44
1537921727507970,-78,37,2,4,-13,-5,6,22
1537921727522930,-32,-14,-11,-16,-26,-7,-11,-4
1537921727522930,-42,-27,-1,24,18,7,3,27
1537921727524926,1,-24,-9,17,4,3,2,-25
1537921727524926,47,-7,-7,3,-4,-19,-5,-1
1537921727545869,-39,16,24,6,4,9,7,13
1537921727545869,-19,12,-2,-22,-12,-9,-10,7
1537921727546866,-45,-90,9,6,-1,-10,-12,-28
1537921727546866,12,-5,-16,26,19,10,8,8
1537921727558834,5,-6,0,-5,5,-5,-5,-5
1537921727558834,3,-16,2,-18,-4,-8,-5,-5
1537921727567809,3,-11,7,2,6,0,4,1
1537921727567809,9,-26,-16,-1,1,0,-2,3
1537921727582770,19,30,-17,-2,-1,0,-2,-1
1537921727582770,-12,5,13,-14,-8,-12,-11,-23
1537921727584764,15,11,-7,1,-1,7,7,2
1537921727584764,-25,-32,-17,6,2,0,0,-9
1537921727606706,17,42,7,1,-3,-5,-6,-1
1537921727606706,13,4,5,-4,-3,5,2,5
1537921727608701,-21,-3,3,2,0,0,6,9
1537921727608701,-6,-25,-12,7,3,-1,-1,-7
1537921727619671,3,21,16,7,2,-2,-10,-10
1537921727619671,-21,-5,1,-6,-5,-3,-3,0
1537921727635629,1,-9,-12,-3,-1,0,0,2
1537921727635629,25,-8,-2,2,0,-4,3,5
1537921727642611,2,15,1,3,2,1,0,-1
1537921727642611,-5,-4,-2,-9,-4,-2,-5,-8
1537921727649592,5,-2,-2,1,-2,-3,0,-3
1537921727649592,6,-9,-8,-1,0,1,1,1
1537921727665549,-2,3,2,-6,-3,-3,-4,-6
1537921727665549,6,0,0,-2,0,-1,0,3
1537921727666546,-8,-6,3,2,0,-3,0,0
1537921727666546,8,1,-4,0,-1,-2,-3,0
1537921727679511,11,-7,-5,-2,-1,2,0,0
1537921727679511,-3,6,2,-4,-3,-3,-1,1
1537921727688488,-10,-2,-1,-2,0,0,0,0
1537921727688488,9,-4,-4,0,-1,0,-1,-5
1537921727702450,9,16,0,1,0,-3,-3,1
1537921727702450,-6,-1,3,2,-1,1,-3,-1
1537921727709431,1,-5,-2,-4,-2,1,-1,-4
1537921727709431,5,-3,-5,-1,0,0,0,2
1537921727727384,1,7,-1,1,0,-1,1,1
1537921727727384,-4,0,-3,-6,-2,-4,-2,0
1537921727728381,-2,-3,-4,-3,-2,-1,-2,-2
1537921727728381,-3,-6,1,8,3,0,2,0
1537921727748327,-2,6,0,0,-2,0,1,1
1537921727748327,-1,-1,-3,-2,0,-3,-4,-4
1537921727749325,-3,-1,3,1,-3,-2,0,-1
1537921727749325,-4,-6,-3,-3,0,0,-2,1
1537921727762290,16,5,0,1,-1,-1,-4,1
1537921727762290,7,6,3,2,-1,0,6,9
1537921727769271,-64,-26,-4,-2,-2,-2,-11,-15
1537921727769271,78,15,-2,2,-1,0,-1,-10
1537921727785229,-24,4,-2,-17,-5,-1,6,23
1537921727785229,60,53,41,-18,-6,1,16,42
1537921727787224,-45,-60,-61,1,-1,-1,-13,-28
1537921727787224,-7,39,23,-5,0,2,0,15
1537921727808167,-101,-28,-4,-30,-6,12,13,0
1537921727808167,-45,15,20,47,11,-16,-8,-39
1537921727809165,121,20,-54,-4,5,27,15,58
1537921727809165,-103,-75,36,-10,3,-10,1,-22
1537921727822131,80,71,-68,24,6,6,-13,-11
1537921727822131,2,-76,68,25,-2,-33,-16,-38
1537921727829112,70,117,76,26,13,13,10,67
1537921727829112,-58,-42,-44,13,7,20,3,-4
1537921727846066,4,43,72,4,0,6,13,13
1537921727846066,57,-25,-124,-12,-10,37,10,33
1537921727847063,-61,50,-92,25,-2,-44,-12,-31
1537921727847063,50,102,105,-15,-3,8,-4,18
1537921727868007,65,-15,4,-16,9,5,1,16
1537921727868007,-105,-69,-40,-58,-17,-35,-42,-55
1537921727870002,34,40,28,-54,-16,32,22,12
1537921727870002,37,-100,-128,93,25,-14,-14,-22
1537921727881970,-15,112,95,8,10,11,18,-4
1537921727881970,57,57,27,40,16,19,11,18
1537921727888951,1,-93,-61,-2,-2,-4,-11,-76
1537921727888951,36,42,46,-32,-29,-22,-2,12
1537921727905906,104,-9,-10,-8,-17,-6,-11,2
1537921727905906,19,91,36,-16,-1,4,5,27
1537921727906903,-66,-71,34,5,-10,-14,-3,-9
1537921727906903,87,12,-19,4,7,4,4,4
1537921727927847,-43,-43,0,12,-2,-11,-5,-5
1537921727927847,-33,-7,-49,-27,-8,-4,-6,-3
1537921727929842,-8,-10,45,24,6,2,2,9
1537921727929842,-21,10,5,-32,-1,0,3,-1
1537921727941810,-94,-70,-53,-9,7,-18,-18,-18
1537921727941810,17,-39,16,11,10,3,1,-6
1537921727950786,53,-1,-9,4,8,4,-2,-4
1537921727950786,-20,32,14,5,-3,-3,0,-1
1537921727965746,14,-21,-3,7,-4,-4,-2,2
1537921727965746,-22,-9,-34,-7,-7,13,9,3
1537921727966744,-9,12,13,-22,-12,-12,-8,-8
1537921727966744,-44,15,4,-25,-8,3,5,16
1537921727987687,-37,-58,-39,17,7,4,3,-18
1537921727987687,11,14,17,2,1,2,-6,-4
1537921727989682,15,40,41,-12,-5,-8,3,15
1537921727989682,-21,-13,-17,-7,-4,0,0,3
1537921728001650,18,15,-7,3,-2,-2,-4,-10
1537921728001650,31,25,-9,-7,-4,2,6,14
1537921728010626,-9,-10,23,-6,-3,-4,-2,-4
1537921728010626,26,1,-16,8,1,1,-4,-5
1537921728026583,67,15,11,-2,-5,-7,-7,-1
1537921728026583,-42,-13,2,-2,1,-2,-3,-13
1537921728028578,56,19,2,1,3,0,1,3
1537921728028578,21,-12,3,-6,-1,0,-3,-21
1537921728048525,1,-3,-6,-2,-4,0,-1,19
1537921728048525,-2,-6,0,1,0,-2,-1,-7
1537921728049522,-21,-17,-13,2,3,-1,0,7
1537921728049522,-11,-5,-2,-1,0,0,1,-1
1537921728061490,-9,4,-2,0,-2,-2,1,1
1537921728061490,-14,-2,-8,0,-3,-2,4,1
1537921728070466,-31,-3,9,2,-1,-1,-5,-9
1537921728070466,0,-5,0,-4,0,1,1,4
1537921728085426,-32,-8,-3,0,-2,-4,0,-10
1537921728085426,15,-3,6,-3,-2,2,-1,1
1537921728087421,4,-2,-5,-1,0,2,3,0
1537921728087421,-37,-15,-6,-2,-4,0,-2,-3
1537921728108365,8,-2,-6,-3,-2,-2,-3,-5
1537921728108365,2,0,0,-2,0,1,3,3
1537921728109363,2,0,-5,-3,-3,-4,-2,-2
1537921728109363,-1,-5,-5,3,0,-1,-2,5
1537921728121330,-11,1,3,-1,-4,-3,-4,-10
1537921728121330,-2,-3,0,-2,-1,0,0,3
1537921728130306,-6,-1,1,1,-2,1,0,1
1537921728130306,-2,-2,0,-1,-2,-2,-2,-2
1537921728147262,-1,-2,-3,-4,-5,1,3,0
1537921728147262,4,1,2,0,-1,-1,0,-1
1537921728148259,-3,-7,-3,0,2,0,-2,2
1537921728148259,0,-3,-5,-2,-4,0,0,-3
1537921728168205,2,0,-2,-1,-2,-1,-3,0
1537921728168205,1,-2,-4,-1,0,0,1,1
1537921728169203,-6,0,-1,1,1,-1,-1,-1
1537921728169203,-1,0,1,1,1,2,1,2
1537921728182167,-3,-1,-1,-1,0,-1,-1,-4
1537921728182167,9,3,3,3,1,-2,-1,-1
1537921728190146,-2,-1,1,0,-1,1,1,-1
1537921728190146,3,-1,-1,0,-1,1,-2,-1
1537921728205106,-2,0,-3,0,-1,1,-1,-3
1537921728205106,-1,-3,-2,-3,-3,-2,0,1
1537921728207101,-1,-1,-2,-5,-4,-2,0,1
1537921728207101,1,-4,-1,0,-1,-1,-1,-3
1537921728228045,2,1,4,0,1,-2,-1,0
1537921728228045,-4,-5,0,-3,-1,-2,-2,1
1537921728230039,0,1,1,3,2,0,0,-2
1537921728230039,-2,-6,-3,-2,-4,-1,-1,-1
1537921728242008,-1,-2,-2,-1,-1,0,-1,-1
1537921728242008,0,-2,1,0,1,1,-2,-3
1537921728250984,-2,-3,0,-1,-1,-2,-1,0
1537921728250984,0,-2,-6,-1,1,0,0,-1
1537921728265944,0,3,3,-1,0,-4,-1,0
1537921728265944,-2,1,-3,0,0,-2,0,0
1537921728266941,-2,-3,-5,0,2,-2,0,0
1537921728266941,-1,2,3,2,1,0,-1,-2
1537921728287886,-1,-2,-2,-2,-2,-1,-1,-1
1537921728287886,-4,1,2,2,1,0,-1,-1
1537921728289880,-1,0,0,-3,-1,-1,-1,-2
1537921728289880,-1,-2,-2,-5,-3,-2,0,0
1537921728301848,1,-1,-2,-2,0,3,-2,-1
1537921728301848,-1,-3,2,0,0,0,-1,0
1537921728310824,2,-1,-3,-1,-2,-1,-1,-2
1537921728310824,-2,-2,-2,-3,-1,-4,-2,1
1537921728325784,-3,0,1,-2,0,1,1,-2
1537921728325784,-1,-2,-1,0,0,0,-1,-2
1537921728326781,-2,-5,-1,0,-2,0,-2,-3
1537921728326781,-3,0,0,-2,1,1,-1,-2
1537921728347726,0,-1,-2,2,-1,1,-2,-1
1537921728347726,0,0,-3,-1,0,-2,0,-2
1537921728349720,-1,0,1,1,-2,1,-1,0
1537921728349720,0,1,1,-3,-1,-1,0,-1
1537921728361688,2,-2,-1,0,1,0,1,0
1537921728361688,-2,-2,-1,-1,-1,0,-1,0
1537921728370664,0,0,-1,-2,-2,-1,-1,0
1537921728370664,-2,-3,-1,-2,-1,1,-1,-2
1537921728385624,-1,-1,-1,-1,0,-1,-1,-1
1537921728385624,-1,0,1,-1,-3,-2,-1,0
1537921728386622,-2,1,0,1,-1,0,0,-1
1537921728386622,1,0,0,-1,-2,-2,0,-1
1537921728407566,1,0,1,-1,-3,-2,-1,-1
1537921728407566,0,1,2,0,-3,1,-1,-1
1537921728409561,-2,-1,-3,-2,1,-2,-1,1
1537921728409561,-1,-3,-1,0,0,-1,0,-1
1537921728421529,-1,1,-2,-2,-1,0,-2,-1
1537921728421529,-2,0,-1,1,-1,1,-1,-1
1537921728430504,0,0,2,0,0,-1,-1,-1
1537921728430504,0,2,3,0,0,0,0,-1
1537921728444467,-2,-4,-3,-4,-1,-1,-1,-1
1537921728444467,1,0,0,0,0,-1,0,0
1537921728451449,1,-2,-2,0,0,0,-2,-3
1537921728451449,0,-1,-1,-1,-1,-1,0,-1
1537921728468402,1,1,2,-3,0,-2,-1,-1
1537921728468402,0,-2,-2,-3,0,-2,-3,-3
1537921728469400,0,0,-2,-2,-1,2,1,0
1537921728469400,1,0,-3,-1,-2,-2,-2,-1
1537921728490345,-2,0,4,2,-1,1,1,-1
1537921728490345,1,-1,-1,2,2,0,0,0
1537921728492339,-2,0,0,-1,0,-1,0,1
1537921728492339,-1,-8,-5,-3,-2,-1,-1,-2
1537921728505304,1,0,-3,-1,-1,-3,2,2
1537921728505304,0,-1,5,-3,-3,-2,-1,0
1537921728507299,-2,-8,-1,3,-1,0,-2,-3
1537921728507299,-1,1,-9,0,1,-1,-1,0
1537921728528242,-2,1,5,1,0,-2,-1,-2
1537921728528242,0,-1,-6,-1,0,-2,-1,-1
1537921728529240,1,-3,-2,-5,-2,-4,0,-3
1537921728529240,0,2,1,-1,-1,0,0,-1
1537921728550185,0,-1,-2,1,-3,-1,-2,-1
1537921728550185,-1,0,1,-1,-1,0,-1,-1
1537921728552179,-1,-1,0,-4,-3,-1,0,-1
1537921728552179,-1,-1,2,1,-1,-1,-1,0
1537921728565144,-2,0,-1,-1,-2,-1,-1,0
1537921728565144,2,-1,-2,0,0,-1,0,0
1537921728572125,-2,-3,-5,-1,-1,-1,-2,1
1537921728572125,-1,2,4,0,0,-1,-1,1
1537921728588082,1,-1,-4,-3,-2,-1,0,-1
1537921728588082,-2,-1,-1,-1,-2,-1,0,-3
1537921728589080,-1,0,3,4,2,0,1,-2
1537921728589080,1,3,2,-1,0,0,-1,0
1537921728611021,0,-1,-2,-1,-1,-1,-1,2
1537921728611021,-4,-5,-5,-1,0,-2,-1,-2
1537921728612019,-2,4,3,-1,1,0,0,1
1537921728612019,-1,-2,0,0,-1,1,0,-1
1537921728624984,-2,-5,-5,-2,-1,0,-3,-3
1537921728624984,0,2,2,-2,0,0,-1,0
1537921728631965,1,0,0,0,-2,0,-1,2
1537921728631965,0,-1,-2,-1,-1,0,-3,-3
1537921728647923,0,-2,-3,-1,0,0,0,0
1537921728647923,0,-2,0,-1,-2,-1,-1,-1
1537921728649917,0,-1,-1,0,-1,-1,-1,-1
1537921728649917,-1,-3,-1,-1,-2,-1,-2,-1
1537921728670861,0,1,1,-1,0,-1,-1,-1
1537921728670861,-1,0,0,-2,-1,-3,1,0
1537921728671859,-1,0,-2,-1,1,-2,-1,-1
1537921728671859,0,1,0,-2,-1,-1,0,-2
1537921728684824,-1,-2,-2,0,-1,1,-1,-1
1537921728684824,-2,-1,0,2,-2,0,0,0
1537921728691806,-2,-1,0,-2,-1,-1,0,1
1537921728691806,-1,0,-1,0,-1,0,-2,0
1537921728707763,-1,-2,2,0,0,-3,-4,-1
1537921728707763,-1,-1,-3,-1,-3,1,-2,0
1537921728709758,-2,-1,-3,-1,-3,-4,-2,-1
1537921728709758,-1,0,0,2,2,-1,0,1
1537921728730701,0,1,0,0,-1,0,2,-1
1537921728730701,1,-2,-2,0,-2,-3,-1,0
1537921728731699,-1,-2,-1,1,-1,0,-1,0
1537921728731699,0,-1,-1,-3,-2,-1,-1,-1
1537921728744664,-1,-1,-2,-1,-2,-1,-2,0
1537921728744664,0,1,1,-2,0,1,1,-1
1537921728751646,1,-1,0,-1,1,-1,0,0
1537921728751646,0,-1,1,-3,-3,-1,0,0
1537921728767603,-1,-1,0,-3,-1,-1,0,0
1537921728767603,-1,-1,-1,2,0,0,-1,1
1537921728769598,1,-1,-5,0,-3,1,-1,-3
1537921728769598,-1,0,0,-2,-2,0,-1,-2
1537921728790541,0,2,0,3,0,0,0,1
1537921728790541,-1,-2,-1,-4,-3,-1,1,-1
1537921728791539,0,-1,-1,-3,-2,-1,-2,-1
1537921728791539,-1,-3,-4,-3,-3,-2,-1,-3
1537921728804504,2,6,-1,-7,-4,-1,1,0
1537921728804504,-10,21,8,-17,-5,-2,3,6
1537921728811486,39,30,52,-14,-4,1,-2,7
1537921728811486,3,-4,-92,-35,-13,1,-9,-20
1537921728828440,58,44,89,15,8,5,11,4
1537921728828440,-35,12,-98,-13,-6,-3,-7,-4
1537921728829438,-36,-59,32,7,-3,-35,-25,-28
1537921728829438,-4,14,-18,35,14,11,15,21
1537921728851379,0,88,26,53,17,34,11,35
1537921728851379,38,-109,-74,58,31,32,15,-38
1537921728852377,97,51,112,87,12,-32,-4,34
1537921728852377,40,10,-44,33,-11,-42,-10,13
1537921728865341,-45,76,25,-69,-28,-51,-26,-46
1537921728865341,-36,36,79,-117,-44,11,3,39
1537921728872323,-71,-98,-128,-23,7,63,20,-13
1537921728872323,81,90,100,-23,9,50,13,20
1537921728887283,-23,-42,-76,-24,-20,-59,-23,2
1537921728887283,45,42,34,7,4,-37,-11,-22
1537921728888280,28,54,38,-71,-31,-64,-39,-18
1537921728888280,-9,-10,33,21,9,29,9,10
1537921728910221,-29,-114,-35,66,29,39,13,-1
1537921728910221,122,35,-7,36,18,30,9,-2
1537921728910221,-126,-47,-41,8,9,-1,3,-8
1537921728910221,25,46,47,-14,-5,-14,-10,-22
1537921728924184,0,3,-35,-27,-10,-3,-8,-16
1537921728924184,-37,27,18,8,-6,-2,1,16
1537921728932163,52,25,-2,15,10,26,18,2
1537921728932163,-66,24,45,-38,-18,-22,-19,-8
1537921728947122,53,-32,-17,-5,-5,11,9,9
1537921728947122,5,-58,-2,14,-5,-9,-3,6
1537921728948120,-28,45,23,2,-3,8,5,0
1537921728948120,9,-11,-13,14,5,-15,0,2
1537921728970061,14,4,-2,-3,3,4,1,6
1537921728970061,-41,-8,7,-2,8,-10,-7,-7
1537921728970061,26,-5,-24,-10,-7,0,1,6
1537921728970061,-37,-70,-43,8,7,4,3,-8
1537921728984024,3,-3,3,-10,-3,3,-3,0
1537921728984024,-28,-8,-7,2,3,-4,-4,-4
1537921728992003,-9,-14,-19,-7,-1,7,4,-1
1537921728992003,-5,-3,2,-4,-3,-1,-3,-5
1537921729006962,-18,-1,12,-3,-1,1,0,-6
1537921729006962,-3,8,2,-12,-7,-9,-5,-1
1537921729007961,13,16,8,22,9,6,0,-8
1537921729007961,-6,-16,4,3,2,1,3,-2
1537921729029901,15,-4,-21,-9,-4,-3,-1,0
1537921729029901,4,-13,-14,6,0,0,2,4
1537921729030899,11,4,4,-8,-2,4,4,3
1537921729030899,-7,-19,-15,-3,-3,-1,-1,0
1537921729043864,27,-10,-4,3,4,1,0,0
1537921729043864,1,21,13,6,-1,0,-1,-1
1537921729052840,-8,1,7,-4,-4,-2,-3,3
1537921729052840,-6,-6,-5,-3,-2,-3,-1,-5
1537921729067800,0,3,1,1,1,0,2,3
1537921729067800,-2,-1,6,4,-2,-2,-2,-2
1537921729067800,4,-2,-10,-5,1,1,0,1
1537921729067800,2,-15,-12,0,0,-2,1,-2
1537921729089741,-18,-7,1,-2,-3,0,-2,-1
1537921729089741,-11,-3,-1,1,-2,-3,-1,-4
1537921729090739,2,2,-1,2,0,2,1,1
1537921729090739,1,-1,1,-1,-2,-1,-1,2
1537921729103705,-8,0,5,3,2,0,-3,-3
1537921729103705,4,4,-2,0,-1,-3,-2,0
1537921729112681,13,4,-2,-6,-2,2,-1,-1
1537921729112681,-11,-7,0,-2,-2,-2,-2,-4
1537921729127640,-6,-3,-3,2,1,3,0,0
1537921729127640,0,-2,-1,1,0,0,0,0
1537921729127640,-3,-2,-1,-3,-1,-1,1,1
1537921729127640,-5,-3,-3,-3,0,-2,-1,-2
1537921729149582,-3,-2,-2,-4,-2,0,-1,-4
1537921729149582,-3,0,-1,1,1,-3,-2,-1
1537921729150579,4,0,4,5,2,1,3,4
1537921729150579,-9,-3,-1,1,1,0,1,-5
1537921729164542,-36,-9,-2,-1,0,1,-1,5
1537921729164542,-16,-8,0,0,-2,-2,-5,-7
1537921729172520,-20,0,-3,-5,-2,0,-2,-1
1537921729172520,21,-4,-3,2,-1,-2,-4,-3
1537921729187480,-3,4,0,-1,-1,1,-2,-8
1537921729187480,-18,0,-2,2,1,-1,3,3
1537921729188477,-4,-5,-1,1,-2,-1,2,2
1537921729188477,23,6,3,2,1,-2,3,6
1537921729209421,8,3,1,-3,0,-2,-4,0
1537921729209421,-16,-3,-3,-2,-1,-1,0,-9
1537921729210419,12,24,16,-7,-1,3,2,17
1537921729210419,25,-7,-10,6,1,-6,-5,-4
1537921729224381,-36,6,25,-14,-4,7,9,-4
1537921729224381,55,33,-14,4,0,-8,-4,21
1537921729232360,1,-23,-7,2,1,3,-8,-21
1537921729232360,44,52,49,4,4,6,6,-10
1537921729247320,75,24,-20,-1,-1,10,14,21
1537921729247320,-36,6,2,-3,-2,-1,-5,-6
1537921729248317,-26,65,95,-2,-11,-30,-12,14
1537921729248317,-70,-65,-92,5,-4,-12,-11,-16
1537921729270259,-10,30,66,11,1,-15,-20,-24
1537921729270259,0,-30,-91,-30,-1,59,26,18
1537921729270259,44,-24,33,36,5,-12,2,5
1537921729270259,-14,-68,-62,-49,-3,47,17,5
1537921729284222,-1,-5,91,-6,-13,-49,-38,-42
1537921729284222,78,81,90,80,24,-12,9,4
1537921729292200,-16,127,127,-26,-16,23,17,19
1537921729292200,18,-69,-61,13,4,33,4,-3
1537921729307161,8,90,29,-10,10,51,37,-3
1537921729307161,85,58,-67,-78,-34,-51,-42,12
1537921729308158,78,-60,-16,72,44,0,-2,-44
1537921729308158,41,92,125,12,1,-16,-6,-7
1537921729330099,-88,-8,-36,-41,-14,4,8,34
1537921729330099,-26,-99,98,41,3,-13,-13,-37
1537921729330099,86,-47,-34,-2,4,18,21,25
1537921729330099,-57,47,-27,-47,-23,-25,-31,-54
1537921729344062,-1,-106,-35,48,22,13,16,28
1537921729344062,-96,8,-38,-26,-15,0,-1,-23
1537921729352040,6,-33,-83,-20,-9,9,9,33
1537921729352040,56,30,47,2,-3,-17,-4,4
1537921729367000,31,33,-24,-32,-13,-5,8,27
1537921729367000,7,-75,-53,60,19,-8,-7,-17
1537921729367998,-35,-44,-69,19,1,-23,-10,-7
1537921729367998,-35,35,43,5,7,1,7,22
1537921729389939,76,69,-35,-13,-8,-8,-11,-8
1537921729389939,-2,-88,-5,3,4,11,11,6
1537921729390937,-72,34,24,-15,-9,7,-7,-16
1537921729390937,2,-24,-16,0,-2,-13,-1,20
1537921729403902,62,-1,-2,9,1,-11,-9,-7
1537921729403902,-29,26,47,-7,5,18,14,11
1537921729411880,-3,-9,-17,-28,-8,-2,-9,-27
1537921729411880,-9,-12,-22,-8,-7,-18,-6,-12
1537921729427838,-28,-44,-12,12,6,2,-6,-6
1537921729427838,7,44,39,-4,2,1,-5,-2
1537921729427838,-38,-20,-16,0,-2,-1,-2,-1
1537921729427838,1,-4,11,1,0,3,6,23
1537921729450776,-9,-8,-4,-1,-2,2,-1,-8
1537921729450776,-18,2,17,-7,-6,-4,1,-2
1537921729451774,16,26,-15,-18,-8,-7,-8,-5
1537921729451774,-42,-6,18,16,4,5,5,5
1537921729463742,-62,-26,3,3,-4,-7,-5,-6
1537921729463742,13,22,-1,-13,-6,0,1,6
1537921729472718,2,1,0,-2,1,2,1,-1
1537921729472718,30,10,8,2,-2,0,1,6
1537921729487678,-5,-21,-8,5,-1,-1,-3,-6
1537921729487678,-13,11,4,-7,0,-3,2,-2
1537921729487678,-19,5,1,-6,-3,2,1,-4
1537921729487678,-9,-8,6,5,3,-2,-2,0
1537921729509619,-2,0,1,4,2,-2,-2,2
1537921729509619,3,6,10,-6,-2,0,0,1
1537921729510616,-15,-4,-3,-6,-4,-4,-2,-5
1537921729510616,17,5,-3,1,1,-1,2,2
1537921729524579,8,-6,-2,7,2,0,-2,0
1537921729524579,-2,3,1,-10,-4,-4,-1,-4
1537921729532558,9,-3,-2,0,0,0,-2,0
1537921729532558,-3,2,4,3,1,1,1,-1
1537921729547517,6,-2,2,-1,-1,-2,-2,-2
1537921729547517,-8,0,1,-2,-3,0,0,0
1537921729548515,-2,2,-2,-3,-2,-2,-1,-1
1537921729548515,12,2,4,4,2,-1,0,0
1537921729571454,6,0,2,1,-1,-2,-2,1
1537921729571454,-2,3,-2,-5,-1,0,0,-2
1537921729571454,-12,-4,-4,-5,-2,0,-5,-4
1537921729571454,13,2,4,2,1,-1,-2,1
1537921729593395,-65,-3,4,-2,-1,-1,2,1
1537921729593395,8,-5,-12,3,2,-3,-5,-6
1537921729593395,-26,23,33,-3,-2,-2,-2,-8
1537921729593395,35,-18,-46,-3,1,1,4,8
1537921729607359,-6,-4,12,3,-4,-2,-4,-13
1537921729607359,14,4,9,6,5,1,4,9
1537921729608356,-23,-14,-18,-9,-3,-4,1,0
1537921729608356,5,17,23,-1,-1,-8,-7,-4
1537921729630296,1,-2,-24,-8,-2,-7,-1,5
1537921729630296,3,-14,2,-4,0,-1,-5,-4
1537921729630296,9,1,4,4,1,-4,-2,1
1537921729630296,17,0,0,-6,-2,-2,1,0
1537921729653236,13,0,-14,-1,-1,1,0,2
1537921729653236,-18,-2,12,-3,-1,-1,-4,-5
1537921729653236,22,-1,-10,-3,-1,-2,-1,-3
1537921729653236,4,8,14,6,1,0,-1,5
1537921729667198,14,0,1,0,0,2,2,-5
1537921729667198,-26,2,0,-5,-4,-1,0,3
1537921729668195,19,-6,-10,2,1,1,-2,3
1537921729668195,-18,1,9,-4,-3,-1,-1,-2
1537921729690137,19,-4,4,3,0,0,-2,0
1537921729690137,-3,6,-3,-3,0,-1,1,2
1537921729690137,25,5,5,-1,-1,-2,-1,1
1537921729690137,-28,-7,-1,0,-3,1,-1,-1
1537921729713075,40,8,4,4,1,-1,1,4
1537921729713075,-3,1,-15,-6,-1,0,1,3
1537921729714073,-34,1,4,-1,0,1,0,1
1537921729714073,-13,-5,-6,-4,-3,-3,-5,-15
1537921729727038,7,1,4,3,2,0,1,2
1537921729727038,12,5,11,2,-1,-2,1,5
1537921729728036,-17,-8,-3,0,1,-1,-1,-10
1537921729728036,-8,-1,0,0,-2,0,2,4
1537921729749976,-13,-6,-5,-4,0,-1,0,-1
1537921729749976,5,4,0,-2,-3,-2,-1,-2
1537921729750974,-5,-3,-8,-3,-3,1,0,2
1537921729750974,-8,1,-4,-6,-4,-1,-1,-2
1537921729772915,-4,5,26,12,2,-2,-3,-2
1537921729772915,-5,-9,-16,7,2,2,0,-5
1537921729773913,16,12,-4,3,1,-2,-2,3
1537921729773913,-25,-12,-12,-3,0,-2,0,2
1537921729786879,15,-12,0,-3,-2,0,0,0
1537921729786879,-4,4,-1,-4,-3,0,0,-1
1537921729787876,2,4,5,2,1,-1,-1,-2
1537921729787876,1,0,-1,0,-1,-1,1,0
1537921729809817,-3,3,-10,-5,-2,0,-3,-4
1537921729809817,0,-2,4,0,-1,-2,-3,-1
1537921729810815,1,-7,-2,-3,-1,0,0,1
1537921729810815,3,0,1,1,0,0,-1,-4
1537921729832755,-15,-3,-3,0,-2,-1,-3,-1
1537921729832755,8,1,2,-3,-1,-1,0,1
1537921729833753,1,-1,-2,-3,1,1,-2,1
1537921729833753,8,-2,2,5,1,1,-1,2
1537921729847716,-5,-2,-5,-3,-3,-2,-2,-4
1537921729847716,-8,0,2,-3,-1,-2,-1,-3
1537921729847716,-2,-6,-4,-1,-4,-2,-2,0
1537921729847716,0,1,3,2,1,2,1,-2
1537921729870654,-3,-1,-4,-3,-2,0,0,2
1537921729870654,3,2,1,1,0,1,-1,1
1537921729871652,4,-5,2,3,-2,-1,-1,-1
1537921729871652,1,-1,4,0,-2,-1,-1,-1
1537921729892595,0,2,-8,-7,-3,-1,-1,1
1537921729892595,-1,0,-1,-5,-2,-3,-1,-2
1537921729893594,-3,-2,0,6,4,1,1,-2
1537921729893594,0,1,4,6,3,0,0,-2
1537921729907556,-1,0,-3,-1,-1,-1,0,1
1537921729907556,0,-2,-4,-4,-4,-4,-2,-1
1537921729907556,0,-3,0,-4,-4,-1,0,-2
1537921729907556,3,0,-1,-4,0,1,-2,-1
1537921729929498,0,-1,-1,0,0,-6,-3,-2
1537921729929498,0,2,7,-1,1,1,0,0
1537921729930495,-2,-3,-5,-2,1,-2,-1,-1
1537921729930495,-2,-4,-3,0,0,0,0,-1
1537921729953432,-2,0,2,0,2,1,1,-1
1537921729953432,-2,-1,-1,0,-2,0,0,-2
1537921729953432,-1,1,0,0,-1,0,0,2
1537921729953432,0,1,-5,-3,-2,-1,0,0
1537921729966398,-1,-6,-3,-3,-1,-1,-3,-1
1537921729966398,1,4,6,3,-1,0,1,-2
1537921729974377,0,-3,-3,2,1,1,0,-1
1537921729974377,1,-3,-3,-2,-4,-2,-1,0
1537921729989337,-2,1,2,-1,-2,-2,-1,-1
1537921729989337,0,3,1,-3,-2,-1,1,-1
1537921729990334,-2,-4,-2,-1,-1,-1,-1,-1
1537921729990334,-2,-1,-3,-1,1,-1,1,2
1537921730013272,1,-1,4,0,2,1,0,-2
1537921730013272,-1,-2,-2,0,1,-1,0,1
1537921730013272,-1,-3,-3,-3,-4,-1,-1,-2
1537921730013272,-1,0,2,-5,0,-3,-3,-2
1537921730026238,0,0,1,0,-1,3,-1,-2
1537921730026238,0,-3,-8,-1,-1,-7,-4,0
1537921730035214,0,1,4,-2,-2,0,0,0
1537921730035214,-2,-1,-5,0,-1,0,-2,-1
1537921730050174,-3,-10,-8,1,-1,-1,-1,-2
1537921730050174,0,0,0,-1,0,3,0,-1
1537921730050174,1,1,-3,-1,-1,-1,-2,-1
1537921730050174,0,4,3,2,-1,-1,1,0
1537921730073113,1,3,2,-2,1,0,1,0
1537921730073113,0,-6,-4,-1,-2,2,-1,-1
1537921730074110,1,-1,0,-6,0,2,-1,-1
1537921730074110,0,-2,5,2,-1,-1,-1,-4
1537921730087076,1,-2,-1,2,0,1,0,1
1537921730087076,-3,-4,-1,-1,-1,0,0,-1
1537921730095054,-1,1,1,-4,-2,-2,1,1
1537921730095054,0,-2,-1,0,-1,0,-1,-2
1537921730111011,1,-1,-2,-1,-1,-1,1,-1
1537921730111011,-2,-2,-1,-2,-4,-3,-1,-2
1537921730112009,0,3,1,-1,-1,0,-1,0
1537921730112009,-3,-3,-4,-2,-1,1,0,-3
1537921730132953,0,-3,-3,2,1,0,-1,-1
1537921730132953,0,-2,-3,0,-1,0,-1,-2
1537921730133951,-2,-3,-2,-4,-3,-1,1,1
1537921730133951,0,0,3,4,1,-1,-2,-1
1537921730146916,0,1,0,-2,-3,-1,0,-2
1537921730146916,-2,0,-4,1,1,0,0,-3
1537921730154895,-2,0,1,2,-1,0,-2,-1
1537921730154895,-1,-2,-2,-3,-2,-2,0,1
1537921730170852,0,-1,-2,-4,-2,-1,-1,0
1537921730170852,2,0,-1,2,1,0,0,2
1537921730170852,0,-1,-3,-3,-1,-2,0,-4
1537921730170852,0,0,0,-1,-1,-1,0,-1
1537921730192793,-2,2,1,-2,-1,-1,-1,-1
1537921730192793,-2,-3,-2,-2,-1,0,-1,-1
1537921730193791,-1,-2,-2,-1,0,-1,-2,-1
1537921730193791,0,-1,1,2,-1,1,-1,1
1537921730206756,-2,0,1,-1,-3,-1,0,1
1537921730206756,0,2,1,0,0,1,-2,-2
1537921730214748,1,-3,-5,2,0,-1,-1,-1
1537921730214748,-2,1,-2,-2,1,-1,-2,-2
1537921730230691,0,0,0,1,-1,-3,-1,-1
1537921730230691,-1,1,3,-1,-1,-1,0,-1
1537921730231689,0,-1,-3,-5,-3,-1,-2,-2
1537921730231689,-2,-1,0,-3,-2,-2,-2,0
1537921730252633,-2,1,-1,-3,-2,0,-1,0
1537921730252633,0,-3,-1,0,0,1,-3,-1
1537921730253630,0,1,3,3,0,1,0,0
1537921730253630,-1,0,-2,1,0,-1,-1,-2
1537921730266595,-1,0,3,2,2,1,0,-1
1537921730266595,-1,-1,-2,-1,-2,-1,-2,0
1537921730274574,-2,0,-3,-3,-1,-2,-1,1
1537921730274574,0,-2,-2,-6,-4,-2,-1,-2
1537921730289534,-1,0,-3,-1,1,-1,-2,-1
1537921730289534,0,0,1,0,2,10,7,1
1537921730296516,-3,-6,-3,-3,-6,-5,-4,-4
1537921730296516,-3,1,0,0,-1,10,5,5
1537921730313470,31,6,1,5,4,12,15,14
1537921730313470,65,-5,-4,-1,-2,-8,-6,-11
1537921730314468,-42,9,8,11,18,49,25,24
1537921730314468,76,11,9,-15,-17,-66,-38,-18
1537921730336409,-111,-17,-4,-13,-17,-11,-21,-28
1537921730336409,53,31,29,-4,4,14,21,14
1537921730337407,-47,-13,-46,-2,7,28,6,1
1537921730337407,25,-37,23,-41,-40,-80,-89,-37
1537921730349374,75,63,16,20,-1,2,2,-6
1537921730349374,7,34,84,33,19,43,19,28
1537921730358351,-16,-86,-79,-19,-6,-7,-13,-53
1537921730358351,72,106,99,36,19,26,58,59
1537921730373311,4,-15,-114,4,3,4,-15,-40
1537921730373311,66,-8,65,43,8,-21,-6,6
1537921730374308,-27,49,80,0,-8,5,14,33
1537921730374308,40,24,-39,-3,8,13,5,-19
1537921730395252,-6,-17,-41,-85,-30,-18,2,44
1537921730395252,-52,-9,-76,-21,-8,3,-10,-24
1537921730397247,103,-102,22,58,18,-12,-2,1
1537921730397247,-47,19,78,19,-1,-4,5,10
1537921730410212,25,-18,-23,8,10,25,7,-17
1537921730410212,-68,-9,-42,-58,-16,-13,9,46
1537921730416196,20,38,-63,-34,-20,-60,-50,-29
1537921730416196,-52,6,46,17,17,38,11,-2
1537921730433150,-11,-60,23,47,22,31,21,4
1537921730433150,4,-4,-48,-5,-17,-72,-52,-9
1537921730434148,5,34,22,-9,-7,5,15,7
1537921730434148,-26,-11,-80,-19,-1,26,12,1
1537921730455091,-61,3,28,-11,-5,-2,0,5
1537921730455091,-24,-19,-4,-1,-1,13,3,-22
1537921730457086,36,46,12,5,0,-1,0,8
1537921730457086,0,-22,-36,-3,-2,3,3,-5
1537921730469054,29,3,32,11,3,0,-1,4
1537921730469054,-38,-17,-6,1,-5,-17,-7,-16
1537921730478030,-8,15,2,-10,-3,-5,1,-10
1537921730478030,-14,-35,-32,0,3,18,5,6
1537921730492990,-22,-2,19,6,1,-14,-4,-4
1537921730492990,14,16,-6,4,6,11,4,-2
1537921730493988,-1,-1,3,-8,-5,-1,3,8
1537921730493988,-61,-34,-21,2,7,20,0,-11
1537921730515929,43,22,13,6,-1,-28,-10,11
1537921730515929,0,-6,-9,-6,-3,5,3,-4
1537921730516926,-17,-9,11,2,2,5,3,-3
1537921730516926,29,-2,-17,-1,-3,3,3,2
1537921730529891,-9,1,-1,-7,-2,-6,-2,-1
1537921730529891,-6,-10,-1,0,3,8,5,-4
1537921730536873,-17,1,4,0,-2,5,-5,-6
1537921730536873,5,-4,-16,-6,-4,-5,1,1
1537921730552831,-19,3,9,3,2,4,-2,1
1537921730552831,0,-3,-1,0,-2,-3,-1,-8
1537921730554825,12,4,2,0,1,8,1,6
1537921730554825,-17,-8,-10,2,0,-4,2,-2
1537921730575769,24,3,3,-4,-5,-7,-4,-2
1537921730575769,4,-3,0,-2,-2,4,3,-1
1537921730576767,6,3,2,1,2,0,0,1
1537921730576767,12,-6,-4,1,2,1,2,6
1537921730589732,2,3,4,-1,2,16,12,-2
1537921730589732,-10,0,-5,-5,-6,-20,-14,-5
1537921730596713,12,4,3,2,0,-9,-8,0
1537921730596713,-25,-11,-8,-1,-3,-3,5,-1
1537921730620650,29,7,0,-1,-1,1,-2,4
1537921730620650,5,-1,0,0,3,20,9,0
1537921730621647,-41,-11,0,-2,-5,-14,4,0
1537921730621647,-6,-2,-4,1,-3,-18,-13,-6
1537921730635610,9,0,-1,-3,-1,3,-1,-4
1537921730635610,4,-1,-2,1,1,9,6,6
1537921730636608,-43,-9,1,0,1,-4,-4,0
1537921730636608,-1,-6,-9,-4,-1,11,3,-5
1537921730649572,52,11,4,1,-2,-9,-3,8
1537921730649572,-89,-24,2,4,2,5,1,-4
1537921730656553,91,18,-1,-1,-5,-15,-5,-5
1537921730656553,21,13,26,-30,-16,-10,-7,5
1537921730673508,-97,-49,-2,3,3,2,-1,-21
1537921730673508,28,68,2,1,2,2,1,10
1537921730674505,4,-46,33,3,-1,-1,-4,-2
1537921730674505,-104,-2,75,17,-3,3,-5,-38
1537921730695449,102,80,-60,-50,-16,10,14,49
1537921730695449,30,-52,74,56,29,36,16,7
1537921730697444,44,18,-61,30,18,15,26,33
1537921730697444,79,70,66,-5,1,-19,2,43
1537921730709412,10,-60,50,-6,0,12,2,19
1537921730709412,-58,92,9,-32,-22,-21,-11,6
1537921730716393,-7,-93,-60,-5,-4,-2,-3,-2
1537921730716393,84,76,47,49,27,35,25,-9
1537921730733348,-84,13,-6,-23,-8,-29,-13,7
1537921730733348,94,67,61,-46,-17,-8,-15,-22
1537921730734346,40,23,12,-34,-13,11,5,14
1537921730734346,-49,-81,-128,-5,-10,-33,-16,-47
1537921730755290,27,13,98,61,22,-2,-11,-16
1537921730755290,89,0,-44,10,-10,-24,-15,-17
1537921730757284,67,51,-21,2,11,17,7,-36
1537921730757284,17,3,41,-1,2,13,3,23
1537921730770250,4,-13,-30,1,0,-11,7,-2
1537921730770250,-52,-49,-53,-7,-2,-15,-13,10
1537921730776234,-69,70,21,-39,-22,9,-2,3
1537921730776234,-69,-93,-35,-1,-4,8,5,16
1537921730793188,-54,27,2,15,2,2,-2,-27
1537921730793188,-74,-84,16,4,1,5,13,-3
1537921730794186,15,8,22,24,2,-22,-14,-13
1537921730794186,100,52,-10,-27,-13,-5,-1,16
1537921730815130,20,1,-21,2,6,8,1,-7
1537921730815130,2,-18,-17,-1,2,3,-2,-12
1537921730817125,-29,-4,25,18,7,-6,-6,-3
1537921730817125,45,10,6,-10,-6,-11,-9,-3
1537921730829092,30,3,-9,-12,-5,10,1,-11
1537921730829092,10,2,-20,-2,5,3,8,7
1537921730838068,-81,-14,24,-8,-6,-5,-4,-13
1537921730838068,-52,-4,-13,12,11,20,8,3
1537921730853028,44,-31,-27,2,-4,0,2,-2
1537921730853028,3,-3,11,16,4,-6,-4,0
1537921730854026,-14,-5,-4,-1,2,-2,-3,2
1537921730854026,-25,-9,-13,-5,3,3,-1,-10
1537921730875967,3,6,0,6,-1,-6,-5,-1
1537921730875967,18,3,-3,-4,-2,0,1,3
1537921730876965,63,6,-1,-3,-2,0,-1,-3
1537921730876965,10,-1,-7,2,4,5,1,-2
1537921730888932,-11,4,9,-3,-5,-4,-4,2
1537921730888932,5,3,-15,-3,0,2,2,0
1537921730897908,23,-5,-4,-5,-4,0,-4,5
1537921730897908,-30,-13,1,1,0,-5,-1,-1
1537921730912868,-16,5,-1,0,0,-2,1,2
1537921730912868,6,0,-9,-3,-4,3,0,-2
1537921730914863,-7,-2,6,5,0,-4,-2,1
1537921730914863,-6,-2,0,-2,-2,-3,-2,-3
1537921730935807,-7,-1,-4,-2,-2,-4,-3,9
1537921730935807,30,-5,-9,-2,-2,4,1,-1
1537921730936805,-69,-16,3,-3,-2,-2,-1,-16
1537921730936805,-27,-8,-5,-3,0,-1,-3,-13
1537921730948773,-2,0,-4,-1,-1,2,1,0
1537921730948773,-4,-3,-2,-3,-2,-5,-2,-1
1537921730957749,-1,4,6,4,1,-1,2,5
1537921730957749,4,-8,-11,-3,0,-1,-1,3
1537921730972708,-10,-1,4,4,1,-3,-2,-6
1537921730972708,-7,2,0,-6,-2,2,1,2
1537921730974703,3,-7,-5,-7,-4,0,-2,2
1537921730974703,7,1,5,11,5,0,1,2
1537921730995647,6,1,5,1,-4,-1,-2,1
1537921730995647,2,1,3,-3,-1,-2,2,0
1537921730996645,3,5,-3,-4,-2,-1,-1,1
1537921730996645,11,-12,-9,0,-2,-2,0,0
1537921731009609,21,1,-7,-3,0,1,1,7
1537921731009609,-50,-5,4,-4,-1,0,-2,-11
1537921731017588,33,6,4,4,3,2,1,6
1537921731017588,-21,-3,1,-7,-7,-5,-3,-9
1537921731032548,7,0,0,1,2,2,0,0
1537921731032548,28,3,-10,-3,1,1,-3,1
1537921731034543,-10,-3,3,-1,2,-3,-1,0
1537921731034543,4,1,-2,0,-1,2,0,6
1537921731055486,-18,-8,-2,-1,0,-1,-2,-4
1537921731055486,-5,-1,-4,1,0,1,1,0
1537921731056484,-5,0,2,2,1,0,0,-2
1537921731056484,16,5,-2,-2,-3,-4,0,0
1537921731069449,-13,-3,-1,-5,-3,-3,0,-6
1537921731069449,3,-5,-8,0,-1,-5,-3,1
1537921731078425,12,6,-1,-6,-4,-2,-2,3
1537921731078425,-13,-28,-19,4,2,1,1,-3
1537921731093385,3,17,12,-2,-1,-3,-2,-1
1537921731093385,-1,-23,-26,2,0,0,1,-2
1537921731094383,5,5,6,9,5,3,3,2
1537921731094383,2,9,12,-4,-2,0,0,1
1537921731115327,-5,-11,-4,0,-2,-3,-3,-6
1537921731115327,7,7,3,-2,0,-1,1,6
1537921731117322,-8,-8,-13,-8,-3,-1,-1,-8
1537921731117322,-6,7,8,-1,1,2,1,8
1537921731129290,-12,-9,-3,-2,-3,-2,-3,-11
1537921731129290,-38,-1,6,0,-1,0,1,-4
1537921731138266,1,-2,2,0,-2,-1,-1,3
1537921731138266,1,3,-1,-1,-1,-2,3,2
1537921731153226,6,-2,-5,-4,1,-2,-2,2
1537921731153226,8,0,4,2,-1,-2,-1,1
1537921731154223,-10,-4,3,2,-1,0,-1,-3
1537921731154223,10,1,-3,-4,-3,-1,-3,-1
1537921731175167,-5,1,-1,1,0,-1,0,1
1537921731175167,6,0,4,-1,-1,2,1,-2
1537921731177162,5,-1,-4,-4,-4,-4,-2,2
1537921731177162,2,2,1,0,0,0,-1,-3
1537921731189130,-3,-4,5,3,1,-1,1,-3
1537921731189130,2,1,-14,4,1,3,-1,0
1537921731198106,-1,-5,9,2,0,-1,-1,0
1537921731198106,3,-2,-10,-7,-3,-2,-1,0
1537921731213066,-4,0,-3,-1,1,0,0,0
1537921731213066,2,-2,0,-1,0,-1,1,1
1537921731214064,1,0,-4,-4,-1,-2,0,-1
1537921731214064,-3,-1,4,3,0,-2,1,5
1537921731236005,1,12,4,-1,-3,0,-5,4
1537921731236005,7,-50,-3,-1,-1,0,-2,-7
1537921731237002,-19,7,-1,-2,1,-1,-3,-7
1537921731237002,0,-2,3,0,0,1,0,-8
1537921731257945,17,62,1,-1,-1,-1,6,10
1537921731257945,-24,-75,-6,-6,0,-1,-5,-5
1537921731259940,-4,26,-3,0,0,0,1,0
1537921731259940,5,11,-3,-2,-1,-3,-3,1
1537921731272906,9,14,8,2,-1,0,1,4
1537921731272906,7,53,8,6,0,-1,1,2
1537921731274901,4,-16,-3,-2,-1,1,1,2
1537921731274901,-7,-16,6,4,0,0,-1,3
1537921731295845,14,46,-6,0,-1,-2,-2,-2
1537921731295845,-4,-45,3,-5,0,2,1,-4
1537921731296842,1,-7,-5,-5,-4,-3,-1,-2
1537921731296842,4,45,-2,2,-1,-1,1,-6
1537921731308809,-7,0,-4,-4,-1,-1,-1,-4
1537921731308809,6,-35,5,6,1,-3,1,4
1537921731317785,-40,76,-10,-2,-2,0,-4,-6
1537921731317785,32,-12,5,0,3,2,9,18
1537921731332746,-5,10,-8,-5,-6,-15,-1,-10
1537921731332746,14,-41,-3,-9,-2,20,-6,-14
1537921731334741,-7,-68,4,4,1,-4,-4,-6
1537921731334741,-9,57,-2,0,0,-1,1,-8
1537921731355685,-16,6,-4,0,-2,-3,24,13
1537921731355685,43,122,11,2,-4,-6,-15,15
1537921731356681,-1,-80,-2,3,-2,-8,-21,-2
1537921731356681,-4,96,-2,-9,-4,9,8,-9
1537921731368650,1,-24,1,3,6,6,-2,3
1537921731368650,-23,109,-9,-9,2,13,3,-10
1537921731377626,21,53,9,2,2,-1,5,5
1537921731377626,-49,-97,-2,5,3,-3,-3,4
1537921731392586,81,115,15,1,-7,-10,-11,4
1537921731392586,-97,-116,-13,-2,-4,-5,-3,-17
1537921731399567,55,59,-10,-6,1,15,2,-3
1537921731399567,-5,3,0,-4,-5,-12,-3,-8
1537921731415524,-14,-13,3,-1,3,13,-12,-12
1537921731415524,30,20,11,4,-3,-9,4,10
1537921731416523,11,-19,2,0,0,-5,10,11
1537921731416523,1,-43,-7,-1,0,-1,-2,1
1537921731429488,-16,-45,-7,-3,-4,-3,-3,-5
1537921731429488,9,-13,-3,2,-1,-5,-1,4
1537921731438464,3,10,2,3,-2,-5,2,0
1537921731438464,8,-6,2,-1,0,6,-6,-3
1537921731453423,-23,-37,-6,-1,-1,3,0,-3
1537921731453423,2,15,1,-2,-1,-6,1,3
1537921731454421,-14,-1,3,-1,-1,4,1,3
1537921731454421,16,27,8,1,0,-2,0,4
1537921731475365,-5,-2,-4,-4,-1,1,-5,2
1537921731475365,71,-47,-5,4,0,1,6,13
1537921731477360,-75,37,-5,-6,-3,-3,-8,-19
1537921731477360,14,65,2,-3,-2,-3,-6,-5
1537921731498303,-2,-8,2,0,2,-1,-6,9
1537921731498303,5,43,-2,-1,-2,-2,1,2
1537921731499301,29,-3,5,2,2,1,6,12
1537921731499301,6,-10,-3,-2,-1,-2,6,4
1537921731512266,-26,-104,-4,-1,-3,-2,-7,-15
1537921731512266,-7,90,5,1,-1,-3,0,-4
1537921731519247,-2,-60,-10,-3,-4,-1,0,-2
1537921731519247,-19,-24,-3,-2,-1,-3,0,-5
1537921731535205,13,-1,1,-1,-1,-2,4,1
1537921731535205,-7,-12,0,-1,1,0,-1,-2
1537921731537199,-3,8,1,-2,-2,-3,0,-5
1537921731537199,19,-21,0,1,0,0,-5,3
1537921731558143,-6,51,-3,3,0,2,1,-1
1537921731558143,-11,-2,-1,-1,1,-2,-3,-2
1537921731559140,1,16,-1,-1,0,2,1,4
1537921731559140,-5,-3,0,-1,-2,-2,-3,0
1537921731572106,-7,10,-1,0,-1,0,-1,-7
1537921731572106,-7,40,2,-1,-1,-1,3,-2
1537921731579087,17,11,0,2,-1,-1,5,4
1537921731579087,-2,-26,-6,-3,-2,-3,-14,7
1537921731595044,-12,-13,1,-3,0,0,0,-6
1537921731595044,1,22,2,-2,0,-1,-2,3
1537921731597040,5,-2,1,0,-1,-1,-1,-1
1537921731597040,-5,-36,-2,1,0,1,5,-1
1537921731617983,0,-18,1,2,-2,1,2,2
1537921731617983,-14,-33,-8,-3,-3,-3,-5,-3
1537921731618981,3,20,2,1,2,-1,0,2
1537921731618981,-3,-1,-3,-2,-1,-1,0,-6
1537921731631947,4,3,1,0,-3,-2,0,3
1537921731631947,-2,-8,1,-1,-2,0,0,-1
1537921731638928,-1,-8,-2,-2,-2,-3,-4,-2
1537921731638928,3,12,3,1,1,1,2,-1
1537921731655882,-3,-50,-4,0,1,1,1,0
1537921731655882,0,22,0,1,1,-2,-1,0
1537921731656880,0,-16,-3,-1,-1,-1,0,-2
1537921731656880,5,25,4,-2,-4,-2,-7,-4
1537921731677824,18,121,7,2,1,0,1,4
1537921731677824,-36,-115,-19,-6,-4,0,-1,-10
1537921731679818,-4,91,-1,-1,0,0,1,13
1537921731679818,-2,10,-1,-1,-3,1,-3,-6
1537921731692784,4,13,-2,-5,-3,0,0,-4
1537921731692784,15,16,8,2,-1,-1,1,4
1537921731698767,2,7,2,3,1,0,-1,-3
1537921731698767,-1,22,-2,-1,0,-1,0,2
1537921731715722,5,-26,4,0,0,2,1,3
1537921731715722,-7,-39,-6,-2,-1,-3,4,1
1537921731716720,0,53,-6,-2,-4,0,-2,-7
1537921731716720,-14,-37,-2,-2,-1,-1,6,-6
1537921731737664,12,64,5,5,1,-4,-18,14
1537921731737664,10,-60,-5,-3,-4,0,4,-2
1537921731739659,25,99,17,2,2,2,9,19
1537921731739659,-51,-128,-30,-9,-2,-4,-10,-18
1537921731752624,-23,-35,-7,-9,-3,-1,-13,-38
1537921731752624,28,127,21,13,5,-1,-6,-2
1537921731759606,22,-59,7,3,3,3,11,10
1537921731759606,23,127,16,-11,-10,-10,-42,-42
1537921731775562,-13,-95,-22,0,4,8,26,34
1537921731775562,-23,28,7,-9,0,29,11,-34
1537921731776560,21,-43,-58,12,3,-46,-28,-44
1537921731776560,-3,26,-33,-6,-5,7,20,60
1537921731797504,60,64,11,-7,6,22,-39,-22
1537921731797504,-92,-33,-60,-4,-15,-46,5,9
1537921731799499,-99,-104,-18,9,-8,-13,-65,-24
1537921731799499,110,109,101,20,29,69,49,28
1537921731811466,-52,-58,-124,-22,-8,-3,8,-57
1537921731811466,82,-19,56,20,-17,-78,-37,8
1537921731820442,-40,50,78,0,7,73,29,19
1537921731820442,13,30,36,-4,14,-37,11,11
1537921731835402,28,75,18,-11,-5,35,26,105
1537921731835402,-59,-44,-75,-1,0,38,43,0
1537921731837397,97,41,37,-42,-37,-95,-44,-39
1537921731837397,-16,-76,-96,-8,-18,13,59,-21
1537921731858341,-39,3,122,30,27,36,12,-37
1537921731858341,2,42,19,-21,-14,-25,6,23
1537921731859339,44,-77,-14,42,17,31,-52,40
1537921731859339,20,41,17,-7,-6,-59,-83,6
1537921731871306,-16,-33,-40,-29,-22,-108,-20,63
1537921731871306,-25,4,-13,14,34,97,20,-45
1537921731880282,-21,4,26,-17,20,12,13,-19
1537921731880282,2,-15,-9,-1,-3,-7,11,1
1537921731895241,-4,-25,-2,29,26,15,6,-27
1537921731895241,41,65,42,0,7,1,-8,26
1537921731897236,-1,1,-22,-12,-24,11,47,17
1537921731897236,-42,-40,-14,7,-56,-6,-3,-7
1537921731918180,-2,5,7,6,-53,-10,-2,-11
1537921731918180,6,28,20,-6,-20,5,-3,-5
1537921731919178,-16,-13,-21,-7,0,-11,9,-4
1537921731919178,-30,-43,-14,8,27,12,-4,-7
1537921731931146,2,43,42,8,27,11,2,-9
1537921731931146,29,-8,-1,-5,18,-19,-22,6
1537921731940122,-15,-14,-11,10,21,5,17,4
1537921731940122,-6,16,16,-2,9,4,-5,1
1537921731955082,6,2,-9,-8,0,-2,7,-3
1537921731955082,-3,-4,-2,0,-2,-8,-8,-3
1537921731957077,-7,2,-7,-6,-9,1,10,0
1537921731957077,-15,4,7,-4,4,7,-1,-7
1537921731978021,-4,-13,-6,-2,-4,-5,-6,-14
1537921731978021,0,-3,-3,1,-5,-3,-5,14
1537921731979018,-5,3,8,-3,-4,10,21,13
1537921731979018,3,3,-1,1,5,0,0,3
1537921731991984,-4,-14,-4,-1,-5,-6,-26,-30
1537921731991984,6,12,11,-1,-4,-1,-1,1
1537921732007941,8,6,-5,-3,2,3,6,1
1537921732007941,-6,-9,0,3,-1,-2,4,5
1537921732022901,-2,-1,0,-1,-2,2,8,-1
1537921732022901,-2,9,6,3,3,-1,-3,-4
1537921732024896,-8,-6,-3,-1,-1,-2,0,-5
1537921732024896,-5,-7,-2,-1,-2,2,-2,-4
1537921732037861,1,0,4,-3,0,3,3,2
1537921732037861,11,3,1,1,2,-3,-8,-1
1537921732039855,-2,-7,-7,0,-2,-1,3,4
1537921732039855,-6,3,5,-1,-1,0,-6,-5
1537921732051824,-1,-2,-1,0,-2,-1,4,3
1537921732051824,0,-4,0,-2,-2,-2,0,-1
1537921732060800,2,2,-1,-1,1,1,-1,-5
1537921732060800,-2,0,1,-1,3,2,-2,-5
1537921732075759,0,-5,-1,-2,-3,-4,1,2
1537921732075759,1,15,-2,-1,0,2,-1,-3
1537921732076757,2,18,3,-1,-3,1,-1,-2
1537921732076757,-6,-14,-7,-2,0,-2,-6,-5
1537921732097701,-7,-6,-2,1,0,-2,2,0
1537921732097701,4,18,2,0,-1,0,-2,0
1537921732099695,1,13,1,1,-2,-1,2,-1
1537921732099695,11,73,0,3,-2,-2,-1,1
1537921732111663,-10,-60,-2,-5,-3,-2,0,-1
1537921732111663,-15,-34,-5,-4,-2,3,-2,-8
1537921732120639,-5,18,0,-2,1,1,0,-6
1537921732120639,7,13,3,3,1,-1,1,0
1537921732135599,11,26,4,3,2,1,-1,0
1537921732135599,15,-11,3,-2,-2,-4,-20,-11
1537921732136597,-8,-38,-11,-7,-4,1,5,5
1537921732136597,6,57,2,-3,1,-1,-5,-9
1537921732158538,-22,-79,-14,-3,-4,-3,2,9
1537921732158538,-5,28,-3,-1,-1,-3,0,-12
1537921732159536,12,29,2,3,-2,1,9,40
1537921732159536,15,-1,23,-3,0,-1,-3,6
1537921732171503,-18,1,-35,-7,-1,5,-10,-30
1537921732171503,-7,15,1,6,-5,-1,19,5
1537921732180480,-19,-128,7,-5,-6,-14,-23,0
1537921732180480,-45,28,22,-9,4,16,-10,-33
1537921732195439,20,13,-32,-15,8,-9,-2,34
1537921732195439,-57,-74,-49,6,-11,35,20,-2
1537921732197434,11,127,93,3,4,-53,-6,1
1537921732197434,-18,-117,-118,-1,-9,12,-32,2
1537921732218379,11,19,21,20,15,16,-23,-50
1537921732218379,78,113,59,-25,-27,-95,-81,24
1537921732219376,53,-119,-109,27,17,65,68,-17
1537921732219376,-80,122,124,5,35,80,104,91
1537921732231344,33,-23,-15,-31,-53,-75,-75,-76
1537921732231344,77,-29,6,31,22,32,-40,39
1537921732240320,11,89,22,-24,-16,29,-54,-84
1537921732240320,93,-81,-101,3,-10,-62,29,17
1537921732255280,80,74,87,-15,8,81,65,-44
1537921732255280,-29,-52,-39,26,12,11,25,64
1537921732257275,-47,6,22,9,22,-76,-62,-39
1537921732257275,-23,-65,-39,-19,-34,-8,-4,-13
1537921732277222,-53,40,63,3,-6,-4,8,48
1537921732277222,-21,-21,-28,-12,8,21,41,-34
1537921732285200,-5,4,-29,4,2,42,21,67
1537921732285200,27,12,28,10,12,30,-17,-53
1537921732291184,-26,23,-8,10,-18,-107,-42,29
1537921732291184,-3,11,10,-7,1,-7,23,9
1537921732300160,-6,-15,-12,-5,-4,28,3,39
1537921732300160,-5,12,27,-4,-4,-13,-11,-18
1537921732315120,-3,-22,-28,1,7,36,31,22
1537921732315120,2,11,-2,-5,4,12,2,-23
1537921732322101,-3,10,11,2,-6,-12,0,-11
1537921732322101,0,-11,-1,0,-4,-20,-18,11
1537921732338059,-5,3,-14,10,15,14,3,11
1537921732338059,-2,9,7,-10,-10,1,-5,-21
1537921732339056,-4,5,0,-4,-5,-14,6,10
1537921732339056,-4,-13,0,1,-8,-13,-9,1
1537921732360000,-4,-3,-12,7,12,16,16,3
1537921732360000,-3,16,14,-3,-6,-8,-3,-4
1537921732361995,1,-11,-11,-8,-8,4,4,-5
1537921732361995,7,-5,0,3,7,3,-12,-6
1537921732374960,-4,7,2,2,-1,5,4,0
1537921732374960,-9,0,-1,-7,1,-3,8,6
1537921732381941,5,-2,-7,-4,-2,-3,-16,-11
1537921732381941,0,-3,4,-4,-2,-5,-28,-29
1537921732397898,4,5,-6,0,-1,-5,2,23
1537921732397898,-9,1,3,-2,4,0,5,-5
1537921732399894,0,-3,-5,2,-2,4,16,3
1537921732399894,3,2,6,-1,-3,-10,-13,-4
1537921732420837,7,-4,-8,1,1,10,1,9
1537921732420837,-25,-4,0,-1,0,3,-3,-15
1537921732421835,-3,1,1,-5,-6,-3,4,0
1537921732421835,5,-2,-1,0,2,-2,3,9
1537921732434800,-7,-1,-3,1,3,4,4,7
1537921732434800,10,2,3,0,0,1,-1,-1
1537921732441781,-5,1,0,-5,-2,-3,1,1
1537921732441781,1,-4,3,5,3,-3,3,0
1537921732457739,10,2,0,4,-1,6,-5,12
1537921732457739,0,1,-1,-5,-2,-2,-4,-12
1537921732459734,2,-3,-3,-2,0,-1,2,-4
1537921732459734,3,0,-1,-2,-1,3,2,4
1537921732480677,-8,4,5,4,1,-3,5,-1
1537921732480677,2,-1,-5,-3,-2,3,-3,-2
1537921732481675,4,1,-2,1,0,-2,2,2
1537921732481675,-3,-2,0,-2,-1,0,2,8
1537921732494639,-5,1,-2,-3,-2,2,-2,-8
1537921732494639,5,5,1,1,-2,-2,2,8
1537921732501621,-3,-2,-2,-3,-2,2,-3,-6
1537921732501621,-2,1,2,0,-1,-3,-1,2
1537921732517578,0,-3,-3,-2,1,2,2,0
1537921732517578,5,1,1,1,2,0,-2,-5
1537921732519573,-2,-2,-6,-3,-3,-1,3,3
1537921732519573,-3,2,7,4,1,-4,-1,1
1537921732540517,2,2,1,-2,0,2,4,0
1537921732540517,2,-7,-7,-3,-1,0,1,-7
1537921732541514,-3,1,4,1,0,-2,-12,-3
1537921732541514,1,0,1,0,-1,-1,-3,5
1537921732555477,-3,-3,-3,0,-1,2,1,-1
1537921732555477,-1,4,2,-5,-1,-1,1,-4
1537921732563456,0,-1,2,6,2,-1,0,-3
1537921732563456,0,-10,-8,1,0,-2,-2,-4
1537921732578415,-2,1,-2,-2,-2,0,1,3
1537921732578415,1,4,3,-1,1,-1,-1,2
1537921732579413,2,-1,0,-3,-2,-3,-1,-2
1537921732579413,-2,2,2,-3,-1,-1,-1,-2
1537921732599360,-2,-2,-3,-1,-1,-1,-1,-1
1537921732599360,2,-1,0,0,0,-1,-2,-1
1537921732608336,-1,-3,-2,-2,0,2,1,1
1537921732608336,0,3,-1,-1,1,0,2,-2
1537921732614320,-1,-2,-5,-3,-1,-1,-1,-3
1537921732614320,0,0,1,1,-2,-1,-1,-3
1537921732621301,0,-2,-1,-1,0,-1,-1,1
1537921732621301,2,3,-3,-3,-1,-2,1,0
1537921732638256,1,7,4,-1,0,0,-3,-1
1537921732638256,-3,0,-4,-2,-2,-2,-1,-1
1537921732639253,-3,-8,-5,4,0,0,5,4
1537921732639253,0,-4,-5,-2,-2,1,0,-2
1537921732660197,-1,2,4,-2,0,0,-1,-2
1537921732660197,-2,6,9,2,-1,-2,-3,-3
1537921732662192,-5,-8,-6,-6,-2,-1,-1,-6
1537921732662192,-8,-1,1,-1,0,-3,0,-2
1537921732674159,-1,-3,-7,-4,-2,-1,0,0
1537921732674159,0,-2,-1,1,-1,-1,-1,2
1537921732683136,-2,-1,-1,-1,-1,-1,1,1
1537921732683136,3,3,1,1,0,2,1,1
1537921732698095,-3,-6,-1,-3,-2,-4,1,-3
1537921732698095,0,-2,0,0,0,-2,0,2
1537921732699093,0,0,0,0,-1,2,-4,-1
1537921732699093,-4,-4,-1,-2,-3,-2,-3,-6
1537921732720037,-2,-6,-2,0,-2,-1,-2,-4
1537921732720037,-2,-2,-3,-2,-2,-1,0,-1
1537921732722032,0,5,-1,0,-2,-1,1,1
1537921732722032,0,3,-3,0,1,-1,-2,0
1537921732734000,0,0,1,4,-1,2,-1,0
1537921732734000,-1,-3,1,1,0,-2,2,-1
1537921732742976,1,2,1,-3,-3,-3,-2,0
1537921732742976,0,0,-3,-2,0,0,0,0
1537921732759931,1,1,-2,0,2,-1,1,0
1537921732759931,1,1,0,-3,-3,0,-1,-1
1537921732764917,3,4,2,-2,-2,0,0,0
1537921732764917,-1,0,2,1,-3,0,-2,0
1537921732774891,0,-3,-4,0,-1,-1,-1,-1
1537921732774891,-1,1,-1,-1,0,0,-3,-1
1537921732776885,2,2,1,0,-2,-2,0,-1
1537921732776885,0,-3,0,2,0,0,-1,-2
1537921732786859,1,-3,-2,0,0,-1,-2,1
1537921732786859,2,-3,-7,-2,-1,1,0,-2
1537921732793840,0,-1,-4,-2,0,0,2,0
1537921732793840,2,1,2,0,-1,1,1,1
1537921732809797,-3,-2,-1,-1,-2,-1,0,1
1537921732809797,1,-2,-5,-2,0,1,1,0
1537921732816779,0,-1,-1,0,-2,2,0,-2
1537921732816779,1,0,1,1,0,0,-1,-1
1537921732832736,1,1,-2,-1,-2,-2,2,1
1537921732832736,-1,-2,-6,-2,1,0,-1,-1
1537921732838721,-1,3,-1,1,0,0,1,-1
1537921732838721,1,1,1,-4,-2,-1,1,-2
1537921732847697,0,1,0,0,-1,2,0,1
1537921732847697,4,39,3,1,1,0,1,-1
1537921732853680,-6,-79,-2,-3,-1,0,1,-1
1537921732853680,8,-2,2,2,1,2,0,1
1537921732869637,-10,20,-5,-2,0,1,1,-5
1537921732869637,-3,-32,-6,-5,-3,0,-2,-3
1537921732876619,11,18,6,1,0,1,2,4
1537921732876619,-2,-82,-3,-4,0,2,3,-5
1537921732892576,6,10,3,4,0,0,-1,18
1537921732892576,9,100,9,5,-1,-1,-3,1
1537921732894570,-32,-67,-14,-5,-3,1,-8,-19
1537921732894570,6,31,4,-1,2,3,15,9
1537921732907536,25,91,9,-2,-5,-1,3,12
1537921732907536,-15,-65,-9,-8,-5,0,-15,-11
1537921732914517,29,93,18,12,12,2,8,26
1537921732914517,-12,15,-3,-1,-4,-6,-23,-29
1537921732929477,-5,12,17,-6,3,26,27,25
1537921732929477,17,65,-19,-4,-14,-20,15,3
1537921732936458,4,29,19,8,-1,8,0,-2
1537921732936458,15,7,23,9,15,26,43,41
1537921732953413,-9,-51,-54,-27,-8,28,-40,-17
1537921732953413,-46,-125,-51,18,-6,-58,18,37
1537921732954411,-23,30,17,1,-2,-34,-12,-49
1537921732954411,-20,65,101,-9,15,74,40,6
1537921732966379,76,-90,-72,6,-20,-92,-3,-27
1537921732966379,70,-55,-47,5,11,1,-6,-27
1537921732975355,95,77,70,-8,1,-40,45,107
1537921732975355,-34,-127,-112,10,15,81,-22,-106
1537921732989317,74,127,62,-43,-20,-78,9,37
1537921732989317,-105,-115,-45,6,-25,-4,-55,25
1537921732996299,21,1,23,16,12,101,35,79
1537921732996299,45,33,-4,-13,-2,-18,-46,-15
1537921733012256,-41,11,47,27,51,87,89,-22
1537921733012256,89,21,-11,2,-10,-75,-60,-72
1537921733019238,-23,6,17,-6,-28,-44,4,78
1537921733019238,5,-16,-32,-13,-12,-50,-65,35
1537921733026219,-9,-32,-12,5,2,29,-41,-62
1537921733026219,-3,38,41,-10,19,64,40,-7
1537921733035194,-22,-19,-17,-4,-4,25,-26,-116
1537921733035194,11,12,-9,-1,-21,-78,12,35
1537921733050155,-18,-21,7,8,0,-26,-36,8
1537921733050155,5,27,35,-1,2,35,8,1
1537921733056139,-4,-2,-36,-1,6,-10,-6,-15
1537921733056139,-23,-1,-16,1,-3,-14,29,-3
1537921733073093,-32,-26,-12,-5,-13,8,-14,10
1537921733073093,-19,42,37,-2,8,14,20,33
1537921733074091,-26,-39,-41,-6,0,-10,-16,-55
1537921733074091,-9,22,17,8,-3,-10,-7,10
1537921733087056,-27,-20,2,4,-9,-3,-8,-2
1537921733087056,6,3,5,-4,12,6,6,-14
1537921733096032,1,-7,-10,-1,-4,-14,-6,-7
1537921733096032,5,7,-2,-4,-10,-12,-12,-3
1537921733109995,-8,-7,-7,5,3,7,11,17
1537921733109995,-13,5,3,-5,0,-1,14,-3
1537921733116976,-13,-11,-15,-9,-6,-1,-17,-16
1537921733116976,-11,17,8,-2,0,-2,1,21
1537921733132934,-16,-20,-13,2,-1,0,8,-3
1537921733132934,-4,9,10,-5,0,5,-2,-2
1537921733133931,-9,-7,-9,-1,3,-4,-21,-28
1537921733133931,5,3,0,2,0,-6,7,0
1537921733147893,0,-5,5,4,1,1,4,15
1537921733147893,-1,7,2,-6,-5,2,-1,-6
1537921733161856,2,1,-6,-1,3,4,5,-1
1537921733161856,-4,-3,-2,-1,-2,-3,5,-6
1537921733169834,-8,-8,3,1,-1,-1,-9,1
1537921733169834,2,11,9,-1,0,4,5,15
1537921733176816,-9,-9,-10,0,1,-1,-1,-13
1537921733176816,0,3,-3,-3,-4,-2,0,2
1537921733192773,-3,-9,-3,-1,-3,1,-3,-1
1537921733192773,5,9,7,2,-1,4,2,-1
1537921733194768,-4,-9,-12,-3,-2,-5,-2,2
1537921733194768,2,7,3,1,-1,-3,1,-2
1537921733206736,-1,-4,-1,1,0,0,-1,-2
1537921733206736,-3,-2,0,1,0,1,2,1
1537921733215712,-2,1,-2,-1,-3,-4,-3,1
1537921733215712,-5,5,2,-2,-2,6,1,0
1537921733229674,-6,-5,-1,-1,-2,0,-4,-11
1537921733229674,1,1,2,-1,0,2,2,2
1537921733236656,-3,-4,-2,-1,0,0,1,-1
1537921733236656,1,2,0,0,-2,0,-1,-5
1537921733252613,-2,0,0,-1,1,-3,1,1
1537921733252613,-1,2,1,-1,-2,1,0,0
1537921733254608,1,-1,-4,1,0,2,0,0
1537921733254608,-1,-7,0,-1,-2,-2,0,2
1537921733266576,2,6,-3,1,-1,0,-1,-3
1537921733266576,-5,5,1,-3,-2,0,1,1
1537921733275552,-3,-6,-3,-4,-1,-1,-1,-4
1537921733275552,-4,-4,0,-2,0,0,-1,-1
1537921733289514,-1,-9,2,1,2,0,-2,3
1537921733289514,1,12,0,2,-2,-1,-1,1
1537921733296496,15,50,9,2,-1,1,0,6
1537921733296496,-5,-41,-9,0,-2,-1,-1,-3
1537921733312453,-19,-36,-5,-9,-5,-2,-3,-7
1537921733312453,-1,-2,1,-2,-1,-2,0,1
1537921733314448,3,11,0,0,-1,-1,1,-3
1537921733314448,11,90,7,4,0,-3,-1,2
1537921733326416,17,19,3,1,0,-1,1,2
1537921733326416,-27,-69,-11,-7,-2,-1,0,-5
1537921733335392,-14,-46,2,-1,-1,-3,-2,-7
1537921733335392,16,81,8,2,1,0,0,7
1537921733349355,-29,-63,-15,-7,-4,-2,1,-7
1537921733349355,20,42,9,1,1,1,-5,-1
1537921733356336,-9,-82,-6,3,-2,-1,0,-10
1537921733356336,-14,-20,-2,-8,-5,-2,14,7
1537921733373291,19,119,15,1,7,2,12,18
1537921733373291,-5,-2,-20,-4,2,14,-13,-19
1537921733374288,5,35,-31,8,4,12,-6,10
1537921733374288,22,85,45,-16,-4,-8,-6,-46
1537921733386256,-19,-128,-105,10,-3,-10,4,-17
1537921733386256,-6,13,59,13,13,56,13,64
1537921733395232,24,127,-41,-23,-13,-74,-38,-73
1537921733395232,16,-128,-99,30,29,94,27,10
1537921733410193,-85,84,90,-12,-41,-82,-50,-60
1537921733410193,-1,67,33,-11,23,40,46,33
1537921733416176,-71,-104,-45,-18,-38,-47,-40,20
1537921733416176,-12,0,46,10,6,41,-8,-23
1537921733432134,127,119,65,-3,28,4,40,45
1537921733432134,-92,-128,-93,-7,-50,-50,-68,-94
1537921733439115,72,59,108,18,39,79,50,82
1537921733439115,64,68,10,-32,-20,12,-24,-68
1537921733446096,-52,-116,-74,5,-18,-23,-62,67
1537921733446096,90,57,34,4,2,28,44,49
1537921733455072,-14,-4,-5,-14,-1,23,28,84
1537921733455072,-69,-83,-29,33,30,83,19,-83
1537921733470032,2,46,44,-13,-1,35,8,5
1537921733470032,12,-29,-34,0,-32,-93,-12,5
1537921733477014,-23,-27,-13,2,-9,-70,-28,-25
1537921733477014,-5,7,22,-10,-6,-33,9,60
1537921733491974,-3,19,2,-4,4,18,-1,-49
1537921733491974,-10,-19,-24,4,5,-3,25,-18
1537921733498955,-1,19,29,12,8,7,0,7
1537921733498955,-26,3,10,-12,-17,-58,-28,0
1537921733506934,30,-17,-24,9,10,19,11,-12
1537921733506934,-1,22,15,1,10,28,8,-10
1537921733515910,10,-2,2,-2,5,24,8,-27
1537921733515910,11,-1,-6,-3,-6,-22,-5,34
1537921733529872,-13,-17,-3,13,5,14,8,4
1537921733529872,0,18,11,-6,0,-5,-10,-9
1537921733536853,-9,2,-1,-3,-9,9,3,-6
1537921733536853,-5,-19,-13,3,-7,-39,-7,30
1537921733551813,-5,8,10,1,4,13,6,-5
1537921733551813,-6,16,7,-5,1,-5,-13,3
1537921733558795,12,-15,-16,-2,0,8,6,-12
1537921733558795,-6,-2,2,-8,-6,-5,2,11
1537921733575750,2,2,4,-4,-1,2,2,4
1537921733575750,7,11,0,-1,4,8,-9,-2
1537921733576747,-7,-9,-8,2,0,15,11,-5
1537921733576747,2,2,7,1,0,-13,-4,14
1537921733589712,-4,2,-2,-2,-5,-1,5,11
1537921733589712,-1,-3,-5,2,1,-7,-7,-6
1537921733596694,-7,3,6,1,4,11,-2,-4
1537921733596694,1,7,1,-5,-5,-12,2,17
1537921733612651,5,-11,-4,2,0,2,2,2
1537921733612651,0,3,1,4,5,6,4,-2
1537921733618635,9,-3,-1,1,-1,0,2,-5
1537921733618635,-8,-23,-13,-3,-3,-5,-2,5
1537921733635590,-2,5,-6,-8,-3,4,-1,-2
1537921733635590,-4,4,3,-3,2,-1,-3,2
1537921733636587,2,0,3,0,-1,3,-3,-6
1537921733636587,-7,-3,1,3,0,-9,-1,6
1537921733656534,2,-3,0,-1,-1,3,7,-1
1537921733656534,-2,0,2,1,2,-3,-4,7
1537921733665510,-1,-2,-2,0,0,5,-6,-13
1537921733665510,0,1,0,-2,0,-3,3,12
1537921733680470,-11,-6,-4,-2,-1,2,-8,-8
1537921733680470,6,7,4,-4,-1,0,1,1
1537921733681467,-4,-5,-3,-1,-3,2,0,-6
1537921733681467,5,4,0,-2,0,-3,2,2
1537921733703408,3,2,1,0,-1,-2,1,4
1537921733703408,-1,-3,-3,1,0,-1,-3,0
1537921733704406,-4,-2,-1,-1,-1,3,1,-7
1537921733704406,-2,2,0,-1,-1,-3,-2,2
1537921733716373,2,0,-1,2,2,3,0,2
1537921733716373,5,3,2,-3,-2,1,-2,0
1537921733725350,-3,-1,3,2,-2,1,4,2
1537921733725350,0,1,-1,-2,-1,-4,-2,-2
1537921733740309,0,-17,-1,0,1,1,-2,-1
1537921733740309,-3,11,2,0,0,-4,-1,0
1537921733742304,-3,1,-4,-3,-1,0,-1,-2
1537921733742304,-6,-6,4,1,-3,-3,-1,-2
1537921733762251,-4,13,-3,-1,-2,-3,0,-3
1537921733762251,-2,-4,-2,-1,-2,1,-2,0
1537921733763248,2,0,-1,-1,-1,2,2,-3
1537921733763248,-2,-4,-3,-2,-1,-1,0,-2
1537921733776214,2,-3,2,3,2,-1,1,1
1537921733776214,1,2,2,2,1,-1,0,0
1537921733785189,-5,-34,-5,-1,2,-1,-3,-2
1537921733785189,-9,-12,-7,-3,-1,-1,-2,-2
1537921733800150,5,-1,5,1,-2,1,1,2
1537921733800150,-1,16,-1,-1,-1,-2,-1,-2
1537921733800150,2,2,-1,-1,-1,0,0,-4
1537921733800150,10,14,6,4,1,-1,0,1
1537921733822091,8,-15,-1,1,0,0,0,2
1537921733822091,-21,-55,-8,-7,-3,-1,-3,-8
1537921733823089,9,54,5,0,0,-2,-2,2
1537921733823089,-20,-75,-7,-7,-1,-2,-2,-4
1537921733837051,5,12,0,-2,-1,0,-2,0
1537921733837051,5,2,0,1,2,0,-1,1
1537921733845030,2,5,-2,-1,0,-1,1,1
1537921733845030,14,49,2,0,0,-2,0,4
1537921733859990,-6,-55,-2,1,0,-2,1,0
1537921733859990,-15,-74,-7,-4,-2,-1,-2,-3
1537921733859990,-8,-43,-2,1,-1,0,0,-2
1537921733859990,9,49,5,3,0,-2,0,-5
1537921733881931,-23,-33,-13,-8,-3,-3,-9,4
1537921733881931,13,89,14,5,3,4,5,-1
1537921733882929,0,-60,-12,-3,6,-3,11,5
1537921733882929,16,69,3,2,2,34,1,13
1537921733905868,-2,21,44,-4,-1,-8,7,-4
1537921733905868,-25,-20,-69,-4,-4,35,11,-20
1537921733905868,-18,59,-37,8,-1,-26,-7,-26
1537921733905868,-13,-27,-10,-11,-20,-78,-28,-3
1537921733919830,35,42,54,28,25,76,50,55
1537921733919830,92,12,-53,-15,-5,-15,-2,-8
1537921733920828,-76,-82,-105,-10,16,113,14,-30
1537921733920828,-102,-2,80,20,8,85,31,34
1537921733941771,-34,-24,-49,-2,-13,-54,-63,3
1537921733941771,58,89,97,-5,-28,-59,-19,85
1537921733942769,-14,-12,-17,14,19,50,59,60
1537921733942769,67,66,40,-22,-19,-89,-31,60
1537921733965707,27,-53,-73,24,20,50,64,-46
1537921733965707,-57,14,54,-12,1,95,11,15
1537921733965707,-43,-44,-44,-13,-13,-128,-63,-59
1537921733965707,-3,4,26,-3,-11,71,-6,4
1537921733979670,20,45,25,-1,-3,30,-25,18
1537921733979670,0,-15,-33,18,24,6,3,-50
1537921733980668,21,10,56,-10,-19,19,-1,23
1537921733980668,-24,-49,-63,-4,11,-15,18,-51
1537921734002609,0,17,-15,-19,-10,-23,-17,-26
1537921734002609,-18,-27,-4,-1,1,16,18,20
1537921734002609,31,50,51,4,-1,-11,-14,10
1537921734002609,29,-17,-30,2,8,-16,1,-6
1537921734025547,5,25,-8,-7,-8,-20,-16,-8
1537921734025547,-6,-11,15,5,-5,-35,-10,-17
1537921734026545,17,23,10,1,-1,-12,3,9
1537921734026545,25,-7,-21,-1,-1,-3,-8,-23
1537921734039510,-13,-7,8,-5,-3,-1,5,-5
1537921734039510,-29,-15,-14,6,5,-10,-1,-2
1537921734040508,24,19,15,3,-1,-7,-7,0
1537921734040508,1,-20,-11,4,2,17,5,-2
1537921734062449,-3,13,-2,-10,-4,-11,1,5
1537921734062449,7,-2,-8,1,3,-14,-3,2
1537921734063446,19,15,6,-4,-7,4,-6,-3
1537921734063446,8,-10,-4,2,2,-4,2,-6
1537921734085388,-6,4,-8,-3,-2,-13,1,0
1537921734085388,4,0,-11,-1,-2,-15,-10,-11
1537921734086385,8,5,20,1,-1,11,16,11
1537921734086385,-12,-14,-15,2,1,0,5,-5
1537921734099350,1,-2,-3,-6,-4,-11,-6,-3
1537921734099350,-7,-7,-5,-1,-1,-2,-10,2
1537921734100348,5,6,8,0,-1,0,1,-4
1537921734100348,9,1,-6,0,1,1,0,0
1537921734122289,4,4,4,0,1,0,-3,-1
1537921734122289,1,-8,-4,1,2,-5,3,-5
1537921734123286,8,2,3,-2,-3,-5,-4,3
1537921734123286,4,4,-12,-2,-2,-2,-4,-8
1537921734136251,-5,-4,4,-3,-1,-2,0,-3
1537921734136251,-7,-9,-3,0,0,-2,0,-1
1537921734145227,5,12,1,3,-2,-3,-5,-2
1537921734145227,1,-4,-4,0,2,2,-1,-2
1537921734160187,1,3,0,-2,-1,4,1,4
1537921734160187,0,-19,-4,-3,1,-6,-3,0
1537921734160187,5,2,2,0,0,2,-3,-2
1537921734160187,2,-6,-1,-3,-1,-3,-1,-3
1537921734182129,2,7,0,2,1,-5,-1,-1
1537921734182129,2,8,0,-1,-1,0,-2,-2
1537921734183127,-2,-4,0,-1,-2,0,-2,-2
1537921734183127,1,-1,-5,0,0,0,0,-1
1537921734197089,0,-1,-2,-1,0,-4,-2,-2
1537921734197089,-1,20,3,3,-1,-1,-2,-2
1537921734205068,2,-17,-1,-2,-2,1,1,1
1537921734205068,1,4,-1,-1,-1,-1,0,-1
1537921734220028,-5,19,-6,-2,0,-4,-3,-2
1537921734220028,-4,-56,-2,-4,-2,-1,2,-3
1537921734220028,19,81,12,4,0,-1,0,1
1537921734220028,-8,-44,-9,-2,-1,-1,-1,-1
1537921734241969,-14,2,-3,-5,-2,0,-3,-6
1537921734241969,6,22,2,2,0,0,-1,1
1537921734242966,-6,4,-1,-3,-3,-2,-3,1
1537921734242966,13,55,9,7,3,-1,0,0
1537921734265904,18,-11,6,4,-1,-2,3,4
1537921734265904,-19,-19,-7,-1,-1,-1,-2,-5
1537921734265904,4,5,2,-2,0,1,0,1
1537921734265904,-16,-39,-9,-6,-2,-1,-5,-10
1537921734279867,5,39,5,0,-1,-1,0,4
1537921734279867,-1,59,-4,2,0,-2,-3,-4
1537921734280864,-15,53,-18,-9,-6,-1,1,-14
1537921734280864,9,44,6,-1,0,-2,-10,18
1537921734301808,20,100,13,5,2,0,1,4
1537921734301808,-42,-52,-28,-12,-6,-5,-18,-21
1537921734302806,3,67,5,5,4,4,5,-3
1537921734302806,5,5,27,-9,-5,-5,33,23
1537921734325744,35,25,11,-1,-1,10,-14,-3
1537921734325744,32,21,-16,19,7,-2,12,-3
1537921734325744,13,24,10,3,-10,-25,-26,-16
1537921734325744,-56,-82,55,-20,-5,18,4,-6
1537921734339707,-19,31,-55,-23,-6,-10,22,10
1537921734339707,26,9,59,1,0,35,21,5
1537921734340705,-27,-90,-61,-3,-19,-75,-32,12
1537921734340705,-12,127,65,37,4,4,-4,75
1537921734362646,-55,-127,-55,0,10,40,3,-56
1537921734362646,-33,92,6,-50,-9,43,-9,-72
1537921734362646,-84,-18,21,7,7,-30,14,99
1537921734362646,60,-81,-99,-4,-36,-21,-26,-57
1537921734385585,22,8,85,21,24,83,-17,31
1537921734385585,45,27,-11,9,1,42,27,-22
1537921734386582,77,96,127,-26,-8,10,-52,28
1537921734386582,-14,-90,-122,-17,-10,-45,-17,-128
1537921734399548,93,21,-70,-7,-26,-84,6,12
1537921734399548,12,-15,61,18,17,21,1,-30
1537921734400545,-39,-15,-31,8,19,66,36,34
1537921734400545,73,31,5,5,34,90,22,-45
1537921734422486,-21,-50,-85,-24,-26,-110,-32,-2
1537921734422486,-7,16,102,3,-17,-42,13,59
1537921734422486,-47,-76,-39,0,-7,-6,4,-18
1537921734422486,-8,48,17,-4,0,-10,-7,23
1537921734445425,-44,-43,8,2,7,33,33,1
1537921734445425,1,-1,-41,-5,-3,-24,-30,46
1537921734446423,22,-27,-8,4,-1,27,5,-37
1537921734446423,5,9,-3,6,9,16,17,18
1537921734459388,5,25,50,-5,-7,-22,-23,3
1537921734459388,-24,-7,-48,6,2,-18,-8,2
1537921734460385,41,-50,-11,1,7,14,6,-37
1537921734460385,-21,8,12,-6,-3,-35,-12,27
1537921734482326,-21,27,15,5,5,19,7,-10
1537921734482326,4,-76,-22,-2,-1,-10,-4,18
1537921734483324,6,1,-10,3,1,3,15,-11
1537921734483324,-14,11,7,-2,-2,-7,-9,4
1537921734505265,7,49,17,3,0,16,-2,2
1537921734505265,-14,-94,-33,-1,1,4,8,-2
1537921734506263,37,102,6,-8,-5,-14,-9,-7
1537921734506263,2,-7,7,6,3,4,7,6
1537921734520225,-21,-51,2,1,-1,9,5,6
1537921734520225,-4,49,-13,-6,-8,-24,-21,-1
1537921734520225,9,-28,-5,4,4,7,8,-6
1537921734520225,-11,-7,-6,-7,-2,-1,-6,1
1537921734542166,-8,-54,5,2,3,6,10,0
1537921734542166,9,38,6,5,3,-6,1,9
1537921734543163,13,-24,-5,3,0,5,-1,-13
1537921734543163,-2,36,-1,-5,-2,4,3,5
1537921734565105,7,5,15,1,-1,-6,-6,-3
1537921734565105,-11,18,-16,-2,-2,-5,-3,1
1537921734566102,0,-72,2,7,3,5,4,-9
1537921734566102,-16,42,-7,-5,-3,-11,-3,9
1537921734580065,-7,3,-10,-6,-2,2,-3,-7
1537921734580065,13,0,6,6,3,-3,1,9
1537921734580065,-11,-87,-22,-8,-1,0,2,-8
1537921734580065,-7,42,4,1,2,-2,-6,-2
1537921734602006,9,7,8,6,0,4,5,1
1537921734602006,6,51,-2,-1,-2,-1,-4,13
1537921734603004,3,69,-2,-2,-5,-5,0,-4
1537921734603004,-18,-39,-1,-2,1,0,-8,2
1537921734624945,4,-24,0,-1,0,1,-3,-6
1537921734624945,-9,-30,-9,-1,-1,-7,0,-3
1537921734625943,7,44,1,0,-2,0,-2,-4
1537921734625943,9,-52,4,1,-1,-2,2,5
1537921734638908,13,75,4,4,0,1,3,9
1537921734638908,-16,-48,-9,-1,0,-1,-2,-9
1537921734646886,15,7,-1,-3,-1,4,-1,-13
1537921734646886,21,33,0,3,1,2,4,9
1537921734661846,-33,-34,7,-1,1,0,-4,-5
1537921734661846,30,36,-12,-4,-3,-3,-2,-8
1537921734662844,-32,-63,0,-2,2,1,1,0
1537921734662844,22,62,6,4,-1,-3,-1,-1
1537921734685783,6,-70,-5,-2,-1,1,0,11
1537921734685783,-7,95,-3,-4,-3,-3,-4,-11
1537921734685783,9,-48,-1,-3,1,4,1,-4
1537921734685783,-45,-7,-10,-6,-2,-2,-3,-8
1537921734699746,96,-25,5,5,1,2,4,15
1537921734699746,-37,-5,-4,-5,-1,0,0,-6
1537921734700743,-21,-48,-3,-3,-2,-3,-3,3
1537921734700743,52,-2,4,3,1,-2,-2,3
1537921734722684,-31,31,-3,-4,-2,-1,5,-13
1537921734722684,26,-76,2,4,2,3,-9,2
1537921734722684,-27,56,-2,-6,-4,-1,-1,-2
1537921734722684,45,22,8,2,-2,-4,-3,10
1537921734745623,-51,85,1,2,1,1,3,8
1537921734745623,18,-83,-6,-4,-3,-3,9,-15
1537921734746620,-2,17,-3,0,0,-5,-13,-6
1537921734746620,18,3,3,4,0,3,2,6
1537921734759586,-33,-3,-1,-1,-3,-3,-10,-12
1537921734759586,-1,-2,3,2,2,0,0,6
1537921734760584,19,30,0,-2,1,3,6,2
1537921734760584,-28,-33,1,-2,0,-1,5,6
1537921734782524,5,-39,-2,1,-2,-2,-7,-12
1537921734782524,57,47,3,2,0,2,5,19
1537921734782524,-41,59,0,-2,-1,-5,-3,-15
1537921734782524,-2,-58,-5,-4,-2,3,-2,-5
1537921734805463,-11,-72,-10,-7,0,2,0,-1
1537921734805463,-1,99,10,4,0,0,-1,5
1537921734806460,24,-57,-1,2,0,-3,3,13
1537921734806460,-22,22,0,-3,-3,-3,-1,-9
1537921734828401,4,52,2,-4,-3,-2,-3,-1
1537921734828401,-34,-25,-7,-2,1,1,0,-4
1537921734828401,23,26,0,1,0,0,-1,3
1537921734828401,-9,-9,-3,2,0,3,3,1
1537921734842364,9,-12,-4,-1,-1,1,1,-5
1537921734842364,-7,6,3,1,-1,-2,0,6
1537921734843362,-1,14,-1,0,-1,2,4,2
1537921734843362,-2,-37,-5,-5,-3,-2,-1,1
1537921734865303,-5,85,9,2,2,1,1,1
1537921734865303,-15,-102,-11,-6,-2,1,0,-7
1537921734866300,8,46,0,-5,-2,0,-4,-5
1537921734866300,-7,46,3,1,1,1,1,-3
1537921734879266,11,-51,-1,-2,-3,-1,0,2
1537921734879266,-28,-18,-8,-7,-5,-1,-5,-7
1537921734887244,-3,-1,2,-1,-1,-1,-1,0
1537921734887244,-6,-32,0,-4,-3,0,1,-1
1537921734902204,-4,26,7,5,0,-2,-3,-1
1537921734902204,17,30,5,2,-1,-2,-1,2
1537921734903202,-4,24,1,0,-2,0,-1,-3
1537921734903202,-3,-44,-1,1,0,2,0,1
1537921734925143,-1,-45,-7,-4,-1,0,-1,-2
1537921734925143,-7,3,0,-5,-2,-2,-1,1
1537921734926141,-2,13,-1,-1,-2,0,0,-1
1537921734926141,0,16,7,3,-1,-2,-2,0
1537921734950077,-5,-14,1,-3,-1,-3,-2,-4
1537921734950077,-9,9,-7,1,1,0,-2,3
1537921734952071,-4,-34,-3,1,2,-1,-2,-2
1537921734952071,1,14,1,1,-1,0,-2,0
1537921734955063,0,15,-2,-2,-1,-2,-2,-1
1537921734955063,3,24,6,2,-2,-1,-1,1
1537921734963042,4,1,0,-1,-2,0,0,-2
1537921734963042,-6,-8,-2,-1,0,-2,0,0
1537921734977004,4,25,2,0,-1,1,-2,2
1537921734977004,-5,-18,5,2,2,1,-1,-2
1537921734978002,0,-27,2,2,0,0,2,1
1537921734978002,-3,51,-4,-3,-2,-2,-2,-4
1537921734991964,0,16,-10,-8,-1,-3,-3,-13
1537921734991964,1,4,-3,-5,-4,-3,-2,1
1537921734998946,-22,-68,-8,1,0,-3,0,2
1537921734998946,-1,28,1,2,0,-2,0,-6
1537921735013906,3,-6,9,0,-2,-5,-1,3
1537921735013906,11,70,-4,0,0,-2,1,1
1537921735021884,-22,-53,-12,-5,-1,-1,-3,-6
1537921735021884,-3,22,-1,-5,-2,-3,-1,2
1537921735036844,1,48,-4,-1,-1,0,-1,-2
1537921735036844,8,-15,8,-2,-2,-2,1,2
1537921735037842,-1,32,3,0,-4,-1,-1,-1
1537921735037842,-5,-25,-3,0,1,-1,-2,-2
1537921735051805,-6,-27,-2,1,0,2,0,0
1537921735051805,1,-10,1,1,1,0,0,-1
1537921735058786,11,20,2,0,-1,0,0,1
1537921735058786,-7,-37,-6,-3,0,-3,-2,-4
1537921735073745,0,19,2,-2,-2,-2,-3,1
1537921735073745,0,-1,0,-1,1,-1,0,-3
1537921735081724,3,-5,0,0,-1,-4,-2,2
1537921735081724,2,24,4,0,1,-1,0,-3
1537921735096684,12,-8,5,2,0,-1,1,3
1537921735096684,-23,-86,-20,-6,-4,1,-2,-4
1537921735104663,0,37,10,3,-1,2,-1,4
1537921735104663,10,-11,-9,-3,-2,-1,0,1
1537921735111644,-11,-16,0,1,0,-1,0,-3
1537921735111644,12,27,1,1,0,-2,-2,-2
1537921735118625,6,16,5,-3,-2,-1,-1,2
1537921735118625,0,-10,4,3,0,-2,-2,-2
1537921735133586,6,23,-4,4,0,0,0,2
1537921735133586,7,7,11,1,-1,1,0,7
1537921735142562,-24,-64,-22,-15,-4,-2,-1,-12
1537921735142562,5,68,7,1,0,3,1,-2
1537921735157521,-12,-64,-7,-6,-2,0,0,-1
1537921735157521,6,11,7,1,2,3,3,2
1537921735157521,27,27,4,3,0,1,2,5
1537921735157521,-5,-26,-5,-4,-2,2,0,-1
1537921735171484,-1,4,6,0,1,0,0,-1
1537921735171484,0,12,-7,1,0,-3,-2,-3
1537921735179463,6,8,1,2,0,2,0,-1
1537921735179463,-6,-3,4,0,-3,0,-1,-1
1537921735194423,-2,10,0,0,-2,2,0,-1
1537921735194423,2,26,4,-1,-1,0,-2,-2
1537921735202401,5,14,3,0,0,0,-1,-1
1537921735202401,3,-19,-2,-2,0,-1,0,1
1537921735217361,8,16,-2,-3,0,1,-2,-6
1537921735217361,-18,-19,-6,-4,-1,3,0,-4
1537921735218359,-2,27,11,0,-2,-1,1,-2
1537921735218359,-4,0,6,-1,-1,2,-1,0
1537921735231325,1,25,-6,0,-3,-2,0,3
1537921735231325,9,4,-3,0,-1,-1,-1,-6
1537921735239303,6,6,3,1,-2,-1,0,-2
1537921735239303,1,-8,7,-3,-5,-2,0,0
1537921735254263,-6,-1,-5,-3,-3,-3,-2,-3
1537921735254263,0,-10,3,0,-3,-2,-1,-2
1537921735262242,-10,-34,-8,-3,-3,-1,-1,-3
1537921735262242,4,1,4,1,-3,-2,-2,-2
1537921735277202,7,9,4,-1,0,-4,1,-3
1537921735277202,-14,-5,-9,-4,-3,-4,-4,-4
1537921735278199,5,18,6,-1,1,-2,0,0
1537921735278199,-3,-27,-2,-2,0,-2,0,-1
1537921735291164,5,15,5,3,-1,0,-1,5
1537921735291164,-1,13,2,1,-2,-1,-2,-4
1537921735299142,-1,3,-1,1,0,-3,-3,-2
1537921735299142,-5,79,4,-1,0,0,0,0
1537921735314102,-10,-77,-12,-1,0,1,1,-3
1537921735314102,-4,53,2,-2,-1,-3,-1,-1
1537921735322081,3,-11,-8,2,-1,1,1,-1
1537921735322081,-1,18,-6,-1,-1,-2,0,-1
1537921735338039,-3,17,8,1,0,-1,-2,0
1537921735338039,1,13,7,-1,-1,0,-1,1
1537921735345020,1,-8,-2,-2,-1,0,-2,-1
1537921735345020,-3,-19,2,2,0,-1,-2,-2
1537921735352001,-3,7,1,-1,-1,1,1,0
1537921735352001,-1,-35,-6,-1,-2,0,0,-2
1537921735358982,-1,14,4,1,-1,-1,-2,1
1537921735358982,-2,-30,-10,-2,-1,-1,-1,0
1537921735373942,-5,9,5,0,0,-1,-2,-4
1537921735373942,4,-13,-5,0,-1,1,2,3
1537921735381921,-5,-7,-6,-2,-2,-1,0,-1
1537921735381921,4,-11,-4,-2,-1,0,-2,-5
1537921735396881,7,38,9,3,2,0,2,2
1537921735396881,2,-11,4,-1,-1,1,1,1
1537921735404860,-2,-84,-7,-5,-2,-1,0,-5
1537921735404860,-30,-16,-18,-6,-2,-2,-2,-6
1537921735411841,4,23,-1,-1,-1,0,-1,2
1537921735411841,3,-6,1,2,0,0,1,-1
1537921735418823,7,28,2,3,1,1,2,6
1537921735418823,3,-16,0,2,1,0,1,2
1537921735433783,-3,-17,-11,-4,-2,-1,-1,-1
1537921735433783,-1,-1,-2,0,0,0,-3,0
1537921735442759,-3,16,0,0,0,0,0,-3
1537921735442759,4,-6,0,-2,-2,3,1,1
1537921735456721,-6,-6,0,0,-1,0,0,-5
1537921735456721,6,1,6,-2,-1,-1,0,2
1537921735464700,0,13,-3,-3,-1,-2,-1,0
1537921735464700,3,-10,2,0,-1,0,-2,-2
1537921735479660,1,-7,0,1,-1,0,-1,1
1537921735479660,-8,1,-5,-3,-2,-2,-2,-4
1537921735480658,-6,7,-6,-3,-2,0,-2,-3
1537921735480658,-2,-34,-3,-1,0,0,0,-3
1537921735493623,0,15,-3,-2,-1,-4,-2,-2
1537921735493623,-1,5,5,0,-1,-1,-2,-2
1537921735502599,1,12,-7,-1,0,0,-2,-1
1537921735502599,4,-1,4,2,-1,-1,0,0
1537921735516561,-2,3,0,0,1,-1,-3,-2
1537921735516561,0,-24,-1,0,1,1,2,0
1537921735524540,2,56,15,1,-2,-1,-1,0
1537921735524540,-4,-33,-13,0,-2,0,-1,0
1537921735539500,4,0,-2,-4,-3,-1,1,-1
1537921735539500,-4,0,-1,-1,-2,0,1,1
1537921735540498,-3,3,0,-3,-2,-3,-2,-5
1537921735540498,4,-13,6,-3,0,1,0,0
1537921735554460,-4,4,-9,-2,-3,0,-2,-2
1537921735554460,-1,31,0,3,2,0,-1,2
1537921735562440,-3,-30,1,1,1,-1,0,2
1537921735562440,0,-28,-1,0,1,-1,-1,-3
1537921735576401,-6,5,-3,-4,-4,0,-1,-3
1537921735576401,0,-9,-4,0,-2,0,0,1
1537921735584380,-9,49,8,-1,0,-2,0,2
1537921735584380,3,-9,7,-1,-1,-1,0,-2
1537921735599340,3,-2,-5,0,-2,1,1,2
1537921735599340,1,1,0,-1,-1,0,0,2
1537921735600337,-5,-24,0,-2,-1,-3,-1,-4
1537921735600337,1,28,0,-1,1,-1,-2,1
1537921735614300,-1,-7,7,2,1,-1,-2,-2
1537921735614300,-2,-2,-6,-1,0,-1,-2,-2
1537921735622279,3,-11,3,1,-2,0,-2,-1
1537921735622279,0,18,-9,-2,-1,0,0,1
1537921735636241,1,-14,6,0,1,-2,1,-2
1537921735636241,-5,4,-1,-3,-1,-1,0,-2
1537921735645218,-6,23,-2,-3,-1,-2,-2,-5
1537921735645218,-1,-5,-3,-1,0,-2,-2,-3
1537921735660177,-11,-4,-7,-4,-3,1,-3,-2
1537921735660177,4,-13,2,1,-2,-1,0,0
1537921735660177,4,-4,-2,-2,-1,-2,1,1
1537921735660177,2,58,9,1,-1,-2,1,1
1537921735674140,-1,-16,-1,-2,0,0,1,-1
1537921735674140,2,-6,5,1,-2,-3,-1,-2
1537921735682119,8,2,-6,0,0,0,1,0
1537921735682119,-7,-23,6,-5,-2,-1,-1,0
1537921735697079,-8,-50,-12,-5,-1,-2,-1,-2
1537921735697079,0,6,-3,-2,-1,-3,-1,-1
1537921735705058,4,-12,2,1,-1,0,0,4
1537921735705058,5,21,4,1,0,1,-1,2
1537921735720018,1,16,10,1,0,-2,0,2
1537921735720018,-4,-31,2,2,2,-1,1,0
1537921735720018,4,47,-6,1,-3,-2,0,-2
1537921735720018,-14,-34,-3,-4,-2,-1,0,-4
1537921735733982,-2,-12,-2,-1,-1,0,-2,-2
1537921735733982,1,-10,-16,-2,-1,0,-1,-2
1537921735741959,-5,-11,3,0,-1,-1,-2,0
1537921735741959,7,25,-5,-2,-2,1,1,3
1537921735756919,-1,-1,4,2,1,1,-2,0
1537921735756919,2,-11,4,-1,-2,-2,0,-1
1537921735764898,-5,-1,-4,-2,-1,1,-2,-2
1537921735764898,1,45,-4,-1,-2,-2,-1,2
1537921735779858,-5,-15,0,-1,0,0,-2,-1
1537921735779858,-2,-27,-7,-1,-1,-2,-1,0
1537921735780855,3,3,-2,-2,0,-2,0,2
1537921735780855,-5,8,1,0,0,-2,-1,-2
1537921735793821,7,24,2,0,-3,-1,0,1
1537921735793821,-2,20,0,-2,1,-2,-1,-2
1537921735801799,1,-8,4,1,-1,-1,-2,0
1537921735801799,3,-17,-2,1,0,0,-1,4
1537921735816759,2,11,3,2,1,-2,1,0
1537921735816759,-1,-7,-10,-3,-1,0,-3,-5
1537921735824738,-4,-9,-3,-2,-3,1,-3,-3
1537921735824738,-2,-3,6,0,0,1,0,0
1537921735847676,5,0,3,1,-1,-2,1,3
1537921735847676,1,33,-4,0,-1,0,-1,1
1537921735849671,-10,-79,-7,-2,1,0,-1,-3
1537921735849671,1,24,-3,-1,-1,0,-1,-3
1537921735861639,0,-12,-5,-1,0,-1,2,0
1537921735861639,-3,-24,4,-3,0,-2,0,1
1537921735870615,9,73,5,3,2,-1,0,1
