timestamp,emg1,emg2,emg3,emg4,emg5,emg6,emg7,emg8
1537922230395236,6,-10,24,54,13,1,-1,0
1537922230395236,-3,-35,-9,4,2,0,0,-2
1537922230404212,6,27,-12,-6,-1,-3,0,-1
1537922230404212,-2,-23,12,-17,-8,-3,-1,-4
1537922230405209,-3,2,-2,-3,0,0,1,2
1537922230405209,-7,21,1,6,0,-1,0,-5
1537922230407204,0,-11,-7,1,0,0,1,-1
1537922230407204,4,14,-5,-2,-2,-1,0,1
1537922230407204,-1,6,-10,-12,2,1,-1,-1
1537922230407204,1,4,6,5,-1,-2,-1,2
1537922230424159,-3,-6,-4,-4,-1,0,-1,-1
1537922230424159,-1,11,5,7,0,-1,-1,1
1537922230432138,-3,-9,3,-15,-6,-4,-3,-3
1537922230432138,-1,-8,-33,-15,-3,-3,-2,-1
1537922230439119,-1,-3,19,15,2,-2,0,0
1537922230439119,-1,-7,0,26,5,1,2,0
1537922230452084,0,-2,0,-2,-3,0,-1,-1
1537922230452084,6,12,-1,-36,-7,-2,-2,0
1537922230468042,-2,-4,10,46,9,1,0,-1
1537922230468042,0,16,23,5,0,-1,0,-1
1537922230469039,-1,-16,-17,-8,-1,-1,2,0
1537922230469039,-1,5,-17,0,1,0,-1,-1
1537922230515913,-2,10,-3,0,-3,-2,0,-2
1537922230515913,-1,-9,4,2,-1,-1,0,0
1537922230515913,0,4,3,0,3,1,-1,0
1537922230515913,0,0,4,0,-1,-2,-1,-2
1537922230516911,1,-1,-4,-3,-1,-2,-2,0
1537922230516911,-1,5,-4,-3,-3,-2,-3,-2
1537922230519903,-2,-1,10,0,-1,-2,-2,-1
1537922230519903,-1,-2,-5,0,-2,1,0,-1
1537922230526884,-2,-3,-3,1,-1,-2,0,-2
1537922230526884,-1,-1,1,0,-1,0,-1,-2
1537922230534862,1,-3,-3,-1,-3,-1,0,0
1537922230534862,3,4,5,0,-1,-1,-2,1
1537922230543839,0,-1,2,1,1,1,-1,1
1537922230543839,-2,0,-5,-1,-1,-1,-1,-1
1537922230557802,-2,0,-3,-2,-4,-2,0,-1
1537922230557802,-6,-4,-2,0,0,0,0,-2
1537922230564783,-3,0,1,1,2,0,-1,-1
1537922230564783,-2,-1,-1,-1,0,-2,0,0
1537922230579743,-1,-1,-4,-1,0,0,-2,-1
1537922230579743,-2,0,-4,-3,-3,-3,-2,-3
1537922230588719,3,-8,-3,-3,-4,-3,-1,0
1537922230588719,-1,34,12,1,-1,0,0,-2
1537922230602681,0,4,-7,-1,1,0,0,-1
1537922230602681,9,-17,-6,-2,-2,-2,-2,2
1537922230609663,-3,-1,6,1,1,0,0,-1
1537922230609663,0,23,7,-1,-1,-2,-1,1
1537922230628612,-2,-47,-28,-9,-4,-3,-3,-1
1537922230628612,9,59,1,-39,-7,-3,-6,-7
1537922230629609,-8,12,8,-5,-4,1,1,-9
1537922230629609,8,3,30,23,-2,0,2,8
1537922230632601,-10,-2,9,-67,-12,-1,5,39
1537922230632601,36,22,-105,-10,-11,-1,2,4
1537922230651551,-37,72,95,-18,-6,-3,-1,-28
1537922230651551,19,54,-26,12,-21,0,-6,-24
1537922230663520,30,-71,56,-76,-34,-3,0,-7
1537922230663520,-69,-68,-63,88,17,-25,-33,-43
1537922230664517,16,-53,14,-47,98,79,79,73
1537922230664517,0,-27,-6,106,73,27,32,14
1537922230677481,-50,96,24,127,65,-9,-80,-4
1537922230677481,-6,-128,-2,-123,-55,-47,-7,-81
1537922230692442,65,76,-51,-76,-75,-17,-29,1
1537922230692442,-15,48,-46,28,17,39,52,82
1537922230693439,-66,-41,21,39,15,-14,-39,-81
1537922230693439,30,85,59,68,-26,-29,57,-71
1537922230707401,1,-36,-50,-24,-17,2,12,55
1537922230707401,34,-32,-63,-128,-102,-9,54,-15
1537922230714383,48,-30,-33,96,41,-44,-83,17
1537922230714383,52,87,78,-9,61,-10,-80,-68
1537922230723359,-94,-54,120,-42,-16,14,78,-15
1537922230723359,19,-104,12,68,53,15,73,25
1537922230738318,19,36,-83,-128,-38,85,65,30
1537922230738318,6,17,72,19,-21,-40,-10,70
1537922230744303,15,-38,-41,-17,-33,-32,-23,-1
1537922230744303,-11,30,24,-66,-28,-33,-76,6
1537922230752282,-34,-87,-34,2,-5,-1,32,7
1537922230752282,13,25,3,-28,12,58,31,44
1537922230767242,7,13,-48,20,6,5,0,-15
1537922230767242,-26,-6,7,-4,7,-23,-39,-16
1537922230774223,24,19,21,3,12,12,59,-10
1537922230774223,-13,-28,-33,-23,10,26,5,29
1537922230783199,-4,-32,14,76,25,-17,-15,-11
1537922230783199,-21,-27,-1,-2,8,-4,-31,-38
1537922230798159,24,38,3,-27,-22,-15,2,-1
1537922230798159,-24,-18,17,6,-4,9,22,37
1537922230804143,7,27,-31,19,-1,-17,-52,-15
1537922230804143,11,-43,16,-15,-4,2,-7,-15
1537922230812121,1,20,6,-14,-15,0,12,-4
1537922230812121,-21,-14,-10,7,5,6,-4,24
1537922230827081,12,19,-4,23,11,2,0,-20
1537922230827081,0,18,-9,-24,-12,-9,-17,-14
1537922230834063,-7,10,16,7,-1,-9,15,0
1537922230834063,-11,-6,-14,2,3,13,6,7
1537922230843039,13,-4,-11,0,-8,-10,-14,-4
1537922230843039,-8,3,30,7,2,-2,1,-3
1537922230857999,0,-4,7,1,-5,-8,-2,-1
1537922230857999,6,1,-33,-8,3,10,11,10
1537922230864980,1,-12,-4,9,5,-1,-5,-4
1537922230864980,-8,3,1,1,-1,-9,-12,-3
1537922230879940,4,13,6,-5,-5,1,13,-5
1537922230879940,-2,-6,4,-7,-1,6,3,12
1537922230886921,-6,-5,-1,11,4,-5,-5,-11
1537922230886921,-3,-2,1,-5,-1,0,-7,-9
1537922230894900,4,7,-1,-3,-4,0,1,1
1537922230894900,-6,-7,5,0,-1,4,8,9
1537922230903876,3,2,-6,6,0,-4,-10,-1
1537922230903876,3,-12,-2,-4,3,0,-1,-2
1537922230917839,-2,2,2,-2,-4,-2,2,-3
1537922230917839,-4,18,0,2,1,1,-2,4
1537922230924820,1,-7,0,4,1,-2,0,-3
1537922230924820,-4,-16,-3,-7,-1,-1,-4,-4
1537922230940778,-2,9,-17,1,0,0,2,1
1537922230940778,-5,-25,6,1,-1,2,0,1
1537922230946761,4,37,9,0,-2,-4,-4,-1
1537922230946761,0,28,13,-1,-2,0,2,2
1537922230954740,-2,-23,-7,0,-2,-1,0,1
1537922230954740,0,-20,10,-1,-1,0,3,2
1537922230963716,5,-17,-18,4,-1,1,0,-1
1537922230963716,-13,-72,-21,-9,-6,-4,-5,-7
1537922230977679,5,56,16,-4,-4,-4,0,-4
1537922230977679,3,27,13,4,4,6,3,1
1537922230984660,1,-1,-7,0,-1,0,1,9
1537922230984660,16,27,10,5,5,4,3,13
1537922231000618,-5,-14,-26,-2,0,0,-7,-26
1537922231000618,-10,25,29,-3,-6,-3,-1,-4
1537922231006602,-6,-24,-32,-8,-4,-4,-3,-7
1537922231006602,35,28,32,-5,0,3,3,15
1537922231015578,-51,-62,-55,-63,-23,-9,-2,-15
1537922231015578,37,70,55,-33,-17,-5,-12,16
1537922231023557,-13,3,-23,14,0,8,10,8
1537922231023557,10,35,-13,-57,-2,40,47,48
1537922231037519,-11,-48,-50,-67,-31,-65,-12,20
1537922231037519,10,-50,37,11,52,14,-29,-27
1537922231044501,72,1,-62,67,-28,-46,-26,66
1537922231044501,-29,34,48,19,4,10,-60,8
1537922231060458,75,37,19,-73,53,64,91,93
1537922231060458,58,-17,-78,72,4,-77,-53,-9
1537922231067439,27,43,127,91,127,-7,-67,-108
1537922231067439,41,-81,-128,-88,-72,-12,53,60
1537922231074421,13,32,-90,-27,-68,-17,-94,-91
1537922231074421,-32,-15,19,-49,-64,2,127,70
1537922231083397,-22,-34,2,-95,-54,-95,-106,-77
1537922231083397,14,23,117,127,114,22,-109,-125
1537922231097359,5,9,1,93,49,75,70,77
1537922231097359,17,22,-103,-18,18,43,19,-1
1537922231104340,57,-14,-57,-118,-42,65,127,73
1537922231104340,-128,-95,-106,-128,-80,-116,-61,-20
1537922231120298,35,78,127,30,17,36,44,22
1537922231120298,-15,-2,25,59,15,25,51,62
1537922231127279,-37,-5,-16,-40,18,77,-37,-75
1537922231127279,34,25,-24,2,12,0,-22,36
1537922231134261,-17,15,-6,-11,-12,-62,-53,-33
1537922231134261,-29,-12,-5,-18,-16,-16,0,36
1537922231149220,-2,12,18,-30,-11,-5,6,0
1537922231149220,18,23,14,32,20,40,32,19
1537922231158197,-13,-36,-8,26,-4,-23,-28,-36
1537922231158197,-20,-10,-4,-36,3,-2,-26,-46
1537922231164181,-17,-1,-18,28,14,28,28,36
1537922231164181,-17,8,-3,5,-1,-23,-14,-37
1537922231180138,-2,-17,1,30,12,0,26,8
1537922231180138,1,-14,-8,-9,-2,8,-36,-46
1537922231187119,-25,-1,-4,1,-18,-24,-16,18
1537922231187119,19,10,9,6,-10,3,47,4
1537922231194101,0,5,22,-4,1,0,-22,-26
1537922231194101,-4,-35,-11,-4,11,3,-26,-5
1537922231210058,-8,-19,-11,17,1,-15,4,2
1537922231210058,-1,7,16,-2,4,2,18,-11
1537922231218037,-1,-11,-13,-11,-8,5,-7,6
1537922231218037,-14,10,-5,-17,-7,-11,-35,-22
1537922231225018,-4,13,-3,19,12,4,29,20
1537922231225018,9,12,3,15,8,11,7,-14
1537922231239979,-8,5,4,2,-7,-12,-20,-1
1537922231239979,5,0,5,1,4,3,6,-3
1537922231246961,-3,-12,2,-14,-11,-5,-1,-4
1537922231246961,3,0,-9,-1,-4,1,4,3
1537922231254938,-2,-20,-3,4,-3,-7,-7,-8
1537922231254938,-2,-7,-5,-15,-3,-1,-6,-8
1537922231269899,-2,-3,-2,4,1,6,6,15
1537922231269899,-4,-3,2,2,-3,-7,-5,-11
1537922231277877,-2,-7,-3,0,4,-2,7,2
1537922231277877,-2,-2,4,-3,-3,2,-8,-12
1537922231284858,-7,4,-1,-1,-8,-6,-4,4
1537922231284858,3,4,5,6,3,4,12,6
1537922231299818,-2,-2,0,-2,2,-1,-5,-4
1537922231299818,-2,2,13,1,1,0,-6,-2
1537922231306800,-2,1,-8,-1,-6,-4,0,-1
1537922231306800,-2,0,-17,-9,-3,-1,3,-4
1537922231314778,1,2,1,4,5,4,-3,2
1537922231314778,-7,-5,-7,-2,-3,-4,-9,-5
1537922231330735,-1,0,12,3,2,3,6,2
1537922231330735,2,4,6,2,-3,-1,1,-3
1537922231338714,-1,-1,-16,-4,-4,-3,-6,0
1537922231338714,1,2,-2,-4,-4,-2,-1,1
1537922231344698,-2,-2,-4,0,-2,-3,0,-3
1537922231344698,-1,6,18,2,0,-1,1,-1
1537922231360655,0,-6,-4,2,2,-2,-1,-2
1537922231360655,0,1,-5,-4,-3,-2,-3,-2
1537922231366639,-3,3,9,2,1,1,0,0
1537922231366639,1,-9,-20,-1,-1,-2,1,-2
1537922231381599,1,-1,12,2,2,0,0,-1
1537922231381599,0,8,-8,-4,-3,0,-4,-2
1537922231389578,-3,1,2,0,-2,-4,-3,0
1537922231389578,0,3,9,4,0,1,2,0
1537922231398554,-5,-8,-14,-7,-2,-4,-3,-2
1537922231398554,1,0,-12,-2,-2,0,0,-1
1537922231404538,-2,-1,11,2,-2,-2,0,0
1537922231404538,-1,-4,-14,-5,-3,-1,0,-2
1537922231421492,1,12,9,4,-1,0,0,-1
1537922231421492,-1,2,17,5,0,1,-2,-2
1537922231427477,2,-8,-22,-4,-3,0,-1,1
1537922231427477,-7,-8,1,-2,-1,-2,1,-3
1537922231442437,1,0,1,-1,1,-2,-3,-1
1537922231442437,-2,12,4,-2,1,-3,0,0
1537922231449418,1,5,0,-1,-1,0,1,3
1537922231449418,-1,0,7,0,1,0,-4,-12
1537922231458395,-1,-7,6,1,-1,2,0,0
1537922231458395,4,11,11,1,0,-3,0,0
1537922231464378,-3,-8,-17,-3,0,0,-1,0
1537922231464378,-1,0,-9,-3,-3,-1,0,4
1537922231481334,-2,1,1,-1,3,0,1,-1
1537922231481334,1,-11,-1,1,3,1,-1,-3
1537922231495297,1,-3,-4,-1,-1,-2,-2,-3
1537922231495297,0,3,1,0,-1,0,1,1
1537922231502278,-1,-2,7,-2,-1,0,-3,-3
1537922231502278,-3,-7,-5,-1,-2,-1,-2,0
1537922231509259,-1,0,0,0,1,0,-3,-2
1537922231509259,0,3,11,-1,-1,-1,0,0
1537922231532197,-1,-3,-5,-1,-3,-2,0,1
1537922231532197,-3,-10,-20,-3,0,-1,-1,-2
1537922231540176,-2,-2,-2,-1,-1,0,-1,-2
1537922231540176,1,1,2,0,-1,-1,0,-1
1537922231556133,0,4,1,1,-3,-2,0,0
1537922231556133,-1,7,23,5,3,3,-2,-3
1537922231556133,-2,-3,-13,-2,-2,-1,-2,0
1537922231556133,-1,-12,-20,-3,-2,1,0,0
1537922231570096,-1,-2,-3,-2,-1,-3,0,-1
1537922231570096,-1,-7,-7,-3,-3,-2,-1,-1
1537922231571093,0,4,12,0,-1,-2,-1,0
1537922231571093,0,8,16,7,6,3,1,0
1537922231593034,-2,0,-8,-2,0,0,0,-2
1537922231593034,2,12,0,0,-1,-1,0,0
1537922231593034,-1,-23,2,0,0,1,0,0
1537922231593034,-1,3,0,-3,-2,-4,-3,-1
1537922231606996,0,-20,-1,-1,-1,0,-2,1
1537922231606996,-2,-28,-7,1,-1,-2,0,-1
1537922231614975,-6,-27,-15,-7,-7,-5,-2,-3
1537922231614975,2,51,4,5,3,2,0,0
1537922231629935,3,31,15,-3,-2,-2,-2,-1
1537922231629935,-6,-25,1,-4,-2,-1,-2,-4
1537922231630933,14,87,15,3,2,-1,3,2
1537922231630933,-1,-78,-33,0,2,0,1,9
1537922231652874,3,-14,6,-28,-5,-1,-2,3
1537922231652874,24,60,-88,-65,-20,-6,-7,65
1537922231653871,6,-67,100,4,14,53,38,-56
1537922231653871,7,-37,-89,-102,-48,-43,38,93
1537922231666837,-80,-42,8,93,11,-30,-63,-84
1537922231666837,5,17,-31,-112,-45,-39,-28,71
1537922231674815,69,7,-118,102,17,-19,47,80
1537922231674815,78,56,117,-13,68,75,89,-22
1537922231698752,-99,-71,-127,-54,-4,36,-21,89
1537922231698752,48,-74,27,78,32,-6,33,16
1537922231698752,-89,31,-67,-128,-39,-101,-67,-107
1537922231698752,53,9,121,107,25,80,24,60
1537922231712714,49,36,-33,-34,21,-55,12,59
1537922231712714,14,25,18,-38,-23,22,-1,-40
1537922231713711,19,-8,88,-12,-32,-21,49,127
1537922231713711,40,-11,-12,36,-10,-60,-89,-128
1537922231726677,-79,28,96,-74,-7,56,47,38
1537922231726677,-30,-50,11,20,18,36,-9,13
1537922231735653,-11,-12,-34,-48,-10,-11,-63,10
1537922231735653,-18,-7,-56,-40,-5,8,-30,9
1537922231750613,57,50,30,-5,-18,-9,20,58
1537922231750613,-29,10,-6,-7,12,11,43,-31
1537922231750613,-35,-1,-5,6,1,17,-7,-50
1537922231750613,-15,24,-1,5,-6,-28,-6,-3
1537922231772554,23,-25,-30,17,3,14,19,-33
1537922231772554,-15,-10,12,-3,-1,-13,13,-30
1537922231773551,9,3,0,39,18,7,-20,-11
1537922231773551,-47,-5,-27,-16,-15,-13,-16,17
1537922231787514,40,17,3,-6,-3,-2,22,-23
1537922231787514,-4,-8,-8,42,11,-5,-35,-24
1537922231795493,11,13,18,-9,2,16,-5,-3
1537922231795493,-28,-11,-16,-16,-4,0,13,4
1537922231810453,10,-3,0,20,10,0,-14,-40
1537922231810453,4,41,11,4,-1,-5,2,-18
1537922231810453,-8,-41,-22,2,4,18,14,1
1537922231810453,-22,-6,-7,-22,-18,-16,-6,-1
1537922231832394,21,-1,-7,11,-11,-22,-4,-13
1537922231832394,-12,-18,-1,1,6,13,-17,3
1537922231833392,13,8,7,-1,12,20,23,13
1537922231833392,-7,4,-9,6,-6,-6,-7,30
1537922231847354,10,-70,-2,-5,-6,-14,-47,-75
1537922231847354,-2,-21,-4,2,-3,-8,10,9
1537922231855333,-1,26,5,2,3,12,7,1
1537922231855333,-12,38,-7,-6,-3,12,-9,4
1537922231870293,13,54,23,6,-6,-32,18,2
1537922231870293,5,98,40,1,0,16,7,7
1537922231871290,-6,-105,-39,-3,-3,-19,-4,-8
1537922231871290,-8,-3,-22,-2,6,-1,-19,0
1537922231892234,12,15,-5,1,0,11,13,10
1537922231892234,9,92,6,6,0,-14,-5,-11
1537922231893231,-7,-59,7,2,-2,8,2,3
1537922231893231,-12,-5,8,-7,-6,-16,2,-17
1537922231907194,1,-6,-13,-1,2,6,8,2
1537922231907194,7,0,4,4,2,6,1,5
1537922231915173,16,104,11,5,2,10,-4,-2
1537922231915173,-17,-128,-27,-1,4,5,7,-13
1537922231930133,5,23,-27,-3,5,16,-5,67
1537922231930133,23,-39,-13,-85,-6,21,30,33
1537922231931130,1,-2,24,17,-31,-17,12,-23
1537922231931130,43,61,-93,-61,-13,-31,-72,3
1537922231953071,-14,42,-28,-93,-17,27,-2,-44
1537922231953071,-104,-93,-109,103,-16,-83,-33,-69
1537922231953071,102,75,-1,-73,37,103,103,76
1537922231953071,-37,-37,122,58,-26,-88,-63,-9
1537922231967034,-1,-3,113,25,82,103,76,-91
1537922231967034,-84,-89,-12,-31,-32,-108,-116,89
1537922231975013,-14,-20,-91,16,60,-51,57,-116
1537922231975013,29,86,39,-110,-4,115,127,116
1537922231989973,-15,-12,45,-100,-50,-102,-97,23
1537922231989973,-25,-70,35,80,21,28,-3,-90
1537922231990971,34,17,3,-113,-4,66,20,-50
1537922231990971,-71,-50,-29,127,29,-21,81,89
1537922232012912,40,12,41,-119,-51,87,121,39
1537922232012912,-1,-6,-85,39,-18,-60,-80,-60
1537922232013909,-34,13,100,93,-8,-82,33,-77
1537922232013909,38,38,14,48,77,55,75,47
1537922232035850,10,-3,-20,60,-3,-77,-83,-32
1537922232035850,5,24,-30,7,23,63,72,-11
1537922232036848,2,15,-15,-46,-10,88,29,84
1537922232036848,-7,15,-33,-71,-61,-87,-41,-128
1537922232049813,-65,-5,-55,22,-6,-37,-91,20
1537922232049813,63,30,48,-71,10,34,-11,36
1537922232050811,-35,-5,-16,20,-13,-14,-54,26
1537922232050811,8,-20,15,-22,9,34,6,7
1537922232072752,27,-24,-39,32,17,4,24,36
1537922232072752,9,20,25,-29,-5,5,27,-27
1537922232073750,-20,-15,14,9,-7,-13,-46,36
1537922232073750,1,-15,-32,-6,-2,-11,-16,-27
1537922232095691,6,-8,3,25,-4,-18,-11,-27
1537922232095691,21,7,25,-17,-2,20,30,32
1537922232096688,-1,-12,-7,-2,-16,-28,-32,13
1537922232096688,9,3,21,-12,-1,1,-43,-20
1537922232110650,-5,-74,-14,37,8,6,22,2
1537922232110650,17,-39,24,-30,4,19,34,24
1537922232110650,-2,-28,-11,-2,3,-18,-33,17
1537922232110650,-3,21,-4,2,-2,-2,-17,-34
1537922232132592,10,57,1,12,-2,8,19,17
1537922232132592,21,56,-3,-11,5,5,19,7
1537922232133589,-8,-8,1,-13,-17,-24,-37,-11
1537922232133589,-1,17,5,-2,1,4,-8,3
1537922232155530,5,-1,-5,15,3,1,18,22
1537922232155530,2,3,9,-20,-5,1,0,0
1537922232156528,-16,4,-3,2,-8,-9,-13,1
1537922232156528,-2,1,0,-9,-7,-1,1,3
1537922232170490,2,-5,-13,2,2,-1,5,10
1537922232170490,-1,8,3,-8,-1,2,7,-5
1537922232170490,-5,12,14,8,2,-3,-9,10
1537922232170490,-2,-14,-15,-2,-3,-2,-2,-7
1537922232192432,1,-7,-10,-2,-2,-5,-3,-10
1537922232192432,4,11,12,-1,0,4,8,8
1537922232193429,-2,-5,-2,6,0,-6,-7,1
1537922232193429,2,-5,6,-9,-6,-3,-9,-6
1537922232216368,-2,1,-1,6,1,1,4,-4
1537922232216368,7,7,9,-4,1,4,8,7
1537922232216368,-1,-14,-13,3,0,-4,-6,6
1537922232216368,-2,4,-3,-12,-3,-4,-6,-10
1537922232230331,3,1,17,14,3,0,4,6
1537922232230331,1,-1,-14,-4,2,2,4,2
1537922232231329,-3,18,3,1,-4,-7,-10,-2
1537922232231329,1,-5,-1,0,0,2,-3,-1
1537922232253269,-2,-8,5,5,2,-1,2,-4
1537922232253269,3,16,16,-3,-1,-2,1,1
1537922232254268,-1,-8,-7,0,-2,-1,-2,0
1537922232254268,-1,-1,-17,-8,-2,-1,-1,-2
1537922232276208,2,-4,-10,-7,-4,-3,0,0
1537922232276208,1,-7,1,0,0,1,1,-2
1537922232276208,-2,5,1,-3,0,-2,-2,1
1537922232276208,1,-1,7,1,-3,2,-1,-1
1537922232290171,0,-2,-3,-2,-1,-1,-2,-6
1537922232290171,1,1,-2,0,1,1,0,13
1537922232291169,0,-8,-3,0,2,-2,-2,-4
1537922232291169,0,1,4,-1,-1,-1,-1,-1
1537922232313109,0,13,19,1,0,0,1,1
1537922232313109,3,1,-25,-5,-1,1,0,-1
1537922232313109,0,-6,3,-1,-2,-3,-2,3
1537922232313109,1,-6,-9,-4,-1,-3,0,14
1537922232336048,-1,10,8,6,0,0,2,6
1537922232336048,-2,-15,6,3,1,-2,1,0
1537922232337046,-2,-10,-20,-4,0,0,-3,-5
1537922232337046,2,12,2,3,1,0,-1,-3
1537922232350011,-3,1,-19,-5,-2,0,-2,-3
1537922232350011,-1,19,17,-7,-4,-3,-1,0
1537922232351009,-4,-9,-14,0,0,-1,1,2
1537922232351009,2,14,13,-2,-1,0,-1,-3
1537922232372949,3,44,1,-3,-2,-3,0,2
1537922232372949,-7,-80,-13,3,-1,0,-1,-8
1537922232373946,0,-2,9,-3,-3,-2,-3,-1
1537922232373946,-2,-10,-10,0,-3,-1,0,-3
1537922232395888,0,-13,-7,-4,-1,0,-2,-4
1537922232395888,1,14,8,-3,0,0,0,0
1537922232396885,3,11,4,2,1,-2,-2,0
1537922232396885,-5,-47,-3,-1,1,-3,-3,-4
1537922232409850,7,18,-7,4,3,1,0,2
1537922232409850,-6,18,9,-6,-3,-1,-1,-2
1537922232410848,1,-1,12,1,-1,-1,0,-1
1537922232410848,14,83,9,11,4,3,1,3
1537922232432789,-29,-118,-36,-15,-8,-6,-8,-24
1537922232432789,16,115,22,9,4,2,4,5
1537922232433787,-21,-21,4,-7,-5,-6,-10,-33
1537922232433787,9,-8,-22,-4,2,1,3,57
1537922232455728,-4,78,14,-36,1,15,-5,-88
1537922232455728,9,56,43,-89,-26,2,28,-6
1537922232456725,19,0,-50,53,24,64,75,73
1537922232456725,-21,-6,-96,-110,-43,-82,-80,29
1537922232470688,15,4,72,55,-10,-53,-38,82
1537922232470688,30,-34,-77,114,43,97,91,-47
1537922232470688,16,-14,8,-33,42,13,-99,1
1537922232470688,-49,-65,-24,127,43,14,127,-48
1537922232492629,93,30,22,-38,35,25,-13,-43
1537922232492629,-89,-60,104,-11,-84,-108,-87,-39
1537922232493627,24,8,26,-1,6,71,101,109
1537922232493627,-32,39,-32,-120,-49,86,-49,-128
1537922232515568,-83,-24,48,102,26,-71,-4,-25
1537922232515568,34,-14,-68,-78,-21,4,42,-14
1537922232516565,101,15,-18,19,-27,-14,50,21
1537922232516565,-18,14,68,-12,35,51,57,103
1537922232530528,-8,-12,-71,-85,-17,39,15,52
1537922232530528,8,-19,-3,11,25,-10,-46,17
1537922232530528,-58,0,-14,-4,-8,-40,-6,-35
1537922232530528,52,13,-3,-28,-10,-29,-24,3
1537922232552469,11,-13,-24,21,2,5,10,10
1537922232552469,-12,-3,-43,8,11,-12,-12,12
1537922232553467,-8,32,27,-26,-10,-16,-24,-32
1537922232553467,12,4,28,38,3,-11,-5,-5
1537922232575408,-11,-23,-23,-19,-20,1,-10,-16
1537922232575408,-11,18,22,2,19,2,5,16
1537922232576405,-25,-4,-10,-21,-34,-37,-22,-39
1537922232576405,8,2,27,23,22,-18,-24,7
1537922232590368,-10,40,-8,5,7,25,32,23
1537922232590368,12,-26,-34,-18,7,11,-2,26
1537922232591366,-9,-21,-12,11,5,-4,-20,-31
1537922232591366,0,61,-2,-2,-26,-21,49,25
1537922232612310,11,-21,-18,-23,-26,-5,-33,-15
1537922232612310,-2,30,-3,12,6,-11,-8,0
1537922232613308,-2,27,25,-2,17,33,-1,-2
1537922232613308,4,44,61,10,5,25,5,-11
1537922232636245,4,-40,-98,-16,-9,10,24,55
1537922232636245,-10,-32,24,0,-18,-28,-6,-2
1537922232636245,-16,-15,-26,0,-2,0,0,-6
1537922232636245,1,44,15,-16,-10,-7,-13,-13
1537922232649210,1,-24,29,8,5,-5,18,-2
1537922232649210,-3,0,-15,3,5,6,-10,-2
1537922232658187,-6,11,12,-9,-2,-12,5,-4
1537922232658187,23,79,17,18,8,3,-5,7
1537922232673146,-14,-94,-22,-4,-4,-5,-8,-24
1537922232673146,11,79,25,4,10,21,17,10
1537922232673146,-11,-42,-23,-10,-9,-10,-9,-3
1537922232673146,-7,-12,-11,3,-2,-11,-25,-10
1537922232696085,0,48,2,-5,-6,-1,13,23
1537922232696085,9,-22,-33,-85,10,66,31,-62
1537922232697083,-1,36,-17,3,-30,-77,-27,40
1537922232697083,8,-72,34,11,3,-40,-79,-12
1537922232709051,-60,89,117,-106,-19,108,87,-98
1537922232709051,11,-95,-64,127,51,-95,-116,74
1537922232718026,-43,52,-66,-128,-29,-41,127,-53
1537922232718026,22,-77,49,42,21,20,-45,-74
1537922232732987,-77,-16,64,8,56,-122,-128,-4
1537922232732987,84,80,72,11,-42,32,88,-13
1537922232732987,-79,-40,-55,121,65,81,25,73
1537922232732987,-5,-6,-88,-102,-14,-66,-42,-44
1537922232755925,22,-9,-128,-75,-47,-14,5,127
1537922232755925,-6,-20,45,24,13,40,-46,58
1537922232756923,-3,10,35,35,43,69,57,47
1537922232756923,10,-15,-33,-77,-15,30,59,54
1537922232769888,61,54,23,117,12,-25,-1,35
1537922232769888,0,-96,-38,-128,-34,8,31,24
1537922232777867,23,-6,-77,60,-24,-36,-128,16
1537922232777867,-1,-14,30,27,38,53,35,5
1537922232792827,21,19,-25,-27,-6,15,61,-31
1537922232792827,-22,30,28,-6,-12,-30,13,-11
1537922232793824,17,-10,58,-8,8,13,-18,-12
1537922232793824,-29,-29,-29,-35,-22,-21,14,-6
1537922232815765,15,-10,-12,14,-11,-35,-38,-9
1537922232815765,-14,19,-15,29,5,0,25,-10
1537922232816763,15,28,40,-38,62,49,-33,-37
1537922232816763,-10,-21,-47,23,-17,-18,12,14
1537922232829728,9,17,19,12,14,32,32,-4
1537922232829728,-12,91,-7,-10,2,16,-14,5
1537922232837707,14,-29,4,-43,-38,-59,-6,-36
1537922232837707,-1,-30,0,20,6,8,5,19
1537922232852667,1,-20,31,14,9,25,1,3
1537922232852667,-18,-23,-52,-31,-5,-2,-4,-15
1537922232853664,20,15,10,-8,-21,-20,-23,-8
1537922232853664,6,-19,3,19,-3,14,25,12
1537922232874608,-2,-40,-12,-14,-5,-2,-14,-13
1537922232874608,-4,17,-5,6,2,-12,-3,-2
1537922232882587,13,4,17,-18,-11,-2,10,6
1537922232882587,-2,16,-4,18,4,3,-8,-4
1537922232889568,4,30,-8,-13,-7,1,11,-7
1537922232889568,-7,0,8,0,4,-6,-12,-31
1537922232897547,-2,-13,1,0,-12,-1,-4,-9
1537922232897547,-9,-12,-9,-12,-9,-6,2,1
1537922232912507,2,7,-9,4,0,4,-6,-3
1537922232912507,-6,-13,-4,8,3,2,7,6
1537922232921483,-3,-11,4,-16,-14,-13,-14,-15
1537922232921483,0,6,-3,3,-1,0,2,3
1537922232934448,1,-1,2,2,2,8,10,-3
1537922232934448,-7,-21,-7,-7,2,-2,-8,1
1537922232943425,1,1,3,-8,-9,-4,-1,-13
1537922232943425,-1,7,12,-7,-1,-1,1,6
1537922232958385,-1,-7,5,4,2,8,4,4
1537922232958385,-3,-4,-13,3,2,-1,-2,-4
1537922232959382,0,4,0,-5,-7,-6,-7,-6
1537922232959382,-3,0,7,8,-1,3,5,3
1537922232972347,-2,-2,7,-16,-3,-3,-4,-6
1537922232972347,-3,-12,-9,-5,-1,-2,-2,-2
1537922232979328,4,-7,16,11,0,-3,3,0
1537922232979328,0,1,-26,-6,0,0,-4,2
1537922232996283,1,34,-2,3,-1,2,-2,-3
1537922232996283,-5,-36,15,-11,-5,-4,-3,0
1537922232997281,-2,7,-4,-4,-4,-1,0,-7
1537922232997281,1,-18,-3,-1,1,0,3,17
1537922233018224,2,-9,-7,3,0,1,-4,-6
1537922233018224,-1,8,-3,3,0,2,1,3
1537922233020219,0,0,14,-3,-2,-1,-3,-6
1537922233020219,2,-8,-13,2,-1,0,3,7
1537922233032187,1,3,10,4,-1,0,1,-6
1537922233032187,-2,-1,-18,-2,0,-2,-2,-1
1537922233039168,0,-10,3,1,-3,-4,0,-2
1537922233039168,-2,6,-12,-2,-2,-1,-2,-19
1537922233056123,-3,-18,-22,-1,-2,1,-2,1
1537922233056123,0,5,16,-1,0,1,0,-2
1537922233057121,3,7,10,-2,-2,0,-1,-4
1537922233057121,-2,0,-5,1,-1,-1,0,3
1537922233078064,-3,-10,11,-2,-5,-3,-2,-4
1537922233078064,1,-16,-15,2,4,0,2,2
1537922233080059,4,35,13,2,1,0,-1,3
1537922233080059,-1,8,14,-2,-2,-1,-1,-3
1537922233093024,-2,-17,-40,-7,-3,-4,1,-3
1537922233093024,5,14,9,2,1,-2,2,16
1537922233100006,-7,-34,24,1,-1,-2,-4,-14
1537922233100006,-3,-3,-46,-3,-1,0,0,0
1537922233115964,-2,-4,8,1,2,1,-2,-5
1537922233115964,2,16,3,2,1,1,0,0
1537922233116962,-2,-26,-8,-4,-1,-3,-2,4
1537922233116962,-1,1,19,-2,-2,0,0,-2
1537922233137904,1,1,-3,-1,0,-2,0,3
1537922233137904,-1,11,-2,-2,-2,-3,-2,-2
1537922233139899,5,16,-5,2,1,2,1,1
1537922233139899,-1,-13,14,0,0,-2,-1,-2
1537922233152864,0,10,-5,1,-2,1,1,3
1537922233152864,1,13,13,-1,-1,1,0,-5
1537922233159846,-7,-69,-12,-4,-2,-2,1,-3
1537922233159846,1,-1,-17,-2,0,-2,1,2
1537922233175803,-1,-4,19,1,-2,-2,-1,1
1537922233175803,-2,-8,-12,0,0,0,-3,-4
1537922233177798,3,18,-21,1,4,3,-1,2
1537922233177798,-3,-11,30,-4,-1,0,-2,-1
1537922233198742,-2,-28,-47,-3,0,0,-1,-1
1537922233198742,-1,24,9,1,1,0,0,-4
1537922233199739,1,38,11,-4,-6,-5,-1,1
1537922233199739,-2,-23,5,3,2,1,1,-3
1537922233212705,-1,15,11,0,-2,-2,-3,-1
1537922233212705,-1,-25,-6,-1,0,0,0,0
1537922233219686,-2,-24,-24,-2,0,1,1,0
1537922233219686,1,44,12,3,-2,-1,-2,0
1537922233235643,0,-31,3,3,-1,1,-1,0
1537922233235643,-10,-63,-24,-8,-5,-4,-3,-3
1537922233237638,2,30,16,0,-1,-2,2,1
1537922233237638,3,-18,-3,1,1,-1,-1,-1
1537922233258582,0,53,38,-1,-2,-1,-1,-1
1537922233258582,6,11,-20,5,3,3,0,2
1537922233259579,-3,5,-10,-2,2,6,-3,-1
1537922233259579,-14,-73,-10,-9,-7,-15,-3,-5
1537922233272544,-4,-34,-26,-3,-1,-1,0,-4
1537922233272544,0,14,22,-1,-1,-1,0,-1
1537922233279525,5,18,-8,5,0,1,0,2
1537922233279525,5,54,18,3,0,4,-1,1
1537922233295483,1,10,21,2,2,1,2,-1
1537922233295483,-4,-9,-28,-7,-4,-4,-2,-2
1537922233297478,1,2,-2,-1,-1,-3,0,0
1537922233297478,-2,12,3,1,2,4,0,-2
1537922233318422,-2,-8,-9,-1,1,-2,-2,-1
1537922233318422,2,13,18,2,-2,1,1,-1
1537922233319419,13,89,18,6,0,1,-1,3
1537922233319419,-19,-97,-29,-10,-4,-3,-3,-4
1537922233332385,-3,28,25,-1,-1,1,0,-1
1537922233332385,-8,-18,-22,-4,-1,-2,-2,-6
1537922233339366,-2,-28,6,0,2,-1,-2,-9
1537922233339366,14,59,-27,3,5,7,5,31
1537922233356320,13,37,9,-12,-2,4,7,7
1537922233356320,2,4,-13,-52,-4,7,-23,-3
1537922233357318,12,63,94,-35,-4,52,76,-32
1537922233357318,-1,-19,-93,-97,-16,-34,-50,20
1537922233378262,-42,-97,100,101,-1,-51,12,28
1537922233378262,-1,15,22,-89,-13,-4,-29,-30
1537922233380257,68,35,88,10,-6,12,37,52
1537922233380257,-66,-35,-71,118,35,-15,6,63
1537922233392224,-16,88,57,-48,24,96,36,-58
1537922233392224,113,-107,-78,44,-61,-109,19,79
1537922233401200,-93,56,81,70,55,-18,-111,4
1537922233401200,104,89,37,-128,4,100,59,122
1537922233416160,-21,-36,-128,-86,-72,-89,72,117
1537922233416160,39,-4,3,93,31,-26,-51,-120
1537922233417158,-101,-69,-69,-128,-39,16,60,-81
1537922233417158,-50,-63,-59,107,-3,-53,-85,-21
1537922233438101,98,82,42,-70,16,-9,-79,8
1537922233438101,-30,15,44,-6,12,95,127,-14
1537922233440096,0,-60,-41,21,-12,-79,-125,9
1537922233440096,7,45,42,-7,18,28,55,-56
1537922233452064,-10,-43,-28,-23,2,31,37,-19
1537922233452064,-48,32,5,4,-11,-33,-34,38
1537922233461041,25,-18,-12,29,23,31,32,-7
1537922233461041,-6,17,40,-33,-16,18,25,-42
1537922233476000,0,-8,-15,35,6,-21,-49,3
1537922233476000,-1,15,26,18,16,8,12,5
1537922233476998,-3,-20,-66,-26,-11,6,5,18
1537922233476998,14,0,46,-7,-12,-24,-12,-16
1537922233497942,-1,-9,-15,37,-2,-12,-13,-24
1537922233497942,-40,16,13,-18,12,25,-16,-1
1537922233499937,17,-18,-23,-15,-17,-9,13,6
1537922233499937,-3,-12,15,13,-4,-13,-15,-19
1537922233511904,-11,-1,17,21,19,22,-2,-30
1537922233511904,-15,31,-1,-25,-16,-1,6,7
1537922233520881,13,-27,-7,10,11,7,-7,20
1537922233520881,8,-4,7,9,-2,-2,15,-17
1537922233535840,-10,6,-30,-12,3,18,-2,2
1537922233535840,-3,-33,16,-6,3,-4,-11,3
1537922233536838,17,21,1,16,-11,-25,1,14
1537922233536838,-4,15,-16,-2,8,13,7,-24
1537922233557782,-8,-103,17,-16,-9,-3,-4,-11
1537922233557782,-6,15,-9,2,-3,-7,-5,14
1537922233565760,0,-5,15,8,5,7,3,-5
1537922233565760,-6,26,32,-6,-6,0,-1,-11
1537922233571745,2,34,-7,12,4,0,5,-6
1537922233571745,0,-25,-1,4,6,12,4,4
1537922233580721,2,-7,-30,-8,-1,2,5,7
1537922233580721,2,58,29,-3,-6,-13,-12,-12
1537922233595681,5,8,-7,5,-2,-6,-5,-4
1537922233595681,-12,-33,-10,-3,12,14,-1,11
1537922233597675,5,48,-2,-5,-7,-3,20,-5
1537922233597675,-10,-83,-20,-2,-12,-13,-17,-7
1537922233618619,-2,11,1,4,7,0,-26,-11
1537922233618619,-5,66,47,-10,-4,7,8,25
1537922233619617,6,-40,-62,2,-1,-1,12,20
1537922233619617,6,46,48,2,0,-5,-1,-21
1537922233631585,2,13,-24,2,0,2,-5,-11
1537922233631585,-3,-89,-31,-4,1,12,-13,-6
1537922233640561,8,89,73,9,0,-6,25,-10
1537922233640561,-17,-105,-60,-10,-8,4,-9,9
1537922233655521,-11,-80,-16,-4,-2,-13,-5,-2
1537922233655521,5,126,42,5,1,2,3,4
1537922233657516,-19,-122,-48,-12,-4,-2,-11,-23
1537922233657516,3,8,23,3,0,-3,7,-2
1537922233678459,17,71,13,5,-1,0,-1,2
1537922233678459,-7,7,-6,-1,0,3,0,13
1537922233679457,48,63,5,-10,9,27,19,0
1537922233679457,12,82,-12,-109,-1,66,102,30
1537922233692422,2,-101,-85,10,-60,-94,-84,22
1537922233692422,-78,26,-28,61,12,9,111,-74
1537922233701398,-21,5,-45,-12,-39,13,-34,-28
1537922233701398,70,-29,-99,77,66,19,56,105
1537922233716358,26,91,104,28,-17,25,-17,-16
1537922233716358,-9,-98,-103,116,76,59,-71,87
1537922233717356,47,29,99,-101,-63,-91,28,16
1537922233717356,-28,-65,86,121,21,-47,-101,-79
1537922233738300,51,89,-12,-121,2,25,35,-46
1537922233738300,-22,-11,-9,-128,-69,-19,93,-22
1537922233740295,-79,-102,-11,-11,29,80,10,-64
1537922233740295,65,44,101,27,-1,25,8,13
1537922233752262,-6,-9,21,-37,20,83,123,116
1537922233752262,36,-22,85,57,0,-78,-128,-57
1537922233761239,7,18,-69,-44,23,33,55,27
1537922233761239,9,26,-70,-126,-68,-64,32,32
1537922233776199,-10,-1,116,127,53,28,58,-44
1537922233776199,45,40,-25,-99,-11,29,49,11
1537922233777196,-25,-7,1,26,14,2,-56,22
1537922233777196,-35,-6,-23,-6,4,-10,-42,0
1537922233798139,-18,-1,-51,-48,-13,-19,2,17
1537922233798139,18,15,-3,-35,-11,18,-21,18
1537922233800134,5,-25,24,69,20,-41,-35,-15
1537922233800134,-26,9,21,-9,-4,13,2,-30
1537922233812102,-18,-11,-53,-32,-29,-11,-18,-8
1537922233812102,-15,-11,32,16,6,-26,-23,-33
1537922233821078,8,6,-9,16,11,4,-1,15
1537922233821078,-11,9,-10,-20,-7,-4,7,-16
1537922233835041,-21,-8,3,11,13,4,-5,1
1537922233835041,7,-23,-14,-1,-14,-21,-17,28
1537922233842022,15,54,38,3,-13,-16,-5,13
1537922233842022,-14,-31,-29,-14,-2,28,29,27
1537922233857980,-4,9,-6,8,-1,-2,-33,-20
1537922233857980,-5,-20,-15,-17,1,-7,12,-1
1537922233859974,8,28,-14,-9,0,-1,-1,5
1537922233859974,-16,10,44,17,-4,-9,-16,-34
1537922233871942,7,-25,-2,2,10,6,1,17
1537922233871942,4,64,9,-10,6,16,8,-1
1537922233880918,-2,-61,-19,7,-1,-2,4,-5
1537922233880918,-11,0,39,1,-6,-11,-13,8
1537922233894881,-8,-25,-59,-11,0,-8,0,0
1537922233894881,6,-5,6,-7,1,5,-1,-5
1537922233901862,-4,24,9,10,-5,-14,-6,2
1537922233901862,13,-30,-1,1,1,-1,-6,-19
1537922233918816,-54,-13,-12,-11,1,-5,-8,-1
1537922233918816,1,-14,28,8,-3,0,4,-13
1537922233919814,3,19,-14,-4,-2,1,4,5
1537922233919814,-6,-1,14,4,2,3,-1,-13
1537922233948737,-15,4,28,7,5,-1,-7,-6
1537922233948737,0,-12,-50,-6,-5,-1,0,12
1537922233949734,5,-5,-13,-1,-1,2,-5,4
1537922233949734,-9,17,-2,-7,-5,-5,-1,-18
1537922233954721,3,3,9,-2,0,-7,-11,-28
1537922233954721,8,35,45,3,0,2,9,10
1537922233961702,3,-23,-13,-1,-1,-9,-2,4
1537922233961702,13,1,18,9,2,8,3,6
1537922233978657,-10,-20,-52,-10,-1,-5,-12,-14
1537922233978657,-17,-24,2,-8,-1,8,6,-1
1537922233979654,6,-12,-8,6,0,-2,3,4
1537922233979654,9,31,-11,-1,1,-4,-3,1
1537922234000598,8,-4,12,1,2,-4,-2,4
1537922234000598,0,28,18,-1,-1,-4,-1,-1
1537922234002593,4,4,8,2,-1,-3,-1,1
1537922234002593,-11,-14,-10,-5,-3,-5,-4,0
1537922234015558,11,15,-10,-5,-2,0,0,0
1537922234015558,9,-14,-8,1,2,-1,-3,1
1537922234021542,-13,-11,11,1,1,2,2,-1
1537922234021542,-9,25,-3,-1,-1,-2,-7,-11
1537922234038497,14,12,-4,0,1,-2,-1,4
1537922234038497,6,-4,-9,-2,-2,0,-1,1
1537922234039494,-9,-43,-10,-6,-1,1,2,-1
1537922234039494,6,11,-10,0,-2,-5,-3,2
1537922234060438,-2,-20,7,1,-4,-4,1,0
1537922234060438,-5,3,25,-3,0,1,0,-2
1537922234062433,0,-4,-25,-1,2,1,0,0
1537922234062433,-9,1,3,-1,-2,-5,-4,-2
1537922234075398,12,24,22,1,2,0,3,3
1537922234075398,2,5,-11,0,1,1,0,1
1537922234082380,1,-7,14,2,0,-3,-3,-1
1537922234082380,-3,-12,-20,0,0,0,0,-2
1537922234098337,-4,-3,16,-2,-2,-2,0,-2
1537922234098337,2,5,-8,1,1,-1,-1,1
1537922234100331,-1,4,-12,-4,-3,0,0,0
1537922234100331,-1,-11,-6,-1,-3,-3,0,-1
1537922234121275,2,3,-2,1,0,2,1,0
1537922234121275,-5,-6,10,-2,-3,-4,-1,-3
1537922234122273,-1,3,4,0,-1,0,2,0
1537922234122273,0,17,7,0,0,-1,-1,1
1537922234135238,-3,-31,-2,-2,-2,-2,-1,-2
1537922234135238,2,-9,-33,-3,-2,1,-2,1
1537922234142220,-3,15,17,3,2,1,-1,-1
1537922234142220,0,31,30,-4,-2,-3,-4,1
1537922234158177,4,4,-6,2,2,0,0,1
1537922234158177,-5,-17,0,-4,-1,-2,-3,-2
1537922234160172,-2,2,-12,-1,-2,-2,0,-2
1537922234160172,-3,8,8,3,1,2,0,-1
1537922234181116,3,1,-20,-2,-2,-1,0,1
1537922234181116,-4,-25,-2,-1,-2,-1,0,-2
1537922234182113,2,1,1,2,1,1,1,0
1537922234182113,-1,-13,-6,-1,-1,-3,-2,-2
1537922234195078,-2,4,11,-5,-2,0,0,-1
1537922234195078,4,36,-22,-3,2,0,0,0
1537922234202059,0,10,14,9,1,-1,-1,1
1537922234202059,-3,-32,-16,-37,-8,-3,-2,-2
1537922234218017,3,27,39,45,7,4,0,1
1537922234218017,-3,-34,-42,10,-1,-1,-1,-1
1537922234220012,7,33,19,1,0,3,0,3
1537922234220012,-7,-55,11,2,-3,-1,-1,-2
1537922234240956,2,60,-63,-34,-7,-1,-1,0
1537922234240956,-9,-28,30,-6,-5,-4,-1,-4
1537922234241953,-1,-23,-29,-3,0,-1,0,1
1537922234241953,6,54,12,4,3,1,0,0
1537922234254918,-3,-59,-12,-8,0,1,1,0
1537922234254918,9,35,36,7,0,0,-2,2
1537922234263894,4,67,0,-4,-2,1,-2,0
1537922234263894,-22,-85,-43,-5,-4,-1,-1,-6
1537922234277857,0,17,-8,1,-3,-2,-2,-1
1537922234277857,2,37,10,2,2,1,1,1
1537922234279852,1,0,5,-2,0,-1,0,0
1537922234279852,9,40,8,10,0,-1,0,1
1537922234300795,5,42,13,3,2,0,-1,3
1537922234300795,-14,-85,-7,-8,-2,-1,-3,-5
1537922234301793,-1,29,28,-1,-3,-1,-1,-2
1537922234301793,2,85,-41,-1,-1,-3,-2,1
1537922234314758,-3,-75,9,-5,-3,-1,5,-7
1537922234314758,18,73,-38,-40,-5,3,9,25
1537922234323734,-13,-70,-30,-8,-3,1,8,-15
1537922234323734,10,20,52,90,28,14,-17,20
1537922234338695,-2,26,-60,-70,-10,9,-5,-89
1537922234338695,13,2,-27,-11,-1,27,35,19
1537922234339692,-16,-9,8,4,-9,-38,-51,-36
1537922234339692,6,2,-98,12,-1,-11,27,38
1537922234360635,44,-38,110,22,13,28,-43,25
1537922234360635,-31,39,-31,-27,39,56,49,-78
1537922234362630,-3,-45,-105,18,-46,6,121,99
1537922234362630,15,13,-24,66,54,-66,-112,-13
1537922234374598,14,-6,-72,-111,-19,-101,-75,77
1537922234374598,-34,-22,-57,15,-12,-9,19,-62
1537922234383574,25,1,-63,-128,-25,57,33,-36
1537922234383574,6,-4,-56,-128,-53,105,93,16
1537922234398534,-58,-39,7,76,13,-85,-13,-74
1537922234398534,79,49,91,-41,-3,6,17,127
1537922234399532,-14,-4,116,127,27,-53,-124,-67
1537922234399532,1,-29,-1,-44,-12,45,110,23
1537922234420476,-2,21,-2,-14,-5,8,-56,1
1537922234420476,-33,-7,-18,-4,-10,-3,-12,5
1537922234422470,5,10,26,-33,11,15,15,52
1537922234422470,-21,-30,39,14,3,-21,-32,-26
1537922234434438,10,31,-1,12,-3,36,63,16
1537922234434438,20,-3,39,26,1,-21,-8,-3
1537922234443414,0,-8,-20,4,13,0,-6,11
1537922234443414,-16,16,29,-6,-7,-26,-22,-21
1537922234457377,5,0,-13,13,-1,16,41,26
1537922234457377,7,10,-11,3,-9,-21,-38,-11
1537922234472338,-14,-3,15,3,9,-3,-9,-13
1537922234472338,2,-43,-8,-11,-13,-18,-8,-6
1537922234481313,-6,-11,5,-6,-3,-7,1,-7
1537922234481313,-15,1,39,27,2,-3,-9,-13
1537922234482311,-5,-64,-27,-6,5,21,13,-9
1537922234482311,-5,-15,11,-12,6,9,17,-5
1537922234494278,-2,27,-7,17,9,31,31,31
1537922234494278,-9,-3,0,-1,-18,15,-20,-12
1537922234503254,10,-26,9,-2,12,-45,18,-12
1537922234503254,25,93,31,-8,-16,-9,-26,20
1537922234518214,-10,-74,5,7,0,17,-8,-21
1537922234518214,-1,-6,16,2,-7,-22,-11,22
1537922234520209,-2,-9,-46,-13,-15,4,6,-4
1537922234520209,-11,-13,49,19,25,8,6,-10
1537922234541153,-36,-63,-61,-25,-17,-9,14,0
1537922234541153,1,-24,18,6,-1,-8,15,-8
1537922234542151,4,72,9,0,0,9,-19,29
1537922234542151,-7,21,-3,2,-2,-15,-32,-23
1537922234554119,19,109,42,15,10,15,6,20
1537922234554119,-4,-71,-50,-2,3,-17,-17,-8
1537922234563095,-8,-53,-7,-9,-13,4,13,6
1537922234563095,1,42,8,-6,4,-22,3,-12
1537922234578054,11,90,44,7,-4,14,14,6
1537922234578054,-7,-58,-29,2,1,-5,-12,5
1537922234580049,8,31,-22,4,6,0,-12,2
1537922234580049,-4,1,-14,-11,-16,-10,-12,-9
1537922234600993,-10,-82,-14,-1,-1,1,7,-3
1537922234600993,5,85,18,4,9,-5,7,-1
1537922234601990,2,-32,8,2,3,1,-6,-4
1537922234601990,4,-12,-8,0,-2,-2,-9,3
1537922234614956,-2,-37,-11,-2,-5,-6,4,-11
1537922234614956,14,25,29,8,7,12,-3,-4
1537922234622934,-20,11,5,-6,-3,12,8,50
1537922234622934,13,-15,-34,-43,-5,14,29,-41
1537922234637894,3,25,28,-70,-24,1,62,53
1537922234637894,-3,-55,-39,45,6,-47,-88,3
1537922234639889,-41,53,88,-95,-14,7,90,-106
1537922234639889,17,-21,73,78,0,36,53,101
1537922234660833,-23,-18,19,93,59,9,-14,2
1537922234660833,29,63,9,-17,-24,-34,-34,-24
1537922234661831,-34,-35,-114,110,24,-57,-12,-60
1537922234661831,-83,5,122,61,44,30,-106,-128
1537922234674796,27,-1,-67,-75,-26,101,108,47
1537922234674796,-48,-21,90,-69,-24,5,31,3
1537922234683772,43,-13,-63,39,-9,-60,-119,80
1537922234683772,39,-6,-128,-108,5,48,115,-47
1537922234698732,-18,-37,-118,43,16,67,-65,41
1537922234698732,-79,0,75,69,-20,-75,-47,-128
1537922234699729,37,45,54,-11,-13,5,-18,79
1537922234699729,8,-28,-18,-26,12,66,-5,56
1537922234720673,-50,-32,-88,-42,-46,-113,-93,-2
1537922234720673,70,35,19,-18,-9,8,30,68
1537922234722668,-42,5,54,-9,14,33,13,-87
1537922234722668,20,12,-38,14,2,-14,3,21
1537922234734636,-2,34,29,-70,-10,-20,-26,-39
1537922234734636,22,1,-25,12,23,35,36,8
1537922234743612,41,16,-10,16,0,4,8,25
1537922234743612,-16,-18,-12,-40,-19,-44,-35,18
1537922234757575,10,22,65,30,-2,-48,-2,-29
1537922234757575,11,1,-43,13,38,54,20,25
1537922234764556,4,49,28,-8,-6,34,17,-13
1537922234764556,-28,-54,-4,-26,-8,-6,-35,30
1537922234780513,16,-19,7,39,16,-17,8,-19
1537922234780513,-7,27,-6,6,26,62,48,9
1537922234782508,-5,2,-67,-59,-19,-39,-44,-9
1537922234782508,7,-51,29,24,-18,-25,11,0
1537922234794476,22,63,64,32,-1,-10,-15,1
1537922234794476,-16,-19,-95,-34,11,47,-22,-4
1537922234803452,4,28,47,-3,-1,-1,2,-10
1537922234803452,3,-5,8,17,-12,-27,-14,0
1537922234817414,4,8,5,2,11,-14,3,-18
1537922234817414,-5,17,-27,-26,-24,-41,-1,10
1537922234824396,10,-28,13,6,8,19,13,-2
1537922234824396,1,4,-28,13,2,-19,-14,-16
1537922234841351,-17,-38,15,-15,-2,20,-6,-10
1537922234841351,9,-3,13,-1,-7,-8,-4,1
1537922234842348,-1,-13,-2,4,7,2,7,11
1537922234842348,-7,6,33,-2,-5,-4,-5,7
1537922234862294,13,-40,-60,2,1,7,9,-3
1537922234862294,4,4,-11,-6,-11,-22,-5,5
1537922234871271,-2,6,19,2,9,21,4,-2
1537922234871271,-3,10,-20,-10,-7,-18,-3,0
1537922234877254,11,41,41,12,3,5,4,-11
1537922234877254,1,-28,2,3,1,-3,-1,2
1537922234884236,-14,-13,-11,-9,-1,7,-4,5
1537922234884236,4,31,22,7,2,-5,0,-1
1537922234901191,2,-2,-6,1,0,0,5,-2
1537922234901191,-8,-1,1,-14,-7,0,-2,9
1537922234902188,1,-10,-3,-2,-2,2,1,12
1537922234902188,6,13,-21,3,-4,-13,-2,-3
1537922234923132,-2,6,21,12,4,8,2,-8
1537922234923132,1,-5,-6,-2,-3,-4,-3,-3
1537922234925127,12,22,25,3,1,9,10,21
1537922234925127,-23,-35,-15,-5,-2,-9,-9,-11
1537922234938092,12,5,-22,-22,-7,2,-4,-2
1537922234938092,-10,-18,-7,10,0,0,-1,-1
1537922234944076,13,0,2,6,2,1,3,-1
1537922234944076,5,11,16,3,1,1,1,6
1537922234961031,-7,9,8,2,2,3,2,-3
1537922234961031,3,4,3,-5,-4,-4,0,3
1537922234962028,13,30,13,-4,1,0,-2,-7
1537922234962028,-22,-68,-30,-3,-3,-8,-1,-5
1537922234982972,0,3,2,-1,-3,-2,0,-1
1537922234982972,1,10,-8,-4,0,-1,-2,3
1537922234984967,-6,-5,0,0,-1,0,-3,-3
1537922234984967,13,34,-2,3,-2,-2,0,2
1537922234997932,-4,4,13,-1,1,1,1,-3
1537922234997932,-8,-11,9,2,0,1,-2,1
1537922235004913,-4,-8,-12,-5,-3,-4,-4,-5
1537922235004913,-1,9,-5,-2,1,0,0,-1
1537922235020871,-3,1,-2,-4,-3,2,1,-3
1537922235020871,3,11,12,3,0,-2,0,0
1537922235021868,-3,-17,-21,0,-2,-2,-1,-2
1537922235021868,7,10,2,-4,-3,-3,-1,3
1537922235043809,-2,6,6,0,0,-1,-1,0
1537922235043809,1,2,9,-3,1,-1,-4,-3
1537922235044807,-8,-18,-21,-10,0,-1,0,-4
1537922235044807,3,3,3,6,0,-1,1,1
1537922235057772,2,13,6,1,-1,0,-2,-3
1537922235057772,-3,-6,6,0,-1,-3,2,1
1537922235064754,-3,-14,-18,-7,-3,-2,-2,0
1537922235064754,8,21,-5,-5,-1,-1,-2,0
1537922235080711,-3,-1,13,0,-3,-2,-1,-3
1537922235080711,-2,12,3,1,6,2,0,-1
1537922235082706,-2,-14,10,6,3,1,0,-2
1537922235082706,2,-27,-20,-2,-2,0,0,0
1537922235103649,-3,11,8,-1,-3,1,-1,-1
1537922235103649,-10,-6,2,-3,-3,-2,0,-2
1537922235104647,1,13,8,5,3,1,1,0
1537922235104647,3,21,3,-1,-2,-2,1,0
1537922235117612,-3,-6,15,1,1,-1,0,-3
1537922235117612,-2,-18,-32,-4,-2,-3,-2,-3
1537922235124593,-1,-5,-16,-7,-3,-2,-3,-3
1537922235124593,-2,-5,8,-2,-2,-1,-1,1
1537922235140551,1,10,3,17,2,1,-1,0
1537922235140551,0,1,14,2,-1,-1,0,-1
1537922235142546,1,-4,1,-3,-4,-3,-2,-2
1537922235142546,2,11,-2,1,2,3,-2,-1
1537922235163489,-5,-5,-12,-7,-2,-1,-1,-2
1537922235163489,1,-1,24,4,2,1,0,1
1537922235164488,0,3,-35,-11,-2,-2,1,-1
1537922235164488,2,6,12,6,-3,-2,1,-1
1537922235177452,1,-11,-6,-1,1,1,2,1
1537922235177452,0,2,11,10,-1,-1,0,0
1537922235184434,-1,5,4,2,-4,-1,-1,-1
1537922235184434,-3,2,5,-2,1,0,-2,-1
1537922235200391,-2,-7,-10,-8,-2,-2,-1,-1
1537922235200391,2,2,-3,-9,-3,-3,-1,-2
1537922235202386,-2,12,7,4,1,0,0,0
1537922235202386,-1,-16,0,2,-3,-2,0,0
1537922235223329,-2,1,2,-3,1,-1,1,-2
1537922235223329,-3,-16,-42,-6,-3,-1,0,-2
1537922235224327,-2,-9,31,2,0,0,0,-1
1537922235224327,3,16,-5,-1,-1,-2,0,-1
1537922235237292,-2,-2,9,-1,-2,1,0,-1
1537922235237292,0,3,1,2,-1,1,0,1
1537922235246269,0,-1,-8,0,1,-2,0,1
1537922235246269,-2,-2,0,-3,-1,-1,-2,0
1537922235261228,1,21,-7,-3,-2,0,-1,-1
1537922235261228,-1,-28,-6,-3,0,-1,-1,-1
1537922235262226,-3,-14,-4,0,-1,-3,-1,-1
1537922235262226,0,-1,5,-2,1,0,0,-2
1537922235283169,0,17,4,0,-3,-3,-1,1
1537922235283169,2,6,-5,0,-1,1,-1,0
1537922235285165,-4,9,4,0,1,-1,-2,-2
1537922235285165,-5,0,-11,-3,-2,-2,-2,-2
1537922235297132,-2,-37,4,1,2,-2,-2,0
1537922235297132,0,14,-31,-3,-2,-2,-2,0
1537922235306108,-2,-23,-2,-2,-1,0,-2,-1
1537922235306108,0,5,-1,0,1,2,-1,0
1537922235321068,1,42,14,0,-1,-1,-2,-2
1537922235321068,13,67,29,5,1,1,2,4
1537922235322066,-20,-82,-41,-5,-1,0,-2,-6
1537922235322066,4,40,1,-1,-3,-6,-7,0
1537922235343010,-4,9,6,3,-2,-15,-7,-5
1537922235343010,7,23,0,7,8,7,-14,-5
1537922235345004,27,127,-14,-34,-1,23,22,53
1537922235345004,-34,-125,16,-32,-7,6,-1,-33
1537922235356972,-4,28,23,-49,-16,-1,9,-30
1537922235356972,12,7,-57,-79,-2,9,21,50
1537922235365949,-32,5,-5,53,-16,-32,32,-71
1537922235365949,-6,72,91,52,24,5,-27,-10
1537922235380908,16,-100,-88,102,31,-44,-11,90
1537922235380908,1,52,47,-73,-23,28,35,-12
1537922235381906,-9,-53,-24,110,37,40,-21,-71
1537922235381906,66,84,49,-69,49,66,17,62
1537922235402850,18,-60,-47,-88,-48,-66,-33,-44
1537922235402850,-36,-23,12,116,-15,-39,44,-55
1537922235404844,66,33,-60,-128,-47,50,13,72
1537922235404844,-50,-55,72,50,-34,-95,-63,18
1537922235416812,34,17,-128,82,36,30,-31,56
1537922235416812,8,-56,42,-46,-25,-22,37,64
1537922235425789,64,33,127,31,26,110,127,59
1537922235425789,-20,-18,-96,-35,-4,-54,-90,-120
1537922235440748,-26,5,36,-59,-18,-13,-32,-64
1537922235440748,15,3,-10,-23,3,-20,-35,11
1537922235442743,-40,-26,-13,12,6,-28,-16,-23
1537922235442743,38,-10,-27,-9,-6,28,46,48
1537922235463687,-10,19,33,-21,-2,24,39,3
1537922235463687,-16,-2,-4,25,18,14,-6,-40
1537922235464684,8,4,-2,-5,7,-37,-49,13
1537922235464684,6,17,-53,12,-8,-3,29,6
1537922235476652,-34,6,28,-19,-7,15,17,-14
1537922235476652,6,-8,-24,23,10,7,-22,-9
1537922235486626,-20,-24,6,1,-9,-68,-49,-3
1537922235486626,-18,12,-11,-17,-7,36,31,10
1537922235500588,2,8,22,17,3,9,-2,-14
1537922235500588,5,-17,5,4,12,23,-6,2
1537922235502583,-11,5,6,-14,-9,-43,-34,-2
1537922235502583,-1,16,-24,7,-6,4,23,-46
1537922235523527,6,2,13,-2,0,13,13,38
1537922235523527,0,-2,-14,5,-2,-8,-27,11
1537922235524524,-13,32,20,-4,4,13,1,10
1537922235524524,5,-25,-31,-3,-5,31,7,-1
1537922235536492,-2,-15,0,2,8,-12,19,21
1537922235536492,-6,-19,-40,-4,5,-5,-22,-18
1537922235545468,-6,46,43,4,-1,-1,-1,9
1537922235545468,9,68,21,9,2,-26,-12,-24
1537922235560429,3,13,14,3,-5,34,28,16
1537922235560429,-13,-57,-11,-1,21,3,-32,-28
1537922235562423,6,23,-39,-2,-6,14,8,-1
1537922235562423,-1,-23,-17,-6,-7,-12,-9,22
1537922235583367,-8,48,50,-7,-9,-7,14,-6
1537922235583367,3,-8,0,4,-7,-21,2,8
1537922235584365,-4,-4,27,3,-14,-25,36,10
1537922235584365,-23,-104,-58,-12,2,32,-25,-10
1537922235597330,24,87,12,21,12,-18,-28,-18
1537922235597330,-26,-40,-17,-18,-15,31,-10,-9
1537922235606306,10,59,5,-1,4,-6,-4,18
1537922235606306,1,45,-10,2,-19,-35,44,22
1537922235628247,-7,-106,-8,-7,-2,-2,-9,-14
1537922235628247,31,114,35,15,15,13,22,26
1537922235630242,-10,-7,1,0,-5,-24,-30,-49
1537922235630242,-11,-26,-54,-10,8,12,8,53
1537922235643207,9,77,4,-2,6,17,-15,9
1537922235643207,30,59,14,-106,-24,24,116,25
1537922235645202,24,3,-16,56,22,-14,-63,-53
1537922235645202,-26,10,-40,0,-30,-68,-80,-81
1537922235657170,71,2,-12,-18,-26,9,74,80
1537922235657170,-45,-28,57,-47,28,46,-31,-85
1537922235666146,-11,-51,-82,-15,-48,-66,-60,90
1537922235666146,-7,-5,127,116,51,32,109,19
1537922235681106,42,-19,81,-104,-43,-74,-128,13
1537922235681106,-98,-12,-36,127,67,34,13,-110
1537922235682103,75,-36,36,-44,31,8,34,78
1537922235682103,17,4,-79,-128,-90,-5,37,37
1537922235703047,51,-20,-43,127,69,-45,-19,-46
1537922235703047,-14,-15,24,-122,21,96,95,-7
1537922235705042,-83,-83,-116,-90,-62,-127,-128,-19
1537922235705042,-39,13,124,53,37,7,41,-49
1537922235717010,40,27,-113,-84,-9,80,76,-48
1537922235717010,78,-7,-82,-20,-30,-16,-19,84
1537922235725986,33,15,109,94,23,-24,50,-84
1537922235725986,31,9,0,-45,-17,-4,-14,44
1537922235739948,-48,-19,-29,2,-12,-17,-68,-32
1537922235739948,-11,9,-17,-8,-17,-46,-21,6
1537922235746930,8,21,2,-52,3,87,59,21
1537922235746930,11,21,-2,21,22,1,-14,2
1537922235762887,-57,-4,37,19,8,18,32,-18
1537922235762887,15,4,-6,11,-22,-50,-31,54
1537922235769868,-28,-31,-1,-8,12,37,15,-38
1537922235769868,10,14,1,17,2,-35,-27,2
1537922235785826,-37,9,2,-15,11,19,18,13
1537922235785826,3,-78,5,14,-27,-16,-53,-45
1537922235786824,-21,-26,5,17,37,9,-2,29
1537922235786824,19,47,17,-14,-13,-35,20,20
1537922235799789,-25,-71,-64,-25,15,68,9,1
1537922235799789,19,81,65,41,-5,-16,-2,21
1537922235806770,-4,-11,-79,-6,0,27,36,-20
1537922235806770,3,-7,19,-13,23,36,-23,8
1537922235823725,-21,11,29,1,-19,-31,8,2
1537922235823725,13,-13,-13,13,-9,-43,-18,36
1537922235824722,9,47,24,-5,-2,19,12,1
1537922235824722,9,7,-27,-10,0,7,-5,-15
1537922235845666,-9,-8,51,13,-8,-15,0,-1
1537922235845666,-7,-22,-33,6,5,-2,-12,-23
1537922235847661,-3,1,9,-6,-5,5,13,10
1537922235847661,3,-5,-22,-3,-1,6,-14,-12
1537922235860626,-18,-24,28,8,5,5,3,-13
1537922235860626,5,11,-5,2,-3,-11,2,24
1537922235866610,1,-2,1,0,-3,0,4,-12
1537922235866610,-7,-22,-12,1,2,16,-7,-5
1537922235883564,6,63,14,1,2,2,8,9
1537922235883564,-5,7,5,-3,-6,-20,-6,2
1537922235884562,-8,3,4,1,-5,1,-11,-16
1537922235884562,-7,-6,-4,-8,4,11,0,0
1537922235905506,-1,1,-8,-2,-2,-6,5,3
1537922235905506,4,15,0,6,-2,-7,-10,-1
1537922235907501,-4,11,19,5,4,6,-3,-13
1537922235907501,3,-26,-17,-7,-1,3,7,9
1537922235920466,-10,29,1,-2,-4,-3,-5,-9
1537922235920466,12,9,13,9,1,-9,-9,0
1537922235927447,-16,-35,0,-6,-2,4,1,-3
1537922235927447,3,-18,-31,2,3,4,-4,-5
1537922235943405,-5,-35,1,0,-4,-3,3,-6
1537922235943405,-1,26,-3,-1,0,-1,-2,2
1537922235944402,9,-1,36,-2,0,4,1,-1
1537922235944402,-1,34,-4,-3,-3,-1,-4,-4
1537922235966343,-4,-11,-19,-3,-2,-3,0,-3
1537922235966343,3,-4,5,1,-2,-2,-3,5
1537922235967341,8,39,-12,1,2,5,9,6
1537922235967341,-10,-49,0,-2,0,-2,-7,-14
1537922235980306,-1,-13,1,2,4,3,4,2
1537922235980306,-2,15,28,-1,-3,-3,-3,1
1537922235987287,-3,11,-22,2,-2,-1,-2,-1
1537922235987287,7,14,11,-1,-1,2,-2,4
1537922236003245,-5,-12,-6,3,-1,-4,-2,-6
1537922236003245,-5,-14,-13,-4,-2,-2,9,2
1537922236005239,-3,-16,13,-1,-3,0,-3,-4
1537922236005239,2,-6,0,-2,-1,-1,2,4
1537922236026183,1,2,-15,-1,2,2,-2,-1
1537922236026183,-4,3,10,0,-1,-4,-4,-2
1537922236027181,0,-6,-6,0,-3,1,1,-1
1537922236027181,1,5,4,-1,-3,-2,0,0
1537922236040146,-3,13,-1,1,0,-1,1,2
1537922236040146,-1,1,-5,0,-1,-1,-1,-1
1537922236047127,-1,-5,5,1,-1,7,-1,-1
1537922236047127,2,-18,-12,1,3,-1,0,0
1537922236063085,-2,52,22,-3,-2,-2,0,-1
1537922236063085,-2,-24,-33,-2,0,-1,-2,-2
1537922236065080,-4,1,4,-3,-2,0,-1,-4
1537922236065080,-1,-3,17,-2,-3,-3,1,1
1537922236086024,2,11,-6,8,4,3,2,3
1537922236086024,-13,-51,-4,-13,-4,-3,-7,-5
1537922236087021,1,26,9,2,2,-1,-1,-2
1537922236087021,1,12,3,0,-1,0,1,1
1537922236099986,0,-33,-9,-3,-3,-2,-1,2
1537922236099986,2,47,8,6,2,1,-2,0
1537922236106967,-4,-50,-21,-6,-4,-4,-1,-2
1537922236106967,-3,0,-5,-5,0,0,1,0
1537922236122925,0,1,5,3,1,2,1,-1
1537922236122925,-1,1,1,1,-2,-2,-1,1
1537922236124919,2,11,10,3,1,-2,0,0
1537922236124919,3,30,13,0,0,0,-1,1
1537922236145863,-3,-7,11,-3,-4,-1,-2,-1
1537922236145863,-1,-7,-31,-1,0,1,1,0
1537922236146861,0,5,-6,-2,-4,-2,-1,-2
1537922236146861,0,14,7,0,1,0,1,0
1537922236159826,-2,-18,18,-2,-1,-1,1,1
1537922236159826,8,86,51,5,4,1,-2,0
1537922236168802,-13,-54,-65,-14,-6,-2,-4,-5
1537922236168802,1,-3,18,0,0,3,1,2
1537922236183762,-8,33,-20,-10,-7,-6,-1,-2
1537922236183762,1,14,26,0,-1,-3,0,0
1537922236184760,6,-14,-2,-12,-1,-1,0,3
1537922236184760,4,-34,-17,-8,0,-1,-5,-9
1537922236205703,9,-44,21,23,10,14,6,8
1537922236205703,-5,-4,48,-43,-4,36,36,17
1537922236207698,15,3,-83,-58,-14,-18,7,7
1537922236207698,-45,2,60,90,12,-29,-55,-53
1537922236219666,79,53,-59,-122,-18,-3,2,20
1537922236219666,-30,-8,99,96,37,35,32,-27
1537922236228642,-25,20,127,-16,4,41,9,-73
1537922236228642,112,21,-100,34,-7,-63,-66,77
1537922236242605,-76,-41,78,119,26,-74,-46,-10
1537922236242605,-35,-23,40,-116,-35,-23,-95,45
1537922236243602,102,43,-71,-70,-39,-37,-31,100
1537922236243602,-42,-30,92,42,62,122,117,-105
1537922236265543,-72,8,-103,-85,-32,-40,-66,-53
1537922236265543,75,-50,60,127,-4,-85,92,-30
1537922236265543,-9,24,18,-45,1,26,-6,64
1537922236265543,-34,12,-78,-88,-38,-10,8,-43
1537922236287486,67,13,79,39,35,52,41,109
1537922236287486,35,-20,11,-11,36,103,124,3
1537922236288483,57,-7,-35,21,-15,-87,-85,61
1537922236288483,-89,-5,11,-25,-10,14,76,-53
1537922236302445,12,-10,22,4,0,8,-66,-1
1537922236302445,-22,1,-102,-35,-13,-13,-55,-20
1537922236303442,-8,13,60,73,33,27,31,3
1537922236303442,14,-16,-12,-21,-2,4,10,54
1537922236325384,-32,-3,-33,-14,-16,-2,24,-47
1537922236325384,8,8,-31,-6,-2,-25,-50,28
1537922236325384,-28,4,-2,13,2,8,16,-42
1537922236325384,-6,-12,-9,-22,-10,-20,-23,22
1537922236347325,8,-6,-15,-7,-5,3,17,-7
1537922236347325,5,33,-36,-15,-13,-18,-30,-5
1537922236348322,-34,17,29,23,-1,-19,21,-37
1537922236348322,8,-86,-44,-18,12,40,-18,21
1537922236362285,9,35,23,21,9,9,34,19
1537922236362285,-14,-8,-28,-16,3,5,-47,-16
1537922236363283,-30,14,1,4,-4,8,26,-50
1537922236363283,27,-8,-6,-1,11,-1,-8,58
1537922236385224,8,35,-32,-9,-24,-14,6,-6
1537922236385224,-21,-96,-5,-11,12,-1,3,-25
1537922236386221,-10,56,-17,-6,-15,-4,-21,-42
1537922236386221,31,-23,7,5,4,-7,-14,35
1537922236408163,-25,-86,-27,-6,-2,18,30,-13
1537922236408163,0,-9,-6,-7,-20,-22,-42,-6
1537922236409161,12,56,10,16,16,12,13,26
1537922236409161,-41,-66,9,-13,-8,8,16,4
1537922236422125,-10,43,-23,-6,8,17,64,12
1537922236422125,1,67,48,-2,-26,-7,-52,-27
1537922236423122,0,-73,-60,2,20,4,-18,-3
1537922236423122,25,114,16,14,-13,-49,-11,4
1537922236445063,-25,-94,-1,-16,-9,5,1,-24
1537922236445063,6,18,-13,2,4,-12,49,43
1537922236446061,2,-14,36,9,4,41,3,13
1537922236446061,-2,3,-23,-13,-19,-14,-12,-15
1537922236468002,33,85,61,22,5,3,-5,13
1537922236468002,-10,-20,-63,-7,-3,-10,10,-6
1537922236469000,-17,17,45,-3,-6,-8,3,-7
1537922236469000,0,30,-6,-4,-5,-9,-10,1
1537922236482962,14,43,9,6,7,-1,-7,1
1537922236482962,2,-3,-2,-4,-2,2,4,1
1537922236482962,11,-22,2,10,10,-6,4,10
1537922236482962,71,7,4,-2,10,42,12,24
1537922236504903,-50,20,31,-59,-4,17,53,19
1537922236504903,-15,-13,-21,-48,-29,-44,-34,2
1537922236505901,58,-10,47,47,23,-14,-25,72
1537922236505901,-87,82,123,73,12,74,85,-91
1537922236527842,67,-107,-25,-64,-6,-88,-99,94
1537922236527842,78,30,-104,88,46,32,38,71
1537922236534823,-44,-19,64,62,-4,-49,-20,51
1537922236534823,-62,13,-36,-20,-7,-24,-53,-90
1537922236542802,-69,61,-45,-78,-56,-28,15,-20
1537922236542802,14,-27,95,44,37,33,-43,5
1537922236543800,82,29,-89,-67,-11,-21,-6,44
1537922236543800,50,-11,-128,21,11,-49,6,-14
1537922236564744,-74,-45,11,-25,-19,45,96,-87
1537922236564744,-3,8,-91,-87,-47,3,40,25
1537922236565741,-100,4,58,74,36,47,55,-81
1537922236565741,50,-5,50,-47,16,44,-11,127
1537922236588680,20,-14,-84,26,14,-32,16,20
1537922236588680,-2,-8,38,-6,-10,-9,16,-71
1537922236588680,-9,-12,-9,-76,-7,0,-49,-31
1537922236588680,21,14,6,-9,-5,-11,10,44
1537922236602642,-3,26,39,50,18,21,-14,-57
1537922236602642,-17,-11,-31,0,5,-1,-13,22
1537922236603640,-11,-6,-30,-42,-33,-25,44,-28
1537922236603640,-10,-3,29,6,-1,-5,-43,-41
1537922236625581,40,-5,-18,35,-16,-2,-11,39
1537922236625581,-23,12,28,-33,-1,32,-1,-31
1537922236625581,2,-14,-18,7,19,-18,-11,-4
1537922236625581,1,6,-7,-7,-3,-7,16,13
1537922236639544,13,3,38,15,0,-18,-62,-18
1537922236639544,-9,15,-83,-6,-10,1,3,15
1537922236647522,-24,-8,-6,-1,-16,20,51,-36
1537922236647522,-4,-101,-57,-26,-10,-27,-77,-11
1537922236662482,20,70,37,4,3,25,35,18
1537922236662482,-9,-12,20,7,-9,-32,-26,-30
1537922236663480,11,-6,-18,-2,-3,11,-1,9
1537922236663480,11,31,48,-16,-2,-9,12,20
1537922236693400,20,35,14,23,11,-6,-39,-24
1537922236693400,-2,2,-1,-10,-2,-2,13,9
1537922236694398,19,-32,-46,-9,5,10,1,-1
1537922236694398,-15,57,46,-2,-12,-7,5,4
1537922236708361,10,-34,-29,9,10,7,-7,-11
1537922236708361,-15,36,48,3,8,-2,11,2
1537922236709358,-9,-38,-30,-6,-4,9,5,9
1537922236709358,8,-5,3,-1,-10,-18,-2,-8
1537922236722323,20,-27,-17,16,14,17,5,17
1537922236722323,11,19,21,-3,5,-3,2,8
1537922236723321,-6,15,16,-9,-8,-4,-10,-24
1537922236723321,-6,8,-38,-3,-3,-2,11,13
1537922236745261,-2,-12,-5,-2,5,3,-8,11
1537922236745261,1,-22,6,2,-1,-4,2,-9
1537922236746259,-20,3,-8,-4,-3,2,-4,-10
1537922236746259,19,20,-5,-2,-1,-3,6,5
1537922236768200,-19,-28,-3,1,1,4,-1,-4
1537922236768200,2,-14,-10,2,1,-3,-2,-3
1537922236769197,-8,27,29,-7,-1,11,-2,1
1537922236769197,-2,-34,-15,8,-3,-8,4,-1
1537922236782163,9,-31,-42,0,-1,-4,-10,-7
1537922236782163,-16,-6,8,-1,0,-2,0,2
1537922236783160,-1,-1,3,-1,2,4,1,-4
1537922236783160,0,-1,-4,-2,-2,-3,3,6
1537922236805101,-3,10,24,5,2,0,-1,-5
1537922236805101,9,23,1,-4,-2,-3,4,3
1537922236806099,3,-5,-19,-3,-5,0,0,1
1537922236806099,-7,-24,1,-5,-3,-4,-2,-4
1537922236828040,2,8,3,0,1,1,-2,-4
1537922236828040,-7,-5,-5,-1,3,0,2,0
1537922236829037,3,19,19,0,-3,-6,-4,-1
1537922236829037,2,32,5,2,1,1,-1,2
1537922236843000,-8,-74,-11,-7,-1,2,-2,-3
1537922236843000,-4,-15,-15,-4,-1,-1,1,3
1537922236843000,8,-11,-19,0,-1,-1,-1,0
1537922236843000,-5,18,32,-4,0,-1,0,-2
1537922236864941,3,25,-26,-2,2,0,2,2
1537922236864941,-2,-9,7,1,-2,-4,-3,-1
1537922236865938,5,-10,-11,2,1,0,0,-1
1537922236865938,2,3,23,1,1,0,1,-1
1537922236887880,5,10,5,2,-1,0,-3,-3
1537922236887880,-7,-10,-17,-2,0,0,-1,-3
1537922236888877,4,3,-1,-3,-2,0,-2,0
1537922236888877,-1,1,-3,-2,-3,-3,-1,1
1537922236902840,-4,6,17,4,1,1,0,0
1537922236902840,4,5,-1,3,1,0,0,2
1537922236902840,6,2,16,0,0,-1,0,-1
1537922236902840,-1,-15,-16,-4,1,0,0,-1
1537922236924781,0,23,2,-4,-3,-1,-3,0
1537922236924781,-3,-26,-26,-4,-4,-2,-2,-1
1537922236925779,-4,8,13,-2,-2,0,1,-1
1537922236925779,-2,-11,-8,2,2,1,0,-1
1537922236948719,1,10,17,-2,-2,-3,0,-1
1537922236948719,10,6,-1,3,0,2,-2,2
1537922236948719,-9,23,2,0,-4,-8,-4,-2
1537922236948719,-10,-31,-25,-4,-4,0,0,-1
1537922236962682,4,-9,11,-3,0,1,0,-2
1537922236962682,-7,-18,1,-5,-3,-2,1,-1
1537922236963679,7,-13,-8,2,1,0,-1,-2
1537922236963679,3,20,1,0,2,3,3,3
1537922236984622,4,16,8,3,-1,2,-1,1
1537922236984622,-4,1,10,-2,-2,-3,0,-3
1537922236985619,-3,-6,-9,-5,-4,-1,-2,0
1537922236985619,1,8,-4,2,2,-1,0,-2
1537922237008558,-3,4,10,3,3,2,1,-1
1537922237008558,0,-18,3,4,3,-1,-1,0
1537922237008558,-7,4,-19,-7,-5,-3,-1,-2
1537922237008558,4,0,-1,-2,-1,-3,-1,-1
1537922237021523,-3,-6,-36,-3,-3,-3,0,-1
1537922237021523,-1,14,21,-1,-2,0,-3,0
1537922237030499,-3,-9,11,4,1,3,0,-1
1537922237030499,6,6,-3,-2,1,2,0,-1
1537922237045459,-3,4,9,-2,-2,-2,-2,-2
1537922237045459,1,14,0,0,1,-1,-1,0
1537922237046456,-5,-9,0,-1,0,0,1,-2
1537922237046456,-2,14,0,-1,0,-2,-2,-2
1537922237068397,-5,-11,1,1,-3,0,-2,-2
1537922237068397,1,6,0,0,0,1,-2,-1
1537922237069395,1,-4,1,0,-1,-1,-2,0
1537922237069395,0,-12,-4,-2,-3,-4,-3,0
1537922237082360,2,7,4,0,2,0,-3,-1
1537922237082360,-6,5,0,0,0,0,-1,-1
1537922237083357,5,29,-1,-1,-3,-1,-1,2
1537922237083357,-6,-53,-1,-5,-3,-2,-2,-2
1537922237105298,-1,1,-10,1,2,1,0,0
1537922237105298,0,1,2,-2,0,-1,2,0
1537922237106296,-1,-3,24,3,1,1,0,-2
1537922237106296,3,44,-40,-1,-5,-2,-1,0
1537922237128237,-9,-29,18,-10,-6,-4,-2,-3
1537922237128237,-2,-7,-14,-2,0,-2,-1,-1
1537922237129235,1,6,10,-1,1,-2,1,0
1537922237129235,-1,-8,27,4,2,1,-1,-1
1537922237142200,2,0,-41,-1,-1,-1,0,1
1537922237142200,0,10,0,-1,-2,-1,1,1
1537922237150179,0,-26,-9,0,-2,-1,-3,-1
1537922237150179,-1,10,18,-4,-6,-2,-1,0
1537922237165139,2,10,-15,4,3,1,1,-1
1537922237165139,3,6,9,-1,-1,-2,-1,0
1537922237166136,-1,0,-12,2,2,2,1,-1
1537922237166136,-2,-8,2,0,-1,1,-2,-1
1537922237188077,-4,-31,19,-4,-2,-2,0,-2
1537922237188077,-1,-12,8,0,0,-2,-2,-2
1537922237189075,-4,-14,-19,-4,-1,-1,0,0
1537922237189075,0,9,-2,-1,-1,0,0,0
1537922237202040,1,4,3,1,0,-2,-1,0
1537922237202040,1,17,-4,-2,-2,-1,-2,-2
1537922237210019,0,1,3,-2,-5,-4,-3,0
1537922237210019,-3,-5,7,1,1,0,0,-1
1537922237224979,0,-7,-24,1,2,1,-2,0
1537922237224979,-2,5,16,-3,-4,-2,0,-2
1537922237225977,0,2,-14,0,1,0,-1,-1
1537922237225977,-1,-5,-3,-2,-4,-4,1,0
1537922237247918,1,10,13,-1,-1,-1,0,1
1537922237247918,0,-6,-8,3,-1,1,-2,0
1537922237248915,-2,-5,1,-2,1,2,0,-1
1537922237248915,-2,-20,-7,-1,0,-1,-2,-2
1537922237261880,0,4,3,-2,-2,0,0,1
1537922237261880,-2,0,-9,-3,-2,-2,-1,-1
1537922237269859,0,2,-3,-37,-11,-6,-5,-6
1537922237269859,-2,-7,-30,-73,-16,-6,-2,-2
1537922237284819,6,24,60,59,14,13,-6,9
1537922237284819,12,-7,-101,-40,-2,15,-6,-15
1537922237285817,-8,34,107,-48,-18,-22,27,32
1537922237285817,-10,-74,-73,93,45,25,13,-61
1537922237308755,-5,50,-11,-111,-55,-2,-20,-4
1537922237308755,-22,-59,120,127,52,-50,-63,-4
1537922237308755,43,55,-54,-58,14,81,58,-17
1537922237308755,-19,-53,-95,46,-16,4,48,122
1537922237322718,-11,7,98,91,34,-58,-59,-118
1537922237322718,45,39,-38,-128,-35,58,47,39
1537922237329699,-56,-19,-3,57,-12,-75,-44,-2
1537922237329699,-34,41,-54,-94,22,44,10,-34
1537922237344659,10,-10,-113,-57,-40,127,110,127
1537922237344659,-29,-52,83,112,-1,-128,-113,-71
1537922237345656,63,72,-45,-103,5,50,100,60
1537922237345656,-39,-31,-30,-65,-76,-37,6,4
1537922237368595,3,70,33,19,11,-49,-18,-14
1537922237368595,2,24,-54,-122,-4,81,101,40
1537922237369592,34,-42,88,5,68,23,-17,25
1537922237369592,-12,-4,-26,15,1,-16,2,-42
1537922237381561,30,-36,-39,-6,-6,-24,-5,12
1537922237381561,37,31,32,33,-15,-7,-5,16
1537922237390536,-54,-25,-27,2,-13,-4,-8,-50
1537922237390536,22,43,45,1,6,-13,-37,2
1537922237405496,-8,-5,7,9,7,-6,-1,-8
1537922237405496,-12,-4,-35,5,7,4,1,-17
1537922237405496,-3,-21,-31,12,-21,-15,-26,2
1537922237405496,10,25,54,12,7,-5,-18,1
1537922237428435,2,-39,-13,-3,4,-21,0,-2
1537922237428435,-1,2,-7,-24,-6,21,21,21
1537922237429433,-16,-5,-21,38,20,11,-23,-9
1537922237429433,27,31,55,5,-2,-1,1,7
1537922237442398,-11,-27,-13,-26,6,5,2,1
1537922237442398,-17,25,-24,-8,-4,-8,0,1
1537922237450376,-13,-40,-8,26,-13,-12,-16,-13
1537922237450376,16,19,20,1,8,0,-5,-4
1537922237465336,-1,26,10,-20,-2,2,4,6
1537922237465336,-8,-2,-13,7,5,4,4,-1
1537922237465336,8,11,-2,17,-8,-12,-9,-6
1537922237465336,10,1,-1,-19,-3,0,5,17
1537922237488275,-13,13,12,-5,-1,-3,-5,-15
1537922237488275,1,-17,-21,-3,-5,0,8,2
1537922237489272,3,-9,2,5,-5,-21,-15,2
1537922237489272,2,10,21,2,3,-5,-14,-22
1537922237502238,-9,9,-12,0,3,7,17,-2
1537922237502238,-4,5,5,-15,6,10,5,-1
1537922237510216,0,6,3,17,-1,1,-2,-1
1537922237510216,7,-56,26,18,7,-1,-6,9
1537922237525176,18,66,-32,-4,0,-11,-14,10
1537922237525176,-32,-90,-10,-19,-13,-5,-3,-30
1537922237526174,-6,-14,-47,-7,-10,-1,7,6
1537922237526174,11,77,40,2,3,-7,-7,17
1537922237548115,0,-28,2,0,4,12,19,5
1537922237548115,8,18,3,5,2,-4,-14,6
1537922237549113,-9,-63,-13,2,-5,-3,5,4
1537922237549113,6,4,-9,-4,-1,0,-1,-1
1537922237562078,-4,17,-12,-2,1,-22,-26,-16
1537922237562078,-9,-4,-6,4,0,12,63,19
1537922237570057,5,-16,43,10,2,8,-15,-7
1537922237570057,2,59,-57,-16,-5,-12,-21,3
1537922237585017,-11,-50,33,-2,-1,7,-3,10
1537922237585017,21,37,-27,4,1,-7,23,-16
1537922237586014,-20,-12,-13,-5,-1,-5,-9,-12
1537922237586014,0,25,56,2,1,1,0,-5
1537922237607955,-2,-60,-38,3,2,-8,3,-3
1537922237607955,-1,41,10,2,-1,-3,-21,7
1537922237608953,8,-37,-25,2,2,12,25,-14
1537922237608953,8,17,-2,-1,-2,-7,-11,13
1537922237630894,8,62,10,-2,-2,5,3,19
1537922237630894,-23,-72,15,-6,-2,1,-13,-13
1537922237631891,-1,-2,-6,0,-5,-6,-9,0
1537922237631891,-11,-33,4,0,0,4,9,-16
1537922237644856,2,-9,1,0,1,3,3,4
1537922237644856,14,30,2,2,1,2,-7,7
1537922237645854,8,72,9,2,3,-3,-4,1
1537922237645854,-10,-31,17,0,2,3,8,3
1537922237667795,-8,-4,-21,-3,-3,0,0,-3
1537922237667795,12,33,-4,-3,-1,-2,-12,-6
1537922237668792,-4,4,-3,-4,-5,-5,-3,-1
1537922237668792,4,-3,-1,1,0,6,6,3
1537922237690733,0,-1,16,-1,3,0,-2,-7
1537922237690733,-4,-4,-23,2,-4,-1,-2,5
1537922237691731,2,19,37,-2,-1,-3,-2,8
1537922237691731,-1,-1,-37,-3,1,3,2,1
1537922237704696,-4,-37,2,-3,-1,-1,0,-8
1537922237704696,-3,0,13,0,0,-1,-3,2
1537922237705694,1,14,2,4,-1,0,-1,-2
1537922237705694,0,-14,18,-5,-7,-3,1,7
1537922237728632,-4,7,-1,-3,0,2,1,-4
1537922237728632,4,10,33,8,5,3,-1,5
1537922237728632,-4,1,-58,-1,-4,-5,-6,-3
1537922237728632,-3,-8,-6,-4,-1,0,3,-4
1537922237750574,1,-13,1,-2,-2,-1,-1,4
1537922237750574,-1,-2,-3,-8,-4,-2,-3,3
1537922237751572,2,12,19,1,3,1,-2,1
1537922237751572,-3,-19,-13,1,-1,0,3,-3
1537922237765534,-1,9,20,3,1,2,-2,0
1537922237765534,-2,5,8,-6,-4,-5,-5,-2
1537922237765534,-4,-36,-53,-10,-2,-1,-1,0
1537922237765534,2,3,-5,2,2,4,2,-5
1537922237788474,-2,-2,-2,-2,-3,-2,-1,-1
1537922237788474,-1,2,8,4,1,2,1,0
1537922237789470,-6,21,19,-2,-4,-4,0,-1
1537922237789470,1,-4,-1,0,1,3,-2,-3
1537922237810415,-2,-31,-13,-1,-1,0,-1,-3
1537922237810415,-2,0,-15,0,1,-1,-1,1
1537922237812410,4,23,23,-1,-1,-3,-1,1
1537922237812410,-4,-14,-3,-4,-3,-1,-1,-4
1537922237824377,2,-3,-5,1,1,-1,0,-1
1537922237824377,-3,-5,-9,-1,0,1,1,1
1537922237833354,-1,0,4,-1,-2,-2,-1,-2
1537922237833354,-1,-5,13,1,-2,-2,-1,1
1537922237848313,1,10,-22,-4,-2,-1,-1,-2
1537922237848313,-1,-2,-20,5,6,1,0,0
1537922237849310,-2,-5,12,-1,0,-2,-2,0
1537922237849310,0,6,-13,-3,-3,-3,1,1
1537922237870254,0,16,11,-1,-2,-2,-3,-2
1537922237870254,-1,-15,-5,-2,-2,-2,-2,-2
1537922237878233,1,0,19,4,2,0,-2,1
1537922237878233,-1,-8,-12,1,1,1,0,-2
1537922237884217,2,31,31,0,0,1,0,0
1537922237884217,-7,-27,-14,-6,-5,-3,-3,-4
1537922237893193,-1,-9,-1,1,1,1,-1,-1
1537922237893193,2,9,1,-2,-5,-3,0,-1
1537922237908153,2,0,-5,1,3,2,2,3
1537922237908153,-5,4,11,-3,-3,-2,-2,-2
1537922237910147,-1,-5,-16,-1,-1,0,0,-1
1537922237910147,-3,-1,9,0,1,-1,-1,-2
1537922237931091,-1,-1,-7,-1,-3,5,-2,0
1537922237931091,3,29,5,-3,0,-1,-1,2
1537922237932089,-4,-33,-16,-4,-3,-3,-3,-2
1537922237932089,-3,-3,38,1,2,-2,0,-1
1537922237944057,1,-9,-55,-3,0,1,1,0
1537922237944057,-1,2,12,-4,0,0,-2,-1
1537922237953033,2,13,-3,0,2,0,0,0
1537922237953033,1,-3,1,0,0,2,0,0
1537922237967993,-4,-13,5,1,-1,-3,-1,0
1537922237967993,1,6,13,4,2,1,0,0
1537922237969988,0,10,-2,-3,-2,-3,-1,-1
1537922237969988,-1,-7,-2,-2,-1,-1,1,-1
1537922237990931,-2,10,6,-8,-6,-4,-2,-5
1537922237990931,1,-5,-21,3,2,1,0,-1
1537922237991929,-2,5,29,2,1,-1,1,-1
1537922237991929,-1,-7,-33,-1,1,0,-1,1
1537922238004894,1,24,31,2,1,-3,-1,0
1537922238004894,-7,-58,-49,-9,-6,-4,-1,-2
1537922238011875,-3,-33,-11,0,0,2,0,-2
1537922238011875,-2,16,13,0,0,-2,-1,-2
1537922238027832,-1,-6,-3,0,0,-2,0,0
1537922238027832,3,23,16,1,0,0,0,2
1537922238029828,-1,11,3,-2,-3,-2,-1,-2
1537922238029828,1,-7,-13,-2,-5,-3,-1,-2
1537922238050772,-1,-1,5,1,1,1,0,-1
1537922238050772,0,9,8,-2,-1,-2,-1,0
1537922238051769,-2,2,-9,-2,-1,0,-1,0
1537922238051769,-1,2,2,-2,-2,0,-1,-2
1537922238064734,-3,-13,-7,0,-3,-1,-1,-1
1537922238064734,0,3,7,2,2,1,0,-2
1537922238073710,-2,5,7,1,1,0,1,0
1537922238073710,-2,-5,-19,-1,0,0,-2,-1
1537922238088670,-1,-2,12,0,1,-1,0,1
1537922238088670,0,0,-37,-9,-9,-5,-1,-1
1537922238089668,-2,15,7,2,3,3,0,-1
1537922238089668,-1,-10,4,0,0,-1,-1,-1
1537922238110611,-1,-9,-6,-2,-4,-5,-1,-1
1537922238110611,1,11,19,6,3,1,-1,0
1537922238112607,0,11,3,-2,-3,-3,-3,-1
1537922238112607,1,-3,-11,-1,0,1,1,-1
1537922238124574,-1,14,-1,3,1,0,-2,0
1537922238124574,-1,-8,7,0,-2,0,-1,0
1537922238133551,-3,-28,-12,-4,-3,-2,-1,-2
1537922238133551,-1,1,7,-2,-2,-1,-2,-1
1537922238148510,0,-1,1,-2,0,-1,0,-2
1537922238148510,1,10,5,-1,1,0,0,0
1537922238150505,-1,2,-4,1,-1,-1,1,0
1537922238150505,-1,3,4,2,0,-1,-1,0
1537922238170451,-2,-7,-5,0,1,1,0,-2
1537922238170451,-2,0,3,0,1,0,0,-1
1537922238172446,0,8,-1,-3,-3,-2,-3,-1
1537922238172446,-1,-29,-4,-4,-3,-4,-1,0
1537922238184414,-1,-6,-2,-2,0,-1,-2,-1
1537922238184414,0,-4,2,0,0,0,-1,0
1537922238193390,1,10,7,-2,1,-1,-2,0
1537922238193390,-2,-3,-30,-4,-2,-1,-1,-1
1537922238208350,-4,-7,-4,-1,-3,-1,-2,-2
1537922238208350,-1,-5,4,-2,-3,-2,-1,0
1537922238209348,0,4,-4,0,1,0,0,0
1537922238209348,2,11,27,0,0,-2,-1,1
1537922238230292,0,-4,-12,-2,2,-1,0,0
1537922238230292,-1,27,15,1,0,-2,-1,-2
1537922238232287,1,-9,8,-2,-3,-2,-3,-1
1537922238232287,-3,-7,-16,0,-1,0,0,-1
1537922238244255,-2,8,5,1,-1,-1,-1,-1
1537922238244255,-2,-9,-5,-1,0,0,0,-1
1537922238253231,-1,12,1,0,-2,-1,-1,0
1537922238253231,-1,-9,7,2,1,2,1,-2
1537922238268190,1,-11,-8,-4,-2,-1,-1,1
1537922238268190,-1,7,0,-1,1,0,0,0
1537922238270185,-1,-34,-15,-1,-2,0,1,0
1537922238270185,1,11,5,-1,1,-1,-1,0
1537922238291129,-2,-10,-17,-3,-3,-2,-1,-1
1537922238291129,1,4,9,1,0,0,-1,-2
1537922238292127,0,2,-5,-1,-2,-3,-1,0
1537922238292127,1,19,-7,-1,2,1,-2,-2
1537922238304094,6,-3,10,0,0,0,-1,1
1537922238304094,-8,-40,-12,-1,1,0,-1,-3
1537922238313070,0,12,8,-2,-3,-1,0,-2
1537922238313070,-2,-6,-1,-3,-1,-2,-2,-1
1537922238328030,0,9,1,0,0,2,-2,0
1537922238328030,3,6,6,1,2,1,1,1
1537922238330025,-2,-2,-4,1,0,0,-1,1
1537922238330025,-2,6,9,1,0,0,0,-1
1537922238350969,0,3,2,-2,-2,-2,1,-1
1537922238350969,0,-4,-7,-2,-1,-2,-3,-1
1537922238351966,0,0,-2,-1,1,2,0,-2
1537922238351966,0,7,4,-1,-1,-1,-2,-1
1537922238363934,-3,-11,-3,-2,-2,-1,0,-1
1537922238363934,-2,-1,-3,0,0,-1,0,0
1537922238372910,0,5,-3,1,1,0,-1,-1
1537922238372910,0,0,1,-2,-2,2,-1,-3
1537922238387870,-1,-5,2,2,0,2,0,-2
1537922238387870,1,5,-1,-3,-4,-3,0,0
1537922238389865,1,-1,-5,-2,-4,-5,-2,-1
1537922238389865,-2,-5,-1,0,0,-1,-1,-1
1537922238410809,-2,-2,3,1,1,-1,0,0
1537922238410809,1,4,-2,-2,-4,-2,-1,1
1537922238411806,-2,-4,0,1,5,2,0,0
1537922238411806,-3,-3,0,-1,-2,-3,-2,-1
1537922238424773,-2,1,2,0,-1,-3,-2,-1
1537922238424773,1,-1,-3,-1,-3,-2,-1,-2
1537922238433748,-3,-4,-10,-2,-1,-1,-1,0
1537922238433748,1,2,0,-2,-1,-1,2,0
1537922238448708,-2,1,1,-1,-2,0,-1,0
1537922238448708,-1,-3,-1,-2,-1,0,-1,0
1537922238449706,-2,-3,7,0,-2,-3,-1,-2
1537922238449706,-1,-2,-5,-2,-3,-3,-1,2
1537922238470649,-2,-3,-1,2,2,0,-1,-2
1537922238470649,-2,-2,-3,-1,-2,-2,-2,-1
1537922238472644,0,1,-2,0,1,2,-1,0
1537922238472644,-1,2,5,0,-1,-1,1,-1
1537922238484612,0,-2,-1,-3,-3,-2,-1,0
1537922238484612,0,1,-2,-1,-1,-1,0,-1
1537922238493588,0,1,2,2,1,3,-2,0
1537922238493588,0,-2,2,-1,-2,0,-1,-2
1537922238508549,0,-2,-2,-2,-3,-2,0,-1
1537922238508549,-1,1,-1,0,0,1,-2,0
1537922238509545,-1,0,-2,-3,-4,-3,-1,-1
1537922238509545,-1,-3,-1,1,0,0,-3,0
1537922238530489,-2,-2,-2,-1,-4,-5,-1,-1
1537922238530489,0,0,2,2,1,0,0,0
1537922238532484,1,0,-2,0,-2,-1,1,-1
1537922238532484,0,1,-2,0,-1,-1,-1,-1
1537922238544452,1,0,-1,-4,-4,-3,-2,1
1537922238544452,-1,3,1,0,0,0,-3,-1
1537922238553428,0,8,-1,-3,0,-1,-2,-1
1537922238553428,-1,-10,0,2,2,-1,1,0
1537922238568388,-1,3,2,-1,0,-1,-1,-1
1537922238568388,-2,-19,-6,-3,-3,0,1,0
1537922238569386,0,14,1,1,-1,0,1,-1
1537922238569386,4,19,4,0,-2,-2,-2,-1
1537922238590329,-2,2,-4,0,1,-1,-1,-2
1537922238590329,8,83,17,4,2,0,-2,-8
1537922238592324,5,7,-12,4,1,2,3,12
1537922238592324,-22,-86,-46,-6,-2,1,-4,11
1537922238613268,-10,73,47,-11,-11,-7,-5,-15
1537922238613268,16,69,18,8,6,0,6,31
1537922238614266,6,65,-27,-20,-14,-9,-9,-18
1537922238614266,-9,85,16,-26,-12,-1,2,-14
1537922238636207,34,-70,-47,-96,-13,-3,-17,27
1537922238636207,-62,-5,-66,-21,-45,-10,-10,-9
1537922238637204,26,90,-32,-54,-32,-6,39,42
1537922238637204,-18,-26,-103,-113,-34,-17,0,-55
1537922238651166,5,-12,48,121,24,-3,1,57
1537922238651166,10,-13,-39,15,102,18,-54,-3
1537922238652164,-7,-38,78,61,81,19,-34,-4
1537922238652164,32,-30,-46,127,108,28,73,-15
1537922238673108,-39,67,-55,72,-5,-3,19,-53
1537922238673108,-3,-47,97,-40,-65,-27,-18,-102
1537922238675103,19,-19,5,-89,-67,-20,6,-6
1537922238675103,-62,17,97,3,-14,21,50,30
1537922238687071,-6,-43,-38,-48,-99,-30,-73,-11
1537922238687071,79,-23,60,106,30,12,34,96
1537922238694052,-65,16,-71,-111,27,10,-26,-31
1537922238694052,76,67,4,-93,-37,4,16,-11
1537922238711006,73,4,52,72,127,41,56,120
1537922238711006,34,24,-77,-110,42,52,4,-65
1537922238712004,-8,-79,12,33,-67,-50,-36,42
1537922238712004,22,41,93,98,47,-6,28,108
1537922238732948,-91,3,-24,-113,-15,-6,-42,-106
1537922238732948,35,-32,-47,-101,-43,-58,-22,3
1537922238734942,38,14,-82,-74,-2,79,30,-10
1537922238734942,-56,-55,51,53,-37,-60,-64,-15
1537922238747908,30,-7,-78,29,-25,-67,-13,14
1537922238747908,-22,0,127,31,-9,22,56,14
1537922238753892,6,-10,-29,-22,20,12,-7,7
1537922238753892,-3,-15,-99,-37,-19,19,-45,-56
1537922238770847,-6,-21,58,-22,0,25,38,37
1537922238770847,-54,-15,-24,33,9,-7,-12,-59
1537922238771845,-14,-28,-8,22,22,-10,-7,-12
1537922238771845,9,1,19,29,17,1,-18,-14
1537922238792788,24,10,21,-17,10,14,7,13
1537922238792788,-8,-11,-75,-13,-26,5,21,28
1537922238794783,-4,-9,58,30,-9,-25,-8,-19
1537922238794783,2,7,4,-25,-4,5,-6,14
1537922238807748,-6,18,-31,-24,-10,12,15,-20
1537922238807748,-23,-10,12,16,-12,-10,-15,11
1537922238814730,-7,-14,14,48,12,-4,19,-15
1537922238814730,7,-4,-8,-29,-6,-4,-17,9
1537922238830687,-10,-4,-3,0,0,8,-3,-22
1537922238830687,-2,-3,-11,6,2,-6,3,9
1537922238832682,8,-2,27,31,6,-4,5,13
1537922238832682,1,5,-21,-26,-10,6,-1,-1
1537922238853625,-4,-12,18,-14,-7,-6,-6,-20
1537922238853625,-3,-1,-2,-5,4,1,1,17
1537922238854623,-1,-3,1,24,10,5,12,2
1537922238854623,-4,-17,13,1,-6,-3,-12,10
1537922238866591,-2,2,5,-5,3,2,4,-25
1537922238866591,0,-5,-6,4,0,0,-2,10
1537922238875567,-5,-9,0,4,-9,-7,0,-5
1537922238875567,5,0,3,-1,5,1,-4,-2
1537922238890526,6,0,0,-2,0,-1,-2,5
1537922238890526,-8,1,-16,-10,-7,-2,1,2
1537922238892522,-4,4,17,9,-2,-3,-3,-2
1537922238892522,1,3,-1,-4,-1,-2,-1,0
1537922238913465,-4,4,3,-6,-4,5,4,-3
1537922238913465,-5,-3,-5,5,0,-2,-2,0
1537922238914462,-7,-18,-12,9,2,-2,0,-4
1537922238914462,0,6,8,-6,-3,-3,-3,0
1537922238926430,-3,-1,-6,-1,-1,2,-1,-4
1537922238926430,0,6,11,-1,-1,-3,0,5
1537922238935406,3,11,13,7,-2,-2,1,2
1537922238935406,0,-9,-31,-11,-4,1,0,-3
1537922238950366,2,-10,4,-1,2,2,0,-3
1537922238950366,-12,0,-5,1,-2,-2,-1,3
1537922238952361,-5,-8,12,8,1,0,1,-3
1537922238952361,-1,15,8,-1,-4,-4,-5,-6
1537922238973305,3,7,-3,-5,1,0,0,-2
1537922238973305,2,-1,-5,0,1,-1,-1,2
1537922238974303,3,-15,-12,2,2,1,2,-2
1537922238974303,-11,5,14,-2,-1,-1,-4,-4
1537922238987268,4,1,-5,0,0,-1,2,2
1537922238987268,3,3,-5,-5,-5,0,1,1
1537922238996244,-4,-4,10,-1,-2,-4,-2,-3
1537922238996244,1,-24,-12,0,4,3,0,1
1537922239011204,-1,17,4,-1,-1,1,-2,-1
1537922239011204,-3,-3,4,0,1,-1,-1,1
1537922239012202,0,-21,-10,4,0,-1,1,0
1537922239012202,2,22,13,-4,-3,-3,-2,-1
1537922239033145,-6,7,10,-2,-2,0,-2,-4
1537922239033145,5,-1,-10,0,0,1,0,1
1537922239035140,-2,-5,-17,0,-2,-3,-2,-3
1537922239035140,0,-12,-3,-1,-1,-1,0,1
1537922239047108,-3,-10,-3,1,2,1,1,0
1537922239047108,3,3,3,-2,-1,0,0,1
1537922239056084,0,0,5,-4,0,-3,0,-1
1537922239056084,-7,-2,-10,0,-2,1,0,-4
1537922239071045,-2,-4,12,2,-2,-2,0,-2
1537922239071045,0,3,-5,1,-3,0,-2,-1
1537922239072042,1,8,0,-2,1,1,-2,-2
1537922239072042,3,8,17,-3,-2,-3,-2,0
1537922239092986,-1,-21,-31,-2,3,3,0,0
1537922239092986,2,2,-8,-1,-1,-1,1,3
1537922239094980,-2,-25,-2,1,0,0,-1,-2
1537922239094980,-1,10,2,-3,-2,-3,-2,-1
1537922239106948,-3,-3,5,0,0,0,-1,-1
1537922239106948,-2,5,4,-2,-1,0,-2,-2
1537922239115925,0,11,-11,0,-4,-1,-1,1
1537922239115925,2,-9,9,5,0,1,-2,1
1537922239130884,-3,-9,7,3,1,1,-2,0
1537922239130884,2,-9,-11,-2,-2,-3,0,-1
1537922239131882,-1,29,5,-4,-4,-2,-1,1
1537922239131882,-2,-24,-5,-5,-2,0,1,-2
1537922239152825,0,6,1,-3,-2,-2,0,-1
1537922239152825,-3,-7,3,-3,-1,1,-1,-1
1537922239154820,-2,-11,-13,4,1,1,0,-1
1537922239154820,-1,3,-6,1,1,0,0,-1
1537922239166788,-1,-5,-4,-4,-2,0,0,-1
1537922239166788,-3,-4,4,4,-1,-1,-1,0
1537922239175764,0,13,9,1,0,0,-1,-1
1537922239175764,1,3,-9,-2,-2,0,-2,0
1537922239190724,0,1,1,-2,0,-1,-2,-2
1537922239190724,-1,-2,-2,-1,1,-1,0,0
1537922239191722,-1,2,4,-1,-2,-1,0,1
1537922239191722,1,-1,-5,-2,-3,-2,-1,0
1537922239213663,1,-4,-4,-1,-2,0,0,0
1537922239213663,-2,-2,-1,-3,-2,0,0,0
1537922239214660,-1,6,7,8,4,0,-1,-2
1537922239214660,-1,-7,4,-2,0,0,-1,-1
1537922239226628,0,-1,-20,-4,-3,-2,-2,-1
1537922239226628,0,1,-5,-3,-1,-1,1,-2
1537922239235604,-1,0,6,-3,-2,-2,-1,-1
1537922239235604,-1,0,0,-2,0,-1,1,0
1537922239250564,-1,-3,0,0,-2,-1,0,2
1537922239250564,-3,-12,3,-4,0,1,-2,-3
1537922239252559,0,24,9,13,3,2,-2,-2
1537922239252559,-1,4,-1,-3,-3,-2,-1,0
1537922239273503,0,12,-6,-2,-1,0,0,-3
1537922239273503,-1,-6,21,5,-1,-3,0,0
1537922239274500,-1,-20,-29,-9,-3,-2,-1,-1
1537922239274500,-2,-2,-5,0,2,0,-1,-4
1537922239286468,-3,-3,2,-3,0,-2,-1,-2
1537922239286468,0,1,-2,-4,-2,0,0,-2
1537922239295444,0,-1,4,-7,-1,-2,-3,0
1537922239295444,1,-3,-4,7,0,0,0,2
1537922239310405,-3,-1,2,3,0,-1,-1,-3
1537922239310405,-2,19,1,0,1,-1,-2,-3
1537922239312399,0,-3,4,-1,-1,-2,1,-1
1537922239312399,1,2,-3,-7,-6,-4,-1,-1
1537922239333343,1,-5,-2,2,3,2,-1,1
1537922239333343,-1,-4,-5,0,-3,-3,-1,-2
1537922239334340,-2,1,-3,-2,-2,0,-1,0
1537922239334340,-1,-4,3,-1,-2,0,0,-1
1537922239347305,-1,-1,4,0,-2,0,-2,-1
1537922239347305,1,0,-5,1,4,1,-2,-1
1537922239355284,2,-1,2,-1,-3,-3,-1,0
1537922239355284,-2,-2,-1,1,0,-2,-1,-1
1537922239370244,-1,3,0,-3,0,-3,-3,-3
1537922239370244,-1,-6,-25,-5,-3,0,-1,1
1537922239372239,-2,-5,7,-3,-2,-1,1,0
1537922239372239,-1,4,15,1,1,1,-2,0
1537922239393183,-1,-8,-12,-2,-2,-1,2,1
1537922239393183,-1,1,4,5,3,-2,-1,1
1537922239395178,-2,-3,0,2,-1,2,-2,-2
1537922239395178,2,6,1,-2,-2,-2,-1,-1
1537922239407145,1,-1,-2,-8,-5,-3,-2,0
1537922239407145,-2,-4,0,3,2,1,0,-2
1537922239416122,-1,-3,-3,-2,0,0,-1,1
1537922239416122,-1,1,3,1,0,0,0,-2
1537922239432079,1,-2,-2,2,-2,0,0,1
1537922239432079,-1,0,-2,0,0,0,-1,-2
1537922239437066,0,6,8,-2,-3,-2,-2,-1
1537922239437066,-1,-4,-17,-2,1,1,0,-2
1537922239453023,-1,-1,1,-4,-3,-3,-1,0
1537922239453023,-1,-3,-4,-1,-1,-1,1,0
1537922239455018,-1,-1,5,3,4,1,1,-2
1537922239455018,-1,-2,-3,-1,-2,0,-1,-1
1537922239466986,-3,0,0,4,2,0,-1,-2
1537922239466986,-1,0,4,-3,-5,-3,-2,0
1537922239475962,0,-4,-8,-2,-3,-1,-1,0
1537922239475962,-2,2,8,0,0,1,0,-1
1537922239490922,-2,0,-8,4,-2,-1,0,0
1537922239490922,2,1,1,-2,0,1,-1,-1
1537922239491919,0,-5,-15,1,-4,-2,0,0
1537922239491919,-2,-1,1,-4,2,2,-1,-1
1537922239512863,0,0,1,-5,-4,0,1,-1
1537922239512863,0,-1,0,5,1,-1,0,0
1537922239514858,-2,-6,-12,-2,-1,-4,-2,-1
1537922239514858,0,3,7,2,0,-1,-1,-1
1537922239542783,-2,2,11,-2,1,2,-1,-2
1537922239542783,1,0,0,-2,1,1,0,1
1537922239544778,-1,-1,3,-1,-1,0,-1,-3
1537922239544778,0,-3,-6,0,-3,-2,-1,0
1537922239550762,-2,0,2,-2,-1,-2,-2,0
1537922239550762,-1,-2,-4,-4,-2,0,-1,0
1537922239551759,-2,1,5,0,0,0,0,-2
1537922239551759,0,0,-6,-2,-1,-4,0,-2
1537922239573700,0,0,-3,0,-3,-2,-1,0
1537922239573700,-1,0,2,2,2,0,-2,-2
1537922239574698,-1,1,4,-3,-1,0,-1,-2
1537922239574698,-1,-4,-8,2,-2,-2,-2,0
1537922239595642,0,-1,2,1,2,2,-1,0
1537922239595642,0,0,4,-2,-3,-5,-3,0
1537922239597637,-2,5,5,-2,0,-1,0,-1
1537922239597637,-1,-2,-8,-1,-1,1,1,-1
1537922239610602,-1,1,1,-2,0,-3,-1,0
1537922239610602,-2,-3,-4,-3,-1,0,0,0
1537922239612597,-1,0,-2,-5,-3,-2,-1,1
1537922239612597,-2,-1,10,0,0,-1,-1,0
1537922239633541,-1,2,3,2,0,0,-1,-3
1537922239633541,-2,-4,-1,-3,-3,-1,-1,-2
1537922239634538,0,-4,-5,-1,-1,-1,-1,0
1537922239634538,-1,-2,-6,-3,-2,-2,0,1
1537922239655482,-1,-2,2,3,2,0,0,0
1537922239655482,0,0,2,-1,-2,-1,0,-1
1537922239657477,-1,-1,-1,1,0,-1,0,-2
1537922239657477,0,1,-5,-9,-1,0,-1,-1
1537922239670442,-1,-2,0,3,2,0,-3,-2
1537922239670442,-3,4,1,1,-1,-1,0,-1
1537922239676426,1,1,0,0,0,0,0,-1
1537922239676426,-3,-2,-3,1,1,0,-1,-1
1537922239693380,0,0,3,-5,-3,-1,-1,0
1537922239693380,0,-1,5,-2,0,0,0,0
1537922239694378,0,-7,-26,-3,-1,0,-1,-1
1537922239694378,-1,1,1,0,-1,-2,-1,-1
1537922239715322,-1,-7,-11,0,-2,-1,1,-2
1537922239715322,-1,6,14,1,0,0,-2,-1
1537922239717316,0,4,9,0,0,1,-2,0
1537922239717316,-1,-3,-5,-1,0,0,-1,0
1537922239730282,0,-1,-1,-3,-1,-1,0,-2
1537922239730282,-1,-5,-8,-2,-3,-2,-2,-2
1537922239737263,-2,0,7,0,1,-1,1,-1
1537922239737263,-1,-5,-15,0,-2,0,-3,-1
1537922239761199,0,-1,2,0,-2,-1,-1,-1
1537922239761199,-2,0,-6,-4,-1,-1,0,0
1537922239762196,1,-1,3,-1,-1,-1,-1,-1
1537922239762196,0,0,4,0,-1,0,-1,-2
1537922239776159,0,1,-1,0,3,1,0,-1
1537922239776159,2,-1,-5,0,-3,-1,-1,0
1537922239777156,-1,0,3,1,1,0,-2,0
1537922239777156,-1,-1,-1,0,-1,-2,-1,0
1537922239790121,-2,-2,-3,-4,-2,-1,-1,-2
1537922239790121,0,-1,-3,0,1,0,0,0
1537922239797103,-1,-3,3,-1,0,2,-1,-1
1537922239797103,-1,-3,4,-4,0,-1,-2,-2
1537922239813061,0,1,-1,7,2,0,0,0
1537922239813061,0,13,6,2,-1,-1,0,-1
1537922239815055,-1,-4,-19,-1,-2,-3,1,-2
1537922239815055,-2,1,-3,1,0,0,0,0
1537922239835999,0,-3,2,-5,-3,-1,-1,0
1537922239835999,-2,-2,-2,-1,1,-1,-1,-1
1537922239836997,0,1,1,-1,-3,-2,-1,0
1537922239836997,-2,-2,2,-2,-1,-1,0,-1
1537922239849962,-1,-2,-4,0,1,-1,-1,0
1537922239849962,0,-4,-4,-2,-2,1,0,-1
1537922239856943,0,3,3,-1,-2,-1,-2,-1
1537922239856943,1,-1,-2,-1,0,-1,-1,-1
1537922239872901,-3,1,1,-2,1,0,-1,0
1537922239872901,-1,-4,-5,-1,1,0,0,0
1537922239874896,-1,-1,1,-3,-2,-4,-1,0
1537922239874896,1,0,0,1,1,2,0,0
1537922239895839,-1,-2,-3,-3,-2,-2,-2,-1
1537922239895839,0,0,0,-1,-1,0,-1,-2
1537922239896837,-2,-10,-7,-1,0,-1,-1,-1
1537922239896837,-1,8,8,0,-2,-1,0,-2
1537922239909803,0,9,6,0,-1,0,-2,0
1537922239909803,-2,-6,-7,-3,-3,-4,-2,-2
1537922239916784,-3,-4,-9,4,-1,0,1,0
1537922239916784,-2,0,6,0,0,0,0,-1
1537922239933738,1,-4,-8,-4,-1,-2,-1,-2
1537922239933738,0,-4,-10,3,2,0,0,0
1537922239934736,0,0,3,1,2,1,-3,0
1537922239934736,-1,0,6,2,0,0,-1,-1
1537922239955679,0,-4,-7,-3,-3,-2,1,-1
1537922239955679,-2,-1,1,-4,-3,-3,-3,-1
1537922239957674,-2,-1,1,0,3,2,0,-2
1537922239957674,-1,-2,-5,-2,-2,-2,-1,-3
1537922239969642,-2,0,6,-4,-3,-3,-3,0
1537922239969642,0,-2,-1,1,2,1,0,0
1537922239976624,-1,2,2,0,-3,-1,0,0
1537922239976624,-1,1,0,-1,-1,-2,-1,1
1537922239993578,0,-1,-2,1,-2,-1,1,0
1537922239993578,-1,-2,-3,-1,-2,-1,0,-2
1537922239994576,2,1,5,-3,-2,-2,-2,-1
1537922239994576,-2,-2,-7,-3,-1,-1,1,-1
1537922240015520,-1,-2,0,1,-1,0,-1,-1
1537922240015520,-2,0,1,-3,-1,-1,-2,1
1537922240017514,0,2,4,-2,0,-1,-1,-1
1537922240017514,-1,-2,-7,-1,0,-1,0,0
1537922240029482,-3,-1,1,1,2,1,-1,0
1537922240029482,-1,0,4,0,-3,-2,-1,-1
1537922240038458,-2,-3,-2,-1,-2,0,0,-2
1537922240038458,-1,-1,-6,-3,-1,0,-1,0
1537922240053418,-3,0,1,0,-2,-1,0,-1
1537922240053418,-2,-3,1,-2,-1,0,0,-2
1537922240054416,-1,3,0,0,-2,-1,-2,-1
1537922240054416,0,-3,-2,0,0,1,-1,-1
1537922240083338,0,0,0,-2,0,-2,-1,0
1537922240083338,-1,-2,3,1,1,-1,0,-1
1537922240084336,1,-3,-11,0,1,0,1,1
1537922240084336,0,2,2,-1,-4,0,-2,-1
1537922240089322,0,-5,-7,-1,0,-1,1,-1
1537922240089322,-2,5,6,-3,-1,1,-1,0
1537922240098299,-1,1,3,-3,-1,-3,0,0
1537922240098299,0,-2,0,1,-2,0,-2,-1
1537922240113258,0,-2,1,2,0,1,-1,-3
1537922240113258,0,-5,0,-3,-1,-2,-1,0
1537922240114256,-3,2,1,5,0,-1,0,-1
1537922240114256,-1,-4,-1,2,1,-2,-1,0
1537922240135199,0,-4,-2,-3,-3,-2,-2,-1
1537922240135199,-1,2,-7,0,1,1,0,-1
1537922240137195,0,2,7,-4,-1,0,-2,-1
1537922240137195,0,2,-4,-5,-1,-1,1,-2
1537922240149162,-4,0,3,-1,1,-1,-1,0
1537922240149162,-1,-1,0,-3,-3,-1,0,0
1537922240158139,-1,1,1,-1,2,0,-1,0
1537922240158139,-1,-3,0,0,2,1,0,-2
1537922240174096,0,1,1,1,0,0,0,-2
1537922240174096,-2,0,-5,1,1,-1,-2,0
1537922240175094,-1,-5,-3,-1,0,0,0,-1
1537922240175094,-1,1,1,-3,-3,-3,-1,-2
1537922240196037,0,1,-3,-1,-1,0,-1,-2
1537922240196037,0,-5,-3,-1,-3,-2,-1,-2
1537922240197034,0,5,5,3,4,0,1,0
1537922240197034,0,-5,1,-1,-1,-1,-1,-1
1537922240209002,-1,0,-2,-3,-4,-3,-1,0
1537922240209002,-1,-3,-1,0,0,-2,0,0
1537922240225957,-2,-2,-5,-1,1,0,-1,0
1537922240225957,-1,3,12,3,-2,-3,-2,0
1537922240232938,1,1,1,-1,1,1,1,-2
1537922240232938,0,-5,-8,-5,-1,-2,-1,-1
1537922240234933,0,0,-3,-4,-4,0,-1,-2
1537922240234933,-2,2,-3,0,2,0,0,0
1537922240255877,-1,1,0,-2,-3,-2,-1,-1
1537922240255877,2,8,2,2,-2,0,-1,1
1537922240256874,1,30,3,0,0,-2,0,-1
1537922240256874,-3,-21,-6,-3,-2,-2,-2,0
1537922240268842,-4,-10,-9,-3,0,0,-1,0
1537922240268842,-2,-1,1,1,-3,-2,1,0
1537922240277818,4,13,1,2,-3,-2,-1,-1
1537922240277818,-4,-25,-8,-1,0,1,-1,-4
1537922240292778,-1,13,1,-4,-2,-3,0,0
1537922240292778,-3,9,1,-1,1,1,-1,-1
1537922240294773,1,-14,-1,-1,-1,0,-1,0
1537922240294773,4,27,0,-2,-3,-2,-1,1
1537922240315717,2,-5,1,2,3,3,1,0
1537922240315717,-1,-5,0,-1,-2,-4,0,0
1537922240316715,-2,5,-1,-1,-4,-1,0,-1
1537922240316715,0,-6,-5,3,-2,-1,-1,0
1537922240329679,0,2,4,0,-5,-3,-2,-1
1537922240329679,-1,0,6,2,3,0,0,0
1537922240338655,-2,-17,-6,-3,-1,1,-2,-1
1537922240338655,-2,2,-8,-2,-2,0,-1,0
1537922240353615,-1,-9,-1,0,1,1,-1,-2
1537922240353615,1,2,0,-1,-2,-1,-1,-2
1537922240354613,-1,-10,3,-2,0,-3,1,-1
1537922240354613,0,1,3,-2,3,2,1,-1
1537922240375557,1,5,2,3,1,-1,-1,1
1537922240375557,0,-9,0,3,-2,-1,-2,0
1537922240377552,-3,1,-1,-2,-2,0,-1,-2
1537922240377552,-1,4,-7,-1,-4,-2,-2,0
1537922240389519,-2,-3,-3,-5,2,0,-2,-3
1537922240389519,-1,-4,-4,-1,0,0,0,-1
1537922240415451,-1,-2,0,-1,-4,-2,-2,1
1537922240415451,-2,2,5,2,0,1,-1,-1
1537922240416448,0,-1,-2,1,-1,-1,0,-2
1537922240416448,-1,-2,1,-1,-1,-1,-1,0
1537922240419440,0,0,2,-3,0,0,-4,-2
1537922240419440,-1,-1,-6,-1,-1,-1,-1,-1
1537922240435397,-2,-2,-7,4,-1,0,-2,-1
1537922240435397,-1,1,-3,-2,-2,-3,-2,-2
1537922240437392,-1,-5,0,1,1,0,0,1
1537922240437392,1,3,9,0,1,1,0,0
1537922240458336,-1,0,2,-2,-2,0,0,1
1537922240458336,0,7,-1,-1,0,0,-1,-2
1537922240459333,-1,-20,-4,-4,0,-1,-1,-1
1537922240459333,-1,-1,-9,0,-1,-1,0,-1
1537922240473296,0,0,0,-2,-1,-3,-1,2
1537922240473296,-1,3,1,-2,0,-1,-1,-1
1537922240474293,-1,3,-2,-3,-4,-3,-2,0
1537922240474293,0,-1,0,3,5,1,0,-3
1537922240503216,-2,-2,1,-1,-2,-2,-1,1
1537922240503216,-1,-3,0,0,1,0,0,-2
1537922240504213,0,-3,-6,1,1,1,-1,-1
1537922240504213,0,0,-1,-3,-4,-4,-1,-1
1537922240518176,0,2,1,-1,-1,-2,-1,-1
1537922240518176,-1,-3,-2,-1,-2,0,-1,-1
1537922240519173,-2,4,8,0,0,-3,0,-1
1537922240519173,0,-3,-7,-2,-2,0,0,0
1537922240533136,0,-1,-2,-4,-4,-1,-1,-2
1537922240533136,-2,-1,-2,0,0,0,-1,-2
1537922240535130,-1,-1,-2,0,2,0,1,-1
1537922240535130,-1,0,2,-4,-1,-3,-1,-2
1537922240556074,0,-6,-2,3,2,1,-1,0
1537922240556074,-2,-1,7,4,0,-2,-1,-2
1537922240557072,-2,2,-5,-1,-1,-1,0,-1
1537922240557072,0,-2,-1,0,-1,0,-1,0
1537922240578015,-1,-3,-5,-6,-4,-1,-1,0
1537922240578015,0,2,-3,1,3,3,1,0
1537922240580010,1,1,2,2,-2,-2,-2,0
1537922240580010,-1,-7,-3,-2,-2,-3,-2,-1
1537922240592975,0,1,0,-1,-1,-1,-1,-1
1537922240592975,1,-4,1,-1,0,0,-1,0
1537922240594971,-1,-2,-4,-2,-3,0,-1,-2
1537922240594971,0,2,1,-1,-1,-1,1,0
1537922240615914,0,1,4,2,1,1,-1,-1
1537922240615914,-1,-4,-5,-3,-3,-2,-2,-1
1537922240616912,-1,-2,-3,0,-1,0,0,-1
1537922240616912,0,0,1,-1,0,0,-2,-1
1537922240638853,0,1,2,0,0,0,1,-2
1537922240638853,2,2,-4,-3,-1,-1,0,-2
1537922240639851,-1,2,8,0,0,-1,1,1
1537922240639851,-1,-3,-3,-1,-2,-1,-1,-1
1537922240652816,-4,-5,-8,-5,0,-1,0,0
1537922240652816,0,4,-1,2,1,0,-1,0
1537922240659797,0,4,3,-1,-1,-3,1,-2
1537922240659797,0,3,3,-2,1,-1,0,0
1537922240675754,-3,-1,7,2,-3,0,-1,0
1537922240675754,0,-5,-14,-3,-4,0,-1,0
1537922240676752,0,-6,-8,0,-1,-4,-3,0
1537922240676752,-2,-1,4,2,2,1,0,0
1537922240698693,2,-1,-2,0,-2,-2,-3,0
1537922240698693,0,0,3,-1,0,-3,0,-1
1537922240699690,-2,-1,-3,-2,-1,0,0,-2
1537922240699690,-3,-2,-2,1,1,-2,0,0
1537922240712656,-2,1,-1,-1,-2,-1,-2,-2
1537922240712656,-1,0,-2,-1,-3,-2,-1,1
1537922240719637,0,-1,-2,-3,0,4,0,-1
1537922240719637,-2,0,0,-1,-3,0,0,-2
1537922240735594,-1,0,3,9,4,1,1,0
1537922240735594,-1,-1,-5,-4,-4,-2,-3,1
1537922240737589,-1,-2,0,4,2,-1,0,-2
1537922240737589,1,1,-2,0,0,0,0,0
1537922240758533,1,-1,-2,-5,-2,-2,1,1
1537922240758533,-2,-6,3,0,2,2,0,-2
1537922240759531,-3,-1,-2,-4,-4,-3,-1,-2
1537922240759531,-2,-1,0,-2,-4,-3,-2,1
1537922240772495,1,-3,-7,0,1,-1,1,-1
1537922240772495,-1,-1,-1,0,0,0,0,1
1537922240779477,1,-4,-1,-5,-3,0,-1,0
1537922240779477,0,-1,2,1,0,-1,-1,-1
1537922240795434,0,1,-1,-2,-3,-3,-2,0
1537922240795434,-1,-1,3,0,2,-1,-1,-1
1537922240797429,-1,-1,-3,0,2,-1,0,-1
1537922240797429,-1,0,1,1,-2,-1,-1,-2
1537922240818373,-1,-4,0,-4,-2,-1,0,-2
1537922240818373,-3,0,5,-1,-1,1,-1,-2
1537922240819370,0,-1,-4,2,-1,0,-1,0
1537922240819370,0,2,-2,-3,-2,-1,0,-1
1537922240832336,0,0,0,-2,1,0,-1,-2
1537922240832336,-2,-3,-3,-3,-3,-3,0,-1
1537922240840314,1,-2,-1,0,1,-2,-1,-1
1537922240840314,0,-3,-1,-1,-2,-2,-1,-2
1537922240855274,-1,-1,1,-1,2,1,0,1
1537922240855274,-1,3,0,0,0,1,-1,0
1537922240857269,0,2,2,0,-4,-2,-2,0
1537922240857269,-4,-9,4,6,8,4,0,0
1537922240878213,-2,0,-11,-4,-5,-3,-1,-3
1537922240878213,2,10,2,0,1,1,0,-1
1537922240879211,-3,-31,-8,0,1,0,-2,-2
1537922240879211,1,1,0,-4,-4,-3,-1,-2
1537922240892176,1,1,1,2,-3,0,0,0
1537922240892176,-1,-4,-1,-2,3,0,-1,-2
1537922240899157,-1,8,0,-4,-3,-2,1,-1
1537922240899157,0,0,-1,0,1,1,-2,-3
1537922240915115,-2,-3,-1,-1,0,-1,-2,-2
1537922240915115,1,22,5,0,-1,-3,-1,1
1537922240922096,9,64,16,3,3,2,-1,2
1537922240922096,-25,-84,-25,-5,-2,-1,0,-6
1537922240938053,-7,-38,6,-7,-6,-4,-3,-12
1537922240938053,0,52,1,3,2,1,3,5
1537922240940048,29,88,23,-1,0,2,6,5
1537922240940048,13,18,7,-28,2,7,-2,34
1537922240952016,-25,-11,-81,-57,-17,-7,-7,-10
1537922240952016,-36,-118,7,-46,-7,0,-25,-58
1537922240975952,-27,-100,25,-13,-25,-7,34,-33
1537922240975952,65,69,-30,-94,-52,-29,12,51
1537922240976950,-32,-40,50,112,35,-2,-6,-29
1537922240976950,21,111,121,21,20,43,32,100
1537922240978944,-33,-71,25,127,64,-29,-62,-78
1537922240978944,-18,-58,85,15,14,-10,6,-65
1537922240997893,60,14,-57,-127,-64,-39,-27,82
1537922240997893,83,-72,-112,112,73,42,-26,-123
1537922240999888,15,-5,32,-18,-54,-20,30,84
1537922240999888,49,57,89,55,-16,9,-5,33
1537922241011856,72,13,-44,-88,-37,-37,-66,62
1537922241011856,24,39,-95,42,-18,-6,95,28
1537922241020832,25,67,50,55,50,37,32,71
1537922241020832,-91,-49,-107,-54,-18,-24,-71,38
1537922241035792,62,6,-61,-25,9,-5,-72,-90
1537922241035792,-69,2,-6,11,3,-16,-13,127
1537922241036790,49,57,23,-98,-28,25,56,-108
1537922241036790,-115,-91,-92,-42,-6,5,-4,-37
1537922241057734,-48,-18,78,0,20,-3,-27,3
1537922241057734,18,-10,15,-98,-2,24,86,14
1537922241059728,11,-20,-28,-50,11,11,-67,-24
1537922241059728,30,43,-89,-11,-7,-25,10,85
1537922241071697,-4,19,2,41,6,20,75,-2
1537922241071697,-6,-20,8,-23,-22,-33,-72,-114
1537922241086656,-27,-17,-55,-34,-18,0,23,106
1537922241086656,58,31,28,31,21,15,-27,-81
1537922241103611,-26,-1,42,63,19,16,46,-3
1537922241103611,-7,-3,-11,-18,-18,-20,-3,52
1537922241104608,-7,0,-44,-22,-4,6,-14,5
1537922241104608,-17,2,30,43,19,13,12,-14
1537922241118571,-7,15,15,18,9,14,33,8
1537922241118571,-16,4,18,-24,-17,-9,-28,-18
1537922241119569,-12,-23,-40,-3,-3,-12,-32,-16
1537922241119569,23,5,26,29,10,8,26,-39
1537922241148491,-17,10,3,-10,-6,4,11,6
1537922241148491,8,-8,-14,-24,-15,-9,-26,-1
1537922241148491,-13,-17,-7,25,8,-4,-2,-12
1537922241148491,11,16,-3,-7,-1,-1,13,21
1537922241154475,-5,15,6,-11,-1,12,7,-5
1537922241154475,-15,-10,11,16,10,-7,-16,-9
1537922241155472,8,-4,-17,-6,-6,-3,9,22
1537922241155472,-7,17,22,-3,5,8,-4,-34
1537922241177413,-7,-16,-16,7,7,4,-1,-5
1537922241177413,-6,-5,6,7,-6,-4,2,-16
1537922241178411,-9,-8,-14,-6,-4,-6,-8,-14
1537922241178411,17,5,-12,-12,-2,3,2,20
1537922241200352,-1,7,-21,2,0,0,7,15
1537922241200352,-1,-13,37,-12,-8,-8,-4,-1
1537922241200352,1,3,17,17,-1,-2,-6,1
1537922241200352,3,8,9,14,6,3,3,2
1537922241215312,-12,-6,-4,21,8,5,8,-4
1537922241215312,-2,-2,-22,-5,-7,-5,-4,9
1537922241215312,-4,-3,-3,-20,-5,-3,-7,-3
1537922241215312,3,-5,5,5,4,2,6,-8
1537922241237254,-2,2,6,-5,-1,-2,2,-8
1537922241237254,7,-2,-1,-11,-3,-2,-7,1
1537922241238251,-8,-2,-10,3,0,-3,-2,-6
1537922241238251,2,-1,4,1,3,0,1,3
1537922241260192,0,2,5,-6,-2,1,2,4
1537922241260192,-5,5,-5,5,-1,0,-4,-1
1537922241261189,-3,-14,-6,0,3,0,0,1
1537922241261189,2,2,3,2,-3,0,1,2
1537922241275152,5,7,12,0,2,0,1,-1
1537922241275152,-8,-7,-15,5,-1,-2,-1,-1
1537922241276149,19,10,-14,-8,-2,-3,-4,-11
1537922241276149,-24,-5,-3,-2,-1,-1,0,-1
1537922241297093,13,-5,13,8,0,1,0,7
1537922241297093,-20,-5,-13,-6,-2,-3,-5,-6
1537922241298091,8,-5,-10,4,1,1,3,13
1537922241298091,4,10,11,0,1,-2,0,-16
1537922241320032,-2,5,-21,-21,-6,0,2,-3
1537922241320032,8,5,31,8,5,1,-1,1
1537922241321030,-14,-3,-9,15,1,-1,-2,-3
1537922241321030,16,8,-32,-5,-3,0,3,18
1537922241334993,-13,-23,14,13,1,-2,-3,-28
1537922241334993,1,-1,-18,-21,-6,-3,-2,-7
1537922241335990,-6,-6,9,-10,-1,0,-1,-4
1537922241335990,1,-1,7,6,-1,-1,1,4
1537922241357931,3,9,-6,-6,-1,-1,2,10
1537922241357931,4,-4,4,2,-4,-2,-3,0
1537922241357931,-5,-1,4,0,3,0,0,-2
1537922241357931,-2,-2,-1,-1,-1,1,-1,-6
1537922241379872,-2,0,6,3,1,-1,-2,-1
1537922241379872,1,5,3,8,-1,0,-1,-2
1537922241380870,-2,-6,-7,-8,-6,-2,-1,1
1537922241380870,-2,-7,-2,-6,0,1,-2,-4
1537922241394832,-2,13,9,9,1,-2,0,1
1537922241394832,1,-10,-1,7,1,-1,-1,0
1537922241395830,-2,7,-10,-14,-4,-2,-3,2
1537922241395830,-2,-6,7,-1,3,0,1,-3
1537922241425750,-10,-6,2,4,1,-1,-2,-11
1537922241425750,2,1,-6,10,-1,0,-2,0
1537922241426747,-3,4,6,-1,0,0,1,1
1537922241426747,3,1,16,8,2,-1,0,6
1537922241439712,5,7,18,2,1,-1,0,4
1537922241439712,-6,-4,-38,-15,-4,-3,-1,3
1537922241440710,-9,-11,-4,-1,-1,-2,-1,-6
1537922241440710,1,-7,-19,-1,-2,-1,-1,2
1537922241454672,-7,-5,0,-5,-1,0,-1,2
1537922241454672,6,3,2,3,-2,-1,-1,0
1537922241455670,1,3,11,0,1,0,0,2
1537922241455670,-2,-1,4,-1,-4,-3,-2,0
1537922241477611,0,-5,-12,0,-2,-1,0,5
1537922241477611,-2,-1,11,-5,0,-2,1,4
1537922241484592,1,5,-9,-1,1,1,0,-3
1537922241484592,-4,-10,-3,-4,-2,-3,-1,-3
1537922241499553,7,6,4,1,0,-1,0,0
1537922241499553,4,2,0,-3,-4,-2,1,5
1537922241500550,-2,-4,-2,-1,-1,-2,0,-1
1537922241500550,5,3,1,-1,1,1,-2,-3
1537922241514512,-6,-3,-4,1,-1,1,-2,-1
1537922241514512,11,2,4,-4,-2,-1,0,14
1537922241515510,1,8,-4,-1,-1,-3,-2,-7
1537922241515510,-6,-10,1,2,0,0,1,-6
1537922241537451,0,-4,-3,1,0,-2,-2,1
1537922241537451,0,1,5,-4,2,0,0,-5
1537922241538449,-1,3,0,-2,-3,-1,-2,0
1537922241538449,-1,3,-2,-2,-4,-2,0,2
1537922241560390,1,3,3,0,2,1,-2,1
1537922241560390,-3,-3,5,4,0,1,-3,-6
1537922241560390,-1,-6,-8,-4,-3,-3,-1,2
1537922241560390,1,3,4,5,4,1,0,-4
1537922241575350,-5,-1,-2,-1,-2,-2,0,-2
1537922241575350,-8,1,4,-3,-1,0,-1,-9
1537922241575350,-2,-3,-1,-2,-4,-2,-2,-4
1537922241575350,3,1,3,2,-1,-1,-1,0
1537922241597291,3,2,-5,-2,0,0,1,0
1537922241597291,-2,0,1,0,3,1,-2,-3
1537922241598289,1,0,-3,7,0,0,-2,1
1537922241598289,-1,1,-34,-25,-5,-4,-2,3
1537922241620230,-6,-4,18,5,-4,-2,-3,-9
1537922241620230,-2,0,24,15,3,0,-1,-6
1537922241620230,2,-2,-13,7,3,2,2,1
1537922241620230,-3,1,14,7,0,0,-2,-2
1537922241635190,2,-1,-19,-11,-2,0,-1,4
1537922241635190,0,-3,-10,-10,-2,-2,0,-2
1537922241636187,-2,-3,9,-1,0,-1,-3,-1
1537922241636187,1,-1,-4,-9,-1,0,1,1
1537922241657131,0,-1,-2,0,1,-1,0,-1
1537922241657131,-1,1,2,3,-2,-1,0,-9
1537922241658129,1,-2,-4,-7,-2,-1,-1,4
1537922241658129,-3,-3,-1,1,-2,0,-2,-3
1537922241681067,1,1,5,3,1,2,0,4
1537922241681067,2,1,-4,5,-1,-2,-1,-1
1537922241681067,1,1,-4,-6,-1,1,0,-1
1537922241681067,-3,-1,5,1,0,-5,-1,-4
1537922241695030,-3,-2,1,2,-2,-2,-1,5
1537922241695030,0,0,-6,-9,-1,-1,-2,1
1537922241696028,-3,-5,-8,-7,-2,-2,-1,-1
1537922241696028,-1,0,9,10,2,-1,-1,-1
1537922241717968,-1,-2,-3,-4,-1,0,0,0
1537922241717968,-1,0,-8,-1,-2,1,-1,1
1537922241717968,-2,0,14,3,-2,-1,0,-2
1537922241717968,1,0,-8,-3,0,0,1,-3
1537922241740907,2,0,0,-4,-1,0,1,0
1537922241740907,-1,-2,-1,1,-3,-2,-1,14
1537922241740907,0,-2,1,0,0,0,1,-6
1537922241740907,-4,-1,2,1,-3,-1,-1,-2
1537922241754871,-1,0,-5,-3,0,-1,0,0
1537922241754871,-2,-3,-3,-3,-2,0,1,3
1537922241755868,0,-1,2,3,1,-1,-2,2
1537922241755868,1,-1,0,-2,-1,-2,-2,-1
1537922241777808,1,1,-8,-2,-2,0,-1,1
1537922241777808,0,-2,9,2,-1,-3,-1,-5
1537922241777808,-2,1,-2,-3,-2,0,-1,-3
1537922241777808,0,-1,1,-1,-1,1,0,1
1537922241799750,-1,-1,-2,0,-2,-1,-1,-4
1537922241799750,-3,-1,-10,-5,0,-1,-1,-3
1537922241807728,-2,-2,0,-5,-3,-1,0,-4
1537922241807728,1,1,9,5,5,2,0,2
1537922241814709,0,1,-2,2,2,1,-1,-1
1537922241814709,-2,-1,-7,-2,-2,-3,-2,-2
1537922241815707,-4,-4,2,5,0,-1,-1,0
1537922241815707,0,0,-6,-7,-1,-3,-1,-1
1537922241837648,-2,-3,-15,-14,-5,-2,-2,-1
1537922241837648,0,3,21,7,1,0,-1,-5
1537922241838646,-1,0,4,0,-1,0,0,1
1537922241838646,-1,-1,-1,0,-3,-1,-1,-2
1537922241860587,-1,-1,2,0,4,0,-1,-1
1537922241860587,0,-4,-15,-13,-5,-2,-1,1
1537922241861584,0,-1,0,-1,0,1,-1,0
1537922241861584,-1,-2,0,-2,-1,1,-1,-2
1537922241874549,-2,-1,-2,0,-2,-2,0,0
1537922241874549,-1,0,0,4,2,0,0,-3
1537922241875547,3,2,0,1,-1,-3,-2,3
1537922241875547,-4,-3,-1,-1,-1,-1,0,-1
1537922241897488,-2,-1,3,2,-2,-2,1,-3
1537922241897488,-1,1,1,2,-1,1,1,-1
1537922241898486,-1,0,-2,-5,-2,-3,0,-2
1537922241898486,2,1,-5,-1,-3,-2,-2,-3
1537922241920427,-1,-3,7,9,4,0,0,3
1537922241920427,2,1,2,-7,0,0,0,1
1537922241921425,-1,-3,-1,-1,0,-1,-1,-1
1537922241921425,-3,-3,-7,-4,-2,0,-1,-1
1537922241935387,0,-3,-4,5,-2,1,-3,-3
1537922241935387,1,-1,6,7,-2,-1,-1,3
1537922241935387,-1,0,-11,-2,1,1,-2,1
1537922241935387,0,0,13,1,-1,-1,-1,-1
1537922241957329,0,1,3,-3,0,0,1,-2
1537922241957329,0,-2,-9,-9,-3,-2,-1,-1
1537922241958327,-1,-1,3,2,0,-1,-1,-2
1537922241958327,-2,-1,-3,0,1,1,-2,-1
1537922241980268,1,-2,-2,-2,-1,-3,-2,3
1537922241980268,-1,1,-2,-2,0,-2,-3,-1
1537922241981265,-1,-1,0,-2,0,1,0,-2
1537922241981265,-1,-2,-5,-1,-2,1,-2,-2
1537922241995228,0,-1,4,1,-2,-1,0,0
1537922241995228,-1,-2,0,-1,-3,-1,-2,-2
1537922241995228,-1,-2,-3,-4,-1,1,-1,-1
1537922241995228,0,-2,-1,-2,1,-1,0,0
1537922242017169,-1,-2,5,2,-1,-1,0,0
1537922242017169,0,-1,-2,2,0,-1,0,-2
1537922242018166,0,0,1,0,1,1,-1,1
1537922242018166,1,1,4,1,2,-1,2,1
1537922242041104,-1,1,-4,-3,-1,-1,-1,-3
1537922242041104,-2,-2,-9,-11,-5,-2,-3,-2
1537922242041104,-1,-3,3,8,0,-1,1,2
1537922242041104,-1,2,4,2,0,-1,0,0
1537922242054070,3,0,-4,-2,0,0,-2,-2
1537922242054070,-3,0,2,-1,0,0,0,-3
1537922242062049,-3,-1,-4,-5,-4,-2,-3,-3
1537922242062049,-1,-2,-1,-2,-4,-4,0,1
1537922242077009,0,-1,2,1,0,-1,0,1
1537922242077009,2,1,-2,-1,-1,-2,1,0
1537922242078006,2,0,2,0,4,0,0,-1
1537922242078006,0,-1,-4,2,1,-1,-2,5
1537922242100945,-5,-2,2,-2,-1,-1,-2,-4
1537922242100945,-1,-2,0,3,-1,1,0,0
1537922242100945,0,0,-3,-4,-2,-1,0,-1
1537922242100945,1,0,-2,-4,-1,-1,-1,0
1537922242113910,-1,-2,-2,-3,-3,-2,0,1
1537922242113910,0,-1,0,3,1,0,-1,0
1537922242122886,-1,-1,-1,-1,-2,-2,1,-3
1537922242122886,2,-1,-1,-1,-2,-1,-1,1
1537922242137846,-2,0,-1,-2,-1,1,0,0
1537922242137846,-3,-1,3,2,1,1,0,-2
1537922242137846,0,-1,0,-3,-1,0,-1,-1
1537922242137846,-4,-4,-6,3,-1,-2,-1,-4
1537922242160785,-1,0,-3,-4,-2,-3,-1,-1
1537922242160785,-1,0,4,4,1,0,0,1
1537922242161782,2,2,9,5,1,0,-2,-1
1537922242161782,-3,-1,-4,1,2,1,-1,-1
1537922242174748,0,2,-3,-2,-2,-3,-2,3
1537922242174748,-3,-2,-2,-3,-3,-3,-2,-2
1537922242182726,-4,-2,-3,-4,0,-1,0,-3
1537922242182726,-1,-2,5,0,-2,1,-1,0
1537922242197686,-1,-2,-3,3,0,-1,0,-2
1537922242197686,-1,-2,-3,-2,-1,0,-1,-1
1537922242197686,-1,0,-2,-4,-2,-1,-1,-1
1537922242197686,0,2,3,-2,0,0,0,-2
1537922242220625,0,-1,-4,1,1,0,-1,1
1537922242220625,1,-3,-4,-2,0,-3,-1,-6
1537922242221622,-3,-2,-3,0,-2,-3,-2,-1
1537922242221622,-1,-1,-2,-4,-4,-1,-2,0
1537922242234587,-1,0,3,-2,-1,1,-1,-6
1537922242234587,0,1,-1,2,1,2,0,0
1537922242242567,0,-2,-3,-3,-2,-2,0,2
1537922242242567,2,-2,0,-4,-2,-1,-2,0
1537922242257526,0,0,2,3,3,1,1,-2
1537922242257526,-1,-1,-2,0,1,2,-1,0
1537922242258524,-1,0,2,-1,-2,-1,1,-1
1537922242258524,0,0,0,-1,-3,-1,-1,-2
1537922242280465,-1,-3,-1,2,-1,-2,-1,-2
1537922242280465,-2,0,1,-1,-1,-2,0,1
1537922242281462,-1,-1,-1,1,-2,-1,-2,-2
1537922242281462,-1,0,-3,-2,-3,-1,-2,-1
1537922242294427,-1,0,-1,-5,-3,-2,0,0
1537922242294427,0,-1,0,-2,-2,0,0,-1
1537922242302406,0,-1,-1,-2,0,-3,-1,-2
1537922242302406,-2,1,-1,-2,0,0,1,0
1537922242317366,-1,-2,-1,-1,-1,-1,-2,0
1537922242317366,-3,-2,0,0,0,0,-1,-1
1537922242318363,0,-3,-1,-1,-2,1,0,2
1537922242318363,1,-2,1,2,1,-1,-1,-2
1537922242340304,-1,0,1,-1,-1,0,-1,-1
1537922242340304,-1,-1,0,-2,-2,-2,-1,-1
1537922242341302,0,0,2,2,1,-1,-1,-3
1537922242341302,-2,1,-3,1,0,1,1,-2
1537922242363243,1,0,-1,-2,-1,0,1,7
1537922242363243,0,-2,-1,-3,-2,-2,-3,-5
1537922242364241,-3,0,-6,-4,-1,0,-2,-3
1537922242364241,-2,0,1,0,0,0,-1,0
1537922242377206,-3,-1,-1,-4,-6,-3,0,-2
1537922242377206,-1,0,0,4,4,1,-1,1
1537922242378204,0,0,0,0,1,0,-2,-1
1537922242378204,0,-2,-2,-1,-2,-4,-1,-1
1537922242400145,0,-3,-2,-5,-3,-2,-1,-3
1537922242400145,-1,2,1,3,3,2,-1,0
1537922242401142,1,-1,0,-1,-1,1,1,1
1537922242401142,-1,-2,0,-1,-1,-1,0,-1
1537922242423084,-4,0,-1,-1,-1,-1,-2,-4
1537922242423084,-1,-1,-1,-5,-5,-3,-1,3
1537922242424081,-2,0,-2,-2,-3,-2,0,0
1537922242424081,2,-3,-1,-1,0,0,-3,-2
1537922242437046,-3,0,1,0,-4,-3,-2,-5
1537922242437046,-3,0,2,5,4,3,2,-1
1537922242438043,-1,1,0,0,0,-1,0,1
1537922242438043,-1,-1,-1,-3,-2,-1,-1,1
1537922242460983,2,-1,-3,-2,-2,0,-2,-2
1537922242460983,-1,0,-2,-7,-6,-2,-1,0
1537922242460983,0,-1,4,7,2,0,-2,0
1537922242460983,1,1,-1,0,-1,0,1,0
1537922242482924,-1,0,1,2,4,1,0,0
1537922242482924,1,0,-3,-1,0,-1,0,0
1537922242483922,-1,-4,-1,-4,-3,-1,-2,-2
1537922242483922,-2,0,-2,0,-1,-2,-2,0
1537922242497884,0,-2,1,2,3,2,-1,1
1537922242497884,0,-1,-2,-3,-5,-2,-1,-3
1537922242498882,-1,-1,-1,-2,0,-2,-3,-5
1537922242498882,-1,1,-2,0,-1,-1,0,-3
1537922242520822,0,0,-2,-2,-2,-1,-3,1
1537922242520822,1,-2,0,-2,-4,0,-1,-1
1537922242521820,-1,-1,4,1,-1,1,0,0
1537922242521820,-1,-2,-5,-3,0,-2,-1,-1
1537922242542765,-1,0,0,5,2,-1,-1,-3
1537922242542765,-1,-2,-2,-5,-4,-1,0,2
1537922242543761,-3,-1,-1,-1,2,1,-1,-1
1537922242543761,1,0,3,-1,3,1,0,1
1537922242557724,-2,-1,-3,-5,-2,-2,0,3
1537922242557724,0,-1,0,2,1,0,0,0
1537922242557724,-1,-1,0,-6,-2,-2,1,0
1537922242557724,1,0,2,5,1,-1,0,-1
1537922242580663,-4,-1,-2,-1,1,0,-1,-5
1537922242580663,-1,-2,-2,-3,-2,0,-2,-3
1537922242581661,1,-1,-3,-4,-2,-2,-2,-1
1537922242581661,-1,-2,-1,-1,-1,1,0,-2
1537922242603601,0,0,0,1,-2,0,-1,1
1537922242603601,-2,-3,-3,-2,-1,-2,0,0
1537922242603601,0,0,-1,2,-2,0,0,1
1537922242603601,0,0,0,0,0,-1,0,-2
1537922242617563,-1,-3,-1,-1,-1,-2,1,1
1537922242617563,-2,1,-1,-1,-2,-2,-3,-1
1537922242618561,-1,0,-2,0,1,2,1,-2
1537922242618561,-2,0,-1,-1,-3,0,-1,1
1537922242640502,0,-1,-1,-1,-3,2,-2,-3
1537922242640502,0,-2,-1,-2,-2,-4,1,-1
1537922242641500,1,-1,1,2,4,1,0,4
1537922242641500,-1,-3,-1,-2,-2,-1,-1,-3
1537922242663441,0,-1,0,1,1,0,1,-1
1537922242663441,0,1,1,1,0,-2,-1,-4
1537922242663441,0,1,-2,-2,-3,-2,-2,6
1537922242663441,-1,-1,-1,-4,-3,-2,-1,-1
1537922242677404,1,0,0,0,2,0,0,-1
1537922242677404,0,-1,1,4,-2,0,-1,-2
1537922242678401,-1,-1,-2,-3,-2,-2,0,-1
1537922242678401,2,0,-1,-1,-1,-1,-1,2
1537922242700342,-1,-2,-1,-6,-5,-4,-1,-2
1537922242700342,-2,-1,2,4,5,4,0,0
1537922242702337,-2,-1,-2,-2,0,-2,-1,-5
1537922242702337,-1,1,6,-2,-4,-4,0,-2
1537922242723281,-1,-1,-4,-2,-3,-2,-2,-1
1537922242723281,-2,-1,-3,0,1,1,-1,-3
1537922242724278,-1,0,-3,-1,-5,-2,-2,-3
1537922242724278,-2,-1,-2,-1,2,3,0,0
1537922242737244,0,1,2,-2,1,-1,0,2
1537922242737244,0,-3,-1,0,0,-1,-2,0
1537922242745222,-1,-1,-3,-1,-6,-2,-1,0
1537922242745222,0,0,0,0,2,0,-3,-5
1537922242760183,-7,-2,-2,4,-1,1,0,-3
1537922242760183,1,-3,-5,-3,-3,-2,-1,1
1537922242762177,0,-1,0,-2,0,-1,0,1
1537922242762177,-2,-1,-2,0,0,-1,-1,0
1537922242783121,1,0,0,0,0,0,-1,-1
1537922242783121,-1,0,-3,-3,-1,-2,1,-2
1537922242785116,0,-1,1,-2,-3,-2,-2,4
1537922242785116,0,-2,-2,0,0,1,-1,-2
1537922242797083,-4,-2,0,0,0,-1,-1,-3
1537922242797083,-2,0,1,0,0,-1,0,1
1537922242806059,-1,0,-2,-2,1,-2,-1,0
1537922242806059,-1,-1,-5,-2,-3,-2,-1,2
1537922242821019,2,2,3,1,1,1,1,-1
1537922242821019,0,-1,1,-2,-2,-3,0,1
1537922242822017,-1,-1,1,1,0,-2,-1,-4
1537922242822017,-2,-2,-3,-1,0,0,-1,-1
1537922242842961,2,0,-2,-2,-1,-1,-1,-1
1537922242842961,0,1,-2,0,-2,-1,-1,0
1537922242844955,-1,-2,-1,2,-1,1,0,-2
1537922242844955,0,-2,1,-1,-3,-2,-1,-1
1537922242856923,1,-2,1,0,0,-2,-1,-1
1537922242856923,-2,-1,-1,-2,-1,0,-2,-3
1537922242865900,-1,-1,-1,-1,-1,-1,-2,-1
1537922242865900,1,0,1,4,0,1,-2,0
1537922242880859,-2,0,-2,-3,-2,-2,-1,1
1537922242880859,-3,-2,-3,0,0,0,-2,0
1537922242881857,1,0,-1,-4,-2,-2,-2,2
1537922242881857,-1,-3,-2,3,0,-1,-1,-3
1537922242902801,-7,-1,2,0,-1,-1,1,-4
1537922242902801,0,0,-1,0,0,-1,-1,-1
1537922242904796,-2,0,3,-1,1,-1,-1,-1
1537922242904796,1,-1,-3,-5,-3,-2,1,5
1537922242916764,2,-2,-5,6,5,2,-3,-4
1537922242916764,-2,-2,-1,-1,-3,-2,0,0
1537922242925740,-2,-1,-3,-4,1,1,0,-2
1537922242925740,-2,0,0,-5,-3,-2,-1,-2
1537922242940700,2,1,1,-1,-3,-1,0,2
1537922242940700,-1,-2,-2,-1,0,1,-1,1
1537922242941697,0,-1,-1,1,-1,-2,0,-2
1537922242941697,-4,-2,0,0,-1,-1,0,-2
1537922242963639,0,0,-1,-4,-2,0,-1,1
1537922242963639,1,-1,1,2,0,-1,0,1
1537922242964636,-3,-3,-4,0,-1,-1,0,0
1537922242964636,-2,-1,0,0,1,1,0,-3
1537922242976604,1,0,-1,-6,-1,-1,-1,1
1537922242976604,1,-2,-5,-1,-2,-2,-2,0
1537922242985581,-2,0,6,1,0,1,-1,-3
1537922242985581,-2,-2,-4,3,0,-1,0,-1
1537922243000540,0,1,2,-9,-4,-2,-1,-1
1537922243000540,-1,-5,-13,6,1,0,1,-1
1537922243002536,0,1,2,2,3,1,1,-1
1537922243002536,-1,0,4,7,4,0,0,0
1537922243023480,0,1,-3,2,-3,1,0,0
1537922243023480,-2,0,2,-7,-3,-3,-1,-3
1537922243024477,1,-2,-6,-3,-3,-1,1,-2
1537922243024477,-2,0,0,-3,-3,-2,0,2
1537922243036444,-1,-2,-2,-1,-3,-2,0,-3
1537922243036444,-1,1,2,0,-1,-1,0,-1
1537922243045420,0,-2,3,2,1,1,-1,0
1537922243045420,1,-2,-1,-5,0,-3,-2,0
1537922243060379,-2,-1,0,0,-3,-2,-2,0
1537922243060379,0,0,2,-1,-1,1,0,0
1537922243062374,-2,0,-3,2,0,0,-2,-6
1537922243062374,-1,1,-2,-3,0,-1,-1,-2
1537922243083318,0,-1,-1,2,2,0,0,-1
1537922243083318,0,0,2,-2,0,0,-1,-3
1537922243084316,-2,-1,-4,-2,-1,-2,0,0
1537922243084316,-1,-2,-2,-3,-3,0,-2,-2
1537922243096284,-1,-2,0,0,0,-1,-1,2
1537922243096284,0,0,1,-3,-3,-2,-2,0
1537922243105260,0,-1,3,3,-2,-1,-2,-1
1537922243105260,-1,-1,-6,-4,-1,0,3,-1
1537922243120220,-1,-1,4,2,-1,-2,2,-1
1537922243120220,-3,0,0,2,2,-2,-8,-1
1537922243122215,0,-1,-5,-1,3,10,15,5
1537922243122215,-1,-1,3,-4,-4,-5,-16,-4
1537922243142163,2,1,-1,0,0,-6,-8,-1
1537922243142163,-3,0,1,-1,-2,-1,2,-2
1537922243151138,-1,-1,2,-1,-4,-3,-7,-1
1537922243151138,0,0,1,2,2,7,10,0
1537922243157122,1,-3,-4,-3,-2,1,3,2
1537922243157122,-2,-2,-1,-3,0,0,-3,-1
1537922243166098,-2,0,-2,0,-1,-1,3,0
1537922243166098,1,-1,3,-1,-2,-2,1,-1
1537922243181057,-6,-2,-8,-1,0,0,-2,-4
1537922243181057,1,1,3,-2,-3,-1,2,0
1537922243182055,-2,2,-3,-5,-2,-1,-5,-4
1537922243182055,1,-1,1,8,1,-2,-1,3
1537922243202998,1,-2,1,0,-1,-1,0,-4
1537922243202998,0,-2,-1,-5,-4,-1,3,10
1537922243204993,0,-1,-2,-2,-1,-4,-4,-2
1537922243204993,-2,0,-1,-3,-3,-2,-2,-3
1537922243216961,-1,0,1,1,1,2,3,0
1537922243216961,-2,0,1,0,1,-1,0,-2
1537922243225938,0,-2,-2,-1,-1,-3,-4,0
1537922243225938,0,-1,-2,-2,0,-2,0,-2
1537922243240897,-1,-2,0,-1,-2,1,1,3
1537922243240897,-9,-6,-4,-2,0,0,-2,-5
1537922243241894,7,1,1,-1,-1,-3,-3,1
1537922243241894,-8,1,-3,-2,-2,-1,-1,-5
1537922243262838,-11,-17,-4,-2,-3,-4,-20,-3
1537922243262838,1,0,2,-1,-1,2,38,1
1537922243264833,43,37,14,5,0,0,-41,-1
1537922243264833,-31,-35,-15,-4,-5,-6,14,-5
1537922243285777,1,-8,4,3,4,5,11,34
1537922243285777,-9,21,-5,-4,-4,-4,-13,-34
1537922243286775,69,41,7,2,2,3,-2,-19
1537922243286775,-86,-58,-11,-7,-3,8,-4,-32
1537922243299740,-12,8,-12,-48,-4,2,16,13
1537922243299740,-24,-28,-16,-9,-28,-38,-33,15
1537922243306721,9,6,4,-115,-23,28,38,-4
1537922243306721,-16,-1,-36,-30,-17,-30,-49,-19
1537922243322678,-7,6,108,7,-8,-15,-12,-12
1537922243322678,-14,-29,-125,-31,-7,-33,-11,0
1537922243324673,36,-15,90,118,49,57,83,45
1537922243324673,12,9,80,99,39,12,-26,39
1537922243345617,32,-17,9,42,35,12,-28,-2
1537922243345617,-5,31,40,114,55,44,22,-28
1537922243346615,0,-29,-64,-87,-32,-70,-10,-28
1537922243346615,13,33,47,-100,-43,-14,-32,3
1537922243359581,29,31,-8,92,18,-2,-9,-19
1537922243359581,-19,-10,-41,-15,-2,33,-7,2
1537922243366562,-18,-76,-25,-34,-74,-56,-27,-2
1537922243366562,35,8,70,79,-2,20,78,13
1537922243383516,-3,-36,-112,-123,-3,85,96,16
1537922243383516,-48,-28,66,100,50,-85,-64,-48
1537922243384513,-23,-19,-116,-76,-23,-22,48,3
1537922243384513,36,20,-74,-128,-72,-38,23,12
1537922243405457,-8,4,-77,81,-19,-3,-31,-51
1537922243405457,25,13,127,-82,32,75,39,40
1537922243407452,-14,-25,33,-35,45,20,-39,6
1537922243407452,-4,-25,-12,5,22,-5,10,-44
1537922243420417,-52,-15,33,24,-18,-16,-10,22
1537922243420417,32,28,-128,-98,-58,-10,-3,-10
1537922243426402,-17,34,106,93,7,-15,-24,-2
1537922243426402,6,5,-10,53,26,42,-5,19
1537922243443356,44,32,-13,-86,-9,-40,-8,11
1537922243443356,12,-1,47,46,-17,-46,-9,41
1537922243444353,-13,9,44,46,25,25,10,19
1537922243444353,10,0,-51,-26,3,22,-8,5
1537922243465297,-14,1,-5,-21,3,-17,-15,-23
1537922243465297,6,-14,-36,27,2,-1,4,10
1537922243467292,-21,-3,-56,-9,1,20,26,21
1537922243467292,4,16,11,25,7,-8,-18,1
1537922243480257,0,1,-25,-6,-1,-8,10,-7
1537922243480257,9,2,21,-34,-18,13,15,3
1537922243487239,10,2,-27,21,-1,1,-22,14
1537922243487239,-8,25,-22,-12,1,-8,10,-25
1537922243503196,24,5,65,20,11,8,13,18
1537922243503196,5,4,6,-15,-10,3,-13,-25
1537922243504194,0,3,-48,-15,-4,-6,-21,-3
1537922243504194,-25,-10,-18,50,18,1,3,8
1537922243526135,-1,8,12,-6,-8,12,25,30
1537922243526135,-16,7,21,-9,-5,-9,-20,-92
1537922243527132,-2,3,-88,-36,-6,-11,-9,-9
1537922243527132,16,-7,74,57,15,5,5,17
1537922243539100,-12,-2,4,8,-5,-7,-16,-13
1537922243539100,17,-7,-21,-4,-3,8,18,25
1537922243548077,-26,7,43,6,0,4,-7,-14
1537922243548077,14,4,-21,-32,-7,-5,2,-8
1537922243563036,-18,-11,-4,10,3,-3,-12,11
1537922243563036,6,11,28,4,-1,2,3,-7
1537922243565031,-10,3,10,13,2,2,1,-13
1537922243565031,12,-3,1,2,10,-2,-1,12
1537922243585975,-1,2,2,-5,0,-6,-5,-10
1537922243585975,10,-5,-23,-25,-9,3,7,21
1537922243586973,-3,8,13,26,2,3,-4,-3
1537922243586973,6,-2,-11,-6,0,-1,1,-5
1537922243598941,-3,-18,-5,-17,-8,-7,-5,-8
1537922243598941,-12,-2,7,3,3,10,6,14
1537922243607916,-22,-7,16,18,2,1,-3,-6
1537922243607916,7,8,3,-11,1,-2,-1,2
1537922243622877,2,12,-4,-13,-4,-5,1,-6
1537922243622877,2,-9,8,7,2,5,1,19
1537922243624871,-8,6,3,8,-1,-3,-1,-6
1537922243624871,-3,3,-15,-17,-7,-4,-2,-3
1537922243645815,-2,-3,2,5,3,0,-1,-2
1537922243645815,12,3,2,2,0,1,1,8
1537922243646813,0,1,0,3,1,-1,-3,-4
1537922243646813,4,9,-6,-8,-6,-3,1,2
1537922243658781,-11,-6,1,-2,-1,-2,-3,-4
1537922243658781,4,4,4,-5,-2,2,0,21
1537922243667756,-9,-8,-4,-1,0,0,-2,-12
1537922243667756,0,-8,4,4,4,-1,-4,1
1537922243682716,4,9,25,2,1,-1,-3,-5
1537922243682716,-2,2,-42,-12,-5,0,1,9
1537922243684712,6,5,2,4,0,-1,1,2
1537922243684712,-10,-20,-10,-5,-1,-1,0,-3
1537922243705655,-4,-1,-6,0,-3,-3,-2,-1
1537922243705655,-3,-25,20,2,1,0,0,-5
1537922243706653,-9,-3,0,-1,1,1,-1,-2
1537922243706653,2,11,-3,-4,-1,0,-2,-6
1537922243719618,1,-5,-3,2,2,0,1,5
1537922243719618,-2,4,1,-3,-6,-4,0,-4
1537922243734577,-5,-4,2,7,6,2,-1,0
1537922243734577,13,9,7,-3,1,1,0,4
1537922243742556,-8,2,-9,-5,-6,-5,-3,-7
1537922243742556,-1,-3,7,-1,3,2,3,2
1537922243750535,4,3,-2,-3,-1,-1,-2,-3
1537922243750535,-2,2,-3,-1,-2,-1,1,3
1537922243765495,3,0,-2,-3,0,-2,-1,-4
1537922243765495,3,1,0,-3,2,3,1,-2
1537922243767490,-3,-4,3,5,-3,-2,-1,-1
1537922243767490,-7,-1,-11,-9,-1,-1,-2,-4
1537922243779458,1,0,-3,4,-1,-2,-1,-5
1537922243779458,-5,1,11,3,1,0,-1,-1
1537922243788434,0,2,2,-3,2,2,0,0
1537922243788434,-4,-1,-2,-4,-2,-1,-1,-2
1537922243803394,-1,-5,-3,-4,-1,1,0,-3
1537922243803394,2,3,-5,-2,-3,-2,-2,1
1537922243804391,0,-7,1,2,-2,-2,0,-1
1537922243804391,-5,-2,-1,-2,-4,-2,-1,-1
1537922243825335,3,-2,-3,-4,-2,0,0,3
1537922243825335,-5,2,-4,3,-1,1,-4,-13
1537922243827330,-5,3,2,-5,-1,0,-2,-10
1537922243827330,3,-1,2,3,-3,-3,1,1
1537922243839297,-1,-2,0,-6,1,1,1,-5
1537922243839297,0,2,-10,2,-1,-3,1,3
1537922243848273,3,-2,14,1,1,-1,0,5
1537922243848273,-1,-2,-4,4,6,1,1,-1
1537922243863233,-1,2,8,2,-2,-2,0,4
1537922243863233,1,-4,-7,-1,-1,-3,0,10
1537922243864231,-3,0,-1,-7,-5,-1,-3,-18
1537922243864231,-3,0,1,0,-3,-3,-2,1
1537922243885175,-7,-7,-7,0,0,-1,0,-5
1537922243885175,4,0,6,-4,-3,-1,-1,1
1537922243887169,0,1,-8,-1,-3,-1,-2,6
1537922243887169,-7,-3,3,3,-1,0,-2,-4
1537922243899138,6,2,-5,-1,1,0,0,3
1537922243899138,0,0,3,-1,1,0,0,-6
1537922243908114,-2,0,-4,2,0,0,0,4
1537922243908114,2,-3,-5,-6,-2,1,1,-1
1537922243923073,0,-2,2,-1,-2,-3,0,-1
1537922243923073,4,1,0,0,1,1,-1,2
1537922243924071,-1,0,-5,-3,-1,-1,-1,1
1537922243924071,-2,0,-3,-1,4,1,0,-1
1537922243946012,-1,0,-4,-2,-1,-2,-3,0
1537922243946012,-3,-9,-2,3,2,-1,2,-1
1537922243947010,-5,5,-1,-2,-5,-2,-3,-11
1537922243947010,-6,-5,0,-1,1,0,0,-2
1537922243958977,5,7,-5,-2,-2,0,-1,1
1537922243958977,-1,0,0,-2,-1,0,-1,-5
1537922243967953,3,-2,0,-1,3,0,1,7
1537922243967953,4,3,1,0,-3,0,1,4
1537922243982914,1,0,-1,-3,-1,-1,-2,-5
1537922243982914,-7,-2,-3,-4,-3,-3,-4,2
1537922243984908,8,2,-1,0,-2,-1,4,8
1537922243984908,-11,-3,7,-2,-3,-3,-4,-9
1537922244005853,-1,-4,-8,-1,-1,-1,-1,1
1537922244005853,4,2,15,4,1,1,3,0
1537922244006850,-3,-5,-13,8,2,-1,-1,-5
1537922244006850,2,2,0,-1,1,-1,-1,3
1537922244018818,0,-1,-4,-3,-3,-3,0,1
1537922244018818,-1,0,12,4,0,-2,-2,-5
1537922244027794,1,-3,-4,-5,-2,-1,2,6
1537922244027794,2,-1,-9,-5,-4,-2,-1,-2
1537922244042756,-4,0,8,4,0,0,0,-9
1537922244042756,0,2,2,1,-1,0,-2,-2
1537922244044749,2,0,-2,-3,0,-2,0,2
1537922244044749,-3,-3,-4,-6,-6,-3,-1,-1
1537922244065693,-4,2,4,-1,2,1,-1,-5
1537922244065693,1,-2,-5,3,0,0,0,1
1537922244066690,0,-1,4,2,0,0,-3,0
1537922244066690,-1,1,-4,-5,-1,-1,-1,-3
1537922244079655,1,-1,0,-2,-1,2,1,3
1537922244079655,0,0,-1,-3,-2,-2,0,-1
1537922244088632,0,-1,-2,1,-2,-2,0,-2
1537922244088632,1,1,6,0,0,-1,-2,0
1537922244103591,-2,-2,-7,0,-1,0,-2,0
1537922244103591,2,1,-1,-3,0,0,-1,-1
1537922244104589,3,2,-3,-2,0,-1,1,-4
1537922244104589,-1,1,0,4,-1,0,-1,0
1537922244125533,-6,-4,2,2,-1,-1,-2,-3
1537922244125533,-1,0,0,-4,0,0,3,-2
1537922244127527,-2,-1,-6,-2,-3,-2,0,7
1537922244127527,0,-1,6,5,0,1,1,0
1537922244139495,2,1,-10,-4,-1,-2,0,1
1537922244139495,2,-1,4,0,-2,-1,-2,1
1537922244148471,-3,0,5,-4,-3,-1,-1,-1
1537922244148471,-1,-2,-5,1,-1,0,-1,2
1537922244163431,0,0,1,-9,-3,-4,-1,-3
1537922244163431,-2,-2,1,12,2,-1,0,2
1537922244164429,2,0,4,0,2,3,-1,-3
1537922244164429,-5,-2,0,0,0,-2,-1,-4
1537922244185373,3,-1,-4,-3,-2,-1,-1,1
1537922244185373,-3,0,-9,-6,-2,-1,-2,-3
1537922244187367,-2,-1,-2,-1,-1,-1,-2,1
1537922244187367,3,-1,0,-1,-1,0,0,1
1537922244199336,1,-2,1,-2,-2,-1,-1,-1
1537922244199336,-2,1,-3,-1,-3,-2,-3,-5
1537922244208311,-6,-3,3,2,0,-1,-2,-6
1537922244208311,1,1,2,-3,-2,-3,-1,3
1537922244223271,-2,-4,-2,5,3,3,0,-1
1537922244223271,2,0,-7,-5,-2,-1,0,0
1537922244224269,2,-1,3,0,-2,0,-2,3
1537922244224269,0,-1,-2,-2,-1,-1,-2,-2
1537922244245213,0,2,9,0,-1,0,2,3
1537922244245213,-5,-1,-7,0,2,0,0,-2
1537922244247208,0,-3,-1,-2,-1,-2,-2,-2
1537922244247208,0,-3,-4,-8,0,0,-1,1
1537922244268151,-2,-1,8,9,-2,-1,-2,-1
1537922244268151,1,-2,2,-1,0,2,-1,0
1537922244269149,-1,0,-5,-1,-1,-4,-2,-1
1537922244269149,-1,-1,-3,0,-1,-1,-2,-2
1537922244283111,0,0,-4,-4,-1,-2,-3,2
1537922244283111,1,-2,1,-1,0,-2,-1,1
1537922244284109,-5,-2,0,2,-2,-1,2,1
1537922244284109,0,-1,1,0,2,0,0,-3
1537922244306050,-3,-2,-1,1,0,-2,0,-1
1537922244306050,4,-1,-3,-5,-3,-1,-2,2
1537922244307047,1,1,-1,-2,-2,-1,-1,-1
1537922244307047,-5,-3,-1,0,0,-2,-1,-5
1537922244327992,-3,0,0,1,-2,-3,-1,-4
1537922244327992,0,0,-3,0,-1,0,1,8
1537922244329987,0,-1,0,-4,-4,-1,-2,-2
1537922244329987,0,0,1,1,-1,0,-1,-2
1537922244342951,2,-2,1,2,1,-1,-1,1
1537922244342951,0,1,-4,-8,-3,-2,1,0
1537922244344946,-2,1,4,-1,-2,-1,-2,-1
1537922244344946,1,-1,-4,3,0,0,1,0
1537922244364893,-2,0,-2,-1,-3,1,-2,-1
1537922244364893,-2,-1,-3,1,0,-2,-1,-4
1537922244371874,0,0,0,0,-1,-1,1,1
1537922244371874,-1,1,0,1,0,0,-1,0
1537922244387831,1,0,1,-1,1,2,-1,0
1537922244387831,1,-1,0,0,-3,-1,0,-4
1537922244389826,-2,-2,-4,-2,0,1,0,-4
1537922244389826,-2,-1,0,0,-2,-1,1,0
1537922244402791,2,-1,-2,-2,-1,-1,-1,3
1537922244402791,-4,-3,-4,2,-3,-1,-2,-2
1537922244408775,-3,0,13,8,0,-2,-1,1
1537922244408775,-5,-3,-4,-3,1,-1,-2,-4
1537922244425730,-4,0,-1,-3,0,-1,1,-2
1537922244425730,4,2,-2,-5,-2,-1,-1,4
1537922244426729,1,-2,-5,-4,-1,0,0,-4
1537922244426729,-2,0,2,1,-1,-2,1,-2
1537922244447671,-1,-1,4,0,-4,-4,-2,-1
1537922244447671,-3,-3,-4,-1,1,0,0,-1
1537922244449666,0,-1,-2,1,0,0,-1,0
1537922244449666,4,1,-1,-4,-4,-2,-1,4
1537922244462631,-4,-1,-5,-1,0,1,-1,-7
1537922244462631,-3,0,0,-5,-2,0,-1,-4
1537922244469612,-1,0,1,3,2,-1,2,2
1537922244469612,0,0,-1,-4,-2,-3,0,-1
1537922244485570,2,-1,-5,0,-4,-4,-1,8
1537922244485570,-1,0,8,2,-1,0,-1,-7
1537922244486567,0,0,-4,-2,1,0,0,-3
1537922244486567,-3,2,0,-2,-1,-1,0,1
1537922244508508,-1,1,1,0,0,2,1,-3
1537922244508508,0,-2,-3,-2,0,-1,-1,-2
1537922244509506,6,-2,-5,-4,-3,0,2,20
1537922244509506,-4,-2,1,3,-1,-2,-5,-17
1537922244522471,-3,-1,-1,0,1,0,-2,-5
1537922244522471,-1,0,-7,-3,-2,-3,-2,1
1537922244529453,1,-1,7,-2,-4,-3,-2,-2
1537922244529453,3,0,4,1,2,1,1,6
1537922244545411,-1,-2,-2,3,0,0,-1,-3
1537922244545411,0,-1,-4,0,0,1,-1,-2
1537922244547406,-3,-1,-4,-3,0,-2,-3,-2
1537922244547406,-1,-2,-2,-3,-4,-1,-2,3
1537922244568349,-4,-1,0,-4,0,-1,-2,-4
1537922244568349,-1,1,9,-6,-4,-2,-3,3
1537922244569346,-5,-4,-13,3,1,1,-1,-6
1537922244569346,1,0,1,-1,2,1,-1,1
1537922244582312,1,-1,-3,2,1,1,0,2
1537922244582312,0,-1,-1,-3,-2,-2,-1,1
1537922244589293,0,1,2,-5,-3,-3,-1,-3
1537922244589293,-2,-2,-3,1,-1,-1,-1,1
1537922244605251,-1,-1,-2,-4,-3,-2,-2,-2
1537922244605251,0,0,-1,3,-1,1,-1,-3
1537922244607246,-1,0,-2,0,1,0,-3,-5
1537922244607246,2,-1,2,2,1,1,0,1
1537922244628190,0,0,3,-2,-2,-1,1,0
1537922244628190,-2,-2,-1,-1,-2,-3,-2,-4
1537922244629187,1,-2,-1,-3,0,1,0,-1
1537922244629187,-3,-2,-2,0,1,-2,-1,0
1537922244642152,1,-1,-1,-1,-3,-2,-1,1
1537922244642152,-1,0,-3,3,1,2,2,0
1537922244649134,-2,1,0,0,-1,1,0,-1
1537922244649134,-1,0,-5,-2,-3,0,0,-2
1537922244666087,2,-3,2,-3,-1,0,-1,2
1537922244666087,-1,-2,-5,3,3,-1,-2,-8
1537922244667085,-4,-1,1,0,-2,0,-1,-3
1537922244667085,1,2,-2,-1,-2,0,0,4
1537922244688029,-3,-2,-9,-2,-1,0,1,-1
1537922244688029,2,0,11,4,0,-3,-1,4
1537922244690023,0,-2,0,0,1,0,-2,-3
1537922244690023,-2,-1,-3,-1,-2,0,-1,-4
1537922244701992,0,1,-6,-6,0,-1,-2,-1
1537922244701992,-1,-2,-1,2,2,1,0,3
1537922244710967,-4,-2,-3,1,-2,-4,-1,-1
1537922244710967,0,0,0,0,1,0,-1,2
1537922244725927,-1,-1,0,-1,1,1,0,-3
1537922244725927,0,0,-4,-6,-3,-4,1,1
1537922244726925,-1,2,6,-3,-2,-1,0,-3
1537922244726925,2,-3,-8,-1,-1,-2,-1,0
1537922244747869,0,0,4,2,1,1,0,-2
1537922244747869,0,-1,-2,-2,-1,0,-2,7
1537922244749864,-2,-2,-3,0,0,1,-1,-6
1537922244749864,-1,-2,-1,-3,-4,-3,-1,1
1537922244761831,-2,-2,2,2,-1,-1,-2,-2
1537922244761831,-1,-1,-1,-2,0,-1,0,1
1537922244770808,1,0,0,-1,0,1,-1,2
1537922244770808,-4,-1,3,1,-1,1,-1,-4
1537922244785767,0,-1,-3,-2,-4,-2,-1,0
1537922244785767,-2,-1,-2,-2,-4,0,-2,-4
1537922244786765,1,-1,-4,0,1,-1,0,2
1537922244786765,1,0,0,-2,-3,-1,-2,0
1537922244808706,-4,-1,1,3,1,0,-1,2
1537922244808706,-4,-2,-3,-4,-3,-3,-1,-11
1537922244814690,1,0,-2,-3,-1,-2,-2,-4
1537922244814690,1,-2,0,2,1,-1,-1,4
1537922244821671,1,0,-2,-1,-1,-1,0,2
1537922244821671,-1,-1,-1,-1,-1,0,0,3
1537922244830648,-1,-1,0,1,0,0,-1,4
1537922244830648,-1,-1,-1,-3,-2,-1,0,-4
1537922244845607,-3,1,-2,-2,-1,-2,0,-3
1537922244845607,-1,-2,1,1,1,-2,0,-2
1537922244846605,2,-1,1,-1,-1,-1,0,1
1537922244846605,1,-1,0,0,3,0,1,0
1537922244868546,1,-2,-1,-3,-3,-2,-1,-1
1537922244868546,-1,0,0,1,-1,1,0,1
1537922244869543,-1,-1,-3,0,-3,-2,-2,-2
1537922244869543,-3,-3,-2,-5,-4,-3,0,-2
1537922244881512,1,-2,-1,1,0,1,-1,-1
1537922244881512,-1,-1,0,-1,0,-2,-3,-5
1537922244890487,0,-2,-2,0,-3,-2,-2,3
1537922244890487,-1,-2,1,1,1,2,-1,-5
1537922244905447,-1,1,-1,2,-2,-1,0,0
1537922244905447,-1,1,4,-2,1,0,0,-1
1537922244907442,0,1,-1,-4,-4,-3,0,-2
1537922244907442,-2,-3,-10,2,-1,0,-1,2
1537922244928386,-2,1,1,0,-2,0,-2,-2
1537922244928386,0,-4,-11,-2,-2,-1,-1,0
1537922244929384,1,0,7,-1,-1,-2,-2,2
1537922244929384,-4,0,-4,0,1,-2,-3,-8
1537922244941351,-1,-2,-5,-2,-1,0,-1,-1
1537922244941351,-2,-1,0,-1,-2,-1,0,-6
1537922244950327,-2,0,-3,-1,2,3,0,-2
1537922244950327,3,1,4,-1,-3,-2,0,3
1537922244965287,-3,-2,2,1,2,0,-1,0
1537922244965287,2,0,1,-1,-2,-1,-1,3
1537922244967282,-1,-3,-2,0,-1,-1,0,-2
1537922244967282,-4,1,0,-2,-2,-1,0,-2
1537922244988226,3,-1,1,0,0,0,-1,1
1537922244988226,-3,0,0,-1,-2,-1,-2,0
1537922244989224,0,-3,-4,-1,-1,-1,-1,0
1537922244989224,0,-1,-2,-3,-3,-1,-2,0
1537922245002189,-1,-2,1,1,3,-1,-1,-3
1537922245002189,0,-1,-3,-1,-3,0,-2,3
1537922245010167,0,0,-2,-2,-3,-4,-1,-4
1537922245010167,-2,1,2,-1,0,-1,0,1
1537922245025127,-2,0,0,-1,0,-1,-1,-2
1537922245025127,0,1,-1,-2,2,1,-1,-1
1537922245027122,-1,-3,-1,-2,-2,0,1,2
1537922245027122,0,-2,2,-3,-1,-1,0,1
1537922245048066,1,0,0,1,2,2,0,-2
1537922245048066,-1,-1,-1,-1,-2,-1,0,1
1537922245050062,-1,1,-2,-2,0,-1,-2,-3
1537922245050062,1,0,-2,0,1,-5,-1,3
1537922245062029,0,-1,0,-2,-2,-2,1,1
1537922245062029,-4,-1,1,2,2,-1,-2,4
1537922245071005,-2,0,0,-2,0,1,-1,-1
1537922245071005,0,-1,-1,1,0,2,-3,-3
1537922245085965,0,-1,0,-1,0,-1,-2,4
1537922245085965,-3,-2,0,1,0,0,0,-2
1537922245086963,1,1,0,-1,0,2,-2,1
1537922245086963,0,-2,-4,-6,-5,-1,-2,-2
1537922245107906,-2,-2,-2,0,-1,0,1,-1
1537922245107906,3,-1,-3,-2,-3,-2,0,-3
1537922245109901,-2,-1,-5,-5,-3,-5,0,-1
1537922245109901,0,0,15,3,0,1,1,1
1537922245130845,1,0,-5,-1,-1,-4,1,1
1537922245130845,-3,1,-1,-1,-1,0,0,-3
1537922245131843,0,0,-2,-2,2,-1,0,1
1537922245131843,1,0,-3,-3,0,-1,1,3
1537922245145805,-3,-1,0,-1,-2,-1,-2,-2
1537922245145805,1,-3,-1,1,-1,0,-2,-3
1537922245146802,-1,-1,-1,-1,-3,-1,1,-1
1537922245146802,-1,-2,-5,-2,-4,-2,-1,-1
1537922245167747,-2,-2,1,0,-1,0,-1,-2
1537922245167747,2,1,0,2,2,0,1,0
1537922245169741,-4,-3,1,2,-1,0,1,-2
1537922245169741,0,0,-4,-3,0,0,-1,-2
1537922245190685,2,1,0,0,-3,-2,-3,-2
1537922245190685,2,0,-1,-3,-3,-2,-3,2
1537922245191683,-4,-2,1,2,0,0,1,-2
1537922245191683,-3,-1,-3,-2,0,-1,1,-3
1537922245205646,2,0,-1,-2,-2,-2,-1,5
1537922245205646,-7,0,6,-1,3,1,-2,-4
1537922245206643,3,1,-8,3,2,-2,-1,2
1537922245206643,-2,-1,-2,0,-1,-1,-2,-2
1537922245227586,0,0,-1,-1,-3,-1,0,-2
1537922245227586,0,0,2,-3,-4,-1,1,1
1537922245229582,-2,0,3,2,0,1,-1,-3
1537922245229582,0,0,-2,-1,1,-3,0,-1
1537922245250525,1,-1,-2,-3,-2,-1,-2,-1
1537922245250525,-1,0,-4,0,0,-1,-1,1
1537922245252520,-1,0,2,0,0,-1,-3,0
1537922245252520,-1,0,-1,3,2,1,-1,-2
1537922245265485,-3,-2,-1,-3,-4,0,-1,-2
1537922245265485,0,-3,-2,-2,-2,-8,-1,-2
1537922245267480,1,-1,0,-1,-1,3,1,-1
1537922245267480,-1,-2,-1,-1,-6,-8,-3,-1
1537922245295405,-2,-2,-1,-5,-25,-26,-3,-3
1537922245295405,-4,-5,-4,-4,13,29,1,-4
1537922245297400,4,2,2,2,2,-3,1,2
1537922245297400,-6,-5,-1,5,11,11,0,-3
1537922245310365,-4,-1,-1,-2,-4,-11,0,-8
1537922245310365,1,-3,-3,-2,-19,-13,-6,-1
1537922245312360,-4,-5,1,1,-1,1,2,22
1537922245312360,-8,2,1,1,14,12,2,-16
1537922245325325,15,11,0,-1,-1,-6,-4,-17
1537922245325325,-9,2,5,5,4,-1,8,9
1537922245331310,12,-44,-11,-12,-8,-5,-11,-41
1537922245331310,65,11,7,2,-8,-6,1,14
1537922245348264,-34,33,-16,-14,1,3,-7,-9
1537922245348264,18,48,-44,-107,-31,-14,-1,58
1537922245349262,-58,0,12,-14,-19,4,-1,-33
1537922245349262,1,3,-83,-63,-35,-19,-8,28
1537922245370205,-31,24,93,-31,-23,15,0,-35
1537922245370205,34,-3,-87,-85,-20,3,10,5
1537922245372200,74,-56,61,83,83,18,2,44
1537922245372200,-95,-34,-77,57,59,13,15,-16
1537922245385166,62,41,79,-70,-27,3,-3,16
1537922245385166,-60,-6,35,105,21,-2,5,-6
1537922245392147,-34,-21,32,-38,50,14,3,6
1537922245392147,62,104,-45,-57,-40,29,86,2
1537922245408104,-10,-75,-12,105,51,-40,-95,-19
1537922245408104,-70,-118,88,-125,-128,-74,-56,-63
1537922245409102,-42,107,81,45,-15,22,25,-11
1537922245409102,51,14,-22,-109,20,11,21,53
1537922245431042,-67,-2,-128,-111,-43,16,32,-22
1537922245431042,-22,127,86,120,85,32,15,-17
1537922245432040,25,-14,-84,-72,-6,-2,-21,14
1537922245432040,-25,-50,127,10,2,-13,-15,-36
1537922245444009,36,43,-128,76,95,34,49,16
1537922245444009,17,-44,-71,20,23,7,0,14
1537922245452984,-30,-32,-75,-111,-66,-18,-22,16
1537922245452984,-11,-67,30,15,-45,-24,-38,-5
1537922245467945,28,-10,-79,-15,-26,-11,-4,-5
1537922245467945,12,-48,-53,11,18,22,21,3
1537922245469939,54,43,37,19,-3,-7,7,2
1537922245469939,-16,40,-54,-100,-50,-29,-35,-1
1537922245490883,28,-29,108,127,47,24,26,83
1537922245490883,43,39,-72,-23,21,14,13,-6
1537922245491880,37,-2,-61,-17,-19,-13,1,13
1537922245491880,-85,-54,-15,35,5,-14,-30,-88
1537922245503848,9,11,68,-43,-11,4,5,-8
1537922245503848,11,42,-19,-48,-14,-8,-4,-9
1537922245512824,18,-10,-14,21,-4,-9,0,-14
1537922245512824,29,26,52,46,14,3,-11,20
1537922245527784,-8,-40,-73,-105,-47,-18,-11,0
1537922245527784,-1,-28,74,77,39,15,-2,10
1537922245529779,-61,10,6,0,-5,-4,4,-15
1537922245529779,-4,31,-2,-50,-13,4,1,-2
1537922245550723,-22,37,11,-2,2,2,0,-4
1537922245550723,4,-48,-62,-12,-3,-3,2,-9
1537922245551720,24,15,55,21,8,1,7,7
1537922245551720,-8,12,-32,-10,0,2,-3,6
1537922245564685,-15,-22,1,-15,-14,-11,-6,-4
1537922245564685,-6,26,41,-5,-3,3,5,-5
