timestamp,emg1,emg2,emg3,emg4,emg5,emg6,emg7,emg8
1537921781359539,0,-1,2,1,1,0,-2,0
1537921781359539,0,0,0,3,3,1,2,-1
1537921781360536,-1,-3,0,1,0,-1,1,-1
1537921781360536,1,-3,-2,-4,-2,-1,0,-3
1537921781364526,-2,-1,-2,-5,-4,0,-2,-4
1537921781364526,0,-1,-3,-6,-1,0,-1,-4
1537921781366520,1,3,2,-1,-1,-4,-3,-2
1537921781366520,-3,-5,-1,2,-3,-3,1,2
1537921781370510,0,-2,-2,2,1,-2,-1,2
1537921781370510,1,2,3,3,2,2,1,2
1537921781385470,-1,-1,-1,0,-1,2,1,0
1537921781385470,-1,2,-2,-6,0,-1,-3,-2
1537921781395443,-1,2,2,9,2,-3,-1,-3
1537921781395443,-1,-1,0,-10,-3,-3,-3,1
1537921781402425,0,0,0,2,-3,0,0,-2
1537921781402425,0,2,0,10,0,0,-1,3
1537921781416387,-1,-6,-4,-8,-3,-1,-1,-2
1537921781416387,-3,-4,-4,-5,-1,-2,-1,-3
1537921781425363,2,3,-1,-8,2,2,2,-1
1537921781425363,0,0,3,-1,0,1,0,-1
1537921781430350,0,-3,1,6,2,0,-1,0
1537921781430350,0,-1,1,4,-2,0,-2,-1
1537921781478222,1,-3,-4,-3,-3,-2,-1,-2
1537921781478222,-3,-3,0,-2,-2,-2,0,-3
1537921781479220,-3,-3,-2,-3,-4,-1,-1,0
1537921781479220,-2,0,2,2,-1,2,1,-3
1537921781479220,2,3,0,1,2,0,-3,1
1537921781479220,-1,2,-1,0,0,1,0,0
1537921781483208,-1,-3,0,-2,0,1,0,-2
1537921781483208,0,-3,-6,-10,-1,-1,-2,0
1537921781490190,-2,-1,-2,13,2,0,1,-1
1537921781490190,1,3,0,-1,-3,-3,-1,1
1537921781499166,3,4,4,-8,-1,3,-1,1
1537921781499166,-1,-5,-8,6,-1,-2,0,-2
1537921781505150,-3,-8,-14,-13,-7,-4,-1,1
1537921781505150,1,-2,0,-1,4,2,-1,-2
1537921781522104,-2,0,1,0,0,0,-2,-3
1537921781522104,1,2,8,-1,2,1,0,-2
1537921781528088,-4,1,6,1,0,-1,-2,-2
1537921781528088,-2,-2,-4,1,-3,0,2,-2
1537921781537065,-2,-3,-4,4,1,-2,0,-1
1537921781537065,1,-1,3,6,0,1,-3,-1
1537921781550030,2,4,7,-4,0,0,-1,-1
1537921781550030,-1,-4,-2,-9,-3,-1,-1,2
1537921781559006,-2,-2,-5,-1,-6,0,1,1
1537921781559006,-2,-3,-5,1,2,-4,-1,3
1537921781564990,1,0,2,-3,2,0,1,-4
1537921781564990,-2,-5,2,-7,-7,-2,-3,-4
1537921781581945,0,-2,-2,18,4,-2,-1,-4
1537921781581945,-2,0,0,-1,-5,-3,1,2
1537921781587928,-1,0,3,-8,-3,-2,2,3
1537921781587928,-1,2,-2,3,1,0,-3,2
1537921781596905,-1,-2,-3,-5,-2,-3,-2,-4
1537921781596905,-2,0,2,-3,0,2,-1,-4
1537921781610867,0,2,3,4,2,2,0,-1
1537921781610867,-2,-1,-2,-2,-1,-1,0,1
1537921781619843,-2,0,-2,-3,-1,-4,-3,-2
1537921781619843,1,0,3,-2,0,-2,-1,-2
1537921781625827,2,0,1,-6,-3,2,-1,-1
1537921781625827,1,2,-1,6,1,-1,2,0
1537921781641785,2,1,1,1,1,-1,-2,1
1537921781641785,-4,-3,-8,5,-1,-3,-1,0
1537921781647769,-1,0,2,-4,-4,1,0,-2
1537921781647769,0,-1,1,-8,-2,1,-2,1
1537921781656745,1,0,-2,-2,2,-2,0,0
1537921781656745,-2,0,0,-2,0,1,-2,-3
1537921781670707,0,-4,-2,8,-2,-1,-1,2
1537921781670707,-2,-3,0,-2,0,0,-2,-1
1537921781679684,2,4,3,-2,3,4,2,0
1537921781679684,3,-2,0,-4,-3,-1,-2,-1
1537921781685668,-10,-4,0,5,3,1,-1,-8
1537921781685668,4,-3,-4,-3,-4,-2,4,9
1537921781701625,-12,-2,6,2,4,3,6,-11
1537921781701625,1,0,-3,-2,-1,2,-7,-1
1537921781707611,0,-1,-2,7,1,0,-1,-1
1537921781707611,0,0,-1,-7,-4,-3,-1,2
1537921781716585,-3,-6,-2,-6,-6,-2,1,4
1537921781716585,3,3,-1,-3,-2,-4,1,3
1537921781730547,-5,-2,2,0,0,-1,-5,-7
1537921781730547,0,1,-1,7,5,0,2,-2
1537921781739523,2,-3,-4,-2,-1,-1,-1,8
1537921781739523,3,4,4,-1,-1,-1,-2,-9
1537921781745507,-3,-4,-4,-4,-4,-3,-1,3
1537921781745507,-6,0,2,5,2,3,-1,-8
1537921781761465,5,0,0,-5,-4,-3,0,3
1537921781761465,-3,-3,-2,-1,-2,-1,-1,0
1537921781767448,3,2,1,1,1,2,4,-1
1537921781767448,1,1,0,0,-1,2,3,-1
1537921781783406,1,2,3,2,0,4,1,2
1537921781783406,0,0,-1,1,-3,-3,-3,3
1537921781790387,2,-2,-5,-3,0,1,7,4
1537921781790387,-3,4,4,0,-4,-8,-15,-11
1537921781799363,2,1,0,-2,0,-1,-1,0
1537921781799363,-4,-2,0,-2,-4,1,2,-3
1537921781805347,3,4,-2,-5,2,-3,0,9
1537921781805347,-5,-1,-4,-2,0,-3,-1,-2
1537921781822303,-3,-4,0,14,-3,-3,-1,2
1537921781822303,-1,0,4,0,6,1,-1,1
1537921781828286,1,-3,3,-23,-6,-4,3,5
1537921781828286,-2,-3,-5,-3,-5,0,1,2
1537921781843246,-4,0,-4,4,3,-5,-8,-3
1537921781843246,-1,-3,-3,3,0,1,1,4
1537921781850228,0,0,-2,8,0,-4,-6,2
1537921781850228,3,7,8,3,6,3,0,-6
1537921781859203,5,-2,-3,-8,-6,1,9,7
1537921781859203,0,1,3,4,6,8,6,1
1537921781865188,-3,1,3,2,2,1,-3,-15
1537921781865188,3,-2,0,-2,-3,-2,-2,11
1537921781882142,-1,-2,-2,-3,-1,3,2,-4
1537921781882142,9,2,0,-1,0,-3,2,17
1537921781888126,4,1,-2,-4,-1,-1,0,1
1537921781888126,-2,4,4,6,6,10,-5,-11
1537921781903086,-1,0,0,-4,0,0,-5,-1
1537921781903086,-2,-2,-3,-5,-5,-5,-2,-5
1537921781910068,-2,0,-2,1,-3,0,1,4
1537921781910068,-3,-7,-5,0,-3,-8,-4,0
1537921781926025,-2,-1,1,-6,-3,-2,-11,-7
1537921781926025,9,2,2,1,1,1,-2,-10
1537921781927022,-2,0,-1,1,-1,0,-1,6
1537921781927022,-1,-4,-3,-2,-1,-2,0,-5
1537921781941982,-3,-2,0,-3,-1,-1,0,4
1537921781941982,-12,-3,0,0,-3,-3,0,-9
1537921781947966,-5,-5,1,3,1,0,-2,-10
1537921781947966,2,-2,-3,-4,0,3,7,7
1537921781962926,3,2,2,0,-1,-2,-4,-1
1537921781962926,-4,-1,-2,-2,0,0,4,-1
1537921781970905,3,2,3,-1,-1,-1,-2,3
1537921781970905,-2,1,2,-1,-2,-4,-3,0
1537921781978883,-1,0,-1,-1,0,-1,0,-3
1537921781978883,-3,1,-4,-6,-2,1,1,1
1537921781985865,-1,0,0,22,3,4,0,-2
1537921781985865,6,-1,0,-3,3,4,5,8
1537921782001822,-2,-1,-3,-33,-10,-4,1,-4
1537921782001822,0,-3,-2,2,-6,-6,-5,-1
1537921782007806,2,0,-2,0,-1,2,1,3
1537921782007806,-1,-2,0,12,0,-3,-2,-6
1537921782022766,-1,0,0,8,4,6,13,8
1537921782022766,3,3,0,-8,-2,-2,-8,4
1537921782030745,-10,-3,-1,-4,-1,0,-1,-13
1537921782030745,-1,0,0,3,2,0,-2,2
1537921782039721,7,1,0,0,0,4,7,-5
1537921782039721,-3,-1,0,-1,-2,-4,-9,-4
1537921782045705,14,1,0,0,1,2,3,5
1537921782045705,-5,1,1,-3,-2,1,-3,-9
1537921782061662,-7,-6,0,1,-2,-4,-7,-8
1537921782061662,0,-2,-1,1,-4,-6,-4,-10
1537921782067646,-6,0,0,-4,0,1,0,-3
1537921782067646,5,3,0,-5,-1,4,5,9
1537921782082606,-2,1,0,5,4,0,-4,0
1537921782082606,-6,-2,-1,0,1,3,-1,1
1537921782090585,-6,-2,0,-6,-5,-8,-6,-5
1537921782090585,0,-3,1,-3,-3,-5,1,1
1537921782099561,-1,2,1,4,0,2,-4,-3
1537921782099561,3,0,1,-1,-1,0,0,2
1537921782113525,1,-1,-2,-4,0,-2,4,1
1537921782113525,-3,-2,0,1,-1,0,2,-2
1537921782120505,2,0,2,0,-2,-3,-4,-2
1537921782120505,0,0,0,3,-1,0,1,4
1537921782127486,-1,-4,2,3,1,0,-3,-9
1537921782127486,-1,1,-5,-16,-5,-4,-1,4
1537921782142446,0,3,5,10,5,1,0,9
1537921782142446,-13,-9,1,-2,1,3,0,-12
1537921782150425,-7,0,0,-14,-1,-4,-2,3
1537921782150425,17,6,0,-1,1,6,7,8
1537921782159401,-3,1,-5,-4,-8,-2,1,0
1537921782159401,-6,-1,7,11,8,3,-1,-9
1537921782173364,6,3,1,4,-1,-3,-5,5
1537921782173364,-15,-7,-2,-4,0,-4,-7,-19
1537921782180345,0,-3,-2,0,-2,0,11,1
1537921782180345,4,3,1,4,1,3,-1,5
1537921782188324,-2,-3,-3,-7,-1,-2,1,-4
1537921782188324,-5,-2,-1,4,-2,-6,-13,-6
1537921782203283,-1,-1,0,3,-5,-4,-4,-1
1537921782203283,-4,0,-2,-5,-3,-1,5,0
1537921782210265,1,-2,1,-1,-2,2,-4,-1
1537921782210265,1,1,-1,4,-2,-1,0,2
1537921782219241,-5,-3,0,-1,0,-4,-7,-11
1537921782219241,-1,2,-2,-8,2,3,10,10
1537921782233204,5,2,0,1,-2,-1,-4,4
1537921782233204,-2,-3,2,3,-2,-3,0,-5
1537921782240185,3,3,2,-2,-1,-2,-8,-4
1537921782240185,-1,-8,-3,-3,-2,-2,6,5
1537921782248164,0,4,-1,1,-3,0,-2,-1
1537921782248164,-5,-3,1,1,1,-3,2,-2
1537921782264121,0,-2,-2,-4,1,-2,-3,-1
1537921782264121,3,3,-1,-1,-2,-3,-2,1
1537921782279082,0,0,0,2,0,1,1,3
1537921782279082,1,0,-2,-1,1,2,3,1
1537921782281076,1,-1,-2,0,0,-3,2,3
1537921782281076,2,-1,-1,-1,-2,0,-3,0
1537921782294041,-3,-2,-2,0,-3,-7,-8,-6
1537921782294041,-2,-3,-2,1,-2,1,13,2
1537921782300025,-2,-2,1,7,3,14,9,7
1537921782300025,5,4,0,-13,-1,-7,-8,0
1537921782308003,-5,-1,-1,-3,-3,-1,0,-5
1537921782308003,1,0,-3,3,-1,-4,-7,-5
1537921782322964,0,-1,-2,-1,0,-2,2,11
1537921782322964,-5,0,1,5,-1,3,2,2
1537921782329946,-6,-2,-1,0,-1,4,3,-3
1537921782329946,-2,3,0,-1,2,-2,1,-5
1537921782338921,10,2,-1,-1,0,-1,0,2
1537921782338921,-1,0,1,1,-4,-3,-5,-5
1537921782353881,0,-2,-3,-4,-1,-2,-1,2
1537921782353881,0,2,1,1,-2,2,2,6
1537921782360862,-6,-3,0,-4,-2,-2,1,-1
1537921782360862,2,0,0,14,1,0,0,-3
1537921782367844,-1,-1,-1,-7,-1,1,1,2
1537921782367844,-1,-2,0,-16,-5,-5,-7,-3
1537921782382804,-4,-1,0,0,2,-3,-2,-7
1537921782382804,1,-1,0,-1,0,6,4,4
1537921782390782,0,-1,1,6,1,0,2,0
1537921782390782,-2,-4,-1,2,1,-2,-9,-1
1537921782399758,8,3,1,-5,0,7,5,-1
1537921782399758,-7,-2,3,-3,-3,-11,-9,-13
1537921782413721,-2,-2,-1,1,0,3,0,-3
1537921782413721,-3,-3,0,-3,-4,-2,-5,1
1537921782420702,-2,-1,-2,-1,0,-5,-4,-7
1537921782420702,2,0,-2,3,-1,-3,1,4
1537921782427684,-6,-2,0,-7,2,3,-3,0
1537921782427684,0,1,-1,4,2,2,-2,-5
1537921782442644,-12,-9,1,6,0,0,1,0
1537921782442644,12,4,-1,-19,-6,-1,-4,-2
1537921782450623,-4,-4,-3,3,-2,-5,-3,-3
1537921782450623,3,-2,1,3,3,2,9,6
1537921782465582,14,8,-1,1,2,1,-5,9
1537921782465582,-1,2,1,-1,1,1,-1,1
1537921782473561,1,1,-1,1,-1,-4,-4,-3
1537921782473561,-3,-1,-3,-1,-4,-4,3,6
1537921782488521,-5,0,0,-2,-4,-6,-13,-1
1537921782488521,-4,-3,-2,-3,-2,1,9,-7
1537921782489519,7,6,0,2,1,2,1,12
1537921782489519,-4,-4,2,3,1,-3,-2,-2
1537921782502484,-3,0,-1,-5,-2,-4,-4,-4
1537921782502484,-5,-2,-1,0,-3,-6,-11,-4
1537921782510462,-1,-4,-3,0,0,5,13,0
1537921782510462,1,3,2,0,0,0,-4,2
1537921782525422,-3,-2,-1,-5,-4,-1,1,-2
1537921782525422,-7,-4,2,1,4,2,1,-4
1537921782533401,2,0,1,0,-1,-4,-1,-5
1537921782533401,-1,0,0,-2,-1,0,-3,-5
1537921782548361,-2,-2,1,-1,3,3,5,-2
1537921782548361,-1,4,1,4,0,1,2,1
1537921782549359,2,1,0,-1,-1,-3,-5,-2
1537921782549359,-11,0,0,-1,1,4,0,-5
1537921782563321,-13,-3,-1,-1,-1,-2,1,1
1537921782563321,4,-7,-1,-3,-5,-10,-16,-1
1537921782570303,-7,-5,1,1,4,9,25,-2
1537921782570303,6,2,1,0,-4,0,-8,6
1537921782585263,3,5,-1,1,0,2,3,-3
1537921782585263,-3,-2,-3,-3,-2,1,3,3
1537921782593241,0,-1,-3,-3,-5,-5,-10,-3
1537921782593241,-5,-2,-1,-2,0,-2,2,-3
1537921782608201,3,-1,-1,-2,-5,-2,-1,-1
1537921782608201,-2,0,-1,0,1,-1,-2,0
1537921782609199,-2,-2,0,-1,0,1,-5,-2
1537921782609199,0,-1,0,-3,1,3,7,1
1537921782623161,-2,0,-3,-2,-2,-4,-12,-5
1537921782623161,2,0,-1,-1,0,3,11,3
1537921782630143,-4,-1,-1,-1,-3,-4,-5,-3
1537921782630143,5,-1,2,1,-2,-4,-6,-5
1537921782645102,-4,-4,-3,-1,-1,0,-2,-5
1537921782645102,-7,-4,-3,-1,0,4,7,-4
1537921782654079,6,5,4,2,2,2,0,7
1537921782654079,-2,-5,-4,-3,-4,-2,1,3
1537921782669039,7,2,4,4,4,3,1,-8
1537921782669039,-5,-3,-4,-3,-4,-5,-6,-1
1537921782669039,-2,-1,-3,-3,-3,-4,0,0
1537921782669039,1,-3,-1,-1,2,-1,-6,-2
1537921782683002,-5,-2,-1,-3,-3,-2,1,-3
1537921782683002,2,4,-2,-1,1,3,4,5
1537921782689983,3,1,1,0,0,2,-4,-4
1537921782689983,1,0,1,0,0,-1,2,2
1537921782704943,-2,-2,-2,-1,-2,-2,0,1
1537921782704943,-1,1,0,2,1,1,2,-3
1537921782713919,0,-5,-4,-2,-4,-4,-9,0
1537921782713919,-2,1,-1,0,1,0,7,-2
1537921782728878,0,1,1,0,1,4,2,9
1537921782728878,2,1,-1,-1,0,-4,-2,10
1537921782728878,-9,-3,1,-1,1,0,-2,-12
1537921782728878,17,6,0,0,3,1,10,13
1537921782742841,-3,1,1,-3,-4,-7,-8,-4
1537921782742841,-6,-9,-2,-1,1,1,-1,0
1537921782750820,-3,-3,-1,-2,-1,-2,-7,-7
1537921782750820,-1,1,1,0,-1,0,-5,-9
1537921782765780,7,2,0,-1,-4,-2,-3,-2
1537921782765780,0,4,0,-3,1,-1,1,0
1537921782773758,-6,-5,0,-3,-2,-3,5,4
1537921782773758,-6,-3,0,0,0,1,-4,-3
1537921782788718,-12,-8,-1,-2,-2,-3,-3,-6
1537921782788718,-5,-2,2,1,0,4,2,-4
1537921782789716,2,3,-3,-2,-2,0,-3,7
1537921782789716,0,4,-1,0,-3,2,7,4
1537921782802681,4,0,1,2,3,0,-1,12
1537921782802681,-6,-4,0,-1,-1,-5,-3,-10
1537921782810660,1,1,-2,-2,-1,1,1,5
1537921782810660,-3,-1,3,-1,-2,-5,-10,-9
1537921782825620,-1,-1,-2,-2,2,-2,-4,-7
1537921782825620,-1,2,0,1,-1,3,5,0
1537921782833599,6,-2,-1,-2,1,-1,5,3
1537921782833599,-9,-6,-2,-1,-2,4,3,6
1537921782847561,4,2,3,0,-4,-4,-3,-2
1537921782847561,-1,-2,-3,-3,-3,-6,-6,1
1537921782856537,-4,1,0,1,1,5,1,-12
1537921782856537,-1,-1,0,0,-1,-4,-2,-9
1537921782862521,-3,-2,-1,-1,-1,-4,1,0
1537921782862521,3,-1,-2,-2,1,0,-4,-3
1537921782870500,5,2,0,-1,0,-2,9,18
1537921782870500,2,-1,0,-4,-4,-2,-6,-1
1537921782885461,-10,-6,-1,0,-2,-7,-11,-10
1537921782885461,-2,1,0,0,0,4,6,-7
1537921782893439,-1,3,2,0,0,1,-1,5
1537921782893439,1,1,0,-1,2,2,2,4
1537921782908399,1,0,0,1,3,7,9,5
1537921782908399,5,-2,1,0,-3,-8,-7,-2
1537921782909396,-1,-2,-3,0,-1,0,1,-1
1537921782909396,-5,-2,1,-2,-1,3,-5,-2
1537921782923359,5,3,-1,-3,0,-5,-1,1
1537921782923359,0,-2,0,0,2,7,8,4
1537921782930345,3,-1,-3,0,-3,-6,-7,-2
1537921782930345,-4,-1,-1,-1,-5,-3,-2,-3
1537921782945300,-2,1,-2,0,1,4,5,3
1537921782945300,0,-2,-2,-2,-2,-4,-3,6
1537921782953279,-6,-1,1,-1,-2,-6,-5,-6
1537921782953279,3,-1,-1,1,-1,-1,-3,-1
1537921782968239,-7,-5,2,0,2,4,1,-11
1537921782968239,4,-1,0,0,-2,-3,-5,2
1537921782969236,0,2,0,-1,-2,0,-1,-2
1537921782969236,-8,-3,0,0,-1,-3,-1,0
1537921782983199,0,-3,1,-3,-4,-1,-3,-4
1537921782983199,-2,-2,-2,-2,-1,-1,-5,-4
1537921782990180,5,-2,-3,-2,0,1,0,3
1537921782990180,2,2,-1,-1,1,1,0,-1
1537921783005140,2,-2,2,-1,0,1,1,2
1537921783005140,-3,1,1,-1,0,-1,-1,-1
1537921783014116,-4,-1,0,0,-1,-5,-4,-7
1537921783014116,4,-1,-2,-2,-3,-4,0,9
1537921783028079,-2,-3,-3,-1,-4,0,5,-5
1537921783028079,2,4,0,1,3,13,8,8
1537921783036057,-1,-1,2,1,-1,-2,-5,-4
1537921783036057,0,1,1,0,0,-1,-4,-13
1537921783043039,2,0,1,-2,-2,-4,-7,-2
1537921783043039,6,-1,-2,-3,-2,-2,0,7
1537921783050020,-19,-8,-2,-2,-5,-4,-3,-12
1537921783050020,6,2,2,-1,1,2,-1,2
1537921783064981,2,-1,-3,-3,-3,-1,1,12
1537921783064981,-8,-1,0,1,0,0,-5,-13
1537921783073956,-3,-2,0,1,2,3,2,2
1537921783073956,-2,-2,-1,-1,2,-2,-1,2
1537921783096896,3,3,1,0,0,-1,-1,-3
1537921783096896,1,-1,-1,-2,-1,-5,-1,-3
1537921783097893,9,4,-3,0,0,5,11,18
1537921783097893,-4,0,1,1,1,3,3,1
1537921783110857,-3,0,2,0,0,-2,-4,-7
1537921783110857,1,1,-3,0,-4,-3,-4,5
1537921783111855,5,0,-3,0,-1,1,0,-2
1537921783111855,-3,0,0,-1,-3,-2,-1,-2
1537921783125818,-2,-3,-4,1,1,-3,-3,-2
1537921783125818,1,0,3,1,-1,0,4,3
1537921783133796,0,0,-2,-4,-1,-1,-1,-5
1537921783133796,-4,-2,0,-1,0,-6,-3,-7
1537921783147759,3,2,0,-1,2,4,2,0
1537921783147759,-2,-1,0,-3,-5,-12,-9,-3
1537921783155737,7,-2,-5,-4,-1,1,0,5
1537921783155737,-7,-8,3,0,2,10,9,-11
1537921783170697,-3,1,3,1,-5,-6,-8,4
1537921783170697,4,0,0,-3,-1,-4,-1,0
1537921783171695,-3,0,2,-1,-3,-8,-14,-7
1537921783171695,0,-1,-5,-3,-2,-4,-8,-1
1537921783185658,-3,2,-3,-2,1,7,13,4
1537921783185658,-7,-8,3,-1,0,-2,-3,0
1537921783193636,-1,4,4,4,1,-1,3,2
1537921783193636,-1,2,-2,1,0,2,2,6
1537921783207599,-3,1,-2,-1,-1,1,-1,-3
1537921783207599,1,0,-1,0,-1,-2,-4,-1
1537921783216575,-4,-7,-2,0,3,3,3,6
1537921783216575,11,3,-1,0,-4,-2,-6,2
1537921783231535,1,0,0,-1,-2,-3,-5,-1
1537921783231535,-3,0,-2,-2,-3,-4,-8,-8
1537921783231535,5,1,-1,-1,-1,6,18,14
1537921783231535,-6,0,1,0,0,1,-3,-2
1537921783245497,5,-4,-2,-1,-4,-8,-7,-6
1537921783245497,4,4,0,-1,3,7,2,8
1537921783253476,-3,1,-2,-4,-7,-13,-9,-9
1537921783253476,-8,-5,-1,-2,-2,2,-1,-6
1537921783267439,6,3,1,0,0,4,6,15
1537921783267439,-4,1,1,3,2,1,7,7
1537921783276415,-8,-1,-1,-1,0,0,-6,-8
1537921783276415,15,6,1,-1,0,-1,10,16
1537921783291375,-8,0,1,-1,0,1,-2,-5
1537921783291375,1,-1,-1,1,-2,1,2,0
1537921783291375,-10,-5,3,0,3,5,2,-5
1537921783291375,-6,-2,0,-1,0,-3,-1,-6
1537921783305338,-3,-1,0,0,2,3,5,9
1537921783305338,-4,0,-2,0,-3,-3,-4,-11
1537921783313317,17,3,-2,-2,-3,-2,-8,-2
1537921783313317,-2,1,1,0,1,-7,3,-2
1537921783328276,4,-1,-2,-3,-2,3,4,10
1537921783328276,-6,-9,0,0,-1,-1,-1,0
1537921783336255,-2,2,-3,-2,-1,-1,-4,-4
1537921783336255,-3,-6,-2,-2,-1,-4,-3,-6
1537921783351215,1,-1,0,-2,-3,-4,-4,-5
1537921783351215,0,0,3,-1,0,0,-1,-6
1537921783352212,-2,-3,0,-2,0,-2,-4,1
1537921783352212,-4,-1,-1,0,0,2,-3,3
1537921783365179,5,4,1,1,1,0,3,-3
1537921783365179,1,-2,-3,-1,-2,1,-1,-3
1537921783373156,-4,1,-1,-1,-1,-3,-4,-4
1537921783373156,-4,-1,0,-1,-1,-2,6,-4
1537921783388116,-6,-4,-2,-1,-2,1,-4,5
1537921783388116,1,0,-1,-1,3,2,3,2
1537921783396095,-4,1,3,2,0,1,2,9
1537921783396095,1,0,1,0,-3,3,-4,-4
1537921783411055,-4,-1,-1,-1,-1,-4,-5,-7
1537921783411055,9,4,-1,0,-1,-3,2,-2
1537921783412052,-7,-10,-3,-2,-4,-6,-7,1
1537921783412052,4,-1,2,0,1,2,0,-2
1537921783425017,-1,0,0,0,-3,-6,-7,-10
1537921783425017,-4,-2,-1,-2,-1,-1,-2,-2
1537921783433994,-5,-3,-1,0,-1,-1,4,-1
1537921783433994,11,3,-1,-2,-2,-5,-8,1
1537921783447957,-2,-3,-3,-4,-1,-5,-1,0
1537921783447957,-9,2,2,3,-1,-2,-3,-16
1537921783455935,6,-2,-1,-1,-2,1,2,-2
1537921783455935,-3,0,1,-2,1,0,-6,-3
1537921783470895,-1,0,0,0,0,-1,-1,-6
1537921783470895,2,0,-2,-3,-1,2,4,9
1537921783471893,0,3,-1,-1,1,-1,-4,-7
1537921783471893,0,2,-3,0,-1,-1,2,9
1537921783485855,7,-1,-3,-3,-3,-6,-1,2
1537921783485855,-3,-1,0,0,0,1,-8,-5
1537921783493834,0,-1,2,0,-1,3,6,-2
1537921783493834,-3,-4,-2,-2,0,3,3,2
1537921783507797,-4,0,-1,-2,-3,-2,-2,2
1537921783507797,4,5,-2,-1,-1,-1,-1,11
1537921783515775,-13,-4,-1,2,-1,0,-3,-18
1537921783515775,-2,-4,-2,-3,-4,-4,-1,1
1537921783530736,-4,-1,0,1,2,2,2,-5
1537921783530736,-10,-6,-2,1,0,2,2,-7
1537921783531733,2,0,-2,-2,1,0,3,2
1537921783531733,2,-1,-1,-2,-1,-2,4,11
1537921783545695,-8,-2,2,0,-2,3,3,-5
1537921783545695,0,1,0,-3,-3,0,1,5
1537921783554672,3,-1,-3,-4,-1,-2,-1,10
1537921783554672,-4,-3,1,1,0,-1,-1,-14
1537921783567637,4,4,-1,0,1,-6,-9,1
1537921783567637,-11,-5,2,-2,-2,-1,0,-13
1537921783576613,4,5,-1,-2,0,-3,-3,3
1537921783576613,-5,-6,-3,-1,-4,-2,-1,2
1537921783590575,-2,-5,-2,-2,-1,3,-6,-6
1537921783590575,0,-2,-1,0,-2,-5,-4,-7
1537921783599551,11,2,0,0,-3,-2,-8,0
1537921783599551,-10,-7,0,-1,-1,0,-3,-7
1537921783605535,8,5,0,0,0,2,7,-2
1537921783605535,1,3,3,2,2,3,-2,2
1537921783614511,-9,-3,0,1,-2,-1,-4,-15
1537921783614511,-4,2,-1,-1,1,1,0,-2
1537921783627476,4,-3,-5,-3,-2,-4,-2,6
1537921783627476,-9,0,2,3,1,0,4,-12
1537921783636452,0,3,0,0,0,0,4,5
1537921783636452,-14,-1,0,0,0,-5,-11,-8
1537921783650415,-5,-7,-2,-1,2,4,15,7
1537921783650415,5,0,-2,-1,1,0,4,12
1537921783659391,-3,-4,0,1,-3,-1,-4,3
1537921783659391,0,3,2,2,0,2,0,-5
1537921783665375,-6,-3,1,-1,-2,-7,-19,-8
1537921783665375,15,1,-7,-5,-5,-1,12,6
1537921783674351,2,3,11,3,9,22,16,7
1537921783674351,7,10,10,6,2,-2,-4,2
1537921783688314,-9,-7,3,-1,-6,-6,-4,-10
1537921783688314,6,6,5,5,5,-3,-18,-21
1537921783697290,3,4,-11,-7,-9,-5,2,10
1537921783697290,1,-12,-7,-2,-1,8,16,1
1537921783710255,-15,0,-12,-9,-7,-7,-12,-14
1537921783710255,33,2,-8,-3,10,14,22,44
1537921783719232,-34,-6,2,-5,-4,-12,-19,-24
1537921783719232,3,-2,4,2,2,5,18,27
1537921783725215,-34,2,15,7,9,17,21,33
1537921783725215,-4,5,32,25,6,1,-11,-24
1537921783734192,8,9,5,11,-4,-7,-2,-5
1537921783734192,-12,-14,-39,-32,-14,-17,-26,-23
1537921783748154,-17,-46,-52,-21,-14,-5,7,-22
1537921783748154,-69,-21,-3,-7,10,27,34,51
1537921783757130,-6,9,56,29,15,4,-14,-23
1537921783757130,4,18,27,25,5,-1,9,7
1537921783770095,19,-61,-56,-29,-27,-27,-18,1
1537921783770095,-14,12,-25,-20,-12,-9,-2,-10
1537921783779071,-7,0,15,-3,3,7,14,27
1537921783779071,19,-3,-3,3,9,3,-14,-22
1537921783785055,13,36,32,13,5,0,11,19
1537921783785055,4,9,25,15,-2,-2,-18,-46
1537921783794031,-4,19,11,3,4,1,5,-3
1537921783794031,-6,-55,-42,-19,-18,-14,-9,-5
1537921783807994,19,21,9,4,8,3,7,7
1537921783807994,-1,1,-4,-3,-11,-12,-22,-24
1537921783816970,9,-11,-25,-16,-4,4,19,25
1537921783816970,-10,7,-8,-6,-6,-4,-10,6
1537921783829935,-14,-28,-14,0,-7,-5,-6,-6
1537921783829935,29,27,11,-25,3,-2,-10,-15
1537921783838911,6,25,13,3,5,8,0,-18
1537921783838911,-22,-28,0,10,2,-2,0,-20
1537921783844895,43,43,14,7,5,-1,-2,35
1537921783844895,10,12,19,17,2,-5,-2,-19
1537921783853871,-3,-21,-30,-13,-8,-6,-2,3
1537921783853871,3,15,-3,-7,-2,6,10,29
1537921783867834,-1,18,21,12,7,13,4,-21
1537921783867834,-11,-27,-15,-2,-5,-11,-16,7
1537921783876810,38,4,-9,-3,1,3,7,7
1537921783876810,7,16,18,8,4,3,3,8
1537921783898751,-5,3,6,4,2,6,-2,-4
1537921783898751,9,-6,-20,-12,-8,-5,4,14
1537921783900746,-12,-14,-10,-3,-2,-2,-3,-3
1537921783900746,10,17,12,1,-3,-5,-7,-12
1537921783905732,-2,6,4,-3,1,2,5,-4
1537921783905732,-3,-13,-8,2,-1,2,8,14
1537921783914709,-5,-6,-6,0,-4,-10,-9,-13
1537921783914709,0,3,3,-1,4,5,3,-2
1537921783927674,-1,-1,8,1,3,3,-3,-14
1537921783927674,19,5,-5,0,-4,-2,11,28
1537921783936650,-10,-9,-6,-2,0,0,-6,-6
1537921783936650,5,3,-3,-7,-4,-8,-3,5
1537921783950613,-7,0,7,4,0,3,-1,-11
1537921783950613,-1,-5,-3,1,2,7,5,12
1537921783959590,-6,-5,-6,-5,-3,-9,-3,6
1537921783959590,-9,1,4,1,1,2,3,-5
1537921783965573,-1,4,3,2,2,0,-5,-4
1537921783965573,-7,-6,-4,-1,-3,-4,-11,-10
1537921783974549,-2,-6,-7,-4,-4,0,11,9
1537921783974549,3,0,6,1,2,0,-4,-4
1537921783987514,-2,0,3,0,-1,-6,-10,-5
1537921783987514,1,-6,-2,-4,1,4,16,-2
1537921783996490,2,-2,-1,1,-4,-10,-18,-2
1537921783996490,1,3,3,1,-1,4,4,-5
1537921784011450,6,3,0,0,3,9,13,23
1537921784011450,-5,-4,-1,1,-1,-5,-12,-13
1537921784017434,-2,-4,-3,0,0,0,5,-1
1537921784017434,10,7,1,0,-1,-4,-11,9
1537921784025412,0,2,3,1,-1,1,7,1
1537921784025412,-4,-5,-2,-2,-1,0,0,-4
1537921784034389,2,2,-4,-1,2,-1,2,2
1537921784034389,-3,-4,1,-1,1,0,-2,-5
1537921784047354,-3,-3,-1,-2,0,-1,-1,-3
1537921784047354,1,4,-1,-3,-5,-9,-7,3
1537921784056330,-7,-5,-1,-1,0,7,1,-8
1537921784056330,-6,2,0,-1,1,5,15,8
1537921784071290,-5,-5,-1,-1,0,1,-4,-7
1537921784071290,-3,-4,2,-1,-1,-4,0,-1
1537921784078272,-1,-2,-3,-2,-4,-4,-7,-1
1537921784078272,-4,-2,0,-2,-2,0,3,0
1537921784094229,-2,0,0,-1,2,0,0,-3
1537921784094229,-3,1,-3,-1,-4,-5,-10,-5
1537921784095226,3,0,0,-1,-1,-2,3,-4
1537921784095226,1,-2,0,1,-4,0,-6,4
1537921784108191,-15,2,0,2,-2,-4,-2,-6
1537921784108191,-12,-8,1,0,2,3,-3,-13
1537921784117168,2,0,0,-2,-2,0,1,-3
1537921784117168,-6,-8,-1,-1,0,-4,-4,-11
1537921784131130,5,0,-2,-1,-1,2,0,1
1537921784131130,0,1,-3,-2,1,4,5,6
1537921784138112,0,1,-1,0,-2,-3,-8,-5
1537921784138112,1,3,0,-1,1,3,4,3
1537921784154070,2,-2,0,-2,-3,-2,-2,-2
1537921784154070,14,1,-3,-2,-2,-1,4,14
1537921784156064,11,3,1,-2,1,-2,-1,5
1537921784156064,1,0,1,0,-1,-5,-3,-4
1537921784168032,-2,0,-3,-2,-1,-5,-4,0
1537921784168032,-1,-4,-1,-1,0,1,0,3
1537921784177008,-4,-1,-3,-2,-2,-2,-2,6
1537921784177008,1,3,1,-1,0,2,0,-2
1537921784190970,-2,-1,3,0,2,2,0,-7
1537921784190970,0,-2,-1,0,0,-4,-1,3
1537921784197952,-6,-7,-4,-2,-4,-1,-8,-7
1537921784197952,-2,2,1,-1,3,3,9,2
1537921784213909,-1,-1,1,0,0,4,-3,4
1537921784213909,-1,7,12,6,6,2,-2,-8
1537921784215904,-3,-2,4,4,0,-3,-3,-2
1537921784215904,2,-3,-18,-11,-8,-6,0,8
1537921784227872,1,-4,-9,-9,-4,-1,-1,-3
1537921784227872,10,5,-3,-3,1,0,0,9
1537921784236847,-7,10,23,16,4,-2,-6,-16
1537921784236847,17,12,15,3,3,-4,-12,3
1537921784250810,2,-15,-22,-13,-11,-7,1,-7
1537921784250810,2,-9,-22,-17,-8,0,6,21
1537921784257791,-14,7,14,11,0,-12,-22,-30
1537921784257791,7,7,8,7,4,11,16,4
1537921784273749,1,6,3,2,2,-1,-6,6
1537921784273749,10,-15,-12,0,3,8,12,3
1537921784275744,29,-23,-33,-17,-6,9,19,31
1537921784275744,-9,2,18,3,1,-7,-17,-8
1537921784287712,-17,11,12,5,-1,-10,-29,-52
1537921784287712,-33,-22,-29,-13,-14,-10,15,43
1537921784296687,5,4,13,-3,1,13,23,15
1537921784296687,35,29,10,2,-1,-3,-10,-3
1537921784310650,-4,-16,13,16,-2,-15,-12,16
1537921784310650,-5,-18,-5,-4,0,0,-11,-24
1537921784317632,-32,-43,-45,-16,-3,0,-14,-35
1537921784317632,11,4,-25,-28,-14,0,11,3
1537921784334587,-23,39,26,6,17,31,29,34
1537921784334587,2,33,64,27,3,-11,-13,-30
1537921784335584,-14,-27,1,18,4,-9,-9,-2
1537921784335584,-61,-55,-55,-19,0,-3,3,-57
1537921784347552,82,32,-20,-19,-15,3,17,86
1537921784347552,-19,15,26,17,3,4,0,-7
1537921784356528,48,35,41,10,10,6,-5,-19
1537921784356528,-23,3,-6,7,-4,-13,-15,12
1537921784371488,-21,-22,0,-2,1,-17,-24,-56
1537921784371488,30,18,-31,-18,-5,11,42,21
1537921784377471,-22,15,-5,-11,-4,8,-7,9
1537921784377471,13,15,36,21,11,-6,-11,-2
1537921784394426,-4,-26,-13,2,-3,4,11,2
1537921784394426,5,-3,-15,-6,-6,-13,-33,-26
1537921784395423,-22,-28,-40,-24,-15,-10,12,5
1537921784395423,-2,-6,-8,-9,-1,6,2,17
1537921784407391,-22,15,38,19,13,0,-12,-37
1537921784407391,-4,-1,25,16,10,14,16,7
1537921784416367,-2,9,9,15,3,6,9,12
1537921784416367,0,-6,-2,-16,1,6,14,13
1537921784431327,5,-17,-6,-1,-4,-3,1,-12
1537921784431327,-14,-20,-16,-4,0,-3,0,21
1537921784438309,-15,-2,-3,-3,-2,-3,-1,-5
1537921784438309,6,6,14,14,-3,-5,-10,10
1537921784454266,-19,-13,-9,-5,-1,2,11,-18
1537921784454266,12,10,-3,-8,4,14,3,7
1537921784455264,2,7,3,0,-8,-18,-10,7
1537921784455264,-12,-15,-2,1,-1,4,0,-10
1537921784468229,16,9,-13,-9,-1,5,4,23
1537921784468229,-8,0,3,1,-1,-4,-9,-9
1537921784477205,12,13,13,5,4,3,1,3
1537921784477205,7,8,4,3,-2,-2,2,-5
1537921784491168,0,-9,-9,-6,-6,-1,2,9
1537921784491168,4,-3,-4,13,0,-3,-9,-12
1537921784498149,-4,-1,5,-19,-1,1,3,-2
1537921784498149,0,-3,-5,-8,-4,-2,3,3
1537921784514107,-6,1,4,7,3,-1,0,-9
1537921784514107,-6,-8,2,4,-3,-5,-6,-10
1537921784516101,6,1,-12,-1,-1,-2,1,6
1537921784516101,-4,0,-1,0,-5,1,3,6
1537921784528069,-1,-1,0,-3,0,-1,-3,1
1537921784528069,2,2,0,-4,0,-4,-6,-13
1537921784537045,3,5,8,9,4,4,1,6
1537921784537045,2,2,0,2,1,4,0,-3
1537921784551008,1,-4,-6,-11,-2,-2,-3,-2
1537921784551008,-2,-2,-1,-5,-3,-2,-4,1
1537921784557989,0,1,0,3,1,3,5,2
1537921784557989,-3,-2,2,10,0,0,-2,-2
1537921784573946,2,0,-3,3,0,-1,-2,2
1537921784573946,-4,2,2,-10,-4,-2,-5,-12
1537921784575941,3,-1,3,-1,-4,-1,-1,-1
1537921784575941,1,2,6,21,8,5,-1,-2
1537921784587909,-4,0,-1,4,0,-5,-2,0
1537921784587909,-2,-19,-34,-34,-15,-7,0,7
1537921784596886,0,13,9,-3,3,-1,-2,1
1537921784596886,4,-5,4,-19,-3,3,1,0
1537921784610848,-5,-9,-4,6,-5,-2,0,-4
1537921784610848,0,11,18,21,26,3,1,-8
1537921784617829,6,5,9,18,-32,-5,0,0
1537921784617829,-6,-7,-14,-12,8,-3,-1,-1
1537921784633787,2,2,12,-2,17,4,0,1
1537921784633787,2,-11,-18,-8,-26,-8,-1,9
1537921784635781,-10,-13,-22,-21,-2,-7,-3,1
1537921784635781,7,13,13,19,-1,6,0,0
1537921784647749,-1,3,-1,-12,-13,1,0,-5
1537921784647749,4,16,28,26,20,5,-2,-10
1537921784656725,3,0,8,-12,3,0,-2,0
1537921784656725,-6,-19,-25,-10,-25,-12,1,3
1537921784670688,1,-4,-20,-8,3,-1,0,8
1537921784670688,-3,1,0,7,-4,-2,-3,-4
1537921784677669,3,4,5,9,14,5,3,-3
1537921784677669,0,6,14,-13,3,7,-3,-2
1537921784694624,4,9,21,2,-32,-1,0,-2
1537921784694624,-6,-14,-12,-5,34,-3,-3,0
1537921784695621,-3,-13,-20,-12,-11,-2,4,5
1537921784695621,-3,-1,-12,5,6,-3,-1,2
1537921784707589,2,2,8,-2,-8,1,1,1
1537921784707589,0,4,-7,-26,-16,-2,-2,-2
1537921784716565,0,5,21,29,13,2,-3,-6
1537921784716565,0,-5,3,-1,-8,-1,3,1
1537921784731525,-3,-3,-7,-3,4,-1,-1,0
1537921784731525,-1,2,2,5,-4,-1,-1,-1
1537921784737509,1,-7,-9,-5,4,-2,0,1
1537921784737509,-5,-2,-3,5,-7,-5,-2,-2
1537921784754464,-1,-2,2,9,10,-2,-2,-2
1537921784754464,0,-2,-5,-15,-5,0,1,0
1537921784755461,0,7,7,6,-4,0,0,-4
1537921784755461,0,3,14,5,1,0,1,-5
1537921784767429,-5,-6,-9,-8,2,-2,-2,1
1537921784767429,-2,-4,4,23,-3,1,-4,1
1537921784776405,2,7,5,-17,1,0,0,-4
1537921784776405,0,-3,-4,-3,-3,-7,-1,3
1537921784791365,-2,-9,-24,-12,-3,-1,1,-3
1537921784791365,1,1,4,1,0,3,1,0
1537921784798346,0,-1,4,26,12,4,-2,-1
1537921784798346,1,14,21,10,13,7,-2,0
1537921784814304,1,-4,-5,-8,-7,-7,-3,1
1537921784814304,-4,-9,-9,-4,-14,-6,-2,-1
1537921784815301,-4,-2,-6,-20,-22,0,-2,1
1537921784815301,2,-7,-8,-13,12,4,-2,-4
1537921784828266,-1,7,14,10,18,1,-1,1
1537921784828266,1,-1,-5,-11,1,-1,-1,-1
1537921784837243,-3,-5,-4,11,7,-7,-2,-1
1537921784837243,1,1,-11,-5,-18,0,-2,-1
1537921784851205,2,1,14,1,3,0,-2,-4
1537921784851205,1,3,3,-5,4,-1,-2,2
1537921784858187,-2,-4,-10,3,-4,-1,0,-2
1537921784858187,-1,-5,-11,-24,-8,-3,1,-2
1537921784874144,-1,-3,-9,-22,-4,-1,-3,-4
1537921784874144,2,2,10,-1,0,1,0,-1
1537921784876138,-3,0,16,22,-5,2,-1,0
1537921784876138,-5,-13,-30,13,-2,-9,0,5
1537921784888106,0,1,8,16,7,-4,-1,7
1537921784888106,-1,2,3,7,1,0,1,0
1537921784897083,0,-2,-12,-30,6,0,-1,-1
1537921784897083,0,4,5,-12,-21,0,-2,-8
1537921784911045,0,4,-5,14,8,1,3,-2
1537921784911045,-2,-9,-25,-46,-45,-6,-1,-1
1537921784918027,0,1,21,21,31,4,-2,-6
1537921784918027,4,9,15,28,17,0,2,8
1537921784933984,-2,-4,-5,14,-3,-1,-3,4
1537921784933984,0,2,6,3,-12,0,0,-2
1537921784939969,0,-5,-22,-37,-6,0,-4,-4
1537921784939969,-1,5,23,15,7,2,0,-5
1537921784947947,-1,1,5,-14,-10,-3,0,-1
1537921784947947,-1,-1,-17,-4,27,1,-1,-6
1537921784956923,2,-5,5,11,-20,-8,2,9
1537921784956923,-4,-1,9,12,1,-1,-1,0
1537921784970886,0,-4,-8,2,5,4,1,0
1537921784970886,-1,1,9,9,-7,1,-3,-3
1537921784977867,3,-9,-13,-20,3,-2,0,0
1537921784977867,-2,-8,-8,-23,-15,-3,-2,0
1537921784993825,0,-1,-1,-12,8,3,-2,-6
1537921784993825,3,6,6,28,17,4,1,1
1537921785000805,0,12,17,-5,-17,0,0,-1
1537921785000805,0,1,-4,6,15,1,1,2
1537921785016763,-1,0,-7,0,-5,-1,-2,0
1537921785016763,-3,-3,-2,-16,1,-5,-2,-2
1537921785017761,3,3,0,6,0,-5,1,2
1537921785017761,-2,-1,6,11,0,4,-1,-2
1537921785030725,-1,-8,-29,0,-3,1,-2,1
1537921785030725,-1,-1,28,8,0,1,-1,-1
1537921785037707,-2,-1,-4,-30,-21,0,0,0
1537921785037707,-2,-2,-17,-6,-1,-5,-5,-5
1537921785053664,-1,1,14,22,3,-4,0,1
1537921785053664,-1,3,0,9,16,2,-2,3
1537921785060645,-4,-2,-15,-13,15,-3,1,-2
1537921785060645,-1,1,-12,-24,-25,1,0,-2
1537921785076602,0,2,15,5,-2,-1,-2,-3
1537921785076602,-2,-3,5,-25,-23,1,0,-5
1537921785078597,4,4,16,72,28,2,2,6
1537921785078597,-1,-12,-8,24,41,-1,-2,5
1537921785090565,-1,-4,-4,-8,-21,-4,1,1
1537921785090565,-2,-1,-3,-25,0,-2,-3,-1
1537921785097547,-1,-2,-8,-25,-12,-1,-4,-4
1537921785097547,-1,-3,2,-13,-12,-3,0,-3
1537921785113504,1,1,3,-12,2,1,-1,-3
1537921785113504,-1,-1,6,21,7,-2,0,0
1537921785120486,-3,-5,-13,-15,-7,-1,-2,-1
1537921785120486,0,1,6,7,-12,-3,-1,0
1537921785136443,-3,0,6,15,17,2,-3,0
1537921785136443,0,0,2,8,-5,0,-1,1
1537921785138437,-1,-2,3,12,0,-2,-2,3
1537921785138437,-2,0,-1,-22,2,0,0,-3
1537921785151403,1,-1,-9,-9,-7,-2,2,1
1537921785151403,-2,0,-5,-6,3,-1,-1,-2
1537921785157387,-1,-2,-6,11,-7,0,-2,0
1537921785157387,1,-2,12,-5,-2,0,-1,0
1537921785173344,1,-1,3,13,3,1,-1,2
1537921785173344,0,0,-10,-11,-7,-1,1,0
1537921785180327,-3,-1,0,-12,4,1,-1,-4
1537921785180327,-1,2,6,37,16,2,3,1
1537921785196283,-5,-5,-18,-33,-6,-4,-1,1
1537921785196283,1,-4,5,25,1,-3,0,1
1537921785198277,-2,0,7,-13,-6,2,-2,-4
1537921785198277,-1,-1,-2,-11,-12,-2,-1,-4
1537921785211242,0,-4,-5,-12,-10,-4,-2,-1
1537921785211242,1,0,-6,3,4,-1,1,2
1537921785218224,-2,-2,-1,-10,-8,-1,-1,-1
1537921785218224,-1,3,6,9,11,3,0,-2
1537921785233184,-2,-3,2,-1,-9,1,3,-4
1537921785233184,-3,-3,-11,-16,-1,0,-2,0
1537921785240165,1,-1,-2,15,-2,-1,-1,1
1537921785240165,0,-2,-6,-46,-20,1,0,-1
1537921785257120,3,7,19,25,13,-1,-2,-2
1537921785257120,-2,-5,-2,31,4,2,-1,-2
1537921785258118,-1,2,8,32,21,-3,1,4
1537921785258118,-5,-4,-13,21,29,-1,0,2
1537921785270085,3,5,4,-30,-15,1,1,-2
1537921785270085,1,1,0,-10,-19,-1,-3,-3
1537921785279061,-2,-3,-7,-15,-2,-4,0,-4
1537921785279061,0,-4,-22,-28,-16,1,-3,-4
1537921785294021,-1,-1,18,18,4,-2,-2,-3
1537921785294021,1,1,9,9,10,-2,1,3
1537921785300006,0,-4,-17,-20,-23,-4,-2,0
1537921785300006,1,-3,-6,-56,-19,-2,0,-5
1537921785316960,-2,5,12,48,23,4,0,-1
1537921785316960,-1,-3,-11,-11,13,0,2,3
1537921785317958,-2,-4,1,32,9,0,2,3
1537921785317958,-1,0,8,7,-7,-5,-2,-1
1537921785329926,-2,-1,-20,-25,-3,-5,0,-1
1537921785329926,-1,3,23,20,-39,-2,-3,-3
1537921785338902,3,3,-13,-24,37,10,2,1
1537921785338902,0,1,5,-24,-26,-6,-3,-3
1537921785353863,2,-7,-27,-7,-16,-1,-1,1
1537921785353863,-4,0,16,21,10,2,0,-5
1537921785360843,-3,-6,-6,-10,-40,-6,-3,0
1537921785360843,-3,-3,-4,17,58,2,-1,2
1537921785376801,-4,7,16,3,18,1,-1,-1
1537921785376801,4,3,-10,-4,18,-3,-1,0
1537921785377799,-2,-5,26,40,-38,4,-2,-4
1537921785377799,-3,6,19,-21,-23,-9,-3,5
1537921785390765,-1,4,-16,-14,37,12,3,1
1537921785390765,-1,-5,-21,-83,-59,-3,-1,-6
1537921785399740,-1,-5,-8,55,14,-8,-3,-2
1537921785399740,4,-4,-4,39,-12,13,6,17
1537921785413702,-4,-43,-17,15,50,22,-1,4
1537921785413702,-6,-108,17,-4,26,24,1,1
1537921785420683,-25,0,1,-27,10,14,3,-10
1537921785420683,-63,36,31,25,-41,-12,-5,-10
1537921785436640,-42,79,2,-15,-20,-48,-16,-2
1537921785436640,1,83,-19,-45,-25,-15,17,-1
1537921785437638,54,48,33,-27,-25,29,8,-10
1537921785437638,91,23,-26,52,-14,27,11,6
1537921785450603,42,3,-36,-6,-12,26,21,21
1537921785450603,32,7,-13,13,24,60,-6,7
1537921785459579,7,-14,-2,-110,8,-11,1,-9
1537921785459579,-5,-18,29,86,0,-57,6,-26
1537921785473541,-21,-43,32,45,34,1,16,8
1537921785473541,-43,-26,-49,22,48,-43,26,8
1537921785480523,-61,0,15,27,-27,-13,18,-18
1537921785480523,-63,-10,-9,-51,19,-33,111,-14
1537921785496480,-98,-10,-4,-67,-71,-6,121,18
1537921785496480,-127,10,68,38,-11,17,-33,-8
1537921785498475,-128,-58,-30,0,19,10,-102,43
1537921785498475,-87,-78,-17,40,36,35,-128,13
1537921785510443,55,-23,0,9,-12,21,-128,-54
1537921785510443,37,-18,-12,-58,21,36,-45,-15
1537921785519419,-61,114,15,-30,85,11,16,-8
1537921785519419,-57,84,25,12,-8,-55,29,-2
1537921785533381,-8,86,3,2,-17,-33,-12,20
1537921785533381,45,-7,3,12,-117,-128,-95,-22
1537921785540363,127,-17,-24,-22,-62,-80,-122,17
1537921785540363,123,-48,-44,-33,-33,40,-22,54
1537921785556320,103,-28,54,64,14,83,-33,-7
1537921785556320,127,-57,-47,51,106,127,-39,38
1537921785558315,47,-47,-19,73,96,104,-8,-64
1537921785558315,-69,6,-6,-71,-72,-29,21,-33
1537921785570283,-109,-17,-1,-71,-128,-102,59,-21
1537921785570283,-128,24,59,-79,-127,-107,127,21
1537921785579259,-128,8,38,126,-9,3,81,19
1537921785579259,-104,-22,-15,-18,111,54,-43,-15
1537921785593222,-115,-25,-84,-90,127,22,-56,-42
1537921785593222,-128,63,23,49,127,-4,-36,-34
1537921785600203,-23,-8,-43,-24,99,-33,13,7
1537921785600203,121,30,-2,11,97,-12,-12,-19
1537921785617158,120,27,5,-13,127,-19,20,8
1537921785617158,127,21,-18,39,78,17,44,10
1537921785618156,52,-25,25,-8,-114,-22,70,13
1537921785618156,-32,-21,25,5,-109,-6,30,10
1537921785630124,-83,-33,3,-3,-128,11,27,30
1537921785630124,-93,-7,4,-34,-128,-2,27,11
1537921785639099,-74,-14,16,1,-115,-14,14,3
1537921785639099,-42,-7,-9,-6,-72,3,10,9
1537921785654060,-19,-4,12,13,-62,-9,-7,-5
1537921785654060,-15,-3,-4,15,-30,2,3,1
1537921785660043,8,-7,-12,-26,-12,-5,-1,9
1537921785660043,4,-2,3,8,12,6,-10,-9
1537921785676998,2,3,15,44,5,-3,-2,5
1537921785676998,9,-3,-7,13,5,-5,-9,1
1537921785677996,14,0,-19,-25,13,0,-6,-3
1537921785677996,8,5,4,-28,8,2,-2,-5
1537921785689964,5,-1,8,15,7,-2,-10,-1
1537921785689964,9,-2,-1,16,9,4,0,-1
1537921785698940,2,4,2,-8,17,-2,-1,-9
1537921785698940,6,4,2,-15,0,1,-2,4
1537921785713899,5,-5,5,35,10,-1,-3,3
1537921785713899,3,3,-9,-15,3,1,-3,-11
1537921785719883,4,5,0,0,-4,-6,2,0
1537921785719883,5,0,-5,-8,13,4,-1,4
1537921785736838,4,-4,-5,8,2,0,-4,0
1537921785736838,-2,2,-1,0,-7,-2,-2,-4
1537921785737836,3,3,5,-1,5,0,-1,1
1537921785737836,3,1,0,9,5,1,-1,0
1537921785750801,1,1,-7,-29,-13,-2,-5,-5
1537921785750801,2,-2,8,10,2,0,-1,1
1537921785758779,-1,-2,-6,-7,-3,-3,1,3
1537921785758779,-2,-4,-9,-35,-4,-1,-5,-5
1537921785773740,1,1,5,55,13,3,3,7
1537921785773740,-3,-3,-6,6,2,-1,-2,-4
1537921785780721,2,-2,1,-14,-4,-5,-2,-3
1537921785780721,1,2,11,9,2,1,2,-2
1537921785796678,1,1,-3,-34,-9,-3,-3,2
1537921785796678,1,-4,-4,18,4,2,2,-1
1537921785797675,-4,-1,-3,-4,-5,-3,-1,-4
1537921785797675,0,-1,-4,0,2,1,-3,0
1537921785810640,0,-2,2,1,-3,2,0,0
1537921785810640,-1,-2,-2,-11,-5,1,-1,-3
1537921785819617,0,-3,-7,-15,-2,2,-4,1
1537921785819617,1,3,6,8,1,-1,-1,0
1537921785833579,-1,0,4,29,9,0,0,-2
1537921785833579,2,2,0,-6,3,0,-1,2
1537921785840560,1,-2,-6,-7,-8,1,-3,-3
1537921785840560,-3,1,13,29,6,-2,4,2
1537921785856518,-3,-2,-6,-10,1,0,1,2
1537921785856518,-2,0,1,-1,-3,0,0,-3
1537921785862502,1,-1,-5,-13,2,0,1,-1
1537921785862502,1,-3,-5,-7,-6,-4,-1,0
1537921785870480,-2,-2,0,-3,-3,-4,-1,-2
1537921785870480,-1,-2,-3,-10,-6,-2,0,-1
1537921785885440,-2,-2,-14,-57,-7,-2,-3,-3
1537921785885440,0,2,6,55,-7,-2,-2,-1
1537921785893419,-1,2,18,38,18,3,2,2
1537921785893419,0,-2,-1,3,1,-2,2,2
1537921785900401,0,2,7,1,0,-1,-3,-3
1537921785900401,-1,-2,-11,-19,5,1,1,2
1537921785916358,-4,-3,-19,-39,-16,-6,-1,-2
1537921785916358,-1,-2,-8,-33,-8,0,-2,-4
1537921785922342,2,5,21,55,9,1,0,-5
1537921785922342,2,-1,-3,-29,-4,0,-1,4
1537921785930321,2,4,20,40,0,1,-4,-6
1537921785930321,-5,-6,-14,-4,5,0,4,4
1537921785939297,0,-1,-15,-5,-1,-3,-1,-1
1537921785939297,0,-1,0,-10,4,2,-3,-2
1537921785953260,-1,0,9,-7,7,2,5,3
1537921785953260,1,2,-1,-14,-10,-3,-5,-2
1537921785960241,-2,-6,-14,-21,1,-1,-1,-2
1537921785960241,-2,0,8,20,-15,-5,-5,-6
1537921785975201,0,4,24,30,4,3,1,-4
1537921785975201,-7,-14,-18,-14,8,-3,3,3
1537921785983179,-2,1,1,16,-5,-6,-2,8
1537921785983179,1,4,5,0,10,2,1,1
1537921785998139,-1,-4,-14,-22,-9,-1,-6,-2
1537921785998139,7,2,14,-3,-6,1,-5,-9
1537921785999137,1,-6,-24,-39,-4,0,-4,-10
1537921785999137,-5,-2,22,46,7,-1,1,1
1537921786014097,-9,2,14,53,35,6,6,6
1537921786014097,1,-12,-28,-65,-49,-8,-8,-7
1537921786020081,8,7,13,74,1,-3,5,9
1537921786020081,5,23,-17,-111,-4,10,1,1
1537921786035041,6,0,16,39,-1,1,-10,-19
1537921786035041,-20,-14,-7,96,60,-6,16,26
1537921786043019,-4,10,-5,-94,-26,9,-1,7
1537921786043019,8,-10,24,92,-17,-7,-13,-23
1537921786057980,-15,-35,-44,-10,30,-12,13,23
1537921786057980,2,8,-5,-55,-65,2,-7,-5
1537921786058977,6,-2,8,-27,30,1,-1,-4
1537921786058977,-10,-11,0,12,8,1,-4,-6
1537921786073937,12,16,10,-47,10,6,-15,-8
1537921786073937,0,-2,25,34,13,-2,2,-8
1537921786079921,-5,-9,-45,-70,-51,0,13,11
1537921786079921,6,13,38,-57,-19,9,-13,-19
1537921786095878,-5,-14,-6,74,-10,-25,4,9
1537921786095878,-8,5,-9,33,27,5,2,24
1537921786102860,-9,-7,-22,-1,-16,-38,-39,-33
1537921786102860,-5,-12,-21,-27,-17,-2,12,-23
1537921786118817,31,18,-29,-128,-2,53,39,69
1537921786118817,7,16,63,85,25,-7,-24,-23
1537921786118817,-18,-15,-10,-3,19,7,15,12
1537921786118817,6,-7,-3,49,23,-9,-12,19
1537921786133777,-22,4,-1,15,-69,-33,-12,-52
1537921786133777,23,11,-3,-60,7,19,17,14
1537921786140758,0,3,30,63,32,3,-13,-11
1537921786140758,-4,-10,-45,-117,-22,-7,-6,-4
1537921786163697,15,17,55,79,65,5,5,4
1537921786163697,-31,-25,-15,51,-4,-17,0,-3
1537921786164694,-14,-6,-24,-19,-18,4,19,-20
1537921786164694,50,33,-18,-99,-25,18,21,100
1537921786178657,1,3,20,16,-13,8,-28,-32
1537921786178657,-1,17,36,29,23,-4,-14,-28
1537921786179655,-11,-22,3,34,-6,-15,11,1
1537921786179655,-24,-9,-27,-5,17,-1,-2,-16
1537921786194615,10,4,-23,-96,-48,-1,-3,2
1537921786194615,2,-8,-6,-57,-18,-16,-1,-11
1537921786200598,-1,13,46,113,38,17,-10,8
1537921786200598,-13,-6,-2,30,17,1,6,-11
1537921786215558,-8,-14,-12,-33,-40,-16,9,16
1537921786215558,6,2,-23,-67,-6,9,8,19
1537921786222541,15,7,13,9,13,5,-8,2
1537921786222541,-21,-22,-10,59,19,-14,-3,-13
1537921786238497,-8,4,0,-14,-1,-6,-8,-18
1537921786238497,1,4,3,-8,-13,4,6,4
1537921786239494,0,-5,-7,-35,-26,-9,-4,1
1537921786239494,-1,-1,9,37,13,-1,-1,-12
1537921786254454,-8,-5,-11,-48,-7,0,-2,-7
1537921786254454,2,4,6,-8,-22,-4,-2,0
1537921786260438,10,11,15,37,33,12,6,7
1537921786260438,-9,-8,-1,10,3,-5,-5,0
1537921786275398,-2,-8,-22,-24,-11,-1,-6,1
1537921786275398,6,2,0,10,2,0,-1,-1
1537921786282380,-2,-1,3,0,1,-2,-4,-4
1537921786282380,-5,-1,-5,-10,-13,-6,0,-9
1537921786298337,0,0,3,13,11,7,1,7
1537921786298337,7,1,-3,12,6,8,-5,9
1537921786299334,2,-1,-1,-25,-11,-2,-1,-4
1537921786299334,-1,1,7,8,-1,-3,-1,0
1537921786314294,-4,-4,-2,13,5,-7,-5,2
1537921786314294,-7,-1,-5,-1,0,-1,1,-11
1537921786320278,2,0,-1,-15,-9,2,2,6
1537921786320278,1,1,4,-13,-1,-3,0,-1
1537921786335238,-3,-3,-8,-14,-10,-1,-2,-5
1537921786335238,0,-2,-11,21,17,2,-3,-6
1537921786343217,1,12,32,52,15,-1,6,17
1537921786343217,-4,3,8,24,2,0,-1,-2
1537921786358177,-1,-2,-10,-14,2,2,2,0
1537921786358177,-2,-4,-16,-49,-19,-1,-5,-3
1537921786359174,5,2,-2,-19,-12,-2,-6,-12
1537921786359174,1,-4,-2,12,14,1,2,1
1537921786374135,-5,-6,-7,-1,-1,-1,1,2
1537921786374135,-1,2,10,7,-1,-4,-2,-3
1537921786380118,-3,-2,-6,-1,4,0,0,1
1537921786380118,0,2,-5,-16,-9,0,3,5
1537921786395079,-1,-1,6,3,3,-4,-4,-8
1537921786395079,-1,-2,3,35,10,0,1,1
1537921786403057,-3,-3,-9,-22,-6,-4,-2,0
1537921786403057,2,-1,0,8,-5,3,-3,-2
1537921786418017,-3,-2,-7,-11,-1,-4,-2,-3
1537921786418017,-1,2,3,1,-1,4,1,-1
1537921786419015,2,-2,-16,-38,-3,1,-3,-1
1537921786419015,-3,4,27,21,5,-5,1,4
1537921786433975,-3,1,1,62,23,1,4,3
1537921786433975,-1,-1,-7,-20,-9,0,-2,-3
1537921786439958,0,-3,-9,-14,-11,0,-3,-4
1537921786439958,1,-2,-13,-34,-10,0,2,-2
1537921786454918,1,3,5,-14,-5,-1,-1,-3
1537921786454918,-1,-2,-5,4,2,-4,3,1
1537921786462897,-5,-2,5,-4,-3,-1,-1,1
1537921786462897,-3,-3,6,26,5,1,0,-3
1537921786478854,0,1,4,6,1,-2,2,4
1537921786478854,-1,-2,-7,-7,-5,-1,-4,-2
1537921786478854,0,-2,5,-5,1,2,0,-2
1537921786478854,3,-1,-4,2,-3,2,-3,0
1537921786493814,-2,-5,0,-9,-2,-1,-2,-1
1537921786493814,-2,3,-5,10,-2,-4,0,0
1537921786500795,-1,-4,-8,-15,-4,0,1,1
1537921786500795,-1,4,3,-9,1,-1,0,-2
1537921786515755,2,-2,6,16,-17,-2,-1,0
1537921786515755,-1,-3,1,4,16,-1,-2,-2
1537921786522737,1,3,3,8,1,-1,2,3
1537921786522737,-3,-2,-7,-6,-2,-1,0,0
1537921786538694,-3,0,-6,-22,-3,1,-2,-2
1537921786538694,1,-1,-1,-25,-11,-4,-2,-1
1537921786538694,1,-2,3,20,4,1,-3,-4
1537921786538694,-1,-1,-2,8,0,-3,0,0
1537921786554652,-2,-2,1,12,5,0,4,2
1537921786554652,-2,-2,-1,7,-4,-1,0,-2
1537921786560635,1,0,-2,-25,-1,2,0,-2
1537921786560635,3,-1,-3,0,-3,0,0,-3
1537921786575596,-5,-7,-7,3,-4,-4,-2,1
1537921786575596,2,-3,-6,-19,-4,0,-3,0
1537921786582577,-2,-1,2,9,-2,-2,-1,-1
1537921786582577,1,1,5,-5,1,0,-4,-2
1537921786598535,1,4,5,29,6,2,-1,-3
1537921786598535,-2,-2,2,-13,1,2,-1,-2
1537921786599532,-1,-3,-1,3,-3,-5,-2,3
1537921786599532,-2,-2,-4,-4,-3,1,0,1
1537921786614493,1,3,4,-7,0,-1,-4,-1
1537921786614493,-1,-4,-2,6,-4,1,2,0
1537921786620476,-1,2,2,-6,-3,-2,-2,-2
1537921786620476,2,-4,-10,-8,-1,2,-1,-1
1537921786635436,0,0,0,-3,-3,-6,-2,-2
1537921786635436,-2,3,5,14,8,2,0,1
1537921786642417,0,-1,-2,3,1,-1,2,1
1537921786642417,-2,-1,-2,-8,-1,0,-1,-3
1537921786658374,3,1,1,0,1,-1,-2,-4
1537921786658374,-1,-2,-1,-23,-3,0,-2,-5
1537921786659372,0,0,-4,27,2,-2,-1,1
1537921786659372,-4,-2,0,-13,-4,-3,1,1
1537921786674332,1,1,5,6,-5,0,-4,-1
1537921786674332,-1,2,0,4,7,-1,2,1
1537921786680316,-1,4,13,3,-3,-2,-2,-3
1537921786680316,1,-6,-6,13,1,-5,0,1
1537921786695276,-6,-3,-8,-12,0,-1,-1,2
1537921786695276,1,1,-1,-6,-6,0,-3,1
1537921786703255,-1,-7,-13,-21,-4,2,2,0
1537921786703255,1,-8,15,10,0,-1,-2,-3
1537921786718214,0,-5,-1,-10,-1,-2,2,0
1537921786718214,-1,5,2,21,-3,1,-3,-2
1537921786719212,-1,8,4,-10,2,2,-2,0
1537921786719212,0,17,-1,33,1,1,-2,-2
1537921786734172,1,9,-2,-33,1,0,-1,-3
1537921786734172,1,-2,3,30,-7,-5,1,0
1537921786740156,-3,-5,-7,-6,4,-1,0,2
1537921786740156,-1,-7,-9,-40,-7,-1,0,0
1537921786755116,1,-6,6,23,3,-2,0,-2
1537921786755116,1,-2,5,2,5,-1,0,2
1537921786763095,1,-5,-4,-19,-13,-3,-2,-1
1537921786763095,-3,-3,-2,18,9,0,-2,-2
1537921786778054,-1,0,1,16,5,-1,-1,1
1537921786778054,-2,-5,1,-14,-5,-1,-1,-3
1537921786785036,2,1,7,16,-1,-2,1,1
1537921786785036,-3,-2,-5,-22,-4,-2,-5,-1
1537921786794012,0,0,-5,-13,-9,0,0,-2
1537921786794012,-1,-1,-8,-8,-3,-2,2,1
1537921786799996,-2,0,6,8,2,0,1,-3
1537921786799996,0,1,2,12,7,0,1,1
1537921786814956,-3,-2,-4,-6,-2,0,-3,0
1537921786814956,-2,-4,-1,-8,-2,1,0,0
1537921786822935,-5,-4,-7,2,-6,-5,-2,-1
1537921786822935,-2,0,0,-3,-5,1,-1,-2
1537921786837895,3,2,3,16,5,2,2,-1
1537921786837895,-4,-3,-6,-23,-6,-1,-2,0
1537921786845873,-1,1,-2,-1,5,2,-2,-1
1537921786845873,-3,-1,13,10,-7,-3,-1,-1
1537921786853853,1,-2,-6,-11,5,-2,0,2
1537921786853853,-1,0,3,12,-2,-1,-1,2
1537921786860833,-2,-3,-1,8,4,0,0,0
1537921786860833,0,-5,-18,-16,-1,2,-2,-1
1537921786875793,-1,3,15,-5,-6,-1,0,-2
1537921786875793,-2,-1,2,6,3,-1,0,1
1537921786882774,1,2,-1,6,4,-2,-1,-1
1537921786882774,0,1,-2,-19,-7,-4,1,1
1537921786897735,-2,-2,-8,2,3,1,-3,-5
1537921786897735,-1,-2,2,17,2,0,1,0
1537921786905714,-2,3,8,2,-5,0,-1,1
1537921786905714,-1,1,1,6,0,1,0,-1
1537921786914689,-3,-6,-9,-24,-8,-4,-1,-2
1537921786914689,-2,-1,-1,-4,0,-2,-2,-1
1537921786920673,-1,-3,0,13,1,-4,1,0
1537921786920673,-3,0,2,-8,-5,-3,-1,0
1537921786935633,-2,0,3,12,2,2,0,-1
1537921786935633,0,-3,-4,-9,1,-2,0,-3
1537921786942615,-2,-3,-4,-7,-6,-1,-2,-1
1537921786942615,0,0,1,3,2,-1,1,-1
1537921786957575,-1,-2,-3,-18,-9,-2,1,0
1537921786957575,2,2,7,12,4,-1,-3,-3
1537921786965553,0,0,-1,-2,0,-1,1,3
1537921786965553,-4,-3,-12,-1,0,0,0,0
1537921786980513,-1,0,13,-8,-3,1,-4,0
1537921786980513,-1,2,2,20,-3,-6,2,2
1537921786981511,2,0,-3,-4,0,2,-1,-4
1537921786981511,2,-1,0,-1,1,-1,0,0
1537921786995473,-2,-3,-11,-13,0,-2,-3,-1
1537921786995473,0,1,-3,-14,-1,2,-1,-2
1537921787002455,0,-2,3,-10,-8,-3,-1,-1
1537921787002455,-1,1,1,23,3,0,-3,0
1537921787017415,1,3,4,7,1,-1,0,2
1537921787017415,-1,-3,-3,-10,-1,-3,-1,0
1537921787026391,-2,-2,-7,-13,-4,0,0,-1
1537921787026391,1,-2,-3,-20,2,-1,-3,-2
1537921787041351,-3,1,7,29,1,0,-1,0
1537921787041351,0,1,5,15,2,1,0,-2
1537921787041351,-3,-2,-13,-11,2,-3,-2,0
1537921787041351,-1,3,5,-11,1,0,-2,-3
1537921787055313,2,0,4,12,-4,-1,-2,1
1537921787055313,-3,-2,-9,-28,-8,-2,1,2
1537921787062295,1,-1,9,21,10,3,-2,-7
1537921787062295,1,-1,4,17,3,-2,3,2
1537921787078252,-4,-5,-18,-15,0,-4,1,2
1537921787078252,-2,0,1,-4,-1,1,-2,-1
1537921787086231,-2,2,3,-18,-7,0,-1,1
1537921787086231,1,-4,-7,-38,-8,-1,-4,-6
1537921787101191,-1,-1,10,59,4,3,-1,-4
1537921787101191,-1,-1,4,-4,10,2,1,3
1537921787101191,-2,-1,4,56,9,0,0,4
1537921787101191,-1,1,2,-1,4,3,-1,0
1537921787115153,1,-1,-11,-27,-9,-3,-1,-3
1537921787115153,-1,-7,-22,-39,-11,1,-5,-5
1537921787123132,4,3,15,-11,-11,-1,-1,-3
1537921787123132,1,0,17,33,-1,0,4,1
1537921787138092,-5,-1,-6,4,12,0,2,3
1537921787138092,-1,-1,-4,3,-2,-4,0,-3
1537921787145074,-3,-5,-13,-23,-1,-1,-1,-1
1537921787145074,0,-3,-11,-42,-9,-1,-3,-1
1537921787161031,1,3,17,21,-1,2,-3,-5
1537921787161031,0,5,13,41,9,-1,4,5
1537921787162028,-1,-2,0,19,9,3,-1,1
1537921787162028,-2,1,-3,12,2,-1,0,0
1537921787174993,0,-5,-11,-40,-8,-3,-1,-2
1537921787174993,2,-4,-9,-29,-4,-1,-2,-3
1537921787182972,0,-3,0,-16,-6,0,-2,-4
1537921787182972,0,3,18,50,0,-2,1,0
1537921787197932,-5,-3,-7,-2,12,-2,1,2
1537921787197932,-1,-2,2,16,0,0,-4,1
1537921787205911,-3,-1,-12,-25,-5,-3,-3,1
1537921787205911,0,-3,-11,-39,-1,3,-4,-3
1537921787220871,2,3,12,32,-7,-2,1,-1
1537921787220871,-1,1,8,20,2,-3,0,-1
1537921787221869,-2,0,0,14,3,-3,4,3
1537921787221869,-1,0,-12,-29,0,2,-1,-1
1537921787234833,4,-1,2,0,-2,-2,-5,-3
1537921787234833,-2,-5,2,6,-8,-1,4,2
1537921787242812,3,5,2,-15,-2,0,-2,0
1537921787242812,1,0,5,8,-21,0,-3,-5
1537921787257772,3,-2,-24,-8,7,6,3,7
1537921787257772,-8,1,10,-33,12,7,-8,-16
1537921787265750,11,10,26,64,7,-14,3,8
1537921787265750,-15,-17,-27,42,33,-3,8,14
1537921787280711,-4,-2,-58,-104,-66,-8,-2,-2
1537921787280711,9,10,44,13,-39,1,-14,-25
1537921787281708,0,-10,14,80,32,1,15,23
1537921787281708,-10,2,-11,2,28,7,4,9
1537921787295671,2,-8,-13,-52,-27,-4,-3,-4
1537921787295671,4,8,-5,-7,5,-5,-6,-13
1537921787302652,-6,-2,15,-30,-43,-4,-5,-6
1537921787302652,9,0,9,75,51,-9,-1,4
1537921787317612,-21,-28,-18,60,32,4,8,12
1537921787317612,13,11,-27,-79,-17,5,4,9
1537921787325591,3,21,10,-102,-38,0,-14,-28
1537921787325591,14,-2,22,46,-54,-5,-3,-8
1537921787340551,-4,4,31,62,48,1,0,14
1537921787340551,-13,-16,-4,37,27,-5,9,7
1537921787341548,0,1,-11,28,18,12,5,17
1537921787341548,7,20,-12,-98,-57,-1,-10,-13
1537921787355511,18,12,25,-94,-6,1,-11,-24
1537921787355511,-12,-8,-2,127,40,-16,0,14
1537921787362492,-14,-7,-15,-22,30,-1,3,-2
1537921787362492,3,1,-13,-81,-43,3,-2,5
1537921787377452,3,11,27,-5,-2,1,-9,-22
1537921787377452,-5,-3,9,-19,2,2,-14,-6
1537921787385431,17,-4,-31,-20,-2,20,22,33
1537921787385431,-23,-3,38,44,-1,-3,5,18
1537921787401388,37,22,-2,17,18,-2,4,5
1537921787401388,-23,-23,-12,-37,-27,-7,-8,-18
1537921787401388,-8,-15,-4,42,8,-6,-14,-27
1537921787401388,1,-6,-28,-21,4,-9,7,14
1537921787415351,8,3,3,-1,3,0,-4,10
1537921787415351,3,13,8,-2,-3,12,7,-3
1537921787422332,1,-3,-12,-10,-4,-6,-4,-1
1537921787422332,-13,2,6,1,19,2,4,-11
1537921787438290,-15,-11,0,14,-4,-6,0,-3
1537921787438290,19,8,-6,-8,-5,6,5,14
1537921787446268,-13,-10,-9,-27,-16,3,1,-9
1537921787446268,4,1,13,-7,9,-6,-12,-6
1537921787461229,-12,-2,16,73,8,2,2,-3
1537921787461229,-1,-6,-9,-8,-10,-2,3,10
1537921787461229,0,0,3,1,5,-1,-7,-4
1537921787461229,2,-4,-11,-10,-5,-3,-4,-8
1537921787475191,-8,-7,-11,-17,-10,3,1,-1
1537921787475191,-1,-3,-13,-54,-5,1,4,2
1537921787483170,4,7,18,39,10,-7,-4,-3
1537921787483170,-1,2,17,60,17,1,-2,-3
1537921787498130,-10,-8,-9,-35,-9,1,1,-1
1537921787498130,2,0,-1,5,-12,-3,-5,-1
1537921787506109,1,-1,-11,-10,3,0,1,-5
1537921787506109,-4,-6,3,-3,-5,0,0,-4
1537921787521068,-1,0,-1,-1,-4,1,-1,2
1537921787521068,-3,-6,-7,-1,-3,-4,0,1
1537921787522066,1,4,10,1,3,-1,-1,0
1537921787522066,-1,-4,-5,-1,2,1,3,-2
1537921787535031,-3,-1,2,-11,-4,-1,-2,-2
1537921787535031,1,1,-8,-22,-2,-3,4,0
1537921787543010,-3,0,7,20,0,0,-4,-7
1537921787543010,1,0,1,15,5,1,0,-2
1537921787557969,0,-1,-3,0,5,-3,0,1
1537921787557969,-1,-3,-9,-6,-4,1,0,1
1537921787565948,-4,-2,3,-12,-7,-7,-2,1
1537921787565948,0,0,2,-7,-5,-2,0,-3
1537921787580908,-1,-2,0,4,-6,2,0,1
1537921787580908,-1,2,10,23,9,0,-1,2
1537921787581906,-3,-7,-22,-33,-15,-3,-1,-1
1537921787581906,3,-3,1,-3,5,0,0,-6
1537921787594871,-2,1,7,12,2,-2,1,2
1537921787594871,1,-2,-4,0,0,0,1,1
1537921787602849,-1,0,-1,-8,-3,-1,-6,-4
1537921787602849,1,-1,3,12,3,4,0,-3
1537921787617809,-1,3,7,18,8,-1,-1,1
1537921787617809,-1,-1,-2,4,-1,-1,0,1
1537921787625788,0,0,-5,-11,-4,-2,-4,-1
1537921787625788,2,2,-2,-34,-17,-2,0,-1
1537921787640748,-3,-1,-3,30,4,-1,2,0
1537921787640748,0,2,-3,-8,15,2,1,2
1537921787641746,0,3,6,6,1,3,-2,-5
1537921787641746,-2,-5,2,-1,1,-2,0,0
1537921787655709,-2,3,5,8,-15,-5,0,3
1537921787655709,-5,-8,-7,13,0,-1,0,4
1537921787662690,-4,-4,-17,-36,0,-2,1,-1
1537921787662690,-1,0,-11,-31,-15,-4,-5,-7
1537921787677650,2,8,43,25,-3,8,-1,-7
1537921787677650,1,0,4,44,11,-3,2,2
1537921787685628,-1,-3,-6,-60,-31,-2,-1,0
1537921787685628,2,-7,-14,91,40,-1,-1,4
1537921787700588,-3,-2,-31,-49,11,0,2,1
1537921787700588,3,7,41,10,-13,0,-5,-2
1537921787708567,1,-3,-3,-15,11,5,1,-3
1537921787708567,-2,2,11,26,-21,-5,-3,-7
1537921787715548,-3,-13,-21,-3,-11,-6,6,14
1537921787715548,-3,-1,-18,-58,8,6,1,1
1537921787722529,0,4,9,64,33,3,0,1
1537921787722529,1,3,-22,-76,-10,3,2,0
1537921787737490,6,4,22,10,-17,-3,-16,-25
1537921787737490,1,-4,23,84,9,-10,5,11
1537921787745468,-9,-7,-8,-5,10,1,2,7
1537921787745468,0,3,1,-2,14,4,0,3
1537921787760428,-5,-3,-16,-66,-20,0,0,-1
1537921787760428,4,0,-21,-76,-30,-1,-8,-13
1537921787768407,1,2,30,43,6,-2,1,-6
1537921787768407,-3,-3,-7,-11,1,0,2,6
1537921787775388,-1,-5,0,-35,-9,-4,-2,-1
1537921787775388,-1,3,13,16,2,3,-2,-4
1537921787782370,4,3,-7,41,-2,-4,-1,3
1537921787782370,-6,-7,-7,-7,7,1,2,4
1537921787797330,-2,0,-10,7,8,0,1,3
1537921787797330,0,-4,-24,-83,-5,7,-4,-12
1537921787806306,0,2,40,71,-18,-17,-3,-3
1537921787806306,-11,-10,2,33,10,1,8,13
1537921787820268,0,-3,-12,3,22,2,2,2
1537921787820268,-1,3,-20,-85,-56,1,-8,-12
1537921787828247,12,0,3,-3,2,-14,-5,-8
1537921787828247,-16,-8,8,43,25,4,9,14
1537921787835228,-5,-5,-8,7,1,0,3,5
1537921787835228,2,-1,-12,-33,-23,-6,-4,-4
1537921787843207,-2,-10,-10,-18,6,15,-4,-10
1537921787843207,6,12,9,-8,-6,-5,-9,-19
1537921787858167,5,2,2,-42,-15,-2,8,13
1537921787858167,-6,-4,0,78,36,5,2,4
1537921787866146,-2,-2,-30,-100,-28,10,-4,-7
1537921787866146,12,17,56,73,-2,-13,-9,-7
1537921787880109,-4,16,25,86,63,9,7,12
1537921787880109,-3,-2,5,-10,-1,-1,0,0
1537921787888087,-2,-1,-24,-73,-57,-3,-9,-11
1537921787888087,31,23,-1,-39,-10,-12,0,4
1537921787903047,-34,-43,-4,83,69,7,-1,3
1537921787903047,-3,7,7,40,-4,-12,1,9
1537921787904045,0,14,11,-52,-15,19,-12,-23
1537921787904045,20,-11,-15,-79,-58,-21,-5,-5
1537921787918007,-16,-14,-20,26,3,-7,1,8
1537921787918007,-4,3,1,-9,25,11,2,-2
1537921787925986,5,2,2,-97,-94,-21,-9,-14
1537921787925986,5,6,20,16,50,11,-1,-6
1537921787939948,-10,-21,-21,95,73,5,11,18
1537921787939948,-3,-3,-19,5,7,-1,2,12
1537921787948924,2,6,-4,-74,-39,-3,-9,-13
1537921787948924,1,12,24,65,-39,-6,-6,-6
1537921787963885,5,2,13,18,-23,-6,-52,-2
1537921787963885,-7,-7,-8,-3,20,-4,-114,-5
1537921787963885,-2,-3,-11,30,3,0,-114,22
1537921787963885,-36,-1,9,-11,-44,6,-43,-4
1537921787977847,-101,0,34,50,-128,-12,37,10
1537921787977847,-120,-13,22,127,70,3,127,27
1537921787985826,-128,-3,12,127,127,-61,108,-16
1537921787985826,-53,-1,-12,29,127,83,42,-106
1537921787999789,48,31,17,-104,105,100,-123,-115
1537921787999789,71,-4,57,-112,92,-98,-104,-128
1537921788008764,92,-74,-93,-55,4,-39,-50,80
1537921788008764,65,-51,-88,-125,-75,60,-33,122
1537921788023725,126,7,-41,-128,-128,96,34,123
1537921788023725,127,18,-30,-112,-128,127,75,30
1537921788023725,127,40,12,-117,-84,55,62,-91
1537921788023725,122,2,-47,-125,-115,0,-47,-107
1537921788037687,127,18,-42,-128,-57,-48,21,-128
1537921788037687,126,11,9,53,18,-65,-18,-102
1537921788045666,-89,-2,2,127,35,-55,-19,-49
1537921788045666,-124,-3,24,127,72,-48,-50,-52
1537921788060626,-128,-2,36,127,37,-41,-127,10
1537921788060626,-128,-4,20,108,3,-23,-86,54
1537921788068605,-108,3,48,127,5,18,-28,58
1537921788068605,-128,-4,26,81,3,-3,22,67
1537921788083565,-114,-1,18,63,18,-46,39,36
1537921788083565,-89,-2,8,66,-23,-1,34,37
1537921788084562,-34,-3,-5,8,7,24,12,16
1537921788084562,-23,4,29,-3,14,-17,23,19
1537921788097528,5,4,9,4,7,-24,27,-11
1537921788097528,-14,-1,-22,-22,-19,18,8,7
1537921788105506,12,0,8,4,18,26,10,11
1537921788105506,19,2,-9,-38,0,-19,7,-4
1537921788120466,8,-3,-6,-29,-15,-12,17,-12
1537921788120466,-4,-4,-10,1,5,16,8,6
1537921788128445,15,0,0,-36,7,1,-2,-5
1537921788128445,18,-2,-23,-80,-15,-11,1,-9
1537921788143405,9,3,15,39,-4,-1,4,-2
1537921788143405,-9,-3,7,49,35,4,1,7
1537921788144402,19,1,1,-22,-1,1,-4,-6
1537921788144402,7,0,-2,6,-7,-3,-4,0
1537921788157367,3,-2,-18,-40,0,-1,1,1
1537921788157367,0,0,-9,-45,-19,-4,-6,-2
1537921788166343,4,-2,10,10,5,6,-2,-4
1537921788166343,2,-1,-3,-9,-3,3,2,4
1537921788180306,1,-4,-5,1,8,-10,0,-5
1537921788180306,0,-1,-1,2,-10,-2,1,1
1537921788188285,4,0,0,-3,5,8,0,-1
1537921788188285,1,0,4,2,-2,-10,-1,0
1537921788203245,4,-6,-8,-16,6,-4,-2,-5
1537921788203245,-3,0,-2,-32,-17,-2,-3,-1
1537921788204242,0,-4,1,31,8,7,-1,3
1537921788204242,5,3,-1,9,2,-4,-3,-2
1537921788218205,2,3,7,-18,-10,-5,-2,-3
1537921788218205,-4,0,2,-1,-3,2,-1,4
1537921788226183,3,4,-2,-13,1,-2,-2,-4
1537921788226183,-1,0,6,20,12,-1,-2,0
1537921788240146,-4,-1,-5,13,1,-2,3,1
1537921788240146,-2,-5,-21,-63,-21,-1,-4,-1
1537921788248125,3,1,13,7,-3,-1,-3,-5
1537921788248125,2,1,7,27,6,0,-1,3
1537921788263085,-2,-3,-1,-18,-2,-1,0,-1
1537921788263085,-2,0,-1,10,1,-2,0,-1
1537921788264083,0,0,-7,-18,0,1,-5,-1
1537921788264083,-1,0,12,6,-2,2,-2,-1
1537921788278045,1,3,-2,-5,1,-2,0,1
1537921788278045,-3,-4,0,3,-1,0,0,-1
1537921788286023,-1,-2,-8,-11,-3,2,-1,-4
1537921788286023,-3,-1,-12,-31,-9,-3,-1,-2
1537921788299986,0,2,15,41,6,-2,0,-2
1537921788299986,-3,-2,-2,-4,0,1,-1,-1
1537921788307964,2,4,7,22,8,0,-1,4
1537921788307964,0,-3,-4,-20,-4,-1,1,-3
1537921788322925,-2,-2,1,0,-2,-1,-4,-1
1537921788322925,0,-6,-10,25,-1,2,-1,2
1537921788323922,-1,2,7,-18,4,1,-2,-2
1537921788323922,1,-1,-3,11,-7,-2,1,1
1537921788338882,2,-2,2,-31,1,-4,0,-2
1537921788338882,-3,0,9,41,9,1,-1,-1
1537921788345863,-2,0,-9,-5,-2,-2,-1,-2
1537921788345863,2,-3,-3,-8,-9,-3,-4,-1
1537921788359826,-3,-1,-6,-11,-4,-1,-1,-3
1537921788359826,4,3,3,-12,-5,-1,-1,0
1537921788368802,1,-4,-2,-12,1,3,2,1
1537921788368802,-1,-1,0,27,4,-2,-2,-3
1537921788382765,-1,0,-7,-20,0,2,1,0
1537921788382765,0,-2,-1,-11,-8,-3,-3,-3
1537921788391741,0,1,0,10,-3,3,3,3
1537921788391741,-3,1,9,1,9,-2,0,-1
1537921788397725,-3,0,9,34,0,-1,0,1
1537921788397725,0,-1,-6,-17,0,-4,-1,5
1537921788406701,1,-1,-3,-11,-1,3,-1,-2
1537921788406701,0,3,-1,-47,-9,-3,-4,-3
1537921788420664,2,-5,-6,48,4,-1,1,-1
1537921788420664,-4,-1,-2,-7,3,2,3,-1
1537921788429640,1,2,3,8,1,-1,-3,1
1537921788429640,-4,-1,-2,7,1,0,0,2
1537921788442605,0,1,-9,-38,-8,1,-3,-7
1537921788442605,-2,1,14,14,-5,0,0,-2
1537921788451581,-3,-3,1,5,-1,-6,-2,1
1537921788451581,0,3,5,22,9,2,0,1
1537921788457565,-1,-1,-6,-5,-2,1,-1,1
1537921788457565,-1,-2,-11,-20,-3,-1,-3,-3
1537921788466542,0,-7,-5,-15,-7,-3,1,-1
1537921788466542,-1,2,8,22,-1,0,-1,0
1537921788480504,-1,-3,1,-11,2,1,-1,-2
1537921788480504,1,5,6,13,2,-1,3,2
1537921788489479,-2,-2,-9,-23,-4,-1,-2,-2
1537921788489479,2,-4,-9,-9,-6,1,-2,-3
1537921788502445,1,4,17,24,6,-4,1,-2
1537921788502445,-4,-4,-6,-9,1,-1,-2,1
1537921788511420,0,0,-11,-27,-6,1,0,-1
1537921788511420,-1,-1,1,3,2,3,1,1
1537921788517404,-2,-1,11,8,2,-2,-2,-3
1537921788517404,-1,1,3,25,4,-1,3,0
1537921788526381,-3,-4,-10,-14,-21,-4,-3,1
1537921788526381,-4,0,-5,12,2,0,-1,0
1537921788540343,2,2,0,-19,8,1,2,1
1537921788540343,1,-4,-6,-15,-2,-2,-2,-1
1537921788549320,-1,2,11,10,8,2,-2,-3
1537921788549320,-1,0,-6,-16,-10,-2,0,1
1537921788563282,0,-1,-3,-10,-9,-2,0,0
1537921788563282,0,-2,2,-9,0,0,-1,-1
1537921788571261,-3,-4,-2,34,10,1,0,1
1537921788571261,-3,-2,0,2,0,-4,-2,0
1537921788578242,-2,-2,-12,-19,-2,1,-1,1
1537921788578242,1,1,8,13,-2,0,-3,-2
1537921788586221,2,2,3,-7,3,2,2,-1
1537921788586221,-1,-4,-5,1,-1,0,1,-1
1537921788600184,-4,0,4,-8,-4,0,0,-1
1537921788600184,-2,-3,-6,-9,-6,-2,1,-2
1537921788610157,-2,-1,9,17,4,0,-4,-2
1537921788610157,0,-2,-12,-17,-4,-3,-4,-2
1537921788623122,3,-8,-8,-23,-6,0,-1,0
1537921788623122,-4,0,1,20,3,-3,-2,-1
1537921788632098,-2,4,9,42,9,1,1,0
1537921788632098,-2,-2,-1,-7,3,-2,-2,1
1537921788638082,0,0,-3,-17,-9,0,-2,-5
1537921788638082,0,-4,-16,-57,-11,1,-3,-5
1537921788647058,2,2,16,3,2,-3,-2,-3
1537921788647058,-2,-7,-1,66,5,0,5,7
1537921788660023,-3,2,1,1,10,-1,-1,8
1537921788660023,-2,-1,4,22,11,1,-2,0
1537921788668999,1,-6,-16,-47,-16,-2,-1,-3
1537921788668999,3,4,0,-24,-9,-3,2,-5
1537921788682962,-1,2,10,30,3,-1,0,-2
1537921788682962,-1,0,-3,-13,-1,-1,-1,1
1537921788691938,0,2,-2,4,-1,1,-2,-2
1537921788691938,-1,-4,3,-7,0,-2,-1,-1
1537921788697922,-2,-3,-15,-12,-2,1,2,-1
1537921788697922,-1,1,7,0,-15,0,-2,-4
1537921788706898,-2,1,5,27,-1,-1,0,2
1537921788706898,0,-3,-13,-38,3,0,-4,0
1537921788719864,-2,0,6,25,-1,-3,-1,-3
1537921788719864,-2,-1,4,11,13,1,0,1
1537921788728840,-2,-2,-2,1,-6,0,1,0
1537921788728840,0,2,-1,-13,-1,1,0,-3
1537921788742802,-2,-1,-2,-2,-4,-2,-5,-3
1537921788742802,-1,-1,1,5,-2,-4,0,-1
1537921788751778,-2,-4,-7,-11,-3,-2,-1,0
1537921788751778,1,2,-2,-2,-2,0,0,-2
1537921788757762,-2,-1,0,-15,-1,-2,-1,-1
1537921788757762,-2,-4,0,24,-3,-1,1,3
1537921788766739,-1,2,5,-7,2,0,2,-3
1537921788766739,0,-2,2,1,-4,-4,-3,0
1537921788780701,-1,-3,-9,0,-1,-1,-1,1
1537921788780701,0,1,-3,-18,-5,-3,-2,-3
1537921788788680,-2,-4,-10,-12,-5,-2,-1,0
1537921788788680,1,-1,13,15,9,1,0,-1
1537921788803640,-1,5,7,27,-3,0,0,3
1537921788803640,-1,-4,-13,-23,0,1,-1,0
1537921788810621,-1,-3,4,-14,-2,1,-3,1
1537921788810621,2,3,10,12,-4,1,0,-2
1537921788826578,-3,-5,-7,5,4,0,1,1
1537921788826578,1,3,3,10,0,-1,-6,-1
1537921788828573,-2,-2,3,9,2,-4,1,-2
1537921788828573,0,-1,-8,-23,-5,-1,-2,-2
1537921788840541,2,0,-1,-6,-4,0,0,-3
1537921788840541,-1,0,0,-2,1,-2,3,0
1537921788849517,-2,0,-13,-20,-1,-2,-4,-2
1537921788849517,-2,-1,7,-32,-7,-3,-2,-2
1537921788863480,-3,2,11,72,9,0,2,-1
1537921788863480,0,1,5,18,5,0,0,3
1537921788870461,0,1,-2,19,2,0,1,0
1537921788870461,-4,-2,-9,-12,-4,-1,0,0
1537921788886419,0,-4,-3,-41,-9,-2,-1,-4
1537921788886419,-1,-3,-2,-11,-4,-1,-2,0
1537921788892403,0,0,4,11,0,0,-2,-2
1537921788892403,-2,-2,-2,1,-5,1,0,1
1537921788900381,0,-4,-2,-16,-1,1,-1,1
1537921788900381,0,-3,-14,-28,-2,-1,1,-3
1537921788909357,3,2,10,22,-1,-2,1,-1
1537921788909357,-4,0,-2,-19,-1,-2,-1,0
1537921788923320,0,0,4,29,-4,0,0,-1
1537921788923320,-5,-2,7,22,5,-1,0,0
1537921788930302,-1,-2,-8,-19,7,1,-1,-1
1537921788930302,0,-1,2,10,-2,0,0,-2
1537921788946259,1,4,0,-23,-6,-2,-3,-2
1537921788946259,1,-3,-14,-14,-7,-3,1,1
1537921788948253,-2,-2,8,-2,-4,0,-2,-2
1537921788948253,-2,1,7,19,8,1,0,-1
1537921788960221,0,1,1,-3,2,2,-3,1
1537921788960221,0,-2,-2,10,0,-1,-1,-3
1537921788969197,-3,-1,-5,-5,1,-3,0,-2
1537921788969197,2,-4,-10,-35,-5,0,-4,2
1537921788983160,0,-1,10,19,-8,2,0,-6
1537921788983160,3,5,16,2,10,-2,-2,0
1537921788990141,-2,-3,2,39,7,2,4,4
1537921788990141,-4,0,-11,4,1,-3,-1,-2
1537921789007096,-2,-8,-29,-35,-6,-4,0,2
1537921789007096,3,7,1,-79,-13,6,-5,-12
1537921789008093,7,-2,25,21,-14,-2,-2,-5
1537921789008093,-10,-9,4,66,14,-10,7,12
1537921789020061,-1,-3,-22,8,5,6,-3,2
1537921789020061,8,12,-26,-92,1,11,-5,-5
1537921789029037,7,18,63,61,1,-9,-4,-3
1537921789029037,-16,-13,22,112,18,1,4,-3
1537921789043000,-8,-2,-15,13,-4,-8,3,8
1537921789043000,-4,-11,-29,-55,-43,-2,-9,-16
1537921789051976,18,12,-2,34,11,4,12,16
1537921789051976,-7,0,-11,-80,5,1,-2,-1
1537921789066936,8,8,33,39,13,6,-2,-8
1537921789066936,-8,-16,-21,-41,-17,-6,3,1
1537921789067933,-6,-3,-10,-35,-2,-4,-8,-8
1537921789067933,5,4,22,100,4,-5,2,6
1537921789079901,-2,10,-4,-100,-3,4,0,-4
1537921789079901,13,7,13,127,25,0,1,11
1537921789088878,-25,-30,-39,-51,-11,-10,2,6
1537921789088878,3,-1,-42,-101,-14,4,-7,-8
1537921789102840,13,26,34,-31,3,1,-10,-16
1537921789102840,-2,-17,20,28,10,-4,1,-1
1537921789111816,-11,-5,15,104,1,-6,-3,7
1537921789111816,-6,0,-17,-9,-2,8,2,-2
1537921789126776,8,14,-27,-104,-53,11,0,-10
1537921789126776,14,10,71,93,50,-5,0,5
1537921789127773,-25,-36,-47,-11,2,-12,14,17
1537921789127773,-4,4,-6,-26,-10,0,-14,-6
1537921789139741,-5,-15,-19,-29,-10,1,-5,2
1537921789139741,5,17,-30,-72,-39,14,5,7
1537921789148717,25,25,34,-8,32,4,-5,-16
1537921789148717,-3,-6,32,87,8,-25,0,9
1537921789163677,-31,-32,-27,7,24,-15,7,-12
1537921789163677,-16,-1,-10,16,-24,0,-6,-4
1537921789170658,29,12,-39,-107,-8,25,1,12
1537921789170658,21,20,36,-81,-22,14,5,16
1537921789186616,6,3,65,127,46,-6,0,-6
1537921789186616,-29,-36,-43,-22,16,-21,-4,-4
1537921789187614,-10,8,-10,-21,-25,-5,-6,-17
1537921789187614,0,-1,-27,-56,-5,3,-1,-12
1537921789200579,1,1,1,-9,-10,-5,-6,1
1537921789200579,1,10,23,17,3,2,0,-1
1537921789216536,-1,4,17,8,-5,1,-2,0
1537921789216536,-5,-16,-15,6,-18,-7,-2,-5
1537921789223518,-7,-3,-1,16,13,-7,2,9
1537921789223518,2,1,-3,10,-3,-3,-3,1
1537921789230499,-4,-8,-22,-64,-11,6,3,-1
1537921789230499,8,7,14,13,9,9,8,3
1537921789246456,8,7,16,59,16,18,6,13
1537921789246456,-3,-1,3,18,9,0,2,-1
1537921789248451,-6,2,5,9,-3,-9,-9,-12
1537921789248451,-5,0,-3,-13,-11,-8,-6,-10
1537921789260419,-1,-10,-40,-45,-15,-3,2,5
1537921789260419,1,2,14,-51,-14,-3,0,-2
1537921789269395,-3,1,32,90,31,4,-3,-9
1537921789269395,0,-6,-9,4,-1,2,2,1
1537921789283357,-1,0,-1,11,7,-4,0,7
1537921789283357,2,-3,-12,-13,-18,-1,1,0
1537921789290339,-1,-2,-16,-49,-13,-3,-3,1
1537921789290339,1,3,-4,-22,6,4,-1,-2
1537921789306296,2,5,19,18,-12,-4,-3,-4
1537921789306296,-4,-2,1,20,0,0,1,6
1537921789308291,-2,0,-3,9,8,1,1,0
1537921789308291,0,-1,-11,-11,-1,-2,-1,-5
1537921789320258,1,-3,0,-7,-1,-3,-2,-3
1537921789320258,4,1,3,12,9,-1,2,2
1537921789329234,-3,-2,3,-2,1,-1,1,-1
1537921789329234,3,-4,-6,-25,-15,-3,-2,-3
1537921789343197,-1,-2,-4,-14,-14,-3,-3,0
1537921789343197,1,6,9,46,29,6,6,3
1537921789350178,-1,-2,2,1,2,1,1,0
1537921789350178,0,1,4,1,0,-7,-2,-4
1537921789366136,-4,-9,-15,-25,-12,-4,0,1
1537921789366136,1,3,4,-17,-5,0,-3,-4
1537921789368131,0,-4,-10,-5,-4,1,-1,0
1537921789368131,-2,2,9,24,7,0,-4,-1
1537921789380099,-1,-5,-16,-28,0,0,1,-3
1537921789380099,0,7,16,31,-5,-5,3,0
1537921789389076,-2,-5,2,-6,-4,4,0,-3
1537921789389076,-2,2,-1,12,1,-2,0,1
1537921789403038,-2,-5,-8,-3,1,-2,-2,0
1537921789403038,0,-2,-11,-43,-6,-2,-4,-7
1537921789410019,2,4,8,33,1,-3,-1,-1
1537921789410019,2,1,2,19,11,6,2,-1
1537921789426974,0,-2,2,0,-2,-4,-2,-1
1537921789426974,-4,-6,-7,-6,-7,-2,-1,0
1537921789427971,0,0,-3,-20,-4,1,-2,-2
1537921789427971,0,2,0,-8,-1,0,-3,-5
1537921789439939,-1,2,2,28,0,2,3,3
1537921789439939,2,-2,-3,12,8,-4,-2,0
1537921789448915,-5,-8,-17,-31,-8,-3,1,1
1537921789448915,0,6,19,14,4,2,-2,1
1537921789463875,-1,-6,-7,-8,2,1,-4,-2
1537921789463875,-1,-2,-6,-24,-7,-1,-1,-3
1537921789469859,-1,1,5,24,-1,0,-3,-4
1537921789469859,-1,-1,5,7,7,2,-1,-3
1537921789485816,-1,1,9,10,-1,-3,-1,4
1537921789485816,0,-1,-3,8,2,2,0,0
1537921789493795,2,-1,-14,-29,-5,-4,-4,-2
1537921789493795,1,-6,-4,-7,-12,-2,0,-1
1537921789499779,-1,1,1,-5,2,0,0,0
1537921789499779,-2,2,6,15,-1,1,-1,1
1537921789508756,0,2,3,-17,-2,0,-1,-1
1537921789508756,-1,0,3,22,2,-5,-1,0
1537921789523715,-1,0,-4,-7,0,-1,1,-1
1537921789523715,0,-5,-11,-32,-9,0,0,1
1537921789530697,0,3,8,-5,-1,2,0,-3
1537921789530697,0,-6,-1,44,10,-2,0,0
1537921789546654,-3,-1,5,-1,-3,-4,-3,2
1537921789546654,0,3,7,19,4,3,0,-4
1537921789547652,1,-3,-11,-29,-11,-6,-1,2
1537921789547652,-3,-2,-12,-22,-4,3,0,-3
1537921789560616,-1,0,4,-5,-1,-2,2,-2
1537921789560616,-1,-2,4,-18,0,0,-1,0
1537921789569592,1,0,12,61,10,3,-3,0
1537921789569592,-2,-4,-12,-28,-6,-5,0,3
1537921789583555,-1,-6,-11,-14,0,2,-1,-2
1537921789583555,-1,-1,14,29,3,0,-1,0
1537921789590536,1,7,3,0,5,1,1,1
1537921789590536,0,3,1,0,-4,0,-1,-1
1537921789605497,-1,0,-10,-5,6,-3,0,-1
1537921789605497,-3,-1,-5,-10,-9,-4,0,-2
1537921789612478,-3,-1,-4,-7,-3,-2,-1,-1
1537921789612478,-1,1,2,7,-4,0,-2,-1
1537921789620456,-1,0,3,-12,-3,1,1,1
1537921789620456,0,-1,6,18,2,-2,-2,0
1537921789629433,-2,-5,-16,-38,-3,1,-2,1
1537921789629433,2,3,14,32,4,-2,-1,2
1537921789643395,-2,1,13,20,-3,-1,0,1
1537921789643395,0,-5,-11,10,4,-1,0,-1
1537921789650376,-1,-5,-11,-32,-7,-2,1,-2
1537921789650376,-1,-6,-7,-33,-4,1,-1,-4
1537921789666333,1,4,10,18,2,1,-1,-2
1537921789666333,-1,3,0,1,-1,-3,2,1
1537921789672317,0,-3,-9,-18,-4,0,0,-3
1537921789672317,-2,-1,7,46,6,0,-1,-1
1537921789680296,-2,-2,0,9,-3,-3,-2,-1
1537921789680296,1,-1,-21,-46,-3,-1,-2,-2
1537921789689272,1,-2,15,22,-1,-1,-1,-1
1537921789689272,-3,2,9,4,-4,-1,-1,-1
1537921789703235,1,-2,-4,3,3,-1,-2,2
1537921789703235,-4,-4,-13,-3,1,-1,-1,0
1537921789710216,-2,4,8,1,-1,1,1,-1
1537921789710216,0,-3,-16,-33,-8,-4,1,-1
1537921789726173,1,2,7,-5,-6,0,-2,-5
1537921789726173,-1,0,13,49,7,0,2,3
1537921789733155,-2,-3,-6,10,1,-2,1,3
1537921789733155,0,0,0,-15,-4,0,-3,0
1537921789740136,-2,-4,-18,-31,-9,-2,-2,-3
1537921789740136,0,-1,-1,-31,-12,-1,-1,-5
1537921789749112,-2,-2,9,23,6,-3,-3,-4
1537921789749112,1,2,6,33,7,-1,2,0
1537921789763075,-1,-4,-6,-13,-2,-3,-3,1
1537921789763075,-1,1,7,25,2,3,-2,1
1537921789770056,1,-2,-7,-21,-6,-2,-2,0
1537921789770056,-2,-3,-15,-50,-10,-2,-2,-2
1537921789786014,1,0,4,23,9,1,-1,-1
1537921789786014,-3,4,21,29,10,5,0,-3
1537921789792995,-1,-2,-2,9,4,-2,0,0
1537921789792995,-1,-2,-6,-4,-2,-5,-2,-1
1537921789808952,-3,-5,-17,-16,-9,-1,1,1
1537921789808952,2,1,-12,-83,-13,-3,-4,-4
1537921789810947,4,8,25,69,-4,4,2,-2
1537921789810947,-4,-7,12,36,10,3,3,2
1537921789823912,-4,-5,-13,-13,-5,-6,1,3
1537921789823912,2,2,2,5,6,3,-3,-4
1537921789829896,-2,-10,-31,-99,-27,-5,-5,-9
1537921789829896,-2,-1,25,72,5,-5,-3,-2
1537921789845853,-4,-4,-9,54,24,6,6,9
1537921789845853,2,-3,-21,-63,-33,-9,-7,-8
1537921789852835,-5,6,54,84,2,6,3,0
1537921789852835,11,25,-3,-48,24,9,-6,-9
1537921789868792,5,-24,-33,-11,-20,-6,5,8
1537921789868792,-23,-36,-77,-12,31,3,10,15
1537921789870787,1,7,8,-116,-47,-11,-7,-5
1537921789870787,10,6,3,39,-34,-14,1,8
1537921789883752,-6,16,15,14,60,14,-1,-5
1537921789883752,11,0,19,-40,-20,-1,-4,-2
1537921789889736,-8,-5,27,124,33,-2,-4,-6
1537921789889736,-5,-1,7,-45,-49,-6,-5,-10
1537921789905693,-3,1,-6,-16,-3,-9,-7,-18
1537921789905693,6,21,9,50,55,30,11,1
1537921789912675,25,29,28,-19,3,14,5,24
1537921789912675,-8,-12,-11,-19,-10,-13,-9,-4
1537921789928632,-8,-30,-31,-21,-28,-14,1,9
1537921789928632,-15,-5,-4,18,12,-6,-7,1
1537921789930628,8,11,-21,-29,10,5,-4,2
1537921789930628,-3,7,-3,-54,-13,-1,-10,-15
1537921789943592,-8,9,47,29,-13,-5,-5,-13
1537921789943592,7,-2,12,29,-22,-28,-11,-24
1537921789950574,-25,-25,-14,7,10,-9,-11,-22
1537921789950574,11,-5,-26,-7,29,29,29,39
1537921789965534,30,15,6,-25,0,32,26,73
1537921789965534,10,10,24,9,2,11,-8,-7
1537921789972515,-7,-10,-17,-34,-18,-23,-9,-15
1537921789972515,-24,-14,6,43,4,-18,-14,-30
1537921789989470,-14,4,12,46,22,-4,-8,-24
1537921789989470,-1,4,-4,0,-22,-8,7,12
1537921789990468,16,2,-30,-29,0,-1,0,7
1537921789990468,-3,-4,1,-33,8,5,3,-3
1537921790003433,3,7,2,-13,-14,2,-1,-3
1537921790003433,-5,-5,2,-6,-23,-5,-4,-2
1537921790010414,-10,-10,-1,23,21,3,7,2
1537921790010414,3,3,7,31,17,10,4,11
1537921790026371,4,0,-2,-16,-13,-4,-9,-17
1537921790026371,-5,-2,2,-12,-7,-3,0,-6
1537921790032356,-4,-3,-10,22,4,0,3,6
1537921790032356,3,-6,-5,-27,-8,-2,3,9
1537921790049310,-6,-4,-8,3,-2,-5,-5,-16
1537921790049310,-2,2,21,10,7,0,1,3
1537921790050308,6,6,11,25,6,7,8,9
1537921790050308,-2,-2,-8,-2,3,-1,-2,2
1537921790062275,-5,-2,8,-9,-4,-3,-4,-10
1537921790062275,2,0,-7,-2,-6,3,2,5
1537921790071251,-1,-1,6,-10,3,3,1,-4
1537921790071251,-3,-4,-5,17,9,-6,0,-4
1537921790086211,-1,4,2,-7,-4,-3,-3,-3
1537921790086211,1,-3,-2,24,5,-1,2,4
1537921790093192,-5,-9,-12,-20,-10,-2,0,-1
1537921790093192,0,0,-6,-34,-4,0,-3,-4
1537921790109150,3,5,7,1,-6,-3,0,0
1537921790109150,0,-1,12,20,6,3,3,5
1537921790110148,-3,-5,-3,27,7,1,1,1
1537921790110148,0,3,0,-1,0,2,0,-1
1537921790123113,0,-3,-4,-14,2,-1,-3,-1
1537921790123113,-2,2,-11,-28,-10,-3,-6,-3
1537921790132089,-1,0,3,3,0,1,1,2
1537921790132089,0,-3,0,20,0,-3,-1,0
1537921790146051,-2,-1,2,5,3,3,-1,-5
1537921790146051,-1,-4,3,-5,4,-1,2,-2
1537921790153032,-1,0,-9,-21,-6,-1,2,3
1537921790153032,-2,-2,-2,-2,-6,0,-3,-3
1537921790168989,-1,3,11,-4,-7,-2,-2,-2
1537921790168989,-2,-2,-2,12,5,-2,0,0
1537921790170984,-2,-2,-7,-8,0,0,0,0
1537921790170984,-2,2,1,-1,-5,-4,-1,-1
1537921790182952,-1,1,-3,20,4,0,1,1
1537921790182952,-1,-1,-9,-4,1,0,-1,0
1537921790191928,-2,-5,-4,-5,-2,2,-2,-5
1537921790191928,4,2,2,-8,-1,1,0,-1
1537921790205891,-1,0,1,-11,-11,-4,-2,-2
1537921790205891,-3,1,3,20,2,-2,0,2
1537921790212873,1,-1,-7,-8,3,-3,1,1
1537921790212873,0,-2,4,-3,1,1,-1,-2
1537921790228830,1,-1,1,-1,-1,-1,-3,-2
1537921790228830,0,-3,-6,-25,-8,0,1,-2
1537921790230825,0,-4,-18,-1,-6,-1,-1,-1
1537921790230825,1,0,7,-33,-11,-1,1,0
1537921790242793,-1,5,30,76,17,0,0,2
1537921790242793,0,-5,1,26,2,-4,1,3
1537921790251769,-1,1,-4,-14,-3,-1,-1,-1
1537921790251769,0,-6,-19,-17,-2,0,-1,-3
1537921790265731,0,-1,-12,-40,-9,1,0,-2
1537921790265731,2,3,8,2,2,-2,0,1
1537921790272713,0,0,8,16,1,2,1,1
1537921790272713,-2,-2,-5,-1,3,0,-1,-1
1537921790288670,-2,-5,-14,-24,-5,-3,0,0
1537921790288670,-1,-2,10,14,1,-1,-2,-3
1537921790290665,-1,-1,-2,-1,0,1,-2,3
1537921790290665,-2,-2,-1,8,5,1,-1,-4
1537921790302632,-3,0,2,-3,-2,-2,0,0
1537921790302632,-1,1,-5,-11,-2,3,1,0
1537921790311608,0,3,3,-14,-5,-2,-3,-3
1537921790311608,-2,-3,4,9,2,-1,0,0
1537921790325571,0,-2,-10,-1,3,2,0,0
1537921790325571,0,2,4,16,3,-1,-2,0
1537921790332552,-2,1,10,-10,-3,-2,1,2
1537921790332552,0,0,-5,16,8,1,-3,0
1537921790349507,-3,0,-2,-13,-6,1,0,-2
1537921790349507,-1,0,-5,-6,-2,1,3,-3
1537921790350505,-1,0,1,-9,-1,0,-2,-2
1537921790350505,-1,-1,-1,20,-3,-1,-1,0
1537921790362472,0,2,2,-10,-2,0,-2,0
1537921790362472,2,0,2,2,4,1,0,-1
1537921790371449,-2,-2,-7,-13,-2,0,1,-2
1537921790371449,-3,3,6,-9,-2,-1,3,-1
1537921790386408,-2,-4,0,17,5,0,-3,-1
1537921790386408,-1,-1,-4,-9,-4,-3,-1,0
1537921790392393,-1,-1,-5,1,0,-2,-2,-4
1537921790392393,2,1,-3,-11,2,-1,-2,-1
1537921790409348,1,-1,6,16,-4,-2,0,-1
1537921790409348,-2,-5,-6,-4,-1,0,-2,1
1537921790410345,-2,-9,-14,-10,-1,-3,-1,0
1537921790410345,-3,-5,14,1,-3,-3,-1,1
1537921790422313,-1,0,10,8,-2,1,2,-1
1537921790422313,2,0,-9,-7,-2,0,-3,-2
1537921790431289,1,6,10,15,1,1,-2,-2
1537921790431289,-3,7,-8,-2,-2,-2,0,3
1537921790446249,-3,7,-2,-21,-3,0,-1,-2
1537921790446249,-1,14,4,0,-5,-1,0,1
1537921790453230,0,5,-6,6,8,1,1,0
1537921790453230,-2,-5,-2,4,1,0,0,-2
1537921790469187,2,-9,2,-4,0,0,-4,-3
1537921790469187,0,-7,-5,-7,-10,-6,1,0
1537921790470185,-3,-7,-1,-20,-7,-2,-2,2
1537921790470185,2,-1,4,18,4,1,-2,0
1537921790483150,-1,-3,-6,11,1,-2,1,-2
1537921790483150,-1,-2,-3,-15,-1,2,0,-1
1537921790492126,0,1,3,-5,-5,-2,-2,-3
1537921790492126,-4,-6,-4,-2,-5,-3,0,-2
1537921790506089,0,2,-5,-5,2,3,1,-1
1537921790506089,-1,-2,3,2,0,0,-2,0
1537921790513070,-3,1,5,4,-2,-5,1,-2
1537921790513070,-1,3,6,17,5,1,1,0
1537921790528030,1,2,-3,-7,1,-1,-2,0
1537921790528030,-1,-6,-3,4,-7,-5,-2,2
1537921790535012,-8,-11,-11,4,0,-2,-1,0
1537921790535012,3,4,-3,-15,-4,0,0,-1
1537921790542990,0,-1,2,-6,-4,-3,-1,0
1537921790542990,-2,0,5,3,4,2,-1,-2
1537921790551966,0,2,3,0,1,-1,-1,0
1537921790551966,-2,-2,2,10,-3,-2,-1,1
1537921790565929,-2,-4,-7,-14,-5,-1,-3,0
1537921790565929,0,0,-2,5,1,-1,1,-2
1537921790572910,0,-2,-1,-4,0,2,-1,-3
1537921790572910,-1,0,-3,-8,-5,1,-1,-2
1537921790588867,1,3,4,-1,1,-2,-1,0
1537921790588867,0,-5,-9,-59,-7,-5,-2,-3
1537921790594851,-1,4,17,92,4,0,-1,2
1537921790594851,-1,2,6,5,10,2,1,1
1537921790602830,-2,-3,-5,-2,-6,-1,-1,1
1537921790602830,0,0,-8,-5,-4,0,0,-2
1537921790611806,1,-3,-12,-36,-4,1,-3,-3
1537921790611806,0,4,8,-11,-2,-1,-3,-5
1537921790625769,-2,-5,-4,11,1,-1,0,1
1537921790625769,-5,-7,-3,-4,3,1,0,1
1537921790632750,0,1,2,0,-5,-6,-1,-1
1537921790632750,-2,-4,-9,11,2,1,1,1
1537921790648707,-2,-2,3,-13,-1,0,0,-2
1537921790648707,1,2,4,21,-2,-1,-3,2
1537921790655689,-1,1,0,-7,0,0,2,0
1537921790655689,-3,-3,-11,-18,-3,-2,-1,-2
1537921790662670,0,2,6,9,1,0,-1,0
1537921790662670,-2,-1,6,9,1,0,-1,-2
1537921790671646,2,3,-2,0,-3,2,0,-2
1537921790671646,-1,-1,-9,-19,5,-1,1,0
1537921790685609,-1,-3,-8,1,-6,-1,-4,-1
1537921790685609,0,3,13,28,8,0,0,-1
1537921790692590,0,-3,-1,5,7,1,0,1
1537921790692590,3,0,0,-6,-2,0,-2,1
1537921790708548,-1,-1,-11,-7,-2,0,2,-1
1537921790708548,-1,-3,8,-12,-4,-1,-1,-2
1537921790715529,0,-5,-7,4,-5,-3,-1,2
1537921790715529,-1,1,8,21,6,4,-2,-3
1537921790731486,-1,0,-9,-44,-6,-2,-2,-1
1537921790731486,0,1,-7,19,2,1,-2,-2
1537921790733481,2,3,15,10,0,1,1,-3
1537921790733481,-1,-6,9,15,0,0,-1,-1
1537921790745449,0,4,2,9,-2,-5,3,0
1537921790745449,-6,-6,-23,-32,-6,2,1,1
1537921790752430,0,1,-4,-20,-1,2,-4,-2
1537921790752430,0,0,-4,2,-2,-3,-1,-3
1537921790768388,2,2,15,15,10,2,-1,-3
1537921790768388,1,-1,2,5,-2,-4,1,2
1537921790775369,-3,0,-1,4,-1,-1,-1,-1
1537921790775369,-2,-2,-7,-19,0,-1,-2,1
1537921790791326,-1,-2,1,-16,-11,-2,0,0
1537921790791326,-1,1,0,29,10,0,0,0
1537921790793321,-1,1,5,1,-2,0,0,-1
1537921790793321,0,4,0,-11,-8,-5,0,0
1537921790806286,-1,-1,0,11,1,1,-3,-1
1537921790806286,0,-3,3,1,-2,-2,2,-2
1537921790812270,-3,-6,-18,-42,-8,-3,2,1
1537921790812270,0,-1,-6,5,-3,-2,-3,-2
1537921790827230,-1,2,13,27,9,1,0,0
1537921790827230,-2,4,15,13,3,0,-3,-3
1537921790835209,2,1,-2,9,3,0,-1,1
1537921790835209,-4,-10,-16,-19,-10,-4,-2,2
1537921790851166,-3,-2,2,-20,-5,-4,-2,-1
1537921790851166,2,2,-2,13,1,2,1,1
1537921790851166,-1,3,5,-1,3,0,-1,-1
1537921790851166,1,0,1,-1,1,-1,1,-3
1537921790867124,0,-1,-5,11,1,-1,-1,-1
1537921790867124,-1,2,8,-10,-8,-2,0,0
1537921790873107,-2,-6,-10,11,6,1,-1,0
1537921790873107,1,1,4,-5,-4,-2,0,0
1537921790888067,-2,-4,-12,-15,-2,1,1,-3
1537921790888067,1,-1,-2,-20,-6,2,-3,-4
1537921790895049,1,2,14,25,4,-3,-2,-2
1537921790895049,-1,-4,-7,0,-2,0,1,2
1537921790911006,0,1,4,0,0,0,-1,-1
1537921790911006,-2,-3,-2,9,-4,-3,2,2
1537921790912003,0,3,6,-12,4,4,-5,-6
1537921790912003,0,-7,-9,9,-3,-1,-1,2
1537921790926964,-2,-3,-18,-26,-4,-2,-1,0
1537921790926964,1,0,10,3,-5,-2,-2,0
1537921790932948,-6,-4,1,14,1,-3,1,-2
1537921790932948,-4,4,11,23,6,2,1,-1
1537921790947908,-4,-2,-7,0,-3,-3,-2,-2
1537921790947908,-1,-2,-11,-24,-2,-1,-1,-1
1537921790954889,1,-1,0,-7,-8,-2,-2,-2
1537921790954889,0,0,-4,-11,1,1,-2,-3
1537921790970846,-2,-3,-13,26,2,-4,1,3
1537921790970846,2,6,27,2,9,2,-1,1
1537921790971844,0,2,1,12,0,1,-1,-1
1537921790971844,0,-2,1,-13,-3,-1,-1,-4
1537921790986804,-1,-6,-21,-28,-8,0,0,1
1537921790986804,-3,-2,-17,-19,0,-1,-2,-2
1537921790992788,0,2,16,12,4,2,1,0
1537921790992788,-2,3,13,42,3,1,-1,1
1537921791007748,1,1,6,12,3,1,-3,0
1537921791007748,-3,-3,-9,-5,-7,-5,0,0
1537921791014729,-2,-4,-9,-31,-9,-1,2,0
1537921791014729,1,7,3,-19,3,-2,-1,-1
1537921791030687,1,-6,11,37,5,1,-1,-2
1537921791030687,-5,-4,-14,-13,-6,-2,1,0
1537921791031684,-1,3,11,0,1,-1,-2,1
1537921791031684,1,1,3,6,1,-1,-2,0
1537921791046645,1,1,1,-9,-4,-3,2,1
1537921791046645,-2,-5,-8,0,5,3,-4,-3
1537921791052628,1,-4,-26,-38,-11,-4,-1,-2
1537921791052628,-5,-2,14,3,-3,-2,-1,-1
1537921791067588,0,4,15,28,12,3,0,-2
1537921791067588,0,-6,-19,-23,-7,-3,1,0
1537921791075567,0,1,4,11,-7,0,-2,0
1537921791075567,1,-3,-16,-7,2,1,1,0
1537921791090527,-2,-2,8,-32,-5,-2,0,-3
1537921791090527,-2,1,11,43,-2,-1,0,-1
1537921791091525,0,-2,-2,-6,1,1,0,2
1537921791091525,0,0,-4,-12,-13,2,-2,0
1537921791106484,-2,3,10,20,6,-3,-1,1
1537921791106484,0,-2,-25,-34,6,2,1,0
1537921791112468,-2,-5,-11,-13,-9,-3,0,-3
1537921791112468,0,4,24,43,12,4,0,-4
1537921791127428,-2,3,16,30,-4,1,-1,-1
1537921791127428,1,-2,-6,-31,-16,-3,-1,0
1537921791135407,2,-2,-17,-11,2,3,-1,-1
1537921791135407,-2,-3,3,28,7,-3,-1,1
1537921791158345,0,-6,-8,-19,-4,0,2,2
1537921791158345,1,5,-2,-23,-5,-2,-4,-2
1537921791159343,1,-1,7,15,-2,-3,-3,0
1537921791159343,-4,0,1,-34,-6,-3,3,5
1537921791166324,1,7,14,45,7,6,-3,-6
1537921791166324,1,-1,2,30,0,0,1,3
1537921791172308,-5,3,-17,-89,-20,-1,-7,-12
1537921791172308,8,-2,17,76,33,0,0,-1
1537921791187267,-12,-8,-27,-51,-9,-7,2,6
1537921791187267,-2,-1,9,51,6,3,0,-3
1537921791195246,4,6,0,13,5,0,2,3
1537921791195246,0,2,8,-25,-31,-7,-4,-8
1537921791211203,3,5,3,-8,-12,0,2,4
1537921791211203,2,0,7,-13,38,5,-1,1
1537921791211203,-4,-5,0,47,15,-3,2,1
1537921791211203,-7,-10,-28,-91,-43,1,-4,-12
1537921791226164,3,-5,-13,35,0,-2,-3,-7
1537921791226164,-3,7,23,58,20,-5,6,14
1537921791233145,-1,-2,-14,-33,-13,5,1,0
1537921791233145,3,7,-11,-27,15,-3,-2,-2
1537921791248105,6,5,38,14,1,3,-2,-5
1537921791248105,-18,-20,-13,-19,5,-2,-6,-13
1537921791255086,8,3,-17,-75,-42,-12,3,10
1537921791255086,-5,3,-6,65,43,14,-4,-6
1537921791271044,4,-5,-12,3,-20,-18,-1,6
1537921791271044,-6,-12,38,126,14,-6,5,12
1537921791272041,-1,-7,-26,-41,-2,2,-1,-3
1537921791272041,2,11,-15,-73,-30,-4,-11,-14
1537921791287001,7,-4,8,-2,25,6,8,10
1537921791287001,0,10,-3,-63,19,5,-1,-4
1537921791292985,-5,-1,25,49,-14,-8,-1,-3
1537921791292985,1,5,-8,-27,-23,5,2,-3
1537921791307945,7,19,52,85,64,8,-4,-8
1537921791307945,-9,-15,-19,30,-30,-16,-7,1
1537921791314926,-7,-7,-4,-1,12,-2,0,-3
1537921791314926,10,-1,-23,-59,-19,-7,-7,23
1537921791330884,-14,-19,-45,-106,-34,1,1,-13
1537921791330884,12,20,42,8,6,24,10,0
1537921791331881,-3,-1,23,35,14,2,-12,-14
1537921791331881,-11,-13,12,68,16,-21,2,10
1537921791346842,2,1,-24,-54,-19,3,-3,1
1537921791346842,7,10,-4,-30,0,4,-8,-14
1537921791352825,-3,-7,15,13,-10,-10,17,26
1537921791352825,-3,-11,-32,-16,-2,1,4,3
1537921791367785,-11,-1,16,45,14,-7,-13,-10
1537921791367785,-7,-4,-19,-20,-7,-1,-4,-19
1537921791374766,16,22,10,-9,-10,4,6,17
1537921791374766,1,4,22,-30,3,4,1,-6
1537921791392719,-8,-6,-8,46,10,1,1,5
1537921791392719,3,1,-10,-49,-23,0,-7,-7
1537921791392719,-2,-5,3,72,28,-1,-4,-10
1537921791392719,-1,-9,-8,-8,-10,-3,3,9
1537921791406681,0,-1,-7,-57,-11,6,-4,-8
1537921791406681,6,6,16,41,3,-7,3,7
1537921791420644,-9,-7,-9,8,4,-4,-3,-2
1537921791420644,-1,-4,-2,1,23,4,0,-3
1537921791427625,5,6,-1,-14,-21,-5,1,1
1537921791427625,-1,-10,-28,-38,-12,-3,-1,2
1537921791435604,-1,4,3,0,27,13,2,-5
1537921791435604,0,3,42,72,-8,2,2,0
1537921791450564,0,-3,-17,-22,-3,-5,1,4
1537921791450564,0,0,-6,-11,-8,-5,-2,1
1537921791457545,-4,-6,-4,-2,3,6,0,-7
1537921791457545,0,-3,-8,-18,-9,-2,-1,-2
1537921791466521,0,5,18,22,13,-3,1,-2
1537921791466521,-1,0,-3,28,1,-2,2,5
1537921791472506,-3,-3,-1,0,-2,-2,-3,-4
1537921791472506,2,4,-8,-44,-5,2,-1,0
1537921791487466,-7,-6,5,42,3,0,0,-2
1537921791487466,3,5,8,-12,-13,-1,2,0
1537921791495444,0,-5,-4,13,8,-1,-1,-1
1537921791495444,-2,-5,-14,-9,-2,-3,-1,0
1537921791510404,-1,0,-6,-56,-47,-4,-1,2
1537921791510404,0,-4,-4,12,28,2,-1,-3
1537921791517385,-3,-2,3,-11,-4,-6,-2,2
1537921791517385,-3,-6,-7,-8,-9,1,-2,-6
1537921791533343,5,12,26,55,28,3,4,6
1537921791533343,-2,-5,-12,-21,-17,1,1,3
1537921791534341,0,2,-1,-7,3,1,-3,-2
1537921791534341,0,-1,-2,12,-6,-5,4,0
1537921791547307,-2,-3,-17,-71,-13,-3,-4,-5
1537921791547307,0,3,16,61,12,2,0,-2
1537921791555285,1,0,4,5,-4,-4,0,-1
1537921791555285,-1,-2,-9,1,1,1,-1,0
1537921791570244,-2,1,10,-3,0,-2,-1,-2
1537921791570244,-2,4,9,-16,-8,-4,-1,0
1537921791577226,-2,-8,-11,18,-4,1,-2,-2
1537921791577226,-2,3,4,20,5,-1,0,-1
1537921791586202,1,2,-3,-11,6,-4,-2,2
1537921791586202,-4,-6,-11,-45,-11,-1,-2,1
1537921791592186,0,4,20,54,7,3,-1,-4
1537921791592186,-2,-1,-4,-4,2,0,2,0
1537921791608143,0,-4,-14,-8,1,1,-2,-1
1537921791608143,1,1,-9,-22,0,-2,-3,-1
1537921791615125,-1,2,-2,-16,5,0,0,3
1537921791615125,-2,-6,-5,-2,8,2,0,0
1537921791630085,-1,-1,9,16,-6,2,1,-1
1537921791630085,0,-2,0,-8,-9,-1,-1,-4
1537921791638063,0,-3,-18,-32,-12,-2,-1,-1
1537921791638063,1,8,26,13,-9,0,-3,-2
1537921791653023,-4,-7,-4,23,9,-3,-2,-1
1537921791653023,1,-2,-4,8,-4,-4,-2,0
1537921791654021,0,1,0,-8,5,-2,1,-1
1537921791654021,-3,-5,-6,-13,-5,-3,-1,0
1537921791667983,-3,-2,-16,-8,-14,-1,0,1
1537921791667983,-3,-1,-8,-32,-10,-2,-3,-2
1537921791674965,0,3,14,-2,3,1,0,-4
1537921791674965,3,3,10,40,11,-2,0,-1
1537921791689925,-2,-5,-14,-8,-4,-1,0,-4
1537921791689925,-1,-2,5,17,5,1,0,1
1537921791697903,0,-1,-10,-40,-12,-4,-6,-3
1537921791697903,-1,0,8,-9,-3,-3,1,0
1537921791712863,-1,-4,-12,1,4,-2,1,1
1537921791712863,-1,-1,-14,-37,-14,0,0,-1
1537921791713861,-3,3,23,23,0,1,0,-3
1537921791713861,-1,0,13,24,17,0,0,-3
1537921791727823,-2,-3,-5,-3,-2,-3,-4,-1
1537921791727823,-1,-2,-4,-5,-6,0,-1,3
1537921791734804,-1,-4,-7,-2,3,-1,-2,-1
1537921791734804,0,-14,-12,-9,-4,-2,0,-1
1537921791749765,-1,-11,-6,-16,-5,2,0,-2
1537921791749765,1,-7,11,-24,-17,-2,-1,0
1537921791757744,-2,-18,8,35,18,3,1,-1
1537921791757744,0,3,11,12,-1,1,-2,0
1537921791773700,0,6,1,10,8,0,0,-2
1537921791773700,1,20,0,23,-2,-1,-1,0
1537921791773700,0,22,-8,-12,-9,-2,2,1
1537921791773700,-2,16,-12,-26,-2,0,0,0
1537921791787663,0,11,2,-2,-6,-1,-1,-1
1537921791787663,1,12,9,-3,-6,-1,1,-1
1537921791795641,-3,0,6,3,7,-1,0,0
1537921791795641,-1,-8,4,41,4,0,0,0
1537921791810601,-2,-8,7,16,12,0,-1,1
1537921791810601,0,-15,-1,9,3,-1,-2,-2
1537921791817583,1,-10,-12,-24,-15,-1,-1,-3
1537921791817583,-2,-9,-13,-23,-3,-1,3,0
1537921791833540,2,-3,-3,-24,-11,1,0,-1
1537921791833540,0,1,10,35,8,0,-2,-1
1537921791834537,0,2,15,8,-1,-2,-3,1
1537921791834537,0,-1,-7,-19,5,-1,-4,-4
1537921791847503,-4,1,0,27,1,-1,0,2
1537921791847503,-2,-4,2,-1,5,-1,2,1
1537921791855481,1,2,-8,-4,0,-1,-2,2
1537921791855481,0,-2,-8,-23,-6,1,-2,-2
1537921791870441,1,2,1,1,2,2,-2,2
1537921791870441,-2,-3,7,-5,7,-1,1,-3
1537921791877423,-2,1,2,35,-6,-2,1,1
1537921791877423,-1,-5,-8,-9,-6,2,-1,-1
1537921791893380,-3,2,3,-6,0,-2,1,1
1537921791893380,0,0,-7,-22,1,0,-2,0
1537921791894378,-3,-4,-4,7,0,-2,1,-4
1537921791894378,-2,1,0,1,-3,0,-1,0
1537921791907343,-2,0,3,4,1,-1,0,-2
1537921791907343,1,-3,-7,-4,0,0,0,0
1537921791915322,-2,-5,-13,-56,-16,-3,-1,-1
1537921791915322,1,1,6,16,9,0,1,-3
1537921791930281,-2,-1,2,22,2,-2,0,1
1537921791930281,1,2,4,11,12,2,-2,1
1537921791937263,-4,-4,-10,-14,-5,-4,-2,-2
1537921791937263,0,2,18,28,2,0,-2,-3
1537921791953220,0,-3,-11,-34,-5,-1,0,-1
1537921791953220,-2,-1,6,16,-14,0,0,-1
1537921791954218,2,-1,-3,14,7,2,-1,-1
1537921791954218,-3,0,-5,-19,-3,-2,-2,0
1537921791968180,0,-2,-2,-3,-3,-1,2,-2
1537921791968180,-2,-1,-14,-15,-5,-2,-2,-2
1537921791975162,-1,3,17,8,-13,0,-1,0
1537921791975162,-3,-3,-12,-21,10,-2,1,1
1537921791990121,1,1,9,-6,-12,-4,-5,-5
1537921791990121,-2,-1,11,38,5,-3,3,0
1537921791998100,-2,-3,-13,10,-2,-3,0,1
1537921791998100,-1,3,13,-25,-13,-1,1,0
1537921792013060,-3,1,0,42,15,6,-2,1
1537921792013060,-3,-2,-6,-26,-3,-3,0,-1
1537921792014058,0,-2,1,16,5,2,2,0
1537921792014058,2,0,-13,-6,-3,-1,-1,2
1537921792028020,3,5,9,-17,-6,-1,-2,-3
1537921792028020,0,-4,-3,-2,-3,0,0,1
1537921792035001,-1,-2,-3,-7,7,1,-1,-2
1537921792035001,-1,-9,-40,-43,-30,-3,-1,-1
1537921792049962,0,7,45,27,17,0,1,1
1537921792049962,-2,-1,2,35,10,0,-4,0
1537921792057940,0,-2,-19,-19,7,1,-3,2
1537921792057940,-1,3,13,4,-8,-1,-2,-2
1537921792072900,0,-4,-15,-4,-8,-3,0,1
1537921792072900,1,-2,-11,-31,-5,0,-1,-2
1537921792073898,-2,-8,8,-23,-8,-3,1,1
1537921792073898,-1,-2,1,52,22,2,0,-2
1537921792087860,1,0,-2,12,-5,0,1,-1
1537921792087860,-4,6,6,7,3,-2,-1,-2
1537921792094842,0,-2,-10,-26,-10,0,-2,0
1537921792094842,-2,5,9,17,7,1,-1,1
1537921792109802,-1,-4,-13,-33,-5,-2,-4,0
1537921792109802,0,3,1,2,-14,1,-1,-2
1537921792117780,-1,7,4,17,15,5,1,-3
1537921792117780,0,1,-2,-6,-1,-6,0,2
1537921792133738,-2,-1,2,-3,-23,2,-2,-2
1537921792133738,-4,-5,-5,19,60,6,-1,-3
1537921792133738,-1,-3,-5,-5,-23,-4,0,1
1537921792133738,1,-2,9,-12,-9,-1,0,0
1537921792147701,-1,-2,-8,-33,-16,-4,0,-5
1537921792147701,1,-5,3,32,-17,-1,-1,-1
1537921792154682,2,3,14,13,24,5,-3,-2
1537921792154682,-4,0,8,8,12,-3,1,2
1537921792170639,-4,-4,-15,-22,-26,-1,1,0
1537921792170639,3,6,23,49,33,3,0,-3
1537921792177620,-1,-2,-32,-59,-1,-4,1,4
1537921792177620,6,9,33,23,-30,-3,0,-1
1537921792193578,-9,-11,-4,68,42,4,2,2
1537921792193578,0,4,-27,-71,-29,0,-5,-4
1537921792194575,9,8,33,14,-14,-3,-6,-8
1537921792194575,-8,-13,-35,-24,15,0,4,9
1537921792207540,1,3,-7,-79,4,-2,-5,-7
1537921792207540,0,6,41,109,8,-10,-6,-2
1537921792215519,-1,-11,-24,-39,-22,-1,14,9
1537921792215519,6,3,-8,-28,19,11,-6,-2
1537921792230480,0,3,29,58,14,-2,-2,-5
1537921792230480,-5,-13,-30,-95,-54,-3,-1,-5
1537921792237461,5,0,-29,-35,-18,-13,-1,1
1537921792237461,9,6,25,55,-21,18,1,-2
1537921792254415,-9,-13,8,77,101,18,16,15
1537921792254415,-5,-2,-45,-106,-69,-14,-4,1
1537921792255412,3,9,37,125,-22,-5,-8,-19
1537921792255412,-15,-11,38,82,87,-5,-2,9
1537921792267380,7,14,-22,-91,-66,-13,-6,0
1537921792267380,6,5,7,-36,-24,-1,7,2
1537921792275359,3,0,-15,-119,-38,3,5,7
1537921792275359,11,-1,-30,-114,-55,2,-12,-15
1537921792290319,-4,-9,6,64,64,-12,-3,-6
1537921792290319,-17,-10,18,19,13,5,15,8
1537921792297300,12,9,-31,-22,5,7,-9,4
1537921792297300,-3,9,22,-18,-8,-2,1,-26
1537921792313259,23,19,50,58,14,15,15,52
1537921792313259,-13,-32,-47,19,6,-16,0,6
1537921792314255,-15,-7,-11,-58,-46,-15,-8,-12
1537921792314255,6,15,26,102,-10,-4,-10,-14
1537921792327220,-17,-27,-34,-3,-4,-8,-6,-14
1537921792327220,-2,12,31,20,13,2,1,-4
1537921792335199,-14,-6,15,46,22,-1,5,3
1537921792335199,5,0,-51,-128,-13,-5,-4,6
1537921792350159,11,10,-18,-65,-47,12,4,-8
1537921792350159,16,6,48,58,6,12,0,19
1537921792358138,-22,-14,11,57,61,-6,-6,-17
1537921792358138,-5,-1,-22,-42,-27,-25,-19,-12
1537921792373098,-5,0,-12,-17,-20,0,3,-23
1537921792373098,1,5,10,-5,35,29,12,36
1537921792381077,16,-6,-10,-14,-49,11,-1,-5
1537921792381077,-9,-9,-12,41,35,0,13,12
1537921792388058,19,7,4,-72,-29,-8,-7,16
1537921792388058,-8,-7,-11,31,11,-13,-8,-29
1537921792395039,-5,1,10,-37,15,-3,-9,-6
1537921792395039,-15,-11,9,62,-26,-9,-6,-9
1537921792409999,-1,-1,-25,21,-2,0,4,13
1537921792409999,6,8,10,-10,1,6,-2,7
1537921792417978,6,12,32,48,17,7,-3,3
1537921792417978,-5,-16,-27,-46,22,0,8,2
1537921792432938,-6,11,23,3,-34,-11,-10,-12
1537921792432938,0,-3,-20,-17,-16,-7,-5,-12
1537921792440916,-5,-6,12,38,61,5,5,0
1537921792440916,6,2,-4,-2,3,0,4,14
1537921792447898,-3,-2,-11,-30,-24,-9,-12,-16
1537921792447898,-6,1,6,-6,13,-4,-3,-18
1537921792454879,13,5,5,12,0,14,16,40
1537921792454879,2,3,3,0,-6,0,-4,-2
1537921792469839,-13,-15,1,-29,-11,-7,1,-4
1537921792469839,7,5,-21,-3,11,-3,-5,-8
1537921792477818,-8,-4,0,33,15,-5,-8,-10
1537921792477818,-6,3,16,8,-6,12,11,8
1537921792492778,2,2,-11,-60,-12,1,-5,0
1537921792492778,0,0,18,52,3,0,-2,-7
1537921792500757,-5,-4,-3,37,22,-4,4,4
1537921792500757,4,2,8,19,3,6,0,7
1537921792507738,-7,-8,-24,-34,-3,-3,-4,-12
1537921792507738,0,0,11,-48,-7,1,2,-1
1537921792514719,3,4,5,15,-4,-2,1,2
1537921792514719,-2,-3,4,18,1,-3,2,-3
1537921792529680,-2,-5,-8,-7,-1,2,1,2
1537921792529680,2,-4,-11,-29,-9,-4,-1,2
1537921792538656,-2,3,-12,-30,-16,-4,-5,-5
1537921792538656,0,-1,11,-2,3,3,-1,-3
1537921792552618,0,7,23,73,29,5,2,4
1537921792552618,2,-1,0,-6,3,0,1,2
1537921792560597,-6,-2,-2,19,1,-3,-2,-6
1537921792560597,0,0,-11,-17,-6,-1,2,3
1537921792575557,-1,-2,-6,-5,-9,-1,-3,0
1537921792575557,-2,-2,-5,-14,-6,-3,-4,-3
1537921792576555,0,0,0,-29,-2,1,-2,-6
1537921792576555,0,-1,5,3,-9,-4,-2,2
1537921792590517,-5,-1,2,19,13,-1,0,0
1537921792590517,0,-2,-14,-18,-15,-2,0,2
1537921792598495,-2,4,5,0,7,-2,1,-3
1537921792598495,1,-2,5,-3,-5,2,-1,1
1537921792612458,1,2,9,33,8,2,0,-2
1537921792612458,0,-4,-10,-10,0,-6,-1,2
1537921792620437,0,-1,-2,-11,-6,-2,0,-1
1537921792620437,-2,2,-7,-1,2,-3,0,-1
1537921792635397,1,-2,-3,-48,-12,0,-1,-5
1537921792635397,0,2,0,37,10,3,-1,-4
1537921792636394,2,3,31,43,16,2,2,4
1537921792636394,-1,-5,-8,1,0,-3,-1,-1
1537921792650357,-1,-1,-7,-7,-5,-2,2,0
1537921792650357,-2,-5,-26,-38,-12,-4,-3,-1
1537921792658335,1,-2,3,-53,-13,-1,-1,-3
1537921792658335,-1,4,17,60,16,2,1,1
1537921792672298,-3,-4,2,20,11,1,1,1
1537921792672298,-1,0,-1,-3,-3,-2,-1,-1
1537921792681274,-2,-4,-20,-16,-2,0,-1,-3
1537921792681274,0,4,10,-36,-5,-1,-3,0
1537921792696234,2,2,9,44,-2,4,-1,1
1537921792696234,0,0,0,-8,0,-6,-2,2
1537921792696234,-1,-2,-8,7,3,3,0,-1
1537921792696234,-3,-2,-9,-13,-7,-4,0,2
1537921792710197,1,0,-6,-24,-5,-4,-1,-1
1537921792710197,-2,-4,-6,-19,-5,1,2,-2
1537921792718175,0,1,-2,-5,-11,-4,0,-1
1537921792718175,-2,-3,0,11,1,1,1,-2
1537921792733135,-1,1,3,6,5,1,-2,-1
1537921792733135,-2,2,15,20,3,-2,-3,-1
1537921792741114,-4,-5,-11,-26,-26,-6,-1,1
1537921792741114,0,-2,-11,-30,22,-2,-2,-4
1537921792756074,0,2,29,88,15,2,-1,0
1537921792756074,0,-4,-13,-24,-1,-1,-1,0
1537921792757071,-2,1,8,15,-3,-1,-2,-1
1537921792757071,-1,0,-9,-11,-11,1,-1,-2
1537921792770037,-2,-4,-12,-34,-9,-3,-1,-2
1537921792770037,0,0,1,-4,-1,-3,-2,-2
1537921792778015,0,1,5,0,-6,2,0,-1
1537921792778015,-2,-2,-1,4,18,2,-1,-2
1537921792792975,0,2,0,-4,-7,-4,-2,1
1537921792792975,-3,2,16,30,12,-1,0,0
1537921792800954,0,-6,-30,-11,-8,-2,1,1
1537921792800954,2,2,25,2,-10,-1,0,-2
1537921792815914,-3,-8,-20,-21,-3,1,0,0
1537921792815914,1,-1,-9,-59,-6,2,-2,0
1537921792822896,-1,2,23,79,15,0,-3,-2
1537921792822896,0,-2,-14,-12,-1,-5,0,0
1537921792829877,-1,5,20,26,-6,-3,0,-3
1537921792829877,-2,-4,-1,16,5,3,1,-1
1537921792838853,0,-1,-9,-29,9,2,-2,2
1537921792838853,-1,-1,-3,22,-3,-1,0,4
1537921792852815,0,-3,-8,-46,-7,-2,0,-1
1537921792852815,-1,-1,-1,16,-1,1,-3,-3
1537921792860794,-2,-3,0,-8,-1,-1,3,-2
1537921792860794,1,-4,-18,-19,-14,-1,-2,-3
1537921792875754,-4,2,24,-1,10,0,2,-1
1537921792875754,-1,2,4,31,6,-1,1,2
1537921792876751,-1,0,-5,-14,-5,-3,-1,1
1537921792876751,-2,-3,-16,-7,-5,-4,-1,-1
1537921792889717,1,-1,-10,-23,-3,0,0,-2
1537921792889717,-1,-1,-1,4,2,-2,0,-1
1537921792898693,-1,0,4,-28,-2,-2,-1,-3
1537921792898693,-1,6,22,49,11,2,1,0
1537921792912655,-1,-4,-15,3,-1,1,-5,0
1537921792912655,-1,-6,-15,-41,-6,-3,-1,-3
1537921792920634,2,4,15,46,6,2,1,-1
1537921792920634,-1,3,13,19,1,2,0,2
1537921792935594,0,-2,-2,3,6,0,-3,-1
1537921792935594,0,1,-4,-12,-8,-1,1,-2
1537921792936591,0,-2,-16,-27,-5,0,0,-1
1537921792936591,1,1,8,-4,-3,-1,-1,-2
1537921792950554,-1,-4,-24,-33,-11,-4,1,2
1537921792950554,1,2,4,-14,-2,2,-3,-3
1537921792958533,0,5,39,59,10,0,2,2
1537921792958533,0,-2,-1,11,-5,-5,1,1
1537921792972495,-2,-3,-8,-12,-7,-1,-1,-1
1537921792972495,-1,1,-11,-9,9,-1,-1,0
1537921792980474,0,-5,-25,-40,-12,-2,-6,-2
1537921792980474,1,1,16,-19,-7,-1,-1,-1
1537921792995434,-1,2,14,59,17,-1,0,1
1537921792995434,-1,-1,0,5,0,0,-1,1
1537921792996432,-2,-4,-14,-14,-2,-2,-2,0
1537921792996432,-3,-3,-8,-26,-4,-2,-1,1
1537921793010394,0,2,1,-19,-11,-4,2,0
1537921793010394,-1,-2,2,14,1,-1,0,-2
1537921793018373,-2,1,5,18,5,0,-1,-1
1537921793018373,0,-7,-31,-35,-7,-1,-3,-1
1537921793032336,2,3,30,2,1,3,0,-1
1537921793032336,-4,-3,1,28,6,1,1,1
1537921793041311,-2,-2,-5,-18,-1,-1,-4,1
1537921793041311,-2,-1,5,33,1,0,1,-2
1537921793056272,1,-4,-12,-16,-5,-1,-4,1
1537921793056272,2,5,3,-17,-8,-1,0,2
1537921793056272,0,-3,-11,-27,1,0,-3,-2
1537921793056272,0,3,20,23,2,1,1,1
1537921793070234,-4,-7,-14,-32,2,-2,-1,-3
1537921793070234,1,6,14,70,16,4,2,1
1537921793078213,-3,-1,-8,-4,-3,0,-2,0
1537921793078213,-2,2,4,9,8,0,-1,-1
1537921793093173,-1,-1,-9,-24,-9,0,-2,-2
1537921793093173,4,-1,1,-16,-6,-2,0,-3
1537921793101152,-2,0,7,7,-2,-3,2,-1
1537921793101152,0,-3,-20,-35,-11,-2,-2,-2
1537921793115114,0,0,1,-44,-16,-1,-3,-2
1537921793115114,-3,-5,-12,39,9,0,-4,-1
1537921793123094,2,8,21,37,9,3,2,3
1537921793123094,-4,-3,-13,-8,2,-1,-1,-1
1537921793130075,-1,2,12,18,4,1,-2,-2
1537921793130075,-5,-8,-10,-44,-19,-4,-5,-3
1537921793138053,-1,-4,-14,-39,-9,0,-4,-4
1537921793138053,2,6,13,50,19,1,0,-1
1537921793153014,-3,0,7,12,-5,-2,-2,-1
1537921793153014,2,2,4,-26,-3,-2,-2,-1
1537921793160992,0,-4,-11,13,-6,-6,3,-1
1537921793160992,-2,-3,-22,-24,-2,2,-2,0
1537921793175952,1,2,8,22,16,2,0,-1
1537921793175952,-4,2,14,26,-1,-1,-2,0
1537921793176949,0,-3,-14,-27,-7,-3,-2,-2
1537921793176949,2,2,4,0,-7,0,1,-1
1537921793189915,-1,-2,-10,-4,3,-1,3,-3
1537921793189915,-3,1,4,-3,-3,2,-1,-1
1537921793197894,0,-2,-5,4,7,0,-2,-2
1537921793197894,0,0,6,-27,-20,-4,-1,0
1537921793212853,-2,-5,-11,32,9,-1,-2,-1
1537921793212853,-1,2,16,-4,0,-2,3,2
1537921793220832,-3,-1,2,-3,-5,-2,0,-2
1537921793220832,-1,-4,-27,-46,-15,0,-2,-3
1537921793234795,1,6,30,25,19,1,1,1
1537921793234795,-1,1,5,40,7,0,-1,0
1537921793243771,0,0,0,-7,-5,-2,1,2
1537921793243771,-2,-3,3,10,3,-3,1,-1
1537921793249754,-2,-3,-22,-31,-15,-2,1,-1
1537921793249754,1,-3,-11,-26,-12,-1,-2,-3
1537921793258730,1,2,12,9,12,3,-1,-1
1537921793258730,-1,-1,9,26,10,-2,-2,1
1537921793272695,0,-5,-24,-17,-9,-2,-2,-1
1537921793272695,1,4,17,0,4,-3,-1,-4
1537921793281670,-6,1,24,33,-3,-3,-1,0
1537921793281670,-2,-13,-30,-47,-6,1,0,-2
1537921793295631,0,3,16,24,0,-3,1,2
1537921793295631,-7,-7,-18,36,-5,-4,-1,3
1537921793303610,1,2,1,-19,-1,3,0,0
1537921793303610,-2,-1,0,-14,2,-4,-2,-5
1537921793310592,2,3,-3,-27,-15,-1,2,-2
1537921793310592,-5,-6,2,16,11,2,-1,-3
1537921793318571,-1,1,-5,-1,17,-1,0,7
1537921793318571,-1,-10,-18,-5,-15,-4,-1,0
1537921793332533,4,0,-19,-66,-11,-3,-2,-4
1537921793332533,-1,10,57,55,0,3,2,-7
1537921793341509,2,-15,-35,13,13,0,4,2
1537921793341509,-5,9,50,36,18,3,-1,3
1537921793355472,-6,-14,-42,49,18,1,-3,-3
1537921793355472,7,9,-7,-103,-29,-3,3,6
1537921793364448,0,3,19,9,-4,4,-2,-3
1537921793364448,-1,-8,-16,-10,-18,-7,-2,2
1537921793370432,-5,-2,4,12,15,0,1,-2
1537921793370432,-1,-9,-17,30,12,1,5,12
1537921793379408,0,6,-26,-128,-68,-6,-7,-9
1537921793379408,10,16,45,79,-1,12,-4,-4
1537921793392373,-12,8,36,63,89,20,-2,-8
1537921793392373,9,-4,-11,101,42,-7,2,10
1537921793401349,-16,-23,-33,24,29,-4,3,7
1537921793401349,0,9,-7,-94,-58,-6,-7,-13
1537921793415312,18,19,17,-59,-48,-4,-2,0
1537921793415312,-16,-19,-18,-29,-9,-4,-6,-7
1537921793424288,1,3,10,24,-9,5,6,0
1537921793424288,-4,-7,8,-15,30,-7,-5,1
1537921793430272,-2,2,-7,47,2,5,2,-7
1537921793430272,18,5,-11,-110,-13,5,1,11
1537921793439248,-17,-5,66,127,35,-18,-18,-23
1537921793439248,-7,-14,-36,-14,36,6,20,4
1537921793452213,10,-1,-36,-83,-49,3,3,37
1537921793452213,3,10,-15,-97,-32,0,-4,-16
1537921793461189,1,1,33,24,10,9,-2,-4
1537921793461189,-8,-6,-5,39,-14,-12,-10,-5
1537921793475152,-8,-5,30,102,38,-15,-7,-10
1537921793475152,-8,-9,-43,-33,-18,1,-2,2
1537921793484128,18,12,9,-69,-36,12,8,23
1537921793484128,6,9,36,92,51,12,6,-4
1537921793490112,-5,-7,-24,-77,-29,-8,-3,-5
1537921793490112,-6,-6,7,33,-3,-3,-15,-29
1537921793499088,3,4,5,57,25,-10,8,9
1537921793499088,-22,-21,-35,-44,-10,-11,-1,0
1537921793521029,7,3,0,-19,-21,5,-3,-6
1537921793521029,7,16,30,9,-4,0,6,24
1537921793523025,-7,-8,-20,-56,-1,5,-5,-19
1537921793523025,19,15,1,-25,-39,-5,8,26
1537921793534992,-14,-14,22,73,25,-1,0,-13
1537921793534992,-10,-10,-12,-13,11,-8,-12,-12
1537921793543968,2,11,-12,-17,-12,-8,-7,-5
1537921793543968,0,-5,-10,15,-3,9,3,-7
1537921793558928,-1,0,22,16,22,6,8,11
1537921793558928,10,7,17,42,8,9,9,21
1537921793560923,-4,-4,-19,-60,-25,-8,-5,-9
1537921793560923,0,4,-3,-9,5,-4,-12,-16
1537921793572891,-1,3,2,14,-12,-4,-2,-5
1537921793572891,-3,-9,-2,5,14,2,3,-5
1537921793581867,3,10,19,49,17,2,3,11
1537921793581867,-6,-5,-1,-10,-12,-13,-4,-3
1537921793594833,1,-2,-9,-11,-12,4,8,7
1537921793594833,-2,-2,-9,-19,-3,5,-6,-7
1537921793603808,-1,-9,-28,-44,-17,-4,0,-7
1537921793603808,3,5,23,27,21,6,1,4
1537921793618768,1,2,23,23,3,-3,-6,-1
1537921793618768,-2,-1,-9,-6,-3,-5,1,-7
1537921793620763,2,-1,-5,6,9,4,3,6
1537921793620763,1,1,-2,-20,-19,0,-2,3
1537921793632731,-3,-8,-19,-34,4,-7,-5,-4
1537921793632731,-5,-1,14,30,1,-1,0,-1
1537921793641707,0,-1,-6,21,2,3,2,3
1537921793641707,1,-3,-1,-10,5,-1,-3,-5
1537921793655669,-2,-3,-14,-21,-15,-5,2,3
1537921793655669,4,1,-4,-26,-11,-1,2,1
1537921793663648,1,3,6,29,10,2,-2,0
1537921793663648,1,0,2,23,5,4,0,2
1537921793678608,0,-1,-11,-23,-9,-2,-2,1
1537921793678608,0,4,18,15,12,-2,-1,-5
1537921793680603,-3,-6,-2,6,1,1,-3,-1
1537921793680603,-2,-2,0,-9,-1,1,0,0
1537921793692571,0,0,-4,5,-4,-1,0,0
1537921793692571,-2,-6,-20,-19,-8,-2,0,-3
1537921793701547,2,1,-4,-27,-6,1,-1,-1
1537921793701547,-2,2,11,23,9,4,1,1
1537921793715509,-2,-2,-2,-7,-4,-1,-4,-1
1537921793715509,-1,3,7,-8,-6,-1,-1,-1
1537921793724486,0,-2,-4,4,11,-1,1,-1
1537921793724486,0,1,-5,-16,1,1,0,-1
1537921793739445,-1,2,21,50,6,-2,1,-1
1537921793739445,-1,0,-3,-19,-10,-2,-3,3
1537921793740443,-1,-4,-7,-4,-1,1,1,0
1537921793740443,-1,0,-5,3,-1,0,-4,-2
1537921793752411,0,-4,-15,-37,-15,-2,1,-1
1537921793752411,1,2,-9,10,12,1,0,-1
1537921793761388,0,6,26,37,3,1,0,0
1537921793761388,-1,-1,3,-19,-11,-5,1,2
1537921793775350,0,-1,3,-2,-3,-1,-2,-1
1537921793775350,-2,-4,-13,-12,-5,-3,1,-1
1537921793784326,-1,-3,-9,-34,-24,-6,-3,-3
1537921793784326,0,-3,-7,-1,16,3,-2,-4
1537921793799285,-4,2,11,11,0,-3,0,1
1537921793799285,-4,0,-3,15,-4,-5,1,1
1537921793800284,0,-2,-4,-7,3,4,-3,-1
1537921793800284,2,0,8,-1,-9,-2,0,1
1537921793812251,1,-1,-1,-1,4,1,-2,-1
1537921793812251,0,-4,-6,-6,-7,-1,0,-1
1537921793821227,-2,-2,-14,-18,1,0,-3,1
1537921793821227,-4,4,17,45,17,3,0,1
1537921793836186,-1,-8,-22,-69,-22,-5,0,0
1537921793836186,2,3,8,33,32,3,-2,-2
1537921793842170,-1,0,18,78,-1,-2,3,3
1537921793842170,0,1,-5,-14,0,1,-1,-2
1537921793859125,-2,1,2,15,5,-3,-2,-3
1537921793859125,-2,-6,-20,-62,-17,-3,-2,-2
1537921793860123,-3,-6,-12,-47,-8,-4,-3,-3
1537921793860123,-1,-6,-26,-38,-11,-5,1,-2
1537921793873088,5,20,62,71,-4,5,4,3
1537921793873088,-2,-1,3,8,17,8,-6,-11
1537921793882064,5,-2,6,1,11,-4,7,8
1537921793882064,-13,-14,-18,5,8,-4,-3,-1
1537921793896027,3,3,-25,-18,-15,-4,-3,-3
1537921793896027,-2,1,18,49,13,6,2,1
1537921793903008,0,5,12,47,9,4,-4,-4
1537921793903008,-1,-6,-29,-45,-14,-6,-3,-2
1537921793918965,-4,11,35,-83,-25,-8,-2,1
1537921793918965,5,-3,37,60,-36,6,1,1
1537921793919963,-6,-12,-37,-50,53,6,-1,-2
1537921793919963,3,-1,-16,-15,-6,-4,3,0
1537921793932928,-10,-11,-9,102,27,0,-1,-1
1537921793932928,0,5,-17,-25,-37,-11,-3,1
1537921793941904,-3,-2,3,-64,-13,2,-4,-8
1537921793941904,-2,0,9,33,27,7,4,8
1537921793955867,-3,-8,-50,-52,5,-3,-3,-1
1537921793955867,6,7,2,-35,-28,-8,-1,1
1537921793962848,-7,-11,-10,8,-15,-5,-4,-6
1537921793962848,5,13,32,19,13,5,-1,-4
1537921793978806,4,-1,-1,18,25,0,0,3
1537921793978806,-12,-8,1,59,18,-7,-1,-5
1537921793980801,9,9,21,-50,-52,-2,-1,-1
1537921793980801,-6,-13,1,21,22,5,0,-1
1537921793992768,-4,-3,8,28,31,6,-4,-4
1537921793992768,2,0,-31,-64,-21,-14,2,3
1537921794001745,0,4,7,34,23,6,-3,-2
1537921794001745,5,-4,-7,-30,-36,5,9,2
1537921794014710,-10,-10,-10,-40,-20,-14,-26,-15
1537921794014710,-8,-2,-11,19,13,4,9,-13
1537921794023686,18,18,28,-9,0,18,24,42
1537921794023686,10,8,8,40,-19,1,-4,2
1537921794038646,-6,-18,-21,-45,16,3,1,-6
1537921794038646,-4,2,12,55,12,-6,-11,2
1537921794040641,-17,-14,-46,3,15,-13,-12,-20
1537921794040641,4,30,80,52,22,0,-6,-8
1537921794052608,9,-11,-19,-40,-49,-19,-1,0
1537921794052608,-3,2,16,-26,1,-2,1,-7
1537921794061585,-6,-14,-15,-42,10,12,-4,-8
1537921794061585,-2,-1,15,46,19,0,7,22
1537921794075547,26,24,-5,-25,10,35,33,47
1537921794075547,12,11,46,55,7,-4,-9,4
1537921794084524,-4,-14,-39,-64,-23,-21,-13,-20
1537921794084524,-14,-10,-3,-20,-2,-8,-8,-15
1537921794099483,-17,-14,-14,-33,1,-6,-12,-23
1537921794099483,-3,10,28,43,50,14,2,-1
1537921794100481,3,6,31,53,-28,-11,-4,1
1537921794100481,-5,1,-5,68,-16,-6,3,3
1537921794112449,-2,-8,-23,-35,-15,-4,3,8
1537921794112449,2,-12,-67,-117,-61,0,-9,-7
1537921794121425,9,26,78,87,75,14,6,-6
1537921794121425,-21,-45,-46,-24,-38,-18,6,13
1537921794135387,-8,3,-8,-15,-5,-5,-6,-9
1537921794135387,1,-11,-10,-5,2,8,4,9
1537921794144364,-5,-2,-17,-21,-8,-12,-3,-13
1537921794144364,12,13,8,-49,2,6,-9,4
1537921794159323,-1,1,9,31,25,0,-2,-8
1537921794159323,-2,-2,-1,-10,-2,-1,12,14
1537921794160321,8,11,35,62,6,9,3,15
1537921794160321,0,0,-13,-67,-18,-6,-4,-12
1537921794172288,-6,-6,0,-41,-19,-12,-10,-16
1537921794172288,-2,-1,3,94,21,2,2,-6
1537921794181265,-3,4,10,-15,4,1,3,10
1537921794181265,2,0,-10,-3,0,-3,-3,-3
1537921794195228,-1,3,12,24,-7,6,0,-6
1537921794195228,0,-11,-25,-61,-3,-2,3,3
1537921794210188,-4,-2,-14,-16,-20,-3,-1,5
1537921794210188,-2,1,2,-7,4,-1,-5,-11
1537921794219163,4,0,-10,0,5,2,5,5
1537921794219163,0,3,21,4,6,1,-1,0
1537921794220161,-3,-6,-20,6,-17,-7,-4,-4
1537921794220161,0,1,-2,-7,7,1,0,-6
1537921794233126,1,1,9,24,-4,3,5,7
1537921794233126,-1,-1,-1,-11,2,-4,-4,-1
1537921794241105,-4,-7,-14,-14,-15,-4,-4,-6
1537921794241105,6,3,5,-27,-12,-1,4,4
1537921794256065,-4,-4,-11,-27,-33,-4,-1,1
1537921794256065,1,9,24,22,26,-2,-3,-6
1537921794263047,-11,-17,-18,22,8,0,5,5
1537921794263047,0,5,-5,-13,0,4,-1,-2
1537921794278006,2,2,14,31,1,-1,0,0
1537921794278006,-2,-3,-22,-62,-22,-3,1,0
1537921794284987,2,2,-10,-24,-15,2,-1,-2
1537921794284987,0,0,7,13,9,1,-5,-2
1537921794292966,-1,-1,5,10,-1,0,-1,2
1537921794292966,-1,-1,1,10,5,2,-2,-1
1537921794301942,0,0,-3,-4,1,3,0,-1
1537921794301942,-1,-3,-16,-5,3,-2,-2,-2
1537921794315905,0,4,20,29,6,2,2,3
1537921794315905,-3,-3,9,-6,0,-4,-3,1
1537921794322886,0,-2,-6,-17,-25,-3,-1,0
1537921794322886,1,-3,-13,-11,14,3,-2,-1
1537921794337846,0,2,2,16,20,4,-1,-2
1537921794337846,-5,-2,14,47,4,-3,-2,-1
1537921794344827,0,1,-9,-21,-10,-4,-1,2
1537921794344827,0,0,1,-17,-14,-2,-1,-1
1537921794352806,2,-1,-8,-24,-3,2,1,-3
1537921794352806,-1,-6,-14,-8,4,1,-2,0
1537921794361782,0,1,1,-33,-11,-3,-3,-4
1537921794361782,-3,3,19,60,19,4,-3,-3
1537921794375744,-1,-3,5,31,9,2,1,4
1537921794375744,-1,-2,-11,-29,-8,-2,1,-1
1537921794382726,-1,-2,-9,-9,-2,-2,2,0
1537921794382726,1,1,1,-24,-9,-2,2,-1
1537921794398683,-2,-2,0,2,-3,-1,-1,-1
1537921794398683,0,-2,-8,-20,-6,-1,-1,2
1537921794404667,1,-1,1,3,2,1,-2,-3
1537921794404667,-1,3,21,12,3,0,3,-1
1537921794412646,-1,-3,-10,6,10,0,1,-1
1537921794412646,2,2,5,24,6,2,0,0
1537921794421622,-1,0,9,3,-4,-3,-1,2
1537921794421622,0,-1,-7,-16,-8,-2,-1,1
1537921794435585,1,7,16,-5,-6,-2,-3,-3
1537921794435585,-2,-9,-13,-20,-3,0,-3,-1
1537921794442566,1,7,5,42,11,-1,-1,0
1537921794442566,-1,-3,-16,-44,-1,2,-1,-4
1537921794458524,-1,2,11,43,9,-3,-2,0
1537921794458524,-2,0,-2,-9,2,2,3,-1
1537921794465504,-1,-2,1,10,3,1,-2,-2
1537921794465504,-1,-3,-6,-15,-7,-1,-2,3
1537921794489440,-2,-2,-12,-22,-6,-1,-1,0
1537921794489440,0,-2,-5,-12,-11,-1,-3,-5
1537921794490438,0,4,6,-20,0,-2,-2,-1
1537921794490438,-2,1,19,55,20,2,2,-3
1537921794495425,-2,-2,-6,-1,-1,-2,2,1
1537921794495425,-1,1,6,23,-1,-3,0,1
1537921794502406,-1,-7,-34,-43,-12,-1,1,-1
1537921794502406,-1,5,26,10,-2,-1,-1,-5
1537921794518363,0,3,4,30,1,1,-1,-4
1537921794518363,-2,-6,-10,-28,6,0,-2,-2
1537921794525345,-1,0,11,46,4,1,3,2
1537921794525345,0,-5,-20,-25,-8,-2,0,3
1537921794541302,-1,-2,-3,-9,-9,-4,-1,0
1537921794541302,-1,3,2,-11,2,1,-1,2
1537921794543297,1,1,6,10,3,-2,0,-3
1537921794543297,-1,-4,-11,-10,-7,-2,-2,-3
1537921794556262,-1,-1,4,2,-1,0,-2,0
1537921794556262,0,-1,2,-24,-9,-2,0,1
1537921794562246,-1,0,6,-7,2,0,-2,1
1537921794562246,-1,1,11,53,9,2,1,1
1537921794578203,-3,-5,-10,-26,-6,-1,0,-3
1537921794578203,-1,0,-8,11,2,-2,-2,0
1537921794585185,0,-2,-20,-33,-5,-3,-3,-2
1537921794585185,-3,3,18,-15,-6,-1,-2,-2
1537921794601142,-1,-1,3,25,11,-2,2,0
1537921794601142,-4,-3,-1,-18,-10,-4,-2,2
1537921794603137,0,1,9,19,-2,1,2,-1
1537921794603137,-4,-4,-15,17,-1,-7,0,-2
1537921794616102,2,0,-5,2,8,3,-1,3
1537921794616102,0,2,12,6,-3,-1,0,1
1537921794623084,0,-4,-10,-46,-9,-1,-3,-2
1537921794623084,2,0,-7,-4,-1,0,-1,-2
1537921794638043,-2,-2,7,-1,-3,0,0,1
1537921794638043,0,-3,-8,10,8,1,2,-1
1537921794645025,-4,-3,-11,-7,-8,-1,0,1
1537921794645025,-1,1,9,-1,5,1,-1,0
1537921794660982,0,7,39,62,4,1,0,0
1537921794660982,-1,-8,-35,-27,-5,-1,0,0
1537921794662977,-2,2,6,-15,1,-2,-2,-1
1537921794662977,-1,0,-3,-43,-10,-2,1,1
1537921794675942,-1,2,10,45,6,-1,-2,-3
1537921794675942,2,1,14,45,4,0,0,-1
1537921794682923,-1,-8,-37,-16,-7,-2,-3,1
1537921794682923,2,2,3,-39,-9,-1,-2,1
1537921794697883,-1,4,16,-3,1,-2,-1,-2
1537921794697883,-2,0,-1,-22,-4,-4,2,-2
1537921794704865,1,-2,-1,48,7,0,0,-1
1537921794704865,-1,-4,-22,-24,-10,-4,0,2
1537921794721820,-1,-3,-3,-30,-10,-1,-2,-4
1537921794721820,0,-1,-2,-30,-2,1,-2,-3
1537921794722817,-1,12,65,88,21,3,1,0
1537921794722817,-6,-7,-15,18,1,-2,1,0
1537921794735782,0,-4,-33,-48,-7,-2,-2,0
1537921794735782,1,2,0,-23,-15,-3,-3,-3
1537921794742763,-1,-3,-10,-48,-4,-1,0,-1
1537921794742763,2,4,19,63,10,1,-3,-1
1537921794758721,-3,-4,-24,-14,4,1,1,-1
1537921794758721,0,-6,-19,-27,-10,-2,-3,-4
1537921794764705,3,5,16,-52,-6,-1,-2,0
1537921794764705,-4,-3,23,85,7,0,1,1
1537921794781660,2,-1,-19,-24,-4,-4,-4,0
1537921794781660,2,10,33,54,16,2,2,0
1537921794782657,-1,1,-1,5,-1,1,-1,1
1537921794782657,-2,-7,-18,-39,-6,1,-2,-3
1537921794795622,0,-4,-19,-47,-22,-5,0,0
1537921794795622,-2,-3,-3,-2,10,3,0,-2
1537921794802603,3,6,10,49,15,3,-2,0
1537921794802603,3,1,-14,-100,-8,0,-2,-2
1537921794818561,-6,-2,31,127,23,2,3,2
1537921794818561,-5,-1,19,-9,-12,-9,-2,6
1537921794825542,-4,-7,-33,-28,-11,-4,-1,-1
1537921794825542,0,0,-28,-62,-2,1,-1,-1
1537921794841499,4,5,0,-78,-13,2,-7,-9
1537921794841499,2,13,76,102,24,3,4,3
1537921794842496,-8,-11,-11,15,6,-2,1,3
1537921794842496,2,0,-4,-11,-6,-3,-2,2
1537921794855462,0,-4,-40,-119,-19,1,0,1
1537921794855462,0,-5,-54,-18,-21,0,-4,-7
1537921794864438,1,11,94,40,9,0,0,-3
1537921794864438,-8,-10,-20,65,18,4,4,0
1537921794878400,-2,-11,-29,-38,-2,-1,2,8
1537921794878400,0,16,23,-7,1,-3,-6,-4
1537921794885382,3,5,-14,-21,-23,-4,-2,-6
1537921794885382,3,2,32,82,15,3,0,1
1537921794901339,-13,-16,-3,42,-2,-6,5,8
1537921794901339,0,-7,-49,-74,-1,2,-4,-5
1537921794903334,1,8,2,-72,-6,3,-3,-8
1537921794903334,6,2,-12,-9,-29,-7,-4,-7
1537921794915302,3,16,70,100,22,2,-2,-2
1537921794915302,-13,-32,-38,-16,38,7,5,4
1537921794924278,1,8,7,12,-4,-4,0,1
1537921794924278,-7,-11,-16,19,2,-1,-1,3
1537921794938241,-1,5,-25,-96,-31,-9,-7,-8
1537921794938241,4,-9,-28,-40,-22,-1,1,2
1537921794945222,-4,-5,31,63,26,4,0,-5
1537921794945222,-1,-11,-9,22,10,-11,-4,4
1537921794961179,-23,-4,-38,-51,-37,2,9,-9
1537921794961179,29,28,80,47,16,17,3,12
1537921794963174,-18,-25,-37,30,38,-2,2,3
1537921794963174,3,2,-25,-71,0,6,-2,-1
1537921794975142,10,11,46,67,1,-24,-10,5
1537921794975142,-23,-12,-6,-7,-29,-14,-13,-30
1537921794984118,32,-6,-97,-112,-47,15,7,5
1537921794984118,27,22,93,-24,-10,12,4,34
1537921794998081,0,-4,7,70,49,0,9,19
1537921794998081,-16,-7,-4,46,62,-13,-14,-9
1537921795005062,-17,-19,-36,-9,-44,-26,-8,-6
1537921795005062,-15,-8,-54,-128,-20,-7,-27,-41
1537921795021019,19,22,47,54,21,26,11,-14
1537921795021019,3,-7,11,35,-8,6,22,47
1537921795023015,-19,-14,11,64,31,5,-8,-18
1537921795023015,-8,14,-36,-76,-23,0,11,21
1537921795034982,43,2,-22,-90,-18,-1,-1,25
1537921795034982,9,8,19,41,3,-5,-8,-9
1537921795043959,-10,-5,-4,-3,-1,-17,-4,-9
1537921795043959,-20,10,86,127,21,8,-13,-39
1537921795057922,-9,-14,-22,35,-4,-5,13,16
1537921795057922,-3,-4,-57,-53,1,0,5,-2
1537921795064903,11,7,-16,-128,-26,6,5,15
1537921795064903,-8,-3,51,127,36,-4,-2,-11
1537921795081857,-7,-5,-21,-88,-11,6,-7,-11
1537921795081857,11,5,8,24,-3,12,14,13
1537921795082855,-1,2,-15,-39,-13,-5,-8,5
1537921795082855,4,2,-5,-4,2,-11,0,-6
1537921795094822,-8,0,42,19,5,-10,-1,-20
1537921795094822,-14,-11,-5,-31,-28,1,-3,-6
1537921795103798,13,10,21,54,20,16,9,22
1537921795103798,7,-11,-44,-60,-19,-6,8,10
1537921795118758,-4,-9,-13,-40,-11,1,2,12
1537921795118758,-4,3,12,21,18,-3,-13,-17
1537921795124742,0,9,21,56,-3,-8,-1,-8
1537921795124742,0,-11,-19,-20,-12,-6,0,4
1537921795141697,-12,-1,8,4,8,1,-10,-13
1537921795141697,-4,-3,-16,-26,-17,-6,3,-6
1537921795142694,5,2,6,-35,-13,1,-1,-1
1537921795142694,0,-4,6,33,11,4,3,7
1537921795154662,-5,-1,2,30,3,-1,-5,-11
1537921795154662,2,-2,-14,-24,-11,-5,-1,3
1537921795163638,-1,-3,-7,-10,-8,-4,0,3
1537921795163638,-3,2,13,-10,-1,-1,1,-2
1537921795178598,-1,-5,-11,-1,3,2,-4,-1
1537921795178598,3,3,-2,-17,-5,-1,-3,0
1537921795185580,-6,-1,11,10,8,0,3,-1
1537921795185580,2,-1,-3,-2,0,5,5,0
1537921795200540,3,3,-2,-1,2,1,-8,-4
1537921795200540,-4,1,1,-11,-10,-1,0,-4
1537921795207521,-3,1,12,29,3,-7,2,-2
1537921795207521,0,-2,-10,-17,-2,2,3,6
1537921795215500,-2,-2,-8,-22,0,0,-4,-3
1537921795215500,2,-1,4,10,-5,-3,-2,-3
1537921795224476,-3,0,0,10,9,0,0,-3
1537921795224476,1,6,11,23,8,3,1,5
1537921795238438,-4,-4,-10,1,-3,0,-2,-1
1537921795238438,-1,4,8,-20,-3,1,-1,-4
1537921795245420,2,-5,-14,-8,-2,-1,0,-1
1537921795245420,1,-4,-12,-36,-10,-5,2,-1
1537921795260380,1,8,24,74,24,8,-4,-3
1537921795260380,-1,-3,-1,-10,-8,-4,1,2
1537921795267361,1,2,1,2,-1,-2,1,-1
1537921795267361,-3,-2,-8,-2,1,-3,-3,-3
1537921795275340,-3,-1,-6,-10,6,2,0,1
1537921795275340,-3,0,-1,-24,-10,-2,0,-1
1537921795284316,-1,-2,5,30,19,4,-1,-4
1537921795284316,-1,-2,0,-2,-5,-3,2,-1
1537921795298279,2,-1,-11,-10,-7,-5,1,-2
1537921795298279,-1,3,12,-5,-5,-4,-1,-1
1537921795305260,-1,-1,-6,-32,-4,0,-6,-4
1537921795305260,-2,-1,-12,-20,-20,-7,-4,-1
1537921795321217,-3,1,39,46,13,0,2,2
1537921795321217,4,4,5,57,18,5,1,0
1537921795327201,-5,-1,-3,-2,-1,0,0,-1
1537921795327201,3,-3,-10,-12,1,-2,-1,-2
1537921795335179,-2,-10,-35,-74,-29,-5,-2,-4
1537921795335179,-1,1,14,-13,0,-2,-1,-1
1537921795344156,-1,6,38,75,7,2,1,5
1537921795344156,0,-2,-16,-21,-2,2,-1,0
1537921795358118,-2,-1,14,10,-5,-2,-2,-3
1537921795358118,-2,-3,-25,-29,-3,-1,-2,0
1537921795365100,2,-3,4,-7,-2,-2,-2,-1
1537921795365100,-4,-3,-13,-11,-3,0,-1,-1
1537921795381057,-1,-1,-5,-71,-23,-2,0,-2
1537921795381057,-3,7,47,91,34,5,-2,-5
1537921795388038,0,-7,-38,-29,-9,-6,-2,3
1537921795388038,0,10,41,58,19,3,3,-3
1537921795403995,0,-3,-5,31,0,1,-2,1
1537921795403995,1,-4,-29,-89,-33,-6,-3,-3
1537921795404993,-1,4,10,-6,-1,3,0,-3
1537921795404993,0,-7,-6,17,3,-1,-1,1
1537921795417958,-2,-1,-14,9,-4,-2,1,-1
1537921795417958,-1,0,4,-18,-11,0,-1,0
1537921795424940,-1,3,15,5,21,2,-3,-4
1537921795424940,-2,-4,-6,6,5,-1,-1,-1
1537921795440897,1,4,18,28,9,-2,1,-2
1537921795440897,-2,-5,-18,3,-7,-4,0,1
1537921795447879,0,-3,-16,-31,-12,-1,-3,-3
1537921795447879,0,-8,-41,-88,-26,-3,-1,0
1537921795463837,2,6,20,-35,6,-2,-6,-6
1537921795463837,1,12,69,87,41,7,5,7
1537921795465831,-4,-6,-9,-14,-1,-2,0,2
1537921795465831,-3,2,10,5,4,-2,-1,0
1537921795478796,-1,-9,-49,-51,-16,-2,-3,0
1537921795478796,1,-9,-41,-100,-26,-1,-3,-4
1537921795484780,3,5,22,14,14,5,-3,-4
1537921795484780,-1,6,37,91,15,1,2,1
1537921795500737,-1,-6,-13,-3,-4,-3,3,0
1537921795500737,3,8,8,-2,-9,-2,-3,-2
1537921795507719,-2,-10,1,4,-3,-2,0,5
1537921795507719,0,-4,-14,-9,5,0,0,-1
1537921795523676,1,4,16,34,13,1,-1,-2
1537921795523676,-3,-3,-14,4,-1,0,-1,-1
1537921795525671,0,0,-17,-33,-18,-2,-3,-2
1537921795525671,1,1,10,-14,-5,0,-2,-3
1537921795538636,-1,1,11,28,9,0,1,1
1537921795538636,-2,-7,-20,-15,-5,-2,2,0
1537921795544620,0,1,1,-3,-3,0,-1,-1
1537921795544620,1,-1,-2,-8,-2,-3,-1,2
1537921795560577,0,-2,1,-5,-1,-3,-3,0
1537921795560577,0,-4,-2,23,7,0,0,-1
1537921795567559,-2,2,10,20,5,1,3,-3
1537921795567559,-2,-3,-7,-7,0,-1,-2,-2
1537921795583516,-2,-2,-19,-33,-9,-2,1,1
1537921795583516,-1,-4,-12,-69,-5,-2,-4,0
1537921795585511,0,2,17,78,4,-1,1,0
1537921795585511,-3,2,5,11,-1,-1,-1,-3
1537921795598476,-1,3,22,34,11,2,-1,0
1537921795598476,-3,-2,-6,7,1,1,0,-1
1537921795605457,0,0,-16,-49,-7,-3,-4,-4
1537921795605457,-1,-6,-5,-13,-8,-1,-1,3
1537921795620417,1,1,5,12,7,2,-1,-2
1537921795620417,0,-2,-2,3,-3,0,1,-1
1537921795627398,0,-2,-21,-32,-7,-1,0,-3
1537921795627398,-1,0,8,-10,-6,-1,-1,-3
1537921795644354,-2,3,9,30,6,4,-3,1
1537921795644354,1,3,8,2,2,-5,-1,0
1537921795645351,1,1,7,52,11,-1,2,4
1537921795645351,-4,-3,1,-28,-3,-2,-1,1
1537921795659314,-1,-2,-1,10,-3,-2,-1,-1
1537921795659314,-2,-7,-29,-50,-20,0,-1,-4
1537921795665297,1,-1,4,-6,1,1,-2,-4
1537921795665297,3,10,31,80,20,5,2,1
1537921795680258,0,-6,-21,-28,-6,-2,1,0
1537921795680258,0,-2,-4,15,-4,-3,-2,2
1537921795687239,-2,-3,-8,-52,-12,-3,-1,1
1537921795687239,0,0,-3,-24,-12,1,-1,-2
1537921795703196,-3,-1,5,18,14,-2,1,-2
1537921795703196,-2,-5,-9,11,4,-3,-2,1
1537921795704194,-3,-4,2,-19,-3,-2,0,-1
1537921795704194,3,2,7,19,1,-1,-3,-4
1537921795719154,-3,5,13,9,-6,-1,1,-1
1537921795719154,0,0,-7,13,5,0,-3,-1
1537921795725137,-4,-4,-27,-30,-7,-2,-3,0
1537921795725137,1,-2,-12,-54,-20,-4,-2,-4
1537921795740098,-3,-6,11,-41,-11,-1,-3,-1
1537921795740098,0,5,18,91,22,1,3,-1
1537921795748076,1,0,18,46,5,0,-1,1
1537921795748076,-5,-4,-26,-9,11,0,1,1
1537921795763036,2,4,-9,-12,-9,-1,-1,1
1537921795763036,1,-1,6,-33,-11,-2,-5,-2
1537921795764034,0,-1,-7,-24,-6,-1,-1,-3
1537921795764034,-2,0,1,-3,-6,0,-2,-2
1537921795778994,-2,-4,-10,-6,3,2,1,-2
1537921795778994,-3,1,11,7,-2,-2,1,2
1537921795784978,-3,-1,-7,-8,2,-2,-2,-1
1537921795784978,1,-3,0,-4,-3,-3,-1,-2
1537921795799937,-2,3,5,29,5,-1,0,0
1537921795799937,-1,-2,-2,-17,-2,1,-2,-3
1537921795807916,-1,-2,12,21,-1,3,-1,0
1537921795807916,-1,1,-7,-16,-8,-4,1,-5
1537921795830854,3,0,2,1,2,-1,-1,1
1537921795830854,-1,-2,6,28,10,1,2,0
1537921795831852,0,0,-3,-11,-1,-2,0,-2
1537921795831852,-1,-2,-5,-4,2,1,-3,1
1537921795838833,1,-2,-12,-8,-7,-4,1,0
1537921795838833,0,0,0,-17,-7,-2,-2,-1
1537921795844817,-2,-1,-4,-11,-2,0,-3,-1
1537921795844817,-2,-7,-25,-44,-4,0,-2,0
1537921795859777,0,6,35,49,3,0,0,-1
1537921795859777,-5,0,21,53,12,0,0,1
1537921795867756,0,-1,-3,14,-1,-3,0,1
1537921795867756,1,0,-10,-14,-6,-2,0,0
1537921795883713,-3,-6,-24,-48,-8,1,-3,-4
1537921795883713,2,-1,0,-15,-7,-1,-3,-1
1537921795883713,-2,0,5,6,1,-2,2,-1
1537921795883713,1,0,-4,0,3,-1,-1,0
1537921795898673,-1,2,0,-3,-1,-2,2,-2
1537921795898673,0,1,-2,-9,-5,-1,-1,0
1537921795904657,-1,-1,-14,-40,-3,-2,-1,0
1537921795904657,-1,1,20,55,5,1,1,-1
1537921795919617,-1,-1,-2,-19,4,1,-3,-2
1537921795919617,-2,3,13,5,-2,0,0,-2
1537921795927596,-1,2,17,96,18,0,5,4
1537921795927596,-2,-2,-2,-14,2,-1,-2,4
1537921795943553,-1,-3,-11,2,-5,1,-1,-1
1537921795943553,-2,-5,-24,-61,-16,-3,-1,-4
1537921795943553,0,-1,0,-31,-9,1,-5,-6
1537921795943553,1,2,4,7,3,0,1,-2
1537921795959511,-3,-4,-5,-5,-7,-3,-2,-1
1537921795959511,0,-7,-38,-39,-8,-1,0,-4
1537921795965495,-1,-2,-10,-64,-22,-5,-1,-1
1537921795965495,-2,3,24,19,15,0,1,1
1537921795980455,-2,10,48,59,0,-2,0,0
1537921795980455,4,-2,-38,-4,7,1,0,-1
1537921795987436,-3,7,44,-14,-29,-3,-7,-10
1537921795987436,0,-3,14,67,50,9,9,10
1537921796003393,-8,-2,-20,-15,26,-1,3,7
1537921796003393,4,11,-1,-6,-31,-7,-4,-2
1537921796004391,3,-8,-2,54,-7,5,-1,-2
1537921796004391,-5,-12,-32,-61,-1,-5,-6,-6
1537921796019351,1,6,8,-42,-20,6,3,2
1537921796019351,3,5,-3,-14,31,3,-8,-3
1537921796025334,-3,-9,-43,-60,-12,-1,1,-1
1537921796025334,-1,5,10,-10,-32,-4,-8,-14
1537921796040295,11,-1,9,37,-29,1,7,10
1537921796040295,-5,8,56,39,18,2,2,11
1537921796047276,-6,1,56,127,108,8,4,8
1537921796047276,-8,-8,-62,-60,-43,-10,-6,-3
1537921796063233,4,-6,0,36,-11,1,-11,-19
1537921796063233,-8,-5,34,60,7,-7,1,4
1537921796064231,-7,-12,-29,-73,-16,0,5,3
1537921796064231,-2,-8,-34,-91,-24,-14,-16,-8
1537921796079191,-2,1,-74,-128,-71,-4,-3,-18
1537921796079191,15,11,70,6,13,25,16,16
1537921796085175,0,16,75,127,44,-9,-2,8
1537921796085175,-10,-7,-16,-43,-4,-13,-5,-1
1537921796100136,0,-13,-65,-88,2,-10,0,-1
1537921796100136,-7,9,-34,-87,-50,-2,-11,-17
1537921796108114,8,1,56,18,12,8,5,5
1537921796108114,-8,-6,12,76,23,6,10,9
1537921796123074,-13,-12,8,14,22,-19,-19,-17
1537921796123074,-12,-22,-81,-123,-16,-14,-16,-17
1537921796130056,20,21,-23,-127,-104,13,12,14
1537921796130056,20,17,39,50,103,28,8,19
1537921796139031,-1,13,86,127,70,14,22,15
1537921796139031,1,-10,-35,-21,7,-7,0,2
1537921796145015,-12,1,-21,-106,-66,-18,-26,-35
1537921796145015,2,0,-9,-9,-42,-9,4,0
1537921796159975,-14,-4,18,-17,28,5,-7,-5
1537921796159975,6,11,31,65,18,-13,-8,-6
1537921796167954,-5,-18,-36,-21,5,1,9,8
1537921796167954,2,-8,-36,-47,-17,16,4,-2
1537921796182914,21,24,32,-80,-42,-4,1,15
1537921796182914,-9,2,49,100,7,0,4,5
1537921796189895,-8,-15,-46,-3,24,-9,-7,-2
1537921796189895,0,6,-18,-84,-46,-10,-7,-15
1537921796205853,-2,-5,20,81,34,4,1,-4
1537921796205853,-5,-11,-4,31,20,9,-2,-6
1537921796206850,0,7,-14,-32,9,-8,-5,-1
1537921796206850,5,5,16,-5,-19,6,7,18
1537921796221810,7,2,-8,7,1,7,5,11
1537921796221810,0,-6,-9,-36,-18,-6,-2,-4
1537921796227794,-3,-5,-13,5,-7,-3,-3,-10
1537921796227794,-6,1,35,32,9,-10,-9,-19
1537921796242754,-9,-11,-24,-23,-18,-11,-10,-1
1537921796242754,1,1,1,21,11,14,17,9
1537921796249736,3,-4,-22,-29,-6,4,-1,4
1537921796249736,-2,0,37,45,6,1,-3,-3
1537921796258712,3,3,-7,3,7,-2,5,6
1537921796258712,-5,-12,-7,-11,-7,-7,-5,-9
1537921796264696,0,3,-2,2,8,-1,2,0
1537921796264696,1,-1,-4,1,3,-2,2,1
1537921796279655,-3,-6,-24,-31,-15,-4,-7,-5
1537921796279655,4,3,20,6,8,2,0,2
1537921796287635,0,2,2,19,7,1,1,4
1537921796287635,-3,0,15,37,5,-3,0,-1
1537921796302595,-1,-6,-18,-15,-4,0,1,-6
1537921796302595,0,-4,-21,-32,-17,-4,2,5
1537921796310572,0,4,20,19,14,2,1,1
1537921796310572,-1,-4,-1,5,-6,-6,0,1
1537921796325532,-1,-4,-17,-25,-3,1,1,2
1537921796325532,3,4,13,-6,-4,1,0,-2
1537921796326530,-2,3,9,19,12,3,-3,-8
1537921796326530,-1,-1,8,21,4,1,-2,-1
1537921796340492,0,-6,-2,5,-5,-2,-2,3
1537921796340492,-3,-3,-10,10,-15,-2,1,3
1537921796347474,-2,-1,-3,-14,14,1,-2,-1
1537921796347474,2,4,-7,-50,-20,-2,0,1
1537921796362433,0,0,12,50,28,4,-1,-4
1537921796362433,0,-2,1,-17,-7,-6,3,2
1537921796370412,-1,-3,-12,4,3,-2,-1,-1
1537921796370412,-1,3,12,36,6,4,-1,1
1537921796385372,-4,-6,-14,-21,-11,-2,0,-3
1537921796385372,0,-1,1,-14,15,4,-4,-5
1537921796386370,0,7,14,31,3,1,2,1
1537921796386370,-3,-15,-17,-6,0,-2,2,2
1537921796400332,0,4,-1,-5,-3,-3,0,0
1537921796400332,-2,-1,-14,-32,-13,1,-2,1
1537921796415292,0,-1,6,-16,0,0,-5,-4
1537921796415292,4,4,0,2,9,0,0,-1
1537921796422273,-1,0,4,-12,1,1,1,2
1537921796422273,-2,-8,-11,23,-6,-4,0,1
1537921796430252,-1,0,12,5,-7,-4,-2,-1
1537921796430252,-2,-6,-12,0,12,0,-1,-2
1537921796446209,-1,-1,1,-13,-5,-1,-2,-1
1537921796446209,-1,1,5,14,2,-1,-1,-2
1537921796446209,-3,-9,-15,-12,-14,-1,3,1
1537921796446209,-3,2,20,29,14,0,-2,-2
1537921796460172,1,-2,-15,-16,-5,-1,-1,0
1537921796460172,-1,-1,-5,-12,1,-3,-1,-3
1537921796467154,0,0,-4,-4,-7,-2,-2,1
1537921796467154,-1,3,5,-36,-28,-2,3,-2
1537921796482114,-3,-6,-11,21,20,-2,1,-4
1537921796482114,-2,0,3,4,2,-2,-1,2
1537921796490093,1,0,4,33,12,3,-3,1
1537921796490093,-3,-1,8,6,-5,0,-1,-2
1537921796506051,-2,2,12,-17,-25,-9,-1,1
1537921796506051,1,-8,-34,-54,-15,0,-1,0
1537921796506051,1,9,28,52,26,7,-1,-1
1537921796506051,0,-4,-11,14,13,0,-1,1
1537921796520013,-1,3,21,45,0,0,-1,1
1537921796520013,0,-1,-3,3,8,0,0,0
1537921796527991,-3,-5,-15,-43,-17,-2,2,-1
1537921796527991,1,-3,-26,-47,-13,-3,-1,-4
1537921796542951,2,1,12,5,4,-2,0,-2
1537921796542951,-3,1,20,15,1,-1,-2,1
1537921796549933,-3,-9,-25,-22,-18,0,0,0
1537921796549933,0,8,31,56,25,1,-1,-2
1537921796565890,-2,-4,-11,-2,4,-1,-1,3
1537921796565890,-2,-1,-2,1,-5,2,-3,-2
1537921796566887,-3,-3,-28,-53,-9,-3,-1,-1
1537921796566887,0,2,7,-12,-14,1,-4,0
1537921796579852,3,2,5,-2,5,5,-4,-4
1537921796579852,-2,3,29,88,21,-3,1,2
1537921796587831,-3,-2,9,-8,-17,-4,-1,0
1537921796587831,-1,-5,-23,-8,21,2,0,0
1537921796602791,0,-5,-12,-59,-23,-6,1,0
1537921796602791,0,0,-7,5,-6,1,0,-2
1537921796609773,4,1,-13,-17,-11,-3,-3,-1
1537921796609773,-4,2,41,34,3,-2,-1,-3
1537921796625730,-1,-1,3,28,13,5,1,2
1537921796625730,0,-4,-17,-28,11,-4,1,-3
1537921796626727,-2,-5,-16,12,-5,-4,-1,4
1537921796626727,2,-6,-65,-116,-30,-3,-2,-3
1537921796639693,-4,4,28,45,-7,-3,-4,-4
1537921796639693,1,19,86,93,23,10,0,-4
1537921796647671,-4,-12,4,108,60,-2,4,6
1537921796647671,1,-9,-80,-66,-76,-6,-3,1
1537921796663629,1,20,88,81,32,1,0,-4
1537921796663629,-4,-14,-47,-94,-72,-7,2,8
1537921796669613,-1,10,18,41,40,3,-3,-7
1537921796669613,2,7,13,-2,69,13,3,3
1537921796685570,1,-7,-71,-45,-22,-10,-6,-3
1537921796685570,-4,2,93,117,43,5,2,-3
1537921796686568,-2,-3,-25,-87,-52,-4,1,4
1537921796686568,-1,-7,-70,-75,-37,-5,-7,-5
1537921796700530,5,13,49,-40,-22,1,-2,-6
1537921796700530,-1,-15,-54,-128,-12,-4,-4,-7
