timestamp,emg1,emg2,emg3,emg4,emg5,emg6,emg7,emg8
1537922008257530,0,0,-5,-9,-3,0,0,1
1537922008257530,-1,1,1,-3,0,-1,0,-1
1537922008265508,-1,-2,6,6,-1,0,0,-2
1537922008265508,1,7,11,-4,-1,-1,0,0
1537922008267503,1,-1,-12,-5,-1,-2,-2,1
1537922008267503,-1,1,8,5,-2,-1,0,-3
1537922008269498,-1,0,1,-5,-2,-1,-2,-1
1537922008269498,-2,-13,-2,0,-3,-2,-1,-1
1537922008270496,1,35,-12,4,3,1,1,-2
1537922008270496,-1,2,15,5,1,0,0,0
1537922008286453,0,-11,-1,-5,-5,-2,0,0
1537922008286453,-1,7,-1,5,-1,0,0,0
1537922008293434,0,-8,11,-9,-3,-2,-3,-2
1537922008293434,2,12,-25,-7,-1,-1,-4,0
1537922008301413,-1,12,40,12,4,1,-1,0
1537922008301413,-2,-18,-15,9,1,-1,-1,-1
1537922008315375,0,3,1,3,1,0,0,1
1537922008315375,-2,-11,-3,-20,-3,-1,0,-1
1537922008332330,1,-17,-23,4,0,-2,-1,-1
1537922008332330,1,18,8,-4,1,0,0,-1
1537922008333328,-4,-29,10,10,-1,-2,-2,-2
1537922008333328,3,21,25,-5,-1,1,-1,1
1537922008379204,-1,7,5,2,1,-1,0,-1
1537922008379204,-1,3,10,-7,-4,-2,0,0
1537922008380203,0,18,-16,0,0,-1,-3,0
1537922008380203,-3,-27,10,3,1,-1,-1,-2
1537922008384191,2,16,7,-5,-6,-2,1,1
1537922008384191,-1,2,8,-1,-1,0,0,-2
1537922008384191,0,-18,8,7,7,2,1,0
1537922008384191,-1,23,-23,-4,-1,0,-2,1
1537922008390175,-2,-12,-17,11,4,1,1,0
1537922008390175,-1,0,-1,-3,-2,-2,-2,0
1537922008397156,1,12,36,-11,-6,-3,-2,0
1537922008397156,-2,10,-28,7,-1,-1,0,-1
1537922008406132,0,-6,1,-5,2,-1,-1,0
1537922008406132,3,9,-11,2,1,1,-1,0
1537922008421092,-7,-24,26,-4,-2,-2,-1,-2
1537922008421092,1,25,5,-8,-2,-2,0,-1
1537922008427077,-1,-29,-20,-14,-4,-2,-3,-3
1537922008427077,-2,-18,-18,11,3,0,1,-1
1537922008451012,0,-7,-2,5,0,-1,0,0
1537922008451012,-2,5,45,-10,-2,-1,0,-2
1537922008453007,0,5,-15,-5,-6,-2,-1,-1
1537922008453007,-1,2,-5,8,4,0,-1,-1
1537922008465972,-2,-7,-17,1,-2,0,0,1
1537922008465972,5,32,25,-1,-1,-1,-1,-1
1537922008471956,-5,-38,-2,10,1,1,-2,0
1537922008471956,-5,-6,12,8,-1,-2,-1,-3
1537922008488911,-1,12,-3,1,-1,-1,-2,-1
1537922008488911,1,-6,-17,-13,-1,1,0,2
1537922008489908,3,28,-4,-25,-2,0,1,-1
1537922008489908,-2,10,68,13,-4,-2,-3,-3
1537922008510853,0,-3,-61,11,6,1,1,1
1537922008510853,0,-7,25,-6,-3,-2,-1,0
1537922008512847,8,3,-39,9,2,1,2,6
1537922008512847,-7,4,-10,-21,-5,0,-2,-5
1537922008524815,1,12,15,-3,0,1,1,-1
1537922008524815,0,0,13,6,0,-2,-5,-1
1537922008533791,3,-3,15,2,1,1,0,2
1537922008533791,0,-8,-7,-3,-5,-3,-1,-1
1537922008548751,-5,0,-16,-3,-4,-3,-3,-7
1537922008548751,6,-17,0,-5,-2,-1,0,3
1537922008550745,-5,0,-18,5,-1,-1,-1,-2
1537922008550745,-2,0,-10,0,0,0,-2,-2
1537922008571690,3,7,10,-12,-4,-2,0,4
1537922008571690,0,-18,-6,15,3,0,1,-2
1537922008572687,-3,-9,21,5,1,-2,-1,-3
1537922008572687,5,9,-39,-23,-4,-1,0,-1
1537922008584655,-1,16,45,17,-1,2,1,5
1537922008584655,-1,-19,-17,6,2,2,-1,0
1537922008593632,-12,-29,-5,-5,-5,-3,-1,-5
1537922008593632,0,6,-8,-5,-2,-2,-1,0
1537922008608591,-3,-41,-13,-5,-3,-1,-2,-6
1537922008608591,-2,10,-14,1,1,0,1,8
1537922008610586,4,25,47,18,3,0,-1,0
1537922008610586,-1,-10,-15,-13,-2,-3,-1,1
1537922008631530,1,14,-21,-6,0,2,-1,1
1537922008631530,-1,-43,4,10,0,0,-1,-7
1537922008632527,-1,-5,-4,-13,-2,-3,0,0
1537922008632527,3,6,2,4,3,1,1,0
1537922008644495,0,13,29,20,0,0,-1,-7
1537922008644495,-7,3,-34,-11,-6,-4,0,7
1537922008653471,0,12,20,0,-3,-3,-2,-1
1537922008653471,-1,-10,3,1,2,2,-2,0
1537922008669428,1,-3,-11,-12,0,0,1,2
1537922008669428,-1,15,6,2,-2,-1,-4,-4
1537922008670426,1,7,-2,-6,-3,-3,-3,-2
1537922008670426,-3,-43,-10,0,0,-1,2,-2
1537922008691370,-1,9,8,-1,2,1,0,-3
1537922008691370,-1,-8,-20,0,0,-1,-2,-3
1537922008692367,1,28,6,-2,2,-8,-5,-1
1537922008692367,1,-10,-26,0,-3,12,-1,2
1537922008705332,0,-2,27,-2,0,-4,-1,0
1537922008705332,0,-9,-9,3,-1,0,-1,-4
1537922008714308,-1,22,13,-4,-3,-1,-2,-4
1537922008714308,-3,-6,6,8,3,-6,0,1
1537922008729268,-1,6,-9,-11,-8,-1,-2,-1
1537922008729268,-3,1,4,-1,1,-1,0,-4
1537922008730266,1,1,6,1,0,3,1,3
1537922008730266,2,5,6,2,0,-3,-2,0
1537922008751209,2,-14,-22,-4,0,-2,-1,1
1537922008751209,-3,-7,-2,3,3,-1,2,-1
1537922008753204,2,-8,-2,1,-1,1,1,8
1537922008753204,-4,6,3,-4,-3,-1,-1,-5
1537922008765172,0,-5,-11,0,2,-1,-3,-2
1537922008765172,1,9,12,-3,-2,-1,-1,-5
1537922008774148,-1,-17,-27,-2,-2,1,0,0
1537922008774148,2,15,14,0,1,0,0,0
1537922008789108,1,12,-5,-2,-3,-1,1,5
1537922008789108,-1,-3,7,5,1,0,0,-1
1537922008790106,-2,-4,5,1,3,3,-1,-6
1537922008790106,1,6,-1,1,-1,-4,-1,1
1537922008811050,-2,-6,-4,-1,-1,0,-2,-3
1537922008811050,0,4,-1,-4,-2,-1,0,1
1537922008813044,-4,-8,-1,3,-1,-1,-1,-4
1537922008813044,1,12,3,2,-2,-2,-1,-1
1537922008825012,-1,-5,-7,-1,-1,0,0,0
1537922008825012,1,8,0,-7,-5,-2,0,-1
1537922008833988,-2,-6,-7,1,-1,-2,0,-1
1537922008833988,0,2,4,2,3,1,1,0
1537922008848948,-1,7,2,-1,-2,-2,-1,-3
1537922008848948,-1,-42,-10,-1,-1,-2,1,0
1537922008849946,-3,-4,-4,0,1,1,-1,-3
1537922008849946,-1,4,8,1,-3,-1,1,0
1537922008870890,1,5,3,-1,-1,-2,-1,-2
1537922008870890,-3,0,-3,-1,-1,1,-1,-3
1537922008872885,1,1,-2,0,0,0,-2,1
1537922008872885,0,2,-6,-4,-3,-1,-3,-2
1537922008884853,-1,6,1,-8,-1,-2,0,-1
1537922008884853,-5,10,3,-1,-9,-1,-1,-1
1537922008893829,-1,-2,1,1,-5,-3,-1,-3
1537922008893829,2,1,-1,2,15,1,0,1
1537922008908789,1,0,-1,13,7,1,2,4
1537922008908789,-3,-23,-7,7,5,-1,-4,-5
1537922008910783,-1,17,-3,-3,0,-1,1,1
1537922008910783,0,1,8,-7,-10,-5,-3,-2
1537922008931727,-4,-19,-2,-14,-9,-5,-2,-6
1537922008931727,-1,-8,2,-4,-5,-4,-6,-6
1537922008932725,3,34,1,3,1,2,1,1
1537922008932725,-6,-30,-2,1,-2,-1,0,2
1537922008945690,2,-24,-4,1,2,0,0,-1
1537922008945690,-2,-17,-24,-2,-1,2,2,1
1537922008953669,-3,51,7,-4,-2,-3,-4,-7
1537922008953669,-4,-15,2,0,0,0,1,-4
1537922008967631,10,70,12,6,1,1,-1,4
1537922008967631,-8,38,-11,-6,-1,-1,1,3
1537922008976608,-2,15,7,0,0,-1,1,-1
1537922008976608,2,-5,-7,-3,-1,-2,-1,6
1537922008991568,-2,5,4,0,-3,-3,-2,-8
1537922008991568,13,37,8,0,2,2,2,7
1537922008992565,-9,-29,-9,-4,-1,0,-6,-21
1537922008992565,0,2,-4,1,1,0,-4,-8
1537922009004533,-3,-3,-4,-3,-1,-2,-1,2
1537922009004533,0,1,8,-3,1,-3,-1,1
1537922009013509,0,-35,-4,-2,-3,0,3,8
1537922009013509,1,-14,-2,2,0,0,-1,1
1537922009028469,-1,9,-8,0,1,1,-1,-8
1537922009028469,8,84,25,2,-2,0,-3,0
1537922009030463,-10,-107,-30,-1,0,-2,-1,0
1537922009030463,-10,7,-12,-4,-5,-1,-1,-2
1537922009051407,-13,-68,8,-9,-5,-4,-1,-1
1537922009051407,-6,-48,0,-3,1,-3,0,-4
1537922009052405,12,24,13,3,1,1,2,1
1537922009052405,7,1,0,6,3,0,1,15
1537922009065370,-1,0,-7,0,1,0,-4,-26
1537922009065370,13,21,11,-18,-6,0,0,-12
1537922009074346,3,51,-42,-27,-9,-9,-27,36
1537922009074346,-16,-43,31,-20,-8,3,10,-19
1537922009088308,-4,12,26,28,18,5,10,29
1537922009088308,-20,-17,-61,60,2,-3,-4,-60
1537922009090303,5,29,-3,-89,-24,8,5,17
1537922009090303,-6,33,-29,30,-1,13,-7,-68
1537922009111247,19,-21,-31,-69,-45,-49,-7,116
1537922009111247,17,57,112,-14,-1,12,-16,-71
1537922009112245,-19,-103,-93,117,26,-56,11,-7
1537922009112245,-17,5,77,72,70,21,5,-32
1537922009133189,-4,48,57,-90,2,30,-18,-54
1537922009133189,-13,-78,114,102,85,42,35,41
1537922009134186,5,55,-26,-126,-39,31,20,-16
1537922009134186,-4,-28,-44,-44,-60,-30,8,-26
1537922009148149,18,0,52,-21,-18,37,70,26
1537922009148149,-45,36,-54,-128,-91,-128,-121,44
1537922009149146,12,-61,37,100,58,118,104,15
1537922009149146,-62,8,-115,-120,12,-58,-67,-18
1537922009171087,-25,-25,42,108,-41,-50,15,45
1537922009171087,22,10,72,-14,38,29,41,9
1537922009171087,26,46,3,-16,76,20,-27,-45
1537922009171087,83,75,20,77,26,-21,-43,51
1537922009193029,-61,-43,-57,45,22,10,-37,-17
1537922009193029,-98,-1,-62,-25,-37,42,-7,-53
1537922009194027,4,-14,-1,-108,-75,-54,27,20
1537922009194027,9,-13,27,40,-20,20,-12,-24
1537922009207990,17,-3,-50,-23,3,-4,50,-38
1537922009207990,43,-5,28,18,-25,-42,-37,67
1537922009208986,-8,12,106,33,16,16,-10,18
1537922009208986,5,-5,2,-18,-2,45,73,63
1537922009230927,15,1,-26,4,-1,-44,-70,-59
1537922009230927,20,-18,-64,-16,18,31,35,26
1537922009230927,-3,8,-26,-4,-14,-32,-26,44
1537922009230927,-2,-4,48,21,-3,-9,15,-12
1537922009252868,-1,4,-20,-1,20,20,-18,-17
1537922009252868,21,-3,-34,-19,-6,-5,16,11
1537922009253866,-9,-2,16,21,-22,-27,-38,-38
1537922009253866,7,3,-37,-21,2,10,29,18
1537922009267828,-2,2,0,-3,27,22,1,3
1537922009267828,0,-10,-25,23,-7,-9,1,-11
1537922009268826,-3,-4,14,12,-2,-11,-15,-16
1537922009268826,-5,-2,14,-21,-8,8,2,10
1537922009290767,10,5,-13,-14,2,1,-4,3
1537922009290767,7,-9,-9,19,-4,-4,1,-9
1537922009291765,-9,3,1,1,1,1,6,-9
1537922009291765,4,5,-5,-31,-8,-3,-6,11
1537922009312709,0,2,9,11,7,1,-6,-12
1537922009312709,2,-3,-18,1,-1,2,24,2
1537922009313706,-7,-1,-2,-1,-2,-1,-9,-6
1537922009313706,-6,0,3,-7,2,-3,-7,1
1537922009327669,4,-3,3,10,-3,-1,0,-4
1537922009327669,3,-6,-11,-9,3,6,8,1
1537922009328666,0,3,-2,4,-2,-6,-6,-3
1537922009328666,-3,-3,7,-2,-3,-5,-6,-6
1537922009358586,-5,1,-6,-12,-3,4,8,6
1537922009358586,0,0,-13,-4,4,4,5,6
1537922009359584,-4,1,2,5,-3,-7,-8,-5
1537922009359584,0,0,0,-2,-6,-3,0,-16
1537922009373546,0,0,-5,-9,5,7,2,3
1537922009373546,1,-3,-8,6,2,2,0,-2
1537922009373546,0,0,4,11,-1,-1,-3,-4
1537922009373546,1,2,0,-8,-5,-1,1,12
1537922009395488,2,-1,-4,-4,-1,-1,-3,-2
1537922009395488,2,-4,-4,1,-2,-1,0,-5
1537922009396485,-1,1,2,5,2,1,2,-3
1537922009396485,1,0,-3,-7,-1,-2,-1,6
1537922009410447,2,1,4,-3,-1,-2,-2,-3
1537922009410447,0,-7,-9,2,4,-1,4,1
1537922009418426,-2,0,-5,-6,-2,-3,-5,-2
1537922009418426,1,-5,4,6,-1,-1,-3,2
1537922009433386,1,8,0,-2,-4,-1,-1,-4
1537922009433386,1,-1,1,-2,2,3,3,-1
1537922009433386,1,1,-2,2,1,-3,-1,0
1537922009433386,0,3,-1,-2,0,-3,-2,-1
1537922009455327,-4,1,-5,-5,-3,-2,2,-3
1537922009455327,0,-20,-4,0,0,0,0,-1
1537922009456325,-1,19,9,5,2,0,-4,-5
1537922009456325,1,3,-4,-3,-1,-1,1,5
1537922009470287,-2,4,-2,-2,1,2,0,-3
1537922009470287,-1,-3,5,-1,0,-1,0,-2
1537922009478266,0,-3,-6,1,-1,-2,-2,-1
1537922009478266,0,5,10,-2,-5,-3,-1,2
1537922009494223,-2,-35,-18,-2,1,0,-1,-1
1537922009494223,-1,9,0,-2,1,-1,-1,0
1537922009494223,4,18,5,0,-3,0,-2,2
1537922009494223,2,4,5,4,1,9,1,1
1537922009515168,-5,-4,3,-8,-9,-6,-4,-5
1537922009515168,-3,-19,-3,1,-1,0,2,-2
1537922009516165,-1,11,6,-1,-1,-3,-1,-2
1537922009516165,-1,-24,-7,-2,0,-2,-1,-1
1537922009530128,1,15,-1,1,4,3,-1,0
1537922009530128,3,17,-3,3,-1,2,0,0
1537922009538106,3,33,9,0,-1,3,0,-1
1537922009538106,0,59,5,-3,-4,-5,-3,0
1537922009553066,-4,-85,-15,-1,0,-1,-1,-2
1537922009553066,3,6,4,0,0,-1,1,12
1537922009554064,-11,-36,-6,-2,-2,1,-5,-15
1537922009554064,3,5,-3,-1,-1,1,-2,2
1537922009576005,21,127,24,10,4,4,6,22
1537922009576005,-17,-102,-43,-6,-5,-3,-11,-40
1537922009576005,3,86,17,-12,0,-1,6,12
1537922009576005,-4,-96,-36,-15,0,-3,0,45
1537922009589968,-8,11,-13,-104,-28,3,-23,-91
1537922009589968,-1,21,19,-22,-22,-13,21,16
1537922009597946,-3,-62,-47,-17,5,33,63,38
1537922009597946,-14,57,-22,-74,-15,-46,-93,-31
1537922009612907,16,-85,-43,114,2,-7,32,32
1537922009612907,29,37,34,60,19,26,-6,2
1537922009613904,-27,-20,57,-31,8,-34,-37,9
1537922009613904,74,-19,40,119,72,120,127,-39
1537922009635845,2,42,114,7,61,-79,-128,5
1537922009635845,-28,-19,-90,-20,-38,-82,83,48
1537922009635845,-11,68,96,-2,-33,-8,-60,16
1537922009635845,-46,-83,-119,-90,-44,64,86,31
1537922009649808,3,42,110,-35,-13,119,-12,47
1537922009649808,-33,15,101,54,8,-52,-72,-67
1537922009657786,7,-23,-33,23,56,4,-25,24
1537922009657786,24,33,-75,-42,-24,39,-1,19
1537922009672746,57,3,53,127,40,16,73,110
1537922009672746,-19,-50,-97,36,67,86,92,68
1537922009673744,-4,1,-35,84,27,-34,-75,-60
1537922009673744,-28,30,-41,12,-35,-42,-68,-36
1537922009695685,1,-7,-23,-58,-53,-34,27,31
1537922009695685,-14,7,-19,-121,-51,-23,-66,-100
1537922009696683,37,0,13,14,-12,-17,18,39
1537922009696683,-11,16,-15,-42,-6,-52,-28,-23
1537922009718624,-14,-18,-52,-67,-36,-35,-38,-61
1537922009718624,6,2,32,-20,5,23,-41,0
1537922009719621,9,-23,-63,-21,-5,46,62,0
1537922009719621,-17,0,57,34,38,5,6,-9
1537922009733583,1,-10,-41,-29,-10,1,6,-37
1537922009733583,21,35,40,40,22,17,12,20
1537922009733583,-22,-26,-43,-15,-17,-3,-6,-22
1537922009733583,11,-2,61,-4,-9,-23,4,26
1537922009755525,-9,-6,-16,40,10,-13,8,-13
1537922009755525,3,12,-35,-28,-7,9,-21,10
1537922009756523,-8,-14,11,-18,-14,-7,20,-14
1537922009756523,4,-1,34,31,-4,-31,-26,-2
1537922009778464,-20,-8,-31,-20,5,16,14,-11
1537922009778464,3,7,13,20,7,13,1,-4
1537922009779462,10,-18,-6,-33,-2,1,6,-12
1537922009779462,-5,-3,42,41,9,-9,-4,9
1537922009793424,-18,-12,-38,-3,1,-4,-3,-11
1537922009793424,10,2,7,-20,-21,-2,6,13
1537922009793424,4,-6,8,9,-5,-5,3,-6
1537922009793424,-5,-4,-8,-4,10,-7,-14,5
1537922009815365,-10,-8,-13,-15,-4,2,15,-4
1537922009815365,15,0,5,1,3,-3,-5,21
1537922009816363,-6,-10,-15,-9,-8,7,2,-55
1537922009816363,-5,4,6,-8,-7,-7,2,1
1537922009838304,-4,13,-7,-2,-1,-3,-14,-14
1537922009838304,6,12,4,2,5,-1,0,0
1537922009839301,0,-24,-9,-3,-7,-1,-1,14
1537922009839301,0,-22,14,-3,-3,-2,2,6
1537922009853264,-5,-17,-3,4,6,-2,9,-8
1537922009853264,-5,-2,-8,-4,-1,2,-8,0
1537922009854261,-2,7,3,-5,-5,1,5,3
1537922009854261,0,10,9,1,1,-7,-1,-4
1537922009875205,0,3,-11,-1,2,3,-3,7
1537922009875205,9,12,2,-1,-1,-1,-2,-6
1537922009876202,5,7,3,0,-1,2,1,5
1537922009876202,-6,7,1,-4,0,-5,-4,1
1537922009899141,-12,7,-5,8,2,1,4,-2
1537922009899141,-8,0,3,-5,-5,-1,2,-1
1537922009899141,-3,-1,2,2,-1,-1,-1,-1
1537922009899141,-1,1,1,-3,-2,-2,-5,2
1537922009913104,1,4,-4,-8,-6,-1,6,-2
1537922009913104,1,2,-7,-3,3,0,-3,-6
1537922009914101,2,2,-4,-4,-4,1,1,5
1537922009914101,1,1,2,-1,-1,-2,-4,-2
1537922009936042,0,-5,-2,-1,0,0,5,-2
1537922009936042,4,0,2,1,1,-1,2,-1
1537922009936042,0,1,-3,-1,-1,-1,0,2
1537922009936042,2,-3,1,2,1,-1,-2,-1
1537922009965962,1,-5,-4,-1,-2,-2,3,-1
1537922009965962,-1,2,0,-1,0,0,-2,0
1537922009966960,-1,-5,-2,-3,-6,-3,0,-3
1537922009966960,1,-3,-3,3,1,1,-4,0
1537922009972944,0,0,-1,-2,0,2,3,2
1537922009972944,0,3,3,3,-1,-2,0,-2
1537922009973941,0,2,3,-2,-2,-1,-2,0
1537922009973941,-1,1,-4,1,0,-3,-1,-1
1537922009995882,-1,-4,-5,-6,-2,-3,-2,0
1537922009995882,0,12,-1,4,1,0,1,-1
1537922009995882,-1,2,-2,0,-1,-1,2,-1
1537922009995882,2,6,10,1,1,2,0,8
1537922010018822,-6,-7,-15,-2,-3,-1,2,-18
1537922010018822,-1,-1,5,-3,-3,0,-7,-5
1537922010019819,1,-5,-3,0,0,0,-5,4
1537922010019819,-3,1,3,2,1,-1,-2,-4
1537922010032784,0,-6,3,1,2,2,3,4
1537922010032784,-1,-9,-6,0,-3,1,0,1
1537922010033781,-2,6,0,-1,-2,-1,1,-3
1537922010033781,0,-6,-1,-3,-5,-2,-2,2
1537922010055723,1,0,3,2,1,2,-2,1
1537922010055723,-1,-6,-6,-1,-1,-3,1,0
1537922010056720,0,-6,-1,-4,0,0,-1,2
1537922010056720,0,10,13,1,3,0,-2,-3
1537922010078661,1,0,-5,-2,-2,0,0,0
1537922010078661,-1,-10,-4,-2,-4,1,-2,0
1537922010079659,-3,-5,-5,4,3,3,2,-1
1537922010079659,2,4,-2,-3,-2,-2,-3,-2
1537922010093622,-3,-2,-9,-3,-2,-4,0,0
1537922010093622,0,1,6,-1,0,1,1,0
1537922010093622,2,8,17,1,-2,-1,-1,-2
1537922010093622,-2,-1,-19,-1,-1,1,0,-2
1537922010115563,0,-1,2,-2,-1,1,-2,1
1537922010115563,0,1,-5,-1,-4,-3,0,0
1537922010116560,-3,-5,1,2,0,2,1,0
1537922010116560,-2,-5,3,-2,-1,-3,0,-2
1537922010138501,1,2,4,0,-2,-1,-2,0
1537922010138501,-2,0,0,0,3,2,0,0
1537922010139499,-1,-5,-12,-1,-2,-2,0,0
1537922010139499,1,-4,-2,-2,-3,-2,-2,-2
1537922010152464,0,-2,1,-1,-1,-1,0,2
1537922010152464,-1,0,3,-4,-4,-4,0,-1
1537922010160443,-4,1,-1,-1,0,1,-1,-1
1537922010160443,-1,-5,0,-1,-1,-2,0,0
1537922010175403,-3,5,-7,-3,-5,-1,0,-2
1537922010175403,-2,3,11,1,0,-11,0,-1
1537922010176400,1,-6,-17,-2,0,-1,-1,1
1537922010176400,-1,7,-2,-3,-4,-4,-2,-2
1537922010198341,0,1,17,3,3,2,-1,0
1537922010198341,-3,-7,-18,-1,0,2,-1,-1
1537922010199338,-1,1,11,-3,-5,-2,-2,-2
1537922010199338,0,-15,-5,2,2,0,-2,-2
1537922010213301,0,10,-8,-6,-4,-2,0,1
1537922010213301,1,2,4,0,-1,1,0,-2
1537922010213301,-1,2,3,-1,-2,-2,0,-1
1537922010213301,1,0,14,2,0,-1,0,-1
1537922010235242,-2,-9,-22,-2,0,-1,-1,-2
1537922010235242,-1,-3,-7,2,0,-1,-1,0
1537922010236240,1,-1,-1,-2,0,-1,-2,-2
1537922010236240,1,0,9,2,1,3,-1,0
1537922010259179,0,-6,1,3,3,-1,2,1
1537922010259179,-2,7,2,-3,-4,-1,-2,-1
1537922010259179,0,17,10,-5,-6,-6,-4,0
1537922010259179,-2,-6,-25,-2,2,2,1,0
1537922010273141,-1,-1,5,0,0,1,0,-1
1537922010273141,0,-10,-3,1,1,0,0,1
1537922010274139,-1,-11,0,1,-1,-1,-1,-1
1537922010274139,-2,0,12,-2,-3,-6,-2,-2
1537922010296080,1,0,-1,1,1,2,1,0
1537922010296080,1,24,-14,-4,-1,1,-2,-2
1537922010296080,-2,-35,-6,-2,-2,-2,-1,1
1537922010296080,0,2,-7,-2,0,0,0,0
1537922010319018,1,-4,12,0,-1,-2,0,-1
1537922010319018,0,0,5,-2,-2,-1,-1,0
1537922010319018,0,10,-2,0,0,2,1,0
1537922010319018,0,-2,3,-3,-4,-3,-1,0
1537922010331984,1,1,-6,1,2,2,-1,-3
1537922010331984,0,-3,-3,-2,-3,-1,-1,-2
1537922010340960,-1,3,-3,1,2,2,1,-3
1537922010340960,0,-4,-8,1,-1,1,-2,-1
1537922010355920,0,5,11,-2,-2,-2,-2,0
1537922010355920,-1,-8,1,-2,-3,-3,-1,2
1537922010355920,-2,1,-2,-1,0,2,0,-1
1537922010355920,-2,10,14,2,2,-2,0,-2
1537922010378858,-1,-5,-9,1,-1,-3,-2,-1
1537922010378858,1,-12,-15,-3,-2,-1,-1,-2
1537922010379857,-1,0,3,0,-1,0,1,-2
1537922010379857,-1,-2,-6,-1,-3,0,1,1
1537922010392821,-1,10,8,-2,0,-1,0,1
1537922010392821,0,-3,9,1,0,-1,-1,0
1537922010400800,1,5,-4,-2,-3,-2,0,0
1537922010400800,1,0,4,5,4,2,0,0
1537922010416757,-3,-7,4,-1,-2,-4,-1,-1
1537922010416757,0,-2,-7,-1,0,1,0,-1
1537922010416757,1,1,-1,1,3,1,-1,-1
1537922010416757,-2,-4,-6,-3,-2,-1,0,-2
1537922010438699,-1,-3,-2,-2,-4,-2,-3,0
1537922010438699,0,2,5,0,1,1,0,-1
1537922010439696,0,1,-1,3,4,1,1,0
1537922010439696,-2,-2,0,-2,-5,-2,-3,-1
1537922010452661,0,-3,-15,1,3,0,1,0
1537922010452661,0,12,20,1,1,-3,-1,0
1537922010460640,1,-6,2,-1,0,-1,0,-2
1537922010460640,-3,-3,-18,-2,-1,-1,-2,-2
1537922010476597,-2,-9,-2,0,-2,0,0,-2
1537922010476597,-2,-4,-3,-2,-2,-2,-3,0
1537922010476597,0,5,9,1,-1,0,0,1
1537922010476597,-2,1,0,-3,-1,1,0,-1
1537922010498538,1,5,-2,1,0,-1,-1,0
1537922010498538,-2,7,4,2,4,1,1,-1
1537922010499536,-2,7,0,-5,-4,-4,-4,-3
1537922010499536,1,-2,1,-2,-2,-2,-1,-5
1537922010521477,-3,0,-6,1,1,4,2,3
1537922010521477,1,1,2,1,0,0,0,2
1537922010521477,-1,-1,-10,0,-4,-4,-1,2
1537922010521477,2,0,0,2,1,0,1,-3
1537922010536437,0,1,5,-3,-4,-3,-5,-5
1537922010536437,-2,-3,9,3,2,2,-1,-3
1537922010537435,-1,-5,-14,-1,0,-1,-1,-2
1537922010537435,0,-1,-2,-2,-4,-1,-2,0
1537922010558379,0,-4,0,0,-1,-1,-1,1
1537922010558379,-1,-4,-2,-1,-1,-1,-1,-2
1537922010559376,0,7,11,-2,-1,0,-3,-1
1537922010559376,-1,-27,-13,0,-2,-2,-1,0
1537922010581317,2,13,9,-6,-4,-2,-2,0
1537922010581317,-1,-14,-6,2,5,3,0,1
1537922010582315,-4,1,5,-3,0,2,0,-1
1537922010582315,3,7,-8,0,1,-1,1,2
1537922010595280,-6,-13,-6,1,-1,-2,0,-1
1537922010595280,1,0,5,-3,-3,-4,-2,-2
1537922010604256,0,-1,3,1,-1,0,-1,-1
1537922010604256,-2,3,4,1,1,2,-1,0
1537922010619216,-2,4,3,-1,-2,-2,-1,-3
1537922010619216,-1,-3,-5,-3,-3,-1,1,3
1537922010619216,-3,-2,-9,0,1,1,-1,-2
1537922010619216,0,7,13,-3,-3,-1,-2,1
1537922010641157,-2,-6,-6,0,2,0,-1,-1
1537922010641157,-1,-10,-10,-3,-5,-4,-1,-3
1537922010642155,1,-2,0,2,4,2,2,1
1537922010642155,-1,2,3,1,0,0,0,-1
1537922010656117,2,2,6,0,-1,-1,0,-1
1537922010656117,-1,0,-4,-3,-3,-1,-3,0
1537922010657115,-1,-2,-9,-1,-2,-3,-2,0
1537922010657115,-3,4,16,2,4,1,0,-1
1537922010679056,1,-1,-6,-1,0,1,1,0
1537922010679056,2,2,1,0,-1,0,-1,-2
1537922010680054,-2,9,1,-2,-3,-2,-1,-4
1537922010680054,-2,-33,-17,0,-1,-1,-1,-1
1537922010700997,-4,-10,-7,-4,-4,-3,-1,-3
1537922010700997,-1,0,2,1,1,-1,1,-1
1537922010702992,0,4,13,0,-1,-2,0,0
1537922010702992,-1,5,-8,1,2,0,1,0
1537922010714960,3,9,2,-3,-2,0,-1,1
1537922010714960,-1,6,-9,2,2,2,-1,-3
1537922010723936,0,-9,-4,-2,-2,0,-1,0
1537922010723936,-3,-38,7,-7,-5,-5,0,-2
1537922010738896,-7,-29,-7,0,0,-1,1,-2
1537922010738896,-1,15,9,2,0,2,0,-1
1537922010739893,0,-8,-7,-2,-1,-2,1,2
1537922010739893,3,21,-3,1,-2,-2,-3,-2
1537922010760838,6,75,17,4,2,0,0,2
1537922010760838,0,-32,-11,1,2,2,3,-4
1537922010762832,0,-54,-14,-2,0,1,1,18
1537922010762832,-14,-64,-43,-18,-3,3,-11,-24
1537922010774800,0,-81,-34,-99,-16,-4,-4,21
1537922010774800,-4,40,61,36,-9,7,21,-31
1537922010783776,9,63,-54,-101,-16,-15,4,17
1537922010783776,14,-27,11,72,47,22,28,77
1537922010798736,-51,83,26,-92,-44,-31,-47,-85
1537922010798736,31,36,-109,88,45,-18,11,58
1537922010799733,-10,-2,-96,45,38,36,73,51
1537922010799733,3,63,66,-63,-31,80,29,-34
1537922010821675,11,-18,52,127,74,-80,-80,14
1537922010821675,17,47,72,-50,34,105,50,68
1537922010822673,-48,-20,-52,-37,-88,-116,1,-106
1537922010822673,32,0,-128,68,42,-15,32,25
1537922010834640,47,50,-112,-112,-40,76,-57,11
1537922010834640,-54,-99,-86,8,-78,-65,-8,-76
1537922010843616,80,78,95,101,85,25,40,116
1537922010843616,35,62,-70,-128,-36,28,26,29
1537922010858576,-34,-76,127,116,33,20,48,48
1537922010858576,9,4,-128,-22,-10,-36,-51,-60
1537922010860571,-7,-26,-27,-96,-26,53,20,-29
1537922010860571,-24,14,52,-64,-25,-70,-65,-52
1537922010881515,19,1,11,91,53,39,85,104
1537922010881515,-6,-2,38,-65,5,61,60,-46
1537922010882513,-7,-29,83,46,-7,-73,-39,-57
1537922010882513,1,27,44,3,-3,-61,-93,5
1537922010894481,23,-10,-74,-73,-34,22,6,9
1537922010894481,-32,-26,48,-12,-7,-23,-10,-34
1537922010903456,0,-1,-10,12,7,7,-13,-18
1537922010903456,1,-2,-6,11,6,38,43,-1
1537922010918416,-17,-11,-17,-7,-25,-38,-5,-11
1537922010918416,5,9,11,20,8,-28,-8,24
1537922010920411,1,15,11,-10,21,58,-5,0
1537922010920411,-17,-13,-13,12,-15,-25,-16,8
1537922010941355,-9,7,9,27,11,-7,19,-37
1537922010941355,8,20,25,-22,-2,-2,-18,13
1537922010942353,-10,-30,-18,-15,-1,19,-26,3
1537922010942353,-17,-8,19,21,-7,-20,-4,-9
1537922010955317,0,6,-12,0,1,-4,3,-29
1537922010955317,7,11,4,-16,-4,2,-10,22
1537922010963296,-9,0,7,2,-12,-15,-28,8
1537922010963296,-4,-3,1,23,6,-1,13,-11
1537922010978256,2,6,2,-11,-2,14,18,-15
1537922010978256,-2,-11,-2,-11,-3,-6,-20,23
1537922010980251,-7,-9,-4,12,6,4,-6,-8
1537922010980251,1,-1,10,5,2,5,6,-6
1537922011001195,2,44,-8,-16,-10,-3,2,-8
1537922011001195,-6,-85,7,-1,2,-5,-9,9
1537922011003190,-2,23,14,3,0,3,-9,-5
1537922011003190,-7,-20,-15,4,-1,12,3,-2
1537922011015158,-9,-9,-8,-3,-5,-18,2,0
1537922011015158,-1,25,-16,-4,-1,-4,-6,9
1537922011024134,1,7,8,-3,-3,6,-3,-4
1537922011024134,-3,15,3,2,1,-5,-8,2
1537922011039094,0,-25,-5,4,-1,1,14,-2
1537922011039094,6,22,17,2,7,4,-6,-2
1537922011040091,1,-31,9,-6,-4,1,-2,-3
1537922011040091,1,82,-2,0,-1,-6,-11,2
1537922011061035,4,-8,-6,2,-7,-10,-3,4
1537922011061035,-2,-20,-12,-5,-8,0,-5,10
1537922011063030,-5,10,-1,-2,7,-12,-10,8
1537922011063030,-8,-31,5,7,11,14,17,3
1537922011074997,-3,-31,-13,-3,0,5,3,-11
1537922011074997,6,46,9,-3,0,-1,0,7
1537922011083974,0,32,6,-1,-9,-8,-7,2
1537922011083974,-4,-75,-8,-2,-3,-3,0,0
1537922011098934,9,95,25,5,5,3,5,-6
1537922011098934,-16,-85,-28,-7,-5,-7,-9,-8
1537922011099931,1,34,3,-2,-3,2,2,3
1537922011099931,7,79,16,4,1,-3,6,-2
1537922011120875,-7,-52,-13,-3,-3,0,-7,-7
1537922011120875,6,33,13,2,2,-3,1,8
1537922011122870,3,28,-1,-2,-1,7,1,-1
1537922011122870,14,21,21,10,1,-1,-5,-1
1537922011134838,-13,-61,-38,-8,0,-2,-4,4
1537922011134838,-1,87,22,0,4,2,5,-10
1537922011143814,-8,2,-14,-3,-4,-2,-7,-17
1537922011143814,2,-80,-7,-4,-2,1,3,21
1537922011158774,20,113,10,-21,8,47,46,27
1537922011158774,1,-39,-5,-97,-28,-28,-13,0
1537922011164758,-21,-46,-87,32,0,-22,-28,-54
1537922011164758,30,-5,-36,-39,-12,-2,0,-5
1537922011181712,-18,39,31,-62,-22,-18,-29,-65
1537922011181712,-27,7,-74,73,30,106,106,-7
1537922011182710,-12,-48,40,101,41,-39,23,65
1537922011182710,31,70,-100,-56,-48,-106,-110,-12
1537922011194678,-7,-114,-3,103,47,-25,-77,61
1537922011194678,28,110,10,-36,-19,12,92,-115
1537922011211633,-8,-53,-1,-95,-4,18,-46,14
1537922011211633,-4,-9,39,112,38,-1,83,87
1537922011218614,21,30,-128,-128,-58,14,-114,-38
1537922011218614,-10,-106,127,118,10,-80,44,43
1537922011220608,8,25,-80,-61,24,50,33,46
1537922011220608,-83,-3,-87,-127,-11,36,102,-104
1537922011241553,43,-14,127,120,23,-18,60,68
1537922011241553,-3,-2,-64,-118,1,25,4,40
1537922011242550,-7,-13,-54,-103,-65,-21,-71,-42
1537922011242550,63,17,53,109,34,7,43,-67
1537922011254518,-128,-33,-81,-120,-9,40,15,-62
1537922011254518,90,10,51,68,11,3,21,46
1537922011263494,-24,-13,10,-51,-15,19,81,60
1537922011263494,11,31,12,-52,-49,-85,-128,-36
1537922011278454,3,11,6,30,2,-18,-37,-5
1537922011278454,-3,-5,-31,6,4,-18,-33,3
1537922011280449,17,47,6,-28,1,16,-2,-27
1537922011280449,-14,-31,21,16,21,56,22,37
1537922011301393,23,-3,-5,23,-10,-35,54,-6
1537922011301393,-37,5,-26,-44,5,3,-84,-18
1537922011302390,-9,-16,30,44,10,20,21,-6
1537922011302390,-15,-18,12,0,3,13,5,8
1537922011315355,7,1,16,21,21,5,9,-2
1537922011315355,-19,4,-14,-23,-26,-12,-36,17
1537922011324331,19,-1,23,27,-3,-12,-12,-9
1537922011324331,-5,-23,14,12,4,0,9,15
1537922011338294,8,17,-8,-22,0,10,8,-3
1537922011338294,-10,-14,-13,-14,1,0,-25,-2
1537922011340288,14,5,15,47,0,-17,9,-13
1537922011340288,-13,-10,3,-22,7,21,-14,3
1537922011361233,0,-24,0,2,-8,-3,26,23
1537922011361233,-15,-8,-10,1,-12,-17,-25,-25
1537922011362230,-3,2,17,20,24,15,-4,-11
1537922011362230,-14,13,0,-7,-3,13,4,18
1537922011375195,15,23,4,1,-4,-2,4,7
1537922011375195,4,-36,-6,16,7,-6,-11,6
1537922011384171,5,-5,1,-10,-11,-11,-8,-6
1537922011384171,-4,-29,-4,1,-1,10,3,4
1537922011399131,9,0,5,3,0,-6,9,-10
1537922011399131,-3,10,-9,-14,-1,-2,-19,2
1537922011400129,-3,1,6,4,-6,-4,3,-6
1537922011400129,-4,10,3,3,3,7,3,4
1537922011421072,0,13,-1,0,-1,-5,-1,-6
1537922011421072,-3,14,1,1,1,2,-8,4
1537922011423067,6,25,28,3,-4,-5,-4,1
1537922011423067,1,0,-19,-4,1,0,1,-1
1537922011435035,-4,-3,-30,-10,-3,0,1,-6
1537922011435035,-2,-1,-2,2,3,-2,-6,-1
1537922011444011,3,4,-3,1,-4,-8,3,0
1537922011444011,-8,14,31,-6,-1,0,-5,1
1537922011458972,-1,-4,0,3,1,3,4,-3
1537922011458972,0,10,-15,4,3,0,-3,3
1537922011459969,2,31,32,1,-3,-5,-4,-3
1537922011459969,-3,-20,-13,-8,-2,1,1,3
1537922011488891,2,-3,-15,1,-1,-2,1,0
1537922011488891,-1,-7,2,1,2,-1,-4,0
1537922011489889,3,-16,-22,0,-1,10,-2,-3
1537922011489889,3,22,3,-2,0,0,-2,2
1537922011494876,-2,8,7,1,-2,-3,2,-4
1537922011494876,1,22,-2,-4,-5,-3,-5,1
1537922011503851,-2,-55,-20,5,0,2,2,0
1537922011503851,-4,-7,6,2,3,1,-3,-1
1537922011517814,4,18,4,1,-6,-5,-1,-1
1537922011517814,4,20,25,2,2,6,-1,3
1537922011524795,-6,-20,-15,-4,-7,-7,-1,-4
1537922011524795,0,-16,-14,-1,-4,-1,-2,1
1537922011541750,0,-9,9,0,4,2,1,-2
1537922011541750,0,0,-24,1,-2,-2,-1,1
1537922011542747,5,26,6,-1,-1,-6,-2,-1
1537922011542747,-10,-60,-8,-5,-3,0,1,-6
1537922011563691,1,-4,1,1,-1,-1,0,4
1537922011563691,0,-3,11,1,2,-1,-3,-1
1537922011565686,1,5,1,1,2,1,1,1
1537922011565686,-1,16,-3,1,-3,-3,-1,-1
1537922011577654,0,-12,6,3,0,1,1,1
1537922011577654,-2,16,5,-1,0,0,-3,-3
1537922011584635,0,-13,-25,0,0,-2,-2,-1
1537922011584635,1,30,13,-1,0,3,-1,2
1537922011601590,0,-11,20,0,-2,-3,-1,-2
1537922011601590,-2,-6,-37,-6,-3,-1,-2,1
1537922011602587,-3,5,-1,-2,-5,-6,1,-1
1537922011602587,3,7,5,3,3,4,0,2
1537922011623531,-1,-1,-4,0,0,1,0,-2
1537922011623531,-1,-9,2,-1,-3,-5,-1,0
1537922011625526,0,-1,0,-3,-1,0,0,-2
1537922011625526,-1,-7,-9,-5,-2,-3,-1,-3
1537922011638491,-2,7,3,1,1,1,-1,-1
1537922011638491,1,5,7,-4,-2,0,-3,-3
1537922011640486,-2,3,-1,-3,2,0,-2,1
1537922011640486,0,-2,-2,0,2,-1,0,0
1537922011661431,-3,-9,-2,-3,-3,-2,-2,-1
1537922011661431,-3,-1,0,-3,-5,-3,0,-2
1537922011662428,-1,3,2,-2,-4,-4,-2,0
1537922011662428,-1,7,-1,0,-1,0,-1,1
1537922011683371,1,4,18,-1,0,-2,2,-1
1537922011683371,-2,-22,-18,-3,1,1,-3,-1
1537922011685366,2,-5,-17,-1,0,-1,-2,-2
1537922011685366,-2,12,21,-4,-3,-2,-2,0
1537922011698331,-1,23,5,-4,-5,-2,-1,-3
1537922011698331,0,-10,-8,-2,-2,-2,0,0
1537922011705313,-2,5,6,1,0,1,-2,0
1537922011705313,1,-9,9,-3,-3,-2,-1,0
1537922011721270,-2,-12,-36,-3,3,3,0,-2
1537922011721270,-2,9,19,1,-1,1,0,-1
1537922011722268,1,-1,0,2,-1,0,-1,0
1537922011722268,-1,-5,-7,-3,-5,-2,-2,-3
1537922011744209,0,1,3,-1,-1,-4,-2,-1
1537922011744209,-3,-6,-3,1,-2,3,-1,-2
1537922011745206,2,2,-2,5,4,5,4,1
1537922011745206,-3,4,5,1,2,8,0,-1
1537922011758171,1,-8,-3,-1,0,-3,-2,1
1537922011758171,-1,-1,-5,0,-1,0,-3,-1
1537922011765153,1,5,9,0,-3,-1,-2,-1
1537922011765153,-1,-2,4,-1,-4,-2,-1,-2
1537922011781110,-1,6,-1,-1,-2,3,0,0
1537922011781110,-3,-27,-28,-4,-3,-5,-1,0
1537922011783105,-1,11,6,1,0,-3,0,0
1537922011783105,0,3,0,-1,-2,-2,-2,-1
1537922011804049,1,1,-3,2,1,0,-2,0
1537922011804049,-2,0,11,0,-1,-2,0,-1
1537922011805046,-3,-2,-3,-4,-2,-2,-2,-2
1537922011805046,1,-1,-13,0,0,-1,0,2
1537922011818012,-2,8,8,-2,-2,-1,0,2
1537922011818012,-2,3,-13,-4,0,1,0,-1
1537922011824993,0,15,2,0,2,2,0,0
1537922011824993,-5,-59,-13,-4,-1,-3,-1,0
1537922011840950,-1,3,0,-2,-2,-2,-1,-1
1537922011840950,-1,-8,1,0,1,-2,0,0
1537922011842945,-2,6,8,1,5,1,0,-3
1537922011842945,4,23,14,0,0,-2,0,1
1537922011863889,1,-11,-21,-2,-1,0,-1,-2
1537922011863889,0,2,5,-3,-3,-2,-1,-1
1537922011864886,-1,-7,-5,-5,-4,-2,-2,0
1537922011864886,-1,3,-5,-3,-2,-2,1,-1
1537922011877852,-1,-13,-5,1,2,3,1,0
1537922011877852,5,20,18,0,3,0,-1,-1
1537922011885830,7,26,14,-2,0,-13,-2,2
1537922011885830,-18,-68,-19,-7,-4,-3,-1,-8
1537922011900791,-2,22,-5,-5,-1,-3,3,1
1537922011900791,2,-4,-25,1,1,0,0,1
1537922011902786,-1,1,4,3,0,1,0,-1
1537922011902786,14,62,24,9,5,4,-1,6
1537922011923729,-11,-91,-15,-8,-4,-5,-2,-5
1537922011923729,-4,8,43,1,0,0,0,-2
1537922011924727,1,-6,-14,-2,-3,1,0,1
1537922011924727,8,75,8,3,0,2,-2,1
1537922011937692,-5,-54,-11,-3,-3,-1,-1,-3
1537922011937692,5,19,-4,0,-2,-1,-2,3
1537922011944674,-16,-66,-24,-7,-5,-1,-7,-8
1537922011944674,9,19,-6,6,5,5,8,4
1537922011961628,-6,44,5,-2,-6,-5,-6,-6
1537922011961628,1,47,8,6,5,2,2,0
1537922011962625,9,-11,-19,9,1,2,3,9
1537922011962625,-17,44,8,-4,-6,-5,-3,-5
1537922011983569,3,-17,-23,-1,3,0,0,6
1537922011983569,-14,-81,20,-24,-10,-3,-6,-23
1537922011985564,-2,108,4,-64,3,14,-9,30
1537922011985564,-15,-9,-48,84,3,6,10,-50
1537922011997532,1,44,0,-92,-20,-2,21,-14
1537922011997532,5,-30,-32,94,45,37,14,33
1537922012006508,-18,15,79,-51,-48,-63,-16,40
1537922012006508,1,-92,-4,-47,14,56,24,-54
1537922012021468,-2,90,-88,23,10,-16,-19,15
1537922012021468,76,-50,86,69,18,38,81,97
1537922012022465,-37,29,101,30,5,-61,-41,54
1537922012022465,1,18,-68,-55,17,64,34,16
1537922012043409,-33,31,127,104,24,-18,84,59
1537922012043409,25,72,-35,-100,-17,-15,-38,-42
1537922012045404,-14,-84,59,59,-21,-49,-61,-69
1537922012045404,-2,74,-17,0,-4,14,53,-2
1537922012057372,1,-42,-125,-42,-17,-30,-68,-30
1537922012057372,-61,31,-9,3,1,22,31,-16
1537922012066348,4,-41,-74,-63,-28,43,35,63
1537922012066348,24,-55,69,69,20,-49,-128,-60
1537922012081307,-21,-18,95,54,27,39,56,1
1537922012081307,22,23,-72,-29,-18,-23,8,-4
1537922012082306,13,10,-84,-52,-13,13,3,-29
1537922012082306,4,-12,-38,-47,-10,-2,31,51
1537922012103249,33,2,-1,-22,1,15,44,37
1537922012103249,-33,-2,12,-33,-24,-53,-83,-59
1537922012105244,15,-5,-44,42,28,36,32,0
1537922012105244,-16,12,30,9,5,-19,-6,22
1537922012117212,-2,11,44,3,-9,-3,-23,-36
1537922012117212,-15,-9,-5,-3,-4,2,-4,-7
1537922012126187,8,10,-15,13,10,-2,11,-31
1537922012126187,-7,-31,5,-8,-16,-19,1,22
1537922012141148,7,-3,-11,-19,-10,-1,-37,-21
1537922012141148,4,-13,-11,-4,-2,-3,1,18
1537922012143142,8,-1,4,24,25,26,18,0
1537922012143142,-5,29,10,-19,-17,-25,-13,-1
1537922012164086,9,12,-17,-2,2,6,-9,8
1537922012164086,-10,23,17,5,2,-6,-4,-1
1537922012165084,-2,23,14,15,-3,0,10,-25
1537922012165084,0,-17,-4,3,-5,-7,-2,7
1537922012177052,-1,-73,-12,3,-2,2,-16,-10
1537922012177052,-3,-6,8,6,2,-1,4,2
1537922012186028,2,-12,-7,0,2,5,1,-18
1537922012186028,5,-26,1,-3,0,-3,5,18
1537922012200988,1,14,10,-3,-7,-7,-12,7
1537922012200988,-6,-20,-8,-11,-3,0,-6,-9
1537922012202982,10,23,-7,6,11,11,8,-5
1537922012202982,2,31,30,-1,-5,-11,-6,0
1537922012223926,-5,28,35,-1,-6,5,-1,4
1537922012223926,-9,-19,-60,-10,-1,-7,-6,-14
1537922012224924,-6,-26,-33,1,4,4,0,-8
1537922012224924,2,-1,1,3,-2,-8,0,8
1537922012236892,6,5,-3,-8,-5,3,-1,-10
1537922012236892,-4,28,27,-4,1,-4,-5,-5
1537922012245868,-1,4,-3,-1,3,16,19,18
1537922012245868,-1,-22,-6,-4,-3,-9,-17,4
1537922012260828,1,-5,-3,0,-2,0,7,6
1537922012260828,3,13,10,6,-1,-6,-2,0
1537922012262823,4,27,22,11,6,4,2,-15
1537922012262823,-6,-88,-14,-2,-9,3,3,-1
1537922012283767,-4,11,-11,-5,11,-10,-7,-7
1537922012283767,4,-2,-6,2,-6,-5,-2,13
1537922012284764,0,41,13,2,10,8,-6,-11
1537922012284764,-11,24,-19,-3,-1,7,9,-4
1537922012297729,12,12,3,6,1,1,8,9
1537922012297729,-14,-37,14,-6,-9,-13,-18,-15
1537922012306705,1,-15,-5,4,7,12,7,4
1537922012306705,8,38,-1,1,3,0,-7,6
1537922012321666,-7,-37,-21,-3,0,2,1,-13
1537922012321666,10,81,21,6,2,4,9,17
1537922012322663,30,68,41,12,1,-3,-11,-2
1537922012322663,-41,-84,-64,-19,-7,-9,3,-9
1537922012343606,11,100,19,-3,-3,-1,-3,3
1537922012343606,-10,-40,-8,-4,1,9,1,6
1537922012345602,-27,-83,-49,-23,-1,-4,-6,-37
1537922012345602,52,118,53,-11,-2,12,43,10
1537922012357569,8,-34,-16,-100,-15,27,-5,-17
1537922012357569,-37,-47,-93,84,-17,-78,-67,82
1537922012366545,52,-13,-35,-112,-40,17,60,84
1537922012366545,-34,2,21,98,25,86,79,101
1537922012379511,18,23,-84,-37,30,-93,-78,73
1537922012379511,-8,28,63,51,-12,-12,68,-40
1537922012388486,-18,28,16,66,56,-8,-128,-78
1537922012388486,61,119,-80,-128,-54,-17,5,64
1537922012403446,-69,-75,127,127,25,102,87,-3
1537922012403446,50,-25,-5,-82,19,-3,13,-51
1537922012405441,-22,-20,70,-52,-33,-38,-60,48
1537922012405441,-27,-42,-62,-106,-24,-30,-20,57
1537922012417409,-114,-54,29,-4,-35,-24,-105,-112
1537922012417409,117,5,79,71,85,104,102,59
1537922012426385,-6,7,-23,-34,-80,-83,19,77
1537922012426385,39,-4,80,49,41,72,5,-13
1537922012440348,-28,2,-65,-127,-45,-86,-48,16
1537922012440348,-42,56,-76,76,7,23,77,-2
1537922012447329,6,-6,89,7,24,43,56,90
1537922012447329,-24,-26,16,5,-9,-64,-108,-125
1537922012463287,20,32,-56,0,2,16,26,16
1537922012463287,-10,24,50,-61,-14,-32,-21,10
1537922012465281,-1,51,-41,-10,2,-2,19,-13
1537922012465281,4,-50,-24,22,-5,-20,7,10
1537922012486225,17,12,37,40,25,38,47,-40
1537922012486225,-9,-29,-35,-68,-18,-3,-69,-12
1537922012487223,-2,-36,-51,25,4,0,28,-32
1537922012487223,-18,7,24,23,7,-20,1,-36
1537922012500188,40,14,-19,-4,14,11,-20,13
1537922012500188,-23,-37,-9,-35,-14,-9,-13,6
1537922012507169,4,36,-14,19,5,12,-9,-25
1537922012507169,-9,-18,11,-2,-12,-41,-16,-24
1537922012524124,22,36,-16,-12,-10,1,2,21
1537922012524124,1,-6,-4,-22,-4,4,-25,2
1537922012525121,-20,-42,7,25,17,20,15,-44
1537922012525121,4,0,1,-11,7,3,-13,5
1537922012546065,22,22,-14,12,-15,-24,19,20
1537922012546065,-16,-30,7,-14,-4,1,-19,-17
1537922012552049,4,65,8,-4,13,6,-11,-14
1537922012552049,-12,-14,-32,-4,-11,-10,3,-4
1537922012561025,15,-16,-14,-5,-6,-1,5,5
1537922012561025,-11,25,2,-9,4,10,-14,-14
1537922012567010,-4,-27,-19,-5,-12,-16,-3,-1
1537922012567010,7,-19,26,17,10,2,0,21
1537922012583964,-5,10,33,14,13,16,7,-50
1537922012583964,-6,-6,-49,-33,-16,-2,-18,3
1537922012584961,-5,-30,0,6,3,-2,1,-16
1537922012584961,-3,11,6,2,1,-2,6,-1
1537922012605905,10,-15,-7,0,3,2,-6,19
1537922012605905,-4,0,9,-3,-15,-11,-4,11
1537922012607900,-3,-41,-9,9,7,0,0,-18
1537922012607900,0,14,19,1,7,13,0,-9
1537922012620865,9,1,-35,-2,-10,-5,-2,26
1537922012620865,-7,38,28,-6,4,-6,-9,-12
1537922012627847,-5,-70,-29,0,2,7,4,1
1537922012627847,-4,-10,6,-5,2,-5,-4,-9
1537922012643804,6,-30,10,6,-2,-2,9,10
1537922012643804,-1,3,-4,1,-2,4,-2,-3
1537922012644802,7,51,83,8,4,-7,-9,-4
1537922012644802,-8,7,-81,-8,-6,7,5,-1
1537922012665745,3,20,-17,3,-2,-2,3,2
1537922012665745,4,18,8,-5,-3,1,-4,-2
1537922012667740,5,85,-3,-3,0,1,3,-2
1537922012667740,-1,-39,8,9,4,-3,1,-7
1537922012680705,2,22,16,1,3,5,3,7
1537922012680705,-2,-13,-8,-1,-2,-2,-3,-2
1537922012687687,0,26,-14,-2,-6,-1,0,-1
1537922012687687,-1,19,5,-4,0,-2,-3,-1
1537922012703644,-1,-7,-6,0,-1,2,-3,0
1537922012703644,-1,17,2,-5,-5,-5,1,2
1537922012705639,-5,-31,-22,1,4,8,0,-2
1537922012705639,0,31,31,2,0,-9,-4,0
1537922012726583,-1,-21,-10,2,-1,-2,3,3
1537922012726583,3,-12,-14,-3,-5,-1,0,4
1537922012727581,-3,9,-19,3,4,6,0,1
1537922012727581,-1,-54,-20,-5,-3,-2,-1,1
1537922012740545,-4,-34,20,3,2,1,0,1
1537922012740545,-3,-8,-1,-4,-4,-4,-2,-1
1537922012747527,0,-27,-18,-4,-2,-1,0,1
1537922012747527,-1,23,25,0,-2,-9,-1,2
1537922012763484,3,7,5,1,5,7,2,1
1537922012763484,-2,-9,-5,-6,-4,-3,-4,-4
1537922012765479,-3,-18,17,-5,-4,2,-1,-3
1537922012765479,3,13,-27,-1,1,3,0,-3
1537922012786423,1,-1,19,0,-1,1,2,12
1537922012786423,-2,-2,-28,-4,-2,-4,-3,1
1537922012787420,-4,-1,2,-2,-2,-1,0,-17
1537922012787420,2,-3,-1,1,2,-1,0,-4
1537922012800386,2,-2,7,0,-1,-5,-2,1
1537922012800386,-4,2,34,4,5,5,1,2
1537922012807367,-3,-41,-56,-6,-7,-15,-1,4
1537922012807367,-2,-4,7,1,-4,-1,-1,3
1537922012823324,2,7,-7,-1,3,3,0,-7
1537922012823324,5,3,17,3,0,-2,-2,0
1537922012825319,0,25,-4,-1,2,1,1,1
1537922012825319,0,-13,-11,-3,1,-1,-2,0
1537922012846263,-1,7,-4,-6,-5,-4,-1,0
1537922012846263,-3,-25,-10,-2,-1,0,0,-4
1537922012847260,-1,13,22,3,2,1,-1,2
1537922012847260,-3,16,17,2,0,-1,-2,-3
1537922012860226,3,12,-7,-2,-1,-2,0,-2
1537922012860226,-9,-34,-1,-6,-4,2,-2,-3
1537922012867207,-2,-8,16,6,0,1,-1,-2
1537922012867207,2,19,-39,-4,-2,2,0,6
1537922012884162,-3,-35,-8,-4,-3,-5,-3,-4
1537922012884162,2,12,-5,1,2,-1,0,-1
1537922012885159,1,2,4,0,1,1,0,3
1537922012885159,1,0,26,2,-1,2,-2,-3
1537922012906103,0,10,-7,-1,-6,0,0,-2
1537922012906103,5,16,1,2,2,0,-1,-2
1537922012908098,-2,-27,-3,-2,-3,1,-1,0
1537922012908098,-3,-39,4,-1,1,0,-1,0
1537922012920065,-2,28,-13,-5,-1,1,1,1
1537922012920065,-5,5,-2,-4,-3,-5,-2,-3
1537922012929042,-1,-11,3,1,0,2,2,-2
1537922012929042,5,45,21,5,0,0,-2,10
1537922012944001,-6,-90,-28,0,3,3,3,-4
1537922012944001,3,38,-8,-1,2,6,1,0
1537922012944999,3,45,0,-2,-5,-1,-4,12
1537922012944999,-8,21,8,-4,-4,-4,0,-2
1537922012965943,1,23,18,2,-2,-1,-2,-9
1537922012965943,-3,10,-1,1,-1,1,-4,-6
1537922012967937,-4,-37,-32,-2,2,-1,2,4
1537922012967937,1,15,13,1,1,2,0,4
1537922012979905,-3,19,-8,-4,1,-2,-2,-2
1537922012979905,3,-10,6,2,1,-1,1,1
1537922012988882,4,11,3,-3,-5,-1,-4,-6
1537922012988882,-5,-4,-1,2,0,1,0,-5
1537922013003841,0,-63,-17,0,1,-1,-1,2
1537922013003841,0,14,6,-2,-5,-7,-1,0
1537922013004839,-1,11,12,0,-3,7,-3,-2
1537922013004839,2,23,19,2,-1,-7,-1,-4
1537922013025783,-1,-11,-23,-3,-6,-4,1,3
1537922013025783,-1,7,13,2,-1,0,0,1
1537922013027778,-3,-21,-33,-4,2,-1,0,-4
1537922013027778,3,-9,-3,-3,3,2,1,-3
1537922013039746,2,39,17,2,3,-1,0,1
1537922013039746,-2,-11,-9,-5,-2,-1,-2,-1
1537922013048722,-2,7,10,-1,0,-1,-1,-4
1537922013048722,2,-57,-32,1,1,3,-1,-1
1537922013063682,2,84,40,-1,-1,-2,-3,0
1537922013063682,-9,-95,-36,-6,-3,-2,1,-4
1537922013064679,-2,14,8,2,1,-2,-2,-1
1537922013064679,20,86,13,9,6,4,-1,4
1537922013086620,-16,-105,-39,1,3,0,-1,-11
1537922013086620,2,47,65,-1,-3,-2,6,23
1537922013087618,-13,-26,-53,-4,-1,-9,-16,-34
1537922013087618,7,-20,-37,-52,-17,-6,-3,-5
1537922013099585,27,127,53,-47,4,37,33,-4
1537922013099585,-31,-107,-98,-67,-33,-41,7,36
1537922013108562,-1,39,74,-54,-7,-1,-60,-7
1537922013108562,-35,-35,-78,-3,-34,18,37,-65
1537922013123522,45,21,49,34,32,-36,-14,80
1537922013123522,16,39,-29,90,33,42,60,47
1537922013125517,18,-3,61,108,38,8,3,0
1537922013125517,50,3,-100,12,27,-38,-80,-73
1537922013146460,-18,-66,-41,-81,-14,117,105,75
1537922013146460,-20,47,45,-31,-20,-94,-73,-54
1537922013147458,28,25,10,-108,-55,11,-45,-79
1537922013147458,-2,-16,41,-78,-14,111,108,101
1537922013159426,-77,-88,-106,102,4,-32,-47,-33
1537922013159426,40,16,-90,14,24,-7,-31,-67
1537922013168402,-72,-29,-113,-80,-14,-9,27,67
1537922013168402,5,14,-98,-89,0,20,-44,-52
1537922013183362,37,9,127,95,22,-4,47,102
1537922013183362,11,-16,-17,-3,-13,0,-16,-93
1537922013185356,-21,-15,-22,3,12,0,57,-50
1537922013185356,-9,-27,-7,7,-7,-43,-80,29
1537922013206300,-4,61,-81,-41,-15,-10,-6,-37
1537922013206300,2,68,46,-34,-9,12,-19,7
1537922013207298,18,21,-7,26,4,-1,29,5
1537922013207298,-2,38,45,44,21,3,44,12
1537922013220263,-14,-46,22,-15,-7,-16,-49,-63
1537922013220263,1,-7,23,-1,-4,9,2,20
1537922013229239,4,-15,2,11,4,10,19,24
1537922013229239,-17,-23,54,44,5,-13,1,19
1537922013244199,20,23,-2,-25,-7,-19,-43,-22
1537922013244199,-14,-4,-11,-3,-8,17,27,17
1537922013245197,-2,-26,-24,24,6,4,3,21
1537922013245197,-7,9,47,15,17,3,-11,-6
1537922013266140,-1,16,-15,-17,-16,-15,-2,-34
1537922013266140,0,-13,4,2,11,27,21,11
1537922013268135,0,3,21,14,-6,-2,-14,2
1537922013268135,-4,-10,14,6,-8,-22,-5,7
1537922013280103,0,53,28,-10,-3,1,9,-13
1537922013280103,-9,-35,-37,-2,3,8,4,7
1537922013289079,16,8,41,9,5,-8,-19,-1
1537922013289079,-5,-43,-34,9,-2,-21,24,17
1537922013304039,-7,-8,-11,-12,0,8,7,-10
1537922013304039,-1,-47,21,0,10,10,-24,16
1537922013305037,1,-27,-35,-4,-12,-15,3,4
1537922013305037,-3,-11,34,15,8,10,7,0
1537922013325980,-4,32,13,1,0,1,-10,-4
1537922013325980,7,77,6,-6,-13,-2,27,-17
1537922013328973,9,32,10,12,15,43,-22,5
1537922013328973,-11,70,45,8,2,5,-2,4
1537922013339943,-11,-73,-22,-7,-8,-38,-11,-11
1537922013339943,-14,29,-30,-10,-15,5,21,11
1537922013355900,9,35,-3,9,4,4,-2,14
1537922013355900,-1,5,16,2,-7,-12,-14,-24
1537922013362882,7,-7,-18,-3,5,1,8,6
1537922013362882,-5,-82,12,5,9,15,-1,-4
1537922013369863,12,93,22,2,-6,-8,9,21
1537922013369863,3,27,-6,3,-1,3,-3,7
1537922013385820,-3,50,-1,-8,-5,14,-12,-18
1537922013385820,5,23,9,4,2,-5,7,5
1537922013387815,8,40,-1,0,-7,-8,2,3
1537922013387815,5,-30,0,2,1,-7,-3,-8
1537922013399783,16,97,-5,2,-3,-3,5,28
1537922013399783,-11,-66,0,-1,3,7,-17,-35
1537922013408759,-11,-1,-7,-3,4,0,-4,42
1537922013408759,-18,-77,-68,-106,-21,30,107,-9
1537922013430700,25,-56,-16,31,-21,-66,-91,36
1537922013430700,-62,4,41,-38,-22,-39,-31,-34
1537922013432695,26,7,36,100,33,48,94,-40
1537922013432695,4,-54,-93,-78,-52,-13,-99,60
1537922013446658,-51,12,116,108,64,-6,37,-46
1537922013446658,4,-5,-105,57,33,24,-22,-16
1537922013447655,28,-68,10,32,7,-35,-77,34
1537922013447655,-15,-28,68,78,-11,-62,116,-100
1537922013468600,93,93,-52,-119,4,98,102,-71
1537922013468600,-9,1,-107,-61,-86,-98,-128,87
1537922013470594,-50,-21,57,44,43,-24,52,-120
1537922013470594,-6,75,-86,-95,31,61,-32,-1
1537922013483559,20,-107,-11,-43,-61,0,-32,36
1537922013483559,45,70,82,81,59,45,127,91
1537922013489544,124,30,4,-113,-21,62,-30,127
1537922013489544,-79,-29,-12,16,-63,-128,-120,-46
1537922013506498,-11,28,44,82,17,21,108,79
1537922013506498,9,8,-4,-61,10,74,62,-110
1537922013507496,-38,-37,26,-72,-20,-46,-101,92
1537922013507496,-4,35,-44,11,13,17,25,47
1537922013528439,-23,-44,-74,-67,3,28,-3,-28
1537922013528439,6,-30,49,15,-1,-27,-24,4
1537922013530434,-26,-12,-51,0,-7,-10,54,-18
1537922013530434,29,45,23,5,18,40,20,-21
1537922013543399,-14,-11,-9,11,-8,-35,-48,-8
1537922013543399,32,13,23,20,9,-2,6,22
1537922013549383,-25,-8,-43,-19,-7,3,2,-59
1537922013549383,5,-17,29,26,7,9,0,34
1537922013566338,-5,23,5,14,-11,-47,-46,-10
1537922013566338,-31,-92,-4,-14,14,33,1,-3
1537922013567335,-27,-3,-37,-25,-26,15,25,-15
1537922013567335,19,1,44,43,20,7,-7,18
1537922013588279,-10,-48,-15,-11,4,-5,-3,-3
1537922013588279,12,51,7,-17,-13,19,8,10
1537922013590274,-18,-13,9,6,-11,-31,-3,5
1537922013590274,23,34,20,23,17,11,11,6
1537922013603239,-15,37,-54,-32,-9,11,-25,-27
1537922013603239,-11,-8,10,-3,-12,-16,-10,22
1537922013610221,-8,-37,-29,6,-9,-3,4,1
1537922013610221,-15,43,35,7,5,4,4,11
1537922013626179,-17,42,12,-7,6,12,5,-2
1537922013626179,3,11,21,-1,-1,-10,-12,-12
1537922013628173,5,-89,-40,-3,-2,-12,6,-7
1537922013628173,21,-23,36,6,9,10,5,-2
1537922013649117,8,-90,-37,-2,-1,-5,0,11
1537922013649117,13,15,8,5,3,0,-1,-12
1537922013650115,5,16,-1,-2,4,-3,1,-12
1537922013650115,8,-17,-5,4,4,6,-2,7
1537922013662082,4,35,-15,-1,-4,0,-6,8
1537922013662082,5,58,5,-6,-5,-11,-1,5
1537922013671059,-7,21,-11,-8,6,9,6,-13
1537922013671059,7,18,19,8,1,1,0,13
1537922013686018,-1,0,16,-2,-1,-5,1,2
1537922013686018,2,16,-16,-3,4,1,5,5
1537922013688013,-5,13,2,1,-3,-4,-3,-24
1537922013688013,8,1,-2,7,2,3,3,10
1537922013708957,0,-2,4,2,2,-3,-5,-2
1537922013708957,-2,28,3,-3,-3,-3,-2,3
1537922013709955,-2,-8,-16,-1,-4,1,4,2
1537922013709955,0,7,-5,1,0,-3,-1,1
1537922013721922,-6,-23,-12,-3,2,2,-3,-6
1537922013721922,1,-1,15,4,3,-1,0,3
1537922013730899,1,17,6,5,3,1,1,4
1537922013730899,3,11,-3,-6,-6,-3,-1,-2
1537922013745858,-5,-3,-9,2,0,-2,-3,2
1537922013745858,-1,13,-3,-1,0,0,2,1
1537922013747853,-4,-7,0,-7,-2,-2,-1,-5
1537922013747853,0,-15,-4,3,-3,0,2,5
1537922013768797,0,12,23,2,2,1,-5,-2
1537922013768797,-5,-29,-25,-5,0,-2,-1,2
1537922013769794,5,46,10,4,3,1,0,2
1537922013769794,-5,-11,3,-5,-3,-3,-2,-2
1537922013782760,-3,7,6,-5,-4,-3,0,-1
1537922013782760,-2,-17,3,1,0,-1,1,-1
1537922013789741,-2,-15,3,0,-3,0,1,2
1537922013789741,3,8,-4,4,6,1,-1,1
1537922013806695,0,-9,-32,-7,-4,-2,-1,-2
1537922013806695,-1,-10,-17,-1,1,-1,0,1
1537922013807693,0,18,27,2,-2,-2,-1,0
1537922013807693,0,-1,-2,3,2,2,1,0
1537922013828637,-2,-7,1,-4,-1,-5,-1,-2
1537922013828637,1,1,8,2,2,4,1,1
1537922013830632,-3,-13,-14,1,-1,-2,0,1
1537922013830632,-2,-8,-10,-6,-3,-2,-1,-1
1537922013842600,-2,-1,12,1,1,-1,-1,0
1537922013842600,-1,-7,0,-3,-4,-3,-1,-2
1537922013849581,-3,-5,-7,-3,-2,3,0,1
1537922013849581,-1,2,-24,-7,-7,-6,-2,-3
1537922013866536,3,10,35,6,7,4,0,0
1537922013866536,-2,-1,-5,-2,-2,-2,-2,-2
1537922013867533,-3,-42,-22,-4,-2,-2,-1,0
1537922013867533,2,11,7,5,4,1,1,-2
1537922013888477,-2,8,-3,-5,-6,-3,-1,-3
1537922013888477,0,-22,-13,-4,0,0,1,-2
1537922013890472,-2,19,7,0,-1,-3,0,0
1537922013890472,-1,-16,2,3,1,3,0,3
1537922013903437,1,-6,-1,2,-1,0,-3,0
1537922013903437,0,6,1,-1,-4,0,0,0
1537922013909421,-2,-5,-4,-4,1,-3,-3,-3
1537922013909421,-3,-7,1,2,2,0,0,-1
1537922013926376,-1,-4,-6,-2,-1,1,0,-2
1537922013926376,-1,-2,-1,-2,-5,-5,0,-1
1537922013927373,1,0,2,2,1,2,1,2
1537922013927373,0,1,0,-2,-1,-2,-1,-1
1537922013948317,-1,-4,-22,-7,-3,-2,0,2
1537922013948317,-2,-1,6,1,3,1,-1,-3
1537922013950312,2,8,15,1,-1,-2,-1,0
1537922013950312,-5,-13,-31,-6,-4,-4,-2,-2
1537922013962280,2,4,2,-4,-3,-8,-1,2
1537922013962280,1,11,-3,4,0,1,1,1
1537922013972254,3,32,18,3,0,-2,-1,0
1537922013972254,-11,-71,-11,-6,-4,-6,1,-3
1537922013985218,-1,3,-3,1,0,1,0,0
1537922013985218,-3,9,2,2,3,2,0,-1
1537922013986216,3,7,-2,-4,-3,-2,-1,2
1537922013986216,2,19,9,-1,-2,-1,1,0
1537922014008157,0,-4,-5,-2,-4,-1,0,-3
1537922014008157,-2,-6,8,2,3,0,0,-2
1537922014009155,-1,-8,-10,2,1,2,0,-2
1537922014009155,2,13,5,-2,-2,-3,-3,-1
1537922014031096,-2,-9,-1,-1,-1,1,-2,0
1537922014031096,3,7,3,-2,-1,0,-1,0
1537922014032093,-3,-15,-8,1,-1,-3,-1,-2
1537922014032093,1,11,4,0,1,1,0,1
1537922014045058,-3,-2,4,0,-2,-3,-1,-2
1537922014045058,-1,-6,-2,-3,0,3,-2,-2
1537922014046056,2,-3,-6,-2,-2,-3,-1,-1
1537922014046056,-1,2,3,2,1,2,0,-2
1537922014067997,-1,-5,-1,-2,1,0,0,-4
1537922014067997,-2,-8,-4,-2,0,0,-1,0
1537922014068995,0,-4,-5,0,-1,-1,-1,1
1537922014068995,2,6,0,5,3,2,1,-1
1537922014090936,-1,-15,-4,-2,-4,-1,-1,1
1537922014090936,1,37,13,-2,0,-1,-2,0
1537922014090936,-6,-8,-5,-3,-2,-1,0,-2
1537922014090936,1,10,4,-1,0,-1,0,-1
1537922014105896,-1,-4,8,4,3,2,-1,1
1537922014105896,3,-29,-19,3,-1,-1,-1,2
1537922014105896,-1,29,3,-2,-2,4,-3,-4
1537922014105896,-4,-20,-2,-4,0,-1,-1,-2
1537922014127838,0,0,-1,-3,0,1,0,-1
1537922014127838,-1,2,2,-4,-2,-4,-1,0
1537922014128835,-2,-16,-3,3,3,3,0,0
1537922014128835,2,3,-4,-2,-1,-1,-1,-2
1537922014150776,-1,6,7,3,-1,0,-2,-2
1537922014150776,0,-6,1,-3,-3,0,1,1
1537922014150776,-10,-11,-14,-5,-2,-2,-3,-3
1537922014150776,1,8,6,0,-2,-5,-1,0
1537922014165736,-2,0,-3,0,1,2,-1,-1
1537922014165736,-1,3,3,3,0,0,1,-1
1537922014165736,4,3,6,0,1,-2,1,0
1537922014165736,-2,0,-13,-4,-5,-3,-3,-1
1537922014187677,0,0,0,-3,-3,-4,-3,0
1537922014187677,-1,0,11,5,5,5,-1,-1
1537922014188675,-1,5,-24,-5,-2,1,-1,-1
1537922014188675,0,-28,-4,-2,-2,-1,0,0
1537922014218595,-1,-2,-4,-2,-2,-2,2,0
1537922014218595,-1,2,6,0,-3,-5,0,-1
1537922014219592,1,11,11,1,2,1,0,-3
1537922014219592,2,24,-4,-4,-2,3,-2,0
1537922014225576,0,-3,-1,-1,2,-3,0,-1
1537922014225576,-4,3,-1,-2,2,2,1,-3
1537922014226573,1,-11,0,0,-2,-4,0,0
1537922014226573,0,1,10,1,-2,0,0,-1
1537922014248514,2,-2,18,3,-1,-3,-2,-2
1537922014248514,-4,17,-22,-1,4,-1,-3,-1
1537922014248514,-6,-30,-4,-8,-4,1,0,-2
1537922014248514,0,4,-6,-1,2,-2,0,0
1537922014262477,4,31,1,2,-2,-3,-1,1
1537922014262477,1,7,4,1,-3,-5,-8,-4
1537922014270456,-9,-70,-25,1,1,0,1,1
1537922014270456,-10,-31,9,-3,-1,-3,1,2
1537922014285416,-2,-20,-4,-3,-3,-3,-2,-1
1537922014285416,6,51,2,-1,0,1,1,0
1537922014286413,10,28,12,5,1,-4,-4,1
1537922014286413,-4,-66,2,-3,-2,-14,-3,-6
1537922014308355,7,10,-6,5,6,20,2,-1
1537922014308355,0,-24,9,-3,-2,-6,0,-1
1537922014308355,-22,-18,-25,-9,-6,-4,-2,-7
1537922014308355,2,60,16,0,-3,-3,3,0
1537922014322317,-8,7,1,-1,-3,-4,0,-5
1537922014322317,12,18,-6,-1,4,4,-14,-4
1537922014330296,26,31,-11,-66,-1,12,21,23
1537922014330296,0,-5,48,87,17,8,1,-6
1537922014345256,8,27,-37,-108,-6,16,-8,30
1537922014345256,-36,-29,19,23,-9,-30,-8,-33
1537922014346254,25,45,78,-24,9,16,-6,11
1537922014346254,-33,-40,-34,-56,-26,-36,-31,6
1537922014368194,49,27,98,60,34,96,62,47
1537922014368194,-62,-70,-85,-99,-42,-82,-91,-93
1537922014369192,20,82,106,112,20,-43,104,102
1537922014369192,24,32,-71,-7,45,91,-93,-104
1537922014391133,-11,-28,-88,-74,-7,41,-26,15
1537922014391133,-16,34,2,-127,-93,-66,-70,17
1537922014392130,-110,-20,60,98,78,100,47,-108
1537922014392130,64,33,-95,-110,-34,-60,-72,127
1537922014405096,-4,12,80,127,29,-16,75,-104
1537922014405096,22,18,4,-9,19,75,66,127
1537922014406093,-6,-32,-128,-86,-37,-27,-16,-103
1537922014406093,-21,2,27,-6,2,60,78,-63
1537922014428034,-15,-22,-26,-42,4,-44,-83,-21
1537922014428034,15,-9,30,36,16,4,65,79
1537922014429032,22,5,10,21,-12,-14,-38,48
1537922014429032,1,33,-19,-6,5,-8,19,14
1537922014450973,17,27,-21,-12,-34,-56,-9,12
1537922014450973,1,-2,32,68,29,22,20,-50
1537922014451970,19,-8,-57,-41,-7,9,-43,9
1537922014451970,-4,2,36,4,-10,-5,17,1
1537922014465933,-26,-19,2,8,-22,-51,-8,-2
1537922014465933,23,-6,-15,23,31,50,3,-18
1537922014465933,6,6,-13,-28,-6,-4,-26,5
1537922014465933,-5,-36,16,13,1,-4,25,7
1537922014487875,-12,-8,-2,9,-32,-41,-5,1
1537922014487875,-3,-17,-29,-6,3,34,-3,-23
1537922014488872,6,-28,-5,-3,18,-15,-6,6
1537922014488872,-12,-12,15,27,7,-5,22,-1
1537922014510814,0,8,-28,-19,21,36,-8,13
1537922014510814,8,-11,0,-3,-18,-22,5,-10
1537922014511811,-2,10,11,-3,-26,-13,-8,-6
1537922014511811,-5,-12,-7,4,8,5,2,5
1537922014525774,-7,-57,-23,-15,-7,-9,-3,3
1537922014525774,-2,27,22,9,6,-1,6,-6
1537922014525774,-10,-37,1,7,-8,1,-8,-3
1537922014525774,-1,24,-5,-3,3,-1,4,-7
1537922014547715,-1,11,-10,-11,-7,0,10,4
1537922014547715,-3,-14,5,13,16,12,6,-3
1537922014548713,2,28,0,-11,-5,-1,-10,5
1537922014548713,-4,12,11,3,-9,-3,0,3
1537922014571651,-14,18,-11,-1,-5,-14,-1,11
1537922014571651,-3,-11,-4,5,26,28,12,-46
1537922014571651,11,-8,-2,-9,-12,-11,-6,4
1537922014571651,5,-11,33,7,4,8,1,-2
1537922014585614,-6,-22,-41,-1,8,-5,-5,-23
1537922014585614,12,20,-7,-3,1,-3,19,45
1537922014586611,11,-17,-30,-2,-8,-6,6,7
1537922014586611,10,107,32,7,-2,-7,-14,-7
1537922014607555,-4,-15,47,-3,7,15,-3,-4
1537922014607555,5,-48,-62,-4,-9,-18,-9,-8
1537922014608552,3,69,17,-1,-3,6,-3,5
1537922014608552,2,-5,-10,-2,-5,-4,9,9
1537922014631491,12,8,-7,5,-14,25,-17,-12
1537922014631491,-19,-80,-14,-5,12,-13,-4,16
1537922014631491,12,83,14,1,-6,-10,17,-4
1537922014631491,-9,-30,-4,-5,0,0,5,-2
1537922014645454,-5,15,7,0,0,7,5,11
1537922014645454,7,42,9,4,-7,5,-4,-31
1537922014646451,-3,-29,-13,-4,-1,-4,-15,-3
1537922014646451,7,8,0,-1,-5,-8,4,7
1537922014668392,-5,-4,-7,1,3,-6,-7,-9
1537922014668392,-8,-54,9,-2,-1,-2,1,-1
1537922014668392,12,15,-26,-28,13,22,-9,5
1537922014668392,3,72,-9,-51,-19,3,65,2
1537922014691331,-40,-76,33,27,-9,-20,-53,-9
1537922014691331,13,-19,-86,-23,-26,-49,-61,35
1537922014692329,2,-6,63,-97,-6,60,44,-11
1537922014692329,-28,-27,-36,103,19,-47,-2,-103
1537922014705293,22,17,42,-44,47,110,112,66
1537922014705293,0,45,-74,12,-62,-95,-72,43
1537922014706291,-80,-103,72,111,68,52,3,17
1537922014706291,32,42,67,-124,-33,-63,-83,38
1537922014728233,-30,36,103,90,1,47,50,-46
1537922014728233,56,61,70,-38,55,127,120,43
1537922014729230,17,-33,-128,-111,-85,-116,-91,31
1537922014729230,64,-96,113,96,27,47,101,31
1537922014751170,46,17,-3,-122,-30,-69,-43,60
1537922014751170,-62,-34,44,107,40,-11,-57,-60
1537922014752168,23,43,-2,-66,7,58,38,21
1537922014752168,-16,43,-44,-128,-61,-78,1,11
1537922014774109,64,-5,2,59,29,-21,-105,-61
1537922014774109,26,51,-10,-75,7,16,65,28
1537922014775107,0,1,-28,-16,2,-20,-64,6
1537922014775107,-16,4,-51,-46,4,41,-41,-77
1537922014788072,-25,7,-60,-27,-16,-13,38,38
1537922014788072,-20,-18,20,6,-18,-50,-30,-67
1537922014789069,-4,-20,19,50,12,5,32,-17
1537922014789069,-2,-37,-12,7,-16,14,12,54
1537922014811011,-20,-26,-25,12,-7,-13,-29,-39
1537922014811011,18,5,7,17,35,47,25,7
1537922014812008,17,9,0,-4,-47,-7,16,13
1537922014812008,-23,-14,-15,29,17,-13,-14,0
1537922014824973,-10,14,-22,3,11,-16,7,-8
1537922014824973,-7,23,15,-20,-11,-7,3,-1
1537922014825970,-7,11,8,26,10,19,26,-11
1537922014825970,-21,-42,-9,18,-4,5,-25,-14
1537922014847912,-1,3,-18,-10,-10,0,17,4
1537922014847912,6,8,34,-19,8,16,7,8
1537922014848910,-3,33,-6,12,-9,-37,-13,-25
1537922014848910,-7,-43,-50,10,19,20,6,19
1537922014870851,4,100,-3,-34,-12,-4,13,12
1537922014870851,-17,-71,-2,1,2,14,5,-13
1537922014871849,-3,-65,9,11,5,-13,3,-11
1537922014871849,2,2,26,2,7,22,3,26
1537922014885811,-7,-21,-36,-7,5,10,6,-7
1537922014885811,0,27,8,-3,-23,-19,-17,-21
1537922014885811,-5,-13,18,10,19,11,13,-3
1537922014885811,-5,-11,-17,-4,10,17,1,8
1537922014907752,-3,-6,16,3,-1,-10,-2,7
1537922014907752,6,73,9,-2,-1,5,2,-4
1537922014908750,10,-35,-28,-6,-5,-9,0,-2
1537922014908750,2,41,8,5,4,7,5,2
1537922014931688,0,12,-6,-6,-7,-7,0,-1
1537922014931688,-3,0,-19,-4,0,3,3,1
1537922014931688,-3,22,37,8,3,2,4,-1
1537922014931688,0,2,-40,3,0,3,-4,-2
1537922014953629,-2,-8,21,1,6,6,3,-1
1537922014953629,-3,-41,-26,-18,-10,-2,0,2
1537922014954627,-2,15,-2,9,-5,-11,-5,-5
1537922014954627,-2,-23,-2,0,2,3,0,2
1537922014967593,5,-17,-10,-3,1,1,3,3
1537922014967593,2,4,13,5,-1,-1,4,0
1537922014968590,5,20,-1,-1,-1,-3,-4,-2
1537922014968590,0,16,10,-1,0,3,-2,1
1537922014991528,1,-15,-13,-1,-3,-1,2,-1
1537922014991528,1,2,11,-1,1,-1,-5,-2
1537922014991528,-3,2,-1,-1,0,4,0,-2
1537922014991528,2,1,12,-1,1,-4,-2,1
1537922015004493,-2,-23,-19,1,8,6,0,-1
1537922015004493,1,5,6,-1,-2,-3,0,0
1537922015013470,2,4,-3,0,2,4,-1,-2
1537922015013470,-6,4,-1,-1,-3,-1,-2,-1
1537922015028430,-1,-6,-4,-3,-7,-6,-3,1
1537922015028430,-1,7,18,2,2,2,3,0
1537922015028430,-1,-12,9,4,2,-2,0,0
1537922015028430,-2,9,-22,-2,0,0,-2,-2
1537922015051368,0,-2,-8,-6,-3,-3,2,0
1537922015051368,2,1,1,-1,-6,-2,-2,0
1537922015052365,-3,13,12,-1,0,-7,-2,-3
1537922015052365,0,-3,-4,2,2,5,2,1
1537922015064334,0,2,3,0,-2,0,1,-1
1537922015064334,-1,2,-3,-3,-5,-2,1,0
1537922015073309,-1,-35,-9,0,-1,0,1,0
1537922015073309,0,6,9,2,1,-2,-1,-1
1537922015088269,-4,-10,-7,1,1,4,1,-3
1537922015088269,1,6,6,-2,-1,-1,1,1
1537922015088269,0,3,-25,-5,-1,-3,-2,1
1537922015088269,-1,2,5,-2,1,3,-2,1
1537922015111208,-2,0,6,-3,-6,-6,-1,-2
1537922015111208,2,-4,5,1,-2,1,0,-1
1537922015112206,-4,-5,-24,-5,-6,-18,-3,-3
1537922015112206,-3,6,9,3,5,3,1,0
1537922015125171,0,-14,-2,4,4,1,-1,0
1537922015125171,-2,6,-11,-5,-4,-5,-5,-1
1537922015133150,-4,1,4,-3,0,5,1,-2
1537922015133150,-1,7,-7,-1,-4,-3,-1,-3
1537922015148110,1,6,-16,-4,-2,-2,0,2
1537922015148110,-7,-4,9,3,6,2,2,-4
1537922015149107,2,3,9,2,-2,-1,2,1
1537922015149107,-2,-9,2,1,0,0,-1,-1
1537922015171048,0,5,30,-2,-1,-1,-1,-1
1537922015171048,0,-9,-13,-2,-3,-1,-1,-2
1537922015172046,0,2,-8,0,0,2,-2,-2
1537922015172046,-2,-16,-7,-2,-1,0,2,-2
1537922015185011,0,-4,0,1,0,-3,-2,1
1537922015185011,1,21,12,0,-1,-2,-3,-2
1537922015192990,-2,7,6,2,4,5,0,0
1537922015192990,-2,-4,10,-1,-2,0,-1,1
1537922015215928,-3,-7,-13,1,1,10,0,-1
1537922015215928,-1,-3,-11,-3,0,-6,0,-1
1537922015217923,-1,0,3,-1,-3,-3,-1,-1
1537922015217923,1,2,6,-1,-2,0,-3,-2
1537922015224904,0,9,1,1,6,6,0,-2
1537922015224904,1,-11,-19,-4,-5,-1,0,0
1537922015225902,-3,-6,2,-4,-6,-2,-2,0
1537922015225902,0,10,22,3,6,1,-1,-3
1537922015236872,0,-19,-1,3,9,1,2,-2
1537922015236872,2,-7,5,1,0,-1,0,2
1537922015244851,3,19,5,-2,-1,-3,-2,-1
1537922015244851,0,-12,-28,-5,-6,-3,-1,1
1537922015259811,-5,-6,13,-2,-6,-4,-2,-2
1537922015259811,-2,5,-2,-1,0,-1,0,0
1537922015266792,1,5,6,2,1,1,-1,-1
1537922015266792,0,11,14,1,2,1,0,1
1537922015282750,-1,-1,-26,-5,-5,-6,1,0
1537922015282750,0,-13,-4,-1,-3,1,-2,0
1537922015283748,1,10,-5,0,2,0,2,-1
1537922015283748,1,-15,0,1,1,-1,0,-1
1537922015297710,-2,-12,4,-2,-2,-2,0,-1
1537922015297710,-2,-7,2,-3,-3,-3,-2,-1
1537922015304691,3,16,-8,1,-1,7,0,2
1537922015304691,0,-15,-17,-1,3,-13,-1,-2
1537922015319651,-1,-37,27,-2,-5,-3,1,-1
1537922015319651,-3,-6,-43,-8,-5,-4,1,-1
1537922015327630,0,-13,4,-1,5,3,2,1
1537922015327630,3,23,26,1,0,6,0,0
1537922015342590,2,8,-49,3,-1,-1,-1,-1
1537922015342590,-1,20,27,-6,-3,-4,-1,-2
1537922015350568,-1,-3,1,0,-3,-3,0,1
1537922015350568,-3,4,-7,-3,-3,0,2,-1
1537922015357550,0,8,6,-1,1,-3,-1,0
1537922015357550,2,-6,-2,3,1,5,-1,-1
1537922015364531,-2,-5,-10,-3,-3,-3,-2,-1
1537922015364531,1,-14,3,-2,-3,-1,1,0
1537922015379491,0,35,11,0,0,-2,-1,-3
1537922015379491,-3,-6,-3,-2,-2,-1,2,-2
1537922015387470,0,-1,15,1,2,0,2,-1
1537922015387470,-2,-6,-1,0,-1,0,1,0
1537922015402429,4,4,-1,1,0,0,0,1
1537922015402429,-3,7,-16,-1,-1,1,-1,0
1537922015410408,0,31,-5,1,-2,-4,-2,0
1537922015410408,-3,-34,-8,-4,-2,1,0,-1
1537922015417390,2,-14,2,-2,-2,6,1,0
1537922015417390,-4,-15,13,1,0,-1,1,-2
1537922015424371,-1,-13,-1,-1,-1,-3,-1,-3
1537922015424371,1,9,-7,0,-2,0,-3,0
1537922015439331,-2,40,29,2,3,0,-1,0
1537922015439331,-1,-48,-24,-4,-5,0,-3,-2
1537922015447309,-1,-25,-14,-3,-2,-1,0,-1
1537922015447309,1,13,-3,1,3,1,-1,0
1537922015462270,-1,-9,-1,-3,-4,-4,-1,1
1537922015462270,1,3,5,4,3,1,1,2
1537922015470248,1,11,7,-1,-2,-3,-3,0
1537922015470248,-1,16,6,-2,2,2,-3,-1
1537922015477230,0,5,16,1,-3,-4,-3,-1
1537922015477230,0,10,4,0,-2,-3,-1,-1
1537922015485208,5,-13,-43,-1,0,3,1,-1
1537922015485208,-7,7,48,-2,-2,-2,1,-3
1537922015500168,-9,-19,-46,-7,-2,0,-1,-2
1537922015500168,4,20,23,4,1,0,-1,1
1537922015507150,-3,-11,10,1,-1,1,-2,0
1537922015507150,4,-9,-9,-2,-1,-3,-2,0
1537922015522110,2,9,-5,3,0,-3,-2,-2
1537922015522110,-3,-14,12,-3,-1,-2,-2,-1
1537922015530088,0,-40,-13,0,2,0,-6,-8
1537922015530088,2,28,2,-14,-3,6,-4,3
1537922015537070,-14,-40,-12,-84,-2,26,10,-25
1537922015537070,12,-3,-9,40,-5,-21,16,103
1537922015545049,14,64,-9,-19,19,18,-5,-58
1537922015545049,-8,-31,64,-61,-16,24,2,-7
1537922015560008,13,13,5,100,-8,-99,0,39
1537922015560008,-23,80,-99,-128,-29,61,-17,-57
1537922015566990,-67,-86,-37,123,12,-53,-12,34
1537922015566990,12,41,-13,-12,-11,-48,-91,-84
1537922015581950,-11,17,101,34,-13,-20,80,18
1537922015581950,36,-48,-12,86,25,-50,-63,-46
1537922015590926,-48,27,-34,-128,-30,55,58,55
1537922015590926,38,-14,-79,-73,-24,-7,56,11
1537922015606885,-27,5,66,62,8,-28,-83,-89
1537922015606885,34,16,-36,-111,-29,46,46,73
1537922015612867,-28,-52,-29,-3,4,-48,-76,-63
1537922015612867,39,33,63,47,21,28,85,79
1537922015619849,27,-6,17,-54,6,2,-28,76
1537922015619849,-39,-2,20,44,25,71,84,64
1537922015626830,43,4,-1,-72,-30,-37,-40,-13
1537922015626830,-21,-21,-52,37,3,2,21,45
1537922015641790,23,29,-41,-21,6,-5,-42,-16
1537922015641790,6,-5,11,15,5,-36,-23,-13
1537922015650766,30,33,13,-11,-7,22,20,12
1537922015650766,-3,14,-10,14,0,-10,0,-9
1537922015665726,-8,4,-28,2,13,47,7,-8
1537922015665726,-12,2,5,-12,0,-14,-9,-17
1537922015665726,12,12,46,26,9,8,37,12
1537922015665726,-14,-4,12,17,6,10,-26,-11
1537922015679689,-11,-24,-51,-34,-15,14,18,8
1537922015679689,-7,-6,28,-2,3,-20,-5,-40
1537922015687667,14,29,32,21,6,4,-2,0
1537922015687667,-28,-58,-36,-1,-9,-8,-21,-15
1537922015702627,-2,-13,-40,-28,-15,-4,10,1
1537922015702627,1,40,24,12,-12,6,-7,-11
1537922015710606,-1,-81,49,19,19,22,8,-9
1537922015710606,-9,-36,-54,-10,4,-2,-14,-4
1537922015725566,6,64,0,-9,-1,9,11,3
1537922015725566,-5,-110,-6,5,-7,-21,-6,-9
1537922015726563,-3,21,-18,-6,-15,-7,9,14
1537922015726563,5,28,45,3,1,-7,-8,-12
1537922015739529,5,-66,41,3,4,18,-2,-15
1537922015739529,-5,-58,-97,-16,-1,-13,4,-1
1537922015747507,1,101,14,-4,-5,1,3,25
1537922015747507,-8,-41,-7,5,2,-9,5,-11
1537922015762468,9,96,-3,-4,-4,3,-9,-18
1537922015762468,9,34,53,6,6,3,3,13
1537922015770446,11,24,-2,8,0,10,37,-8
1537922015770446,-34,-33,4,-12,-8,-14,-51,-24
1537922015785406,2,23,-48,-4,3,-9,20,20
1537922015785406,7,44,49,10,4,-14,-30,-41
1537922015786403,-44,-66,-39,-12,0,19,3,-14
1537922015786403,11,123,5,5,4,-19,1,5
1537922015799369,-10,-48,-33,-9,-17,-3,14,5
1537922015799369,5,18,20,6,13,20,-2,-14
1537922015807348,14,-68,-13,1,-5,-9,-13,12
1537922015807348,9,36,15,3,19,7,11,5
1537922015822307,-9,11,-1,-4,8,15,0,4
1537922015822307,2,58,14,6,-4,-9,5,-3
1537922015830286,-6,-73,-17,-3,-9,-12,-10,-8
1537922015830286,3,29,5,1,5,14,2,6
1537922015845246,18,43,19,-6,2,6,0,18
1537922015845246,8,42,-44,-97,0,67,108,47
1537922015846244,-10,18,72,17,-19,-84,-101,-60
1537922015846244,-31,9,-38,88,33,-9,42,8
1537922015860206,19,22,6,-100,-59,50,57,35
1537922015860206,-60,-72,-28,127,64,27,-12,-7
1537922015867187,12,75,20,-88,-23,-55,-77,91
1537922015867187,14,42,74,-116,-27,5,61,-53
1537922015882148,-78,-95,-9,120,22,-49,35,43
1537922015882148,0,39,-54,-106,37,84,-52,-86
1537922015890126,-11,19,13,-60,-57,-81,31,-66
1537922015890126,71,17,15,-89,-21,-70,-128,15
1537922015905086,-62,-39,-75,-20,-3,44,93,-38
1537922015905086,30,-7,34,-57,-27,-110,-46,20
1537922015906084,-11,4,9,99,35,28,8,-89
1537922015906084,51,-9,-62,-76,9,127,120,115
1537922015920046,56,-40,89,-9,-34,-123,-122,-101
1537922015920046,-100,6,94,74,-1,27,-7,5
1537922015927028,75,48,-88,15,41,29,89,38
1537922015927028,-46,-28,-13,52,-13,-18,-3,15
1537922015941987,36,24,-36,-5,23,32,-8,9
1537922015941987,17,6,-17,-6,-4,-6,-14,11
1537922015950963,-24,-2,0,-27,-1,20,-17,1
1537922015950963,-4,-28,-23,11,-5,2,9,17
1537922015965923,4,10,-8,4,29,23,5,21
1537922015965923,16,-14,2,-13,-36,-68,-30,-11
1537922015965923,0,3,3,0,4,30,26,24
1537922015965923,-9,-26,10,33,9,-9,-51,-24
1537922015979886,8,12,17,-6,5,44,-18,-2
1537922015979886,-11,-63,17,-1,-7,-51,15,-23
1537922015986867,14,4,-22,6,8,36,-1,31
1537922015986867,-21,-16,-34,10,-31,-29,2,-55
1537922016001827,-17,22,29,-23,54,-17,-14,-5
1537922016001827,29,-9,-12,5,-12,12,7,14
1537922016010804,-6,47,-7,-6,-2,11,8,27
1537922016010804,-10,-28,15,3,13,3,-4,-13
1537922016025763,-2,34,-37,-10,-32,-17,-15,-10
1537922016025763,12,50,47,20,5,-6,-22,-3
1537922016025763,2,-28,26,1,4,-3,58,17
1537922016025763,-20,16,-13,-4,-14,2,-50,-18
1537922016039726,4,-96,-24,-2,9,0,-11,5
1537922016039726,1,-21,-22,-8,0,-1,18,14
1537922016047705,-3,3,20,-3,-6,19,-5,-6
1537922016047705,-5,-4,8,7,5,-3,18,5
1537922016062665,1,0,0,1,2,2,1,5
1537922016062665,11,17,3,-1,-11,-4,-3,-12
1537922016070643,3,2,28,-3,-8,2,-5,22
1537922016070643,0,-20,-55,5,20,-1,-1,-3
1537922016085603,-4,-19,-8,-8,-3,-4,-12,0
1537922016085603,-3,20,2,3,-6,1,17,-5
1537922016086601,6,9,2,1,6,0,-16,-6
1537922016086601,-2,12,12,0,1,-8,5,4
1537922016107545,6,20,2,1,-5,6,0,0
1537922016107545,1,17,3,-7,-5,1,8,4
1537922016116521,0,-26,-30,1,12,4,-4,-4
1537922016116521,8,-4,14,1,-7,-11,-3,-4
1537922016131481,-12,19,-5,-14,6,15,0,11
1537922016131481,2,-1,-2,0,-7,-7,-2,-5
1537922016132479,0,-32,-5,18,11,4,-7,-2
1537922016132479,-3,7,16,0,-7,-7,8,-7
1537922016153422,2,13,-3,2,-4,-6,-2,2
1537922016153422,1,-7,-14,-12,-1,1,2,8
1537922016159406,-6,6,2,-12,-3,6,-5,-8
1537922016159406,4,31,4,5,1,0,2,6
1537922016167385,0,-35,10,-1,-8,-17,-3,0
1537922016167385,-6,-37,-51,-12,-6,15,-2,-4
1537922016176362,-6,25,24,-3,9,1,-1,-13
1537922016176362,-1,-15,8,9,8,5,2,3
1537922016190323,2,25,6,2,3,3,-3,-3
1537922016190323,5,-2,-14,1,-5,-13,2,1
1537922016197305,-1,14,-7,0,-6,-4,-2,0
1537922016197305,-1,13,49,1,0,2,-2,-1
1537922016213262,2,19,-38,-8,-11,-5,-1,-5
1537922016213262,-2,-33,-13,7,6,2,1,2
1537922016215257,-2,-21,-8,-3,-3,3,-1,-6
1537922016215257,-4,4,-10,-1,1,9,2,7
1537922016227225,-4,18,31,3,-4,-5,-4,-19
1537922016227225,4,5,-12,-4,-2,-2,0,2
1537922016236201,-1,4,-4,1,3,1,-2,0
1537922016236201,2,-23,-23,0,-5,-9,0,-6
1537922016251161,-2,1,5,-1,-1,3,-1,1
1537922016251161,5,12,15,3,4,6,1,4
1537922016252158,-2,0,10,1,1,-2,0,-6
1537922016252158,-4,-5,-15,-3,-2,-2,1,-1
1537922016274100,0,-3,14,2,1,2,2,2
1537922016274100,6,31,18,3,0,-4,0,2
1537922016275097,-5,-25,-20,-4,-4,-3,-2,1
1537922016275097,-4,2,-10,-5,-6,-7,-4,-3
1537922016296041,1,-8,-5,4,8,8,2,2
1537922016296041,-1,21,16,-4,-1,-4,-2,-3
1537922016298036,0,2,6,-2,-4,-3,-4,2
1537922016298036,0,-10,-3,-2,1,1,-1,-2
1537922016311001,2,8,-2,2,0,2,-2,0
1537922016311001,-4,-9,-1,-2,-5,-3,0,1
1537922016312996,-1,6,2,-2,0,-1,1,1
1537922016312996,-1,-18,-8,-1,1,-6,0,0
1537922016333940,3,5,3,2,1,7,2,2
1537922016333940,-3,-4,12,-1,0,2,1,-1
1537922016334938,0,-1,-8,-1,-1,-2,-2,0
1537922016334938,-3,-4,-9,-4,-2,0,-2,-2
1537922016355881,-2,-1,-4,2,-3,-7,-1,-1
1537922016355881,0,-2,9,-1,-3,-1,0,-1
1537922016357877,1,35,11,4,-2,-1,-1,-2
1537922016357877,-3,-34,13,0,0,0,-1,-2
1537922016370841,1,-6,-46,-5,-1,-2,0,0
1537922016370841,2,3,-5,-4,-2,-3,-1,0
1537922016378820,-6,-20,0,-3,-2,-2,-2,-2
1537922016378820,1,10,9,5,0,-1,-2,-1
1537922016384803,-2,0,23,5,-2,-1,-1,0
1537922016384803,2,17,-13,-1,2,-3,1,0
1537922016392782,0,1,-10,-4,-3,-3,-1,1
1537922016392782,-4,-50,-17,-5,-2,1,-2,-2
1537922016399763,-2,2,6,0,-1,-3,-1,-2
1537922016399763,0,11,19,2,0,-1,1,0
1537922016408739,0,-3,-4,2,4,2,1,2
1537922016408739,-1,18,-7,1,-3,5,0,-3
1537922016422702,-1,-34,-16,-5,-5,-3,1,1
1537922016422702,-5,5,10,-1,-3,-12,-1,1
1537922016430681,0,-18,9,-1,-2,3,0,2
1537922016430681,0,30,-5,-3,-2,-2,-3,-13
1537922016444644,-1,-4,4,0,-2,0,-2,-2
1537922016444644,3,0,-3,0,0,3,-1,12
1537922016453619,-3,-24,-13,-1,-2,-3,0,-17
1537922016453619,3,-2,-2,0,-2,-5,0,-7
1537922016459604,-2,8,2,0,-1,6,1,0
1537922016459604,-6,-22,-5,1,0,-3,-3,-6
1537922016468580,1,-10,-3,-2,-5,-3,-1,-1
1537922016468580,0,15,13,0,1,0,1,4
1537922016482542,1,8,0,-5,-1,-4,2,3
1537922016482542,0,-2,3,-1,0,2,0,-1
1537922016491518,2,-18,-29,-1,2,0,0,4
1537922016491518,-1,3,4,0,-1,-3,-1,1
1537922016504484,1,5,16,-4,-5,-7,-1,0
1537922016504484,1,-2,-8,2,2,2,1,-2
1537922016513460,-2,29,24,2,3,2,-2,-1
1537922016513460,0,5,-32,-6,-2,-1,0,5
1537922016528420,0,-6,0,0,-1,-2,-1,0
1537922016528420,-3,6,-3,0,0,2,-1,-7
1537922016530414,-1,-14,-2,-4,-3,-2,0,2
1537922016530414,1,-10,9,5,2,6,1,3
1537922016542382,3,54,12,0,1,-7,-2,-1
1537922016542382,-6,-51,-21,-6,-8,-7,-2,-4
1537922016551359,-7,-15,-8,-1,0,1,3,2
1537922016551359,-3,-4,-1,-3,-5,-3,0,4
1537922016564324,0,-6,-3,4,3,6,0,0
1537922016564324,4,25,4,3,1,-1,-1,1
1537922016573300,2,25,11,-3,-3,-3,-3,-1
1537922016573300,0,-5,16,0,1,-2,1,-1
1537922016588260,2,6,-2,-1,-2,-2,-1,0
1537922016588260,-3,-13,-1,0,1,1,0,-3
1537922016590255,-1,-1,-18,-6,-5,0,0,1
1537922016590255,-1,14,-8,-4,-2,-2,-1,0
1537922016602222,-3,-16,-3,1,-1,0,0,-2
1537922016602222,0,3,3,-1,-4,0,1,1
1537922016611199,1,4,-3,3,1,0,-1,1
1537922016611199,0,5,7,1,-1,-4,-4,0
1537922016625161,0,-11,18,-6,-6,4,-2,-1
1537922016625161,-4,17,-35,0,10,6,0,-3
1537922016634137,-3,-18,-10,-1,0,-2,1,0
1537922016634137,1,13,11,2,1,0,1,-1
1537922016649097,-5,-51,-22,-5,-5,-5,-2,-3
1537922016649097,2,12,10,0,-2,-2,-1,0
1537922016650095,1,19,22,0,-3,-1,-4,-1
1537922016650095,-2,-14,-6,-1,-1,-1,-2,-1
1537922016662063,2,20,-4,-1,-1,-3,2,-1
1537922016662063,4,18,16,3,-1,8,-1,0
1537922016671039,-6,-16,-50,-6,0,-7,0,-1
1537922016671039,-1,-10,-2,-3,-6,-2,-2,0
1537922016685002,-3,5,-5,-1,-1,0,-1,-3
1537922016685002,0,-17,3,0,-2,2,1,2
1537922016693977,11,83,24,7,3,1,-3,2
1537922016693977,0,-4,12,2,2,-3,-3,0
1537922016708938,7,-2,-7,3,3,3,0,-3
1537922016708938,-11,-81,-7,-11,-4,-4,-8,-6
1537922016709935,0,-2,-52,-65,-1,18,5,37
1537922016709935,-22,69,33,29,-16,-11,34,-25
1537922016721903,-1,-37,-99,-113,-28,-8,22,-45
1537922016721903,-4,28,86,104,24,14,-27,96
1537922016730878,-7,-29,-32,-80,-37,-46,-52,-108
1537922016730878,29,24,41,-50,-1,14,83,87
1537922016744842,-6,-34,35,74,35,39,-99,97
1537922016744842,-35,61,5,-104,-62,-90,-27,-103
1537922016760799,-61,-19,127,127,83,57,86,122
1537922016760799,8,-12,-121,-79,-32,-106,-128,-126
1537922016769775,90,61,100,9,11,44,122,43
1537922016769775,-10,-86,-128,-128,-53,-21,31,49
1537922016771770,-46,54,42,-59,-2,19,-27,-70
1537922016771770,-16,-58,91,-8,-36,-61,-63,49
1537922016782740,-32,27,-125,68,45,55,37,16
1537922016782740,7,1,43,40,22,-18,-9,34
1537922016790720,80,6,28,-88,-37,-4,42,-32
1537922016790720,42,-21,62,21,22,62,31,-3
1537922016804681,-99,-17,15,14,-22,-31,-25,-95
1537922016804681,45,11,-1,18,21,59,38,-24
1537922016813658,10,3,-32,38,-11,-60,-37,31
1537922016813658,32,27,-33,-15,14,21,20,35
1537922016828618,23,11,23,-17,-13,-29,-18,-13
1537922016828618,-24,2,3,22,18,51,64,-42
1537922016829615,2,-1,-22,6,1,-5,-16,29
1537922016829615,-1,-14,-38,14,8,-2,-32,-11
1537922016842580,-6,2,23,-14,2,18,38,16
1537922016842580,-10,-26,-29,-15,-9,-19,-35,1
1537922016851557,24,-1,-14,6,-12,-10,-28,-10
1537922016851557,-23,-1,-8,20,23,40,34,8
1537922016864522,-20,-8,-1,-26,-7,-21,-18,-27
1537922016864522,23,8,4,-4,6,-4,-20,1
1537922016873498,1,-16,10,22,6,2,-5,-11
1537922016873498,-25,-36,12,9,-2,34,36,-17
1537922016888457,5,-1,-28,-34,2,-30,-23,10
1537922016888457,13,-9,-15,12,4,-6,-15,-4
1537922016890453,-3,5,2,10,0,16,34,10
1537922016890453,-11,37,-25,-11,-1,-1,-9,4
1537922016902420,23,41,34,-8,-17,-21,-16,-2
1537922016902420,-10,-41,-21,-1,-1,8,17,9
1537922016911397,-11,-72,-17,0,1,6,2,-22
1537922016911397,3,13,21,-5,2,-6,-5,1
1537922016924361,15,-9,1,1,-1,-8,-14,-15
1537922016924361,-2,18,-36,-4,-2,6,15,-11
1537922016933338,0,42,-1,-1,-4,-3,-12,17
1537922016933338,-5,12,-21,1,3,3,3,10
1537922016948298,-14,-85,9,-12,-14,-11,5,-3
1537922016948298,1,22,24,1,16,14,-4,-9
1537922016950292,12,24,5,6,-6,-6,-3,2
1537922016950292,-17,-14,-24,-4,5,13,16,-12
1537922016962260,-6,-27,-3,-4,-4,-9,-17,11
1537922016962260,5,21,40,1,1,-9,7,2
1537922016971236,8,68,-14,4,-1,0,2,4
1537922016971236,-9,-51,11,0,-7,-12,-11,8
1537922016985199,-4,64,3,-9,0,1,-10,-22
1537922016985199,25,110,-8,5,0,6,0,17
1537922016994176,-31,-111,-35,-8,3,1,12,-1
1537922016994176,6,80,9,2,-6,63,5,-1
1537922017008138,1,-7,0,-6,13,-49,-14,8
1537922017008138,3,22,20,4,3,2,12,-1
1537922017010133,12,43,5,6,-1,-6,-1,12
1537922017010133,-6,-30,-23,-9,3,13,0,-7
1537922017022100,7,31,11,2,-9,6,-4,-1
1537922017022100,12,19,13,-9,7,7,-23,9
1537922017031077,-36,-122,-68,-101,-22,4,39,26
1537922017031077,19,61,73,87,28,18,57,-39
1537922017045039,28,33,-24,-54,-7,-15,-86,19
1537922017045039,-79,-81,-5,6,-20,-55,40,52
1537922017054015,76,83,95,-11,16,49,35,-37
1537922017054015,20,-23,13,-38,4,-5,20,107
1537922017068975,-50,-66,25,127,15,-16,32,35
1537922017068975,108,90,-31,-113,6,55,68,-30
1537922017069972,-39,-69,60,116,27,-78,-120,68
1537922017069972,31,64,36,-102,1,93,120,-73
1537922017081940,-46,-63,-74,-27,-57,-79,-89,-14
1537922017081940,-49,21,56,-11,2,11,-1,-26
1537922017090916,44,22,-89,-72,-1,30,12,98
1537922017090916,-49,-38,-35,107,37,-18,13,-92
1537922017104879,117,37,-60,-114,30,127,127,116
1537922017104879,-92,-47,9,14,-36,-79,-43,-122
1537922017113855,-30,39,2,-12,4,6,17,-8
1537922017113855,-39,-50,-34,-38,-45,-63,-74,-26
1537922017128815,35,41,28,54,19,22,-7,-36
1537922017128815,20,2,-10,27,26,38,5,41
1537922017129812,0,28,-8,-2,-8,-3,40,-33
1537922017129812,20,6,-38,-60,-11,-7,-42,6
1537922017141780,-29,-7,35,-7,-10,-11,44,-7
1537922017141780,20,-19,-3,21,8,-2,-21,8
1537922017150756,-14,-9,-13,2,-6,6,-18,-31
1537922017150756,-4,-13,-13,-15,-20,-44,-24,27
1537922017164719,-8,24,10,-4,-11,-8,-1,-31
1537922017164719,-3,-54,-18,20,21,20,-5,25
1537922017173695,-1,20,-1,-9,-6,5,-9,-44
1537922017173695,4,19,4,16,8,-54,-3,31
1537922017188655,-4,30,5,4,19,20,19,-6
1537922017188655,4,-12,10,-15,-21,3,-22,-8
1537922017189652,-13,-26,-17,8,-17,-30,15,-6
1537922017189652,5,-23,-19,1,14,4,-11,8
1537922017202617,-15,12,11,-15,-30,-27,8,12
1537922017202617,-1,42,-14,-10,14,4,-6,-10
1537922017211594,7,-15,26,17,1,11,2,-5
1537922017211594,-5,7,7,5,-6,-3,-14,23
1537922017224559,-7,1,-32,-25,5,-2,-5,-25
1537922017224559,9,-4,-16,13,-2,2,10,18
1537922017233535,2,1,4,2,-5,-5,11,-16
1537922017233535,1,-12,-13,-10,-1,16,-3,6
1537922017247497,-10,-27,16,6,-1,5,2,-6
1537922017247497,1,-17,18,-1,-12,-14,-4,3
1537922017254479,0,45,33,2,7,3,-7,-6
1537922017254479,3,-46,-73,-11,1,-3,0,9
1537922017278415,5,12,0,1,-1,3,5,-6
1537922017278415,-2,-20,-15,2,2,-8,-8,7
1537922017280410,-1,14,15,-2,-2,-1,-1,-7
1537922017280410,2,2,-2,6,2,8,1,5
1537922017293375,-11,1,14,-3,5,-4,4,8
1537922017293375,1,-3,-20,-6,-1,-5,-6,-3
1537922017299359,-3,2,15,2,1,6,6,12
1537922017299359,-1,16,4,3,-6,-5,-3,-14
1537922017316314,0,-13,-35,-3,0,0,-1,-5
1537922017316314,4,24,29,4,-1,2,-1,4
1537922017317312,8,-5,-31,-1,-7,-14,-1,-3
1537922017317312,-22,-11,11,-4,-1,2,0,2
1537922017338256,1,-3,18,-2,3,6,12,-3
1537922017338256,-9,-5,-7,-1,-3,1,-12,6
1537922017340250,0,-16,-15,-4,-5,-2,0,-13
1537922017340250,8,19,10,9,2,-5,-2,6
1537922017353215,-4,-6,11,3,-1,-2,1,-9
1537922017353215,5,6,-9,-3,-6,-4,3,4
1537922017360197,1,13,-12,-1,-1,3,-1,-2
1537922017360197,-1,9,55,2,1,-5,-1,4
1537922017376154,-6,-34,-48,-5,3,11,3,1
1537922017376154,3,-22,-33,-3,-6,-6,-1,-4
1537922017377152,-4,-7,-3,3,1,0,-3,-6
1537922017377152,4,10,-2,-4,-6,-2,-1,4
1537922017399092,3,11,29,1,-2,-5,-4,-3
1537922017399092,1,1,13,-2,0,0,-2,-1
1537922017400090,-3,-11,-23,0,-1,4,1,-2
1537922017400090,3,9,0,-5,-7,-5,-1,8
1537922017413056,8,19,18,7,2,-4,-9,-12
1537922017413056,-20,-12,-4,-2,-1,8,1,-4
1537922017420037,-7,-3,-11,-2,-1,-3,1,-2
1537922017420037,4,22,9,0,-3,0,-1,3
1537922017435994,-2,-4,2,-5,-5,-7,-3,-1
1537922017435994,11,11,5,3,0,0,1,5
1537922017437989,-1,-10,3,0,0,3,-2,-2
1537922017437989,-3,-12,-13,-2,-1,-1,-3,-4
1537922017458933,0,14,2,4,2,2,-1,-2
1537922017458933,-2,-2,1,0,0,-3,0,-2
1537922017459931,2,18,4,3,4,2,0,2
1537922017459931,-4,-60,-9,-4,-4,-6,-3,-6
1537922017472895,-4,5,-15,-3,-3,0,-1,0
1537922017472895,-4,-9,7,-2,-2,-2,0,1
1537922017479876,-2,-18,-6,-1,-1,-1,-2,-3
1537922017479876,6,24,2,-3,-4,0,-2,2
1537922017495834,-3,-8,9,3,6,5,1,-4
1537922017495834,1,-1,-7,-1,-4,-7,-2,-2
1537922017497829,3,13,7,1,2,4,-1,0
1537922017497829,-2,3,-1,-1,3,1,0,-2
1537922017518773,-5,-17,-10,-10,-5,-5,-3,0
1537922017518773,1,5,2,9,1,-1,-3,-2
1537922017519770,-1,4,12,-5,-2,0,-1,-2
1537922017519770,-2,-4,4,-1,-1,-1,0,1
1537922017532735,-2,-7,-12,-2,-1,0,-1,-1
1537922017532735,2,5,-16,-2,1,0,0,0
1537922017539716,-3,-13,-5,0,0,2,-2,-1
1537922017539716,-4,2,-10,-4,-2,-4,-2,0
1537922017555674,0,12,-1,-2,0,0,-2,-1
1537922017555674,0,-32,-2,-2,-1,-1,-2,0
1537922017557668,-2,4,6,-1,-1,0,-1,-2
1537922017557668,-1,8,5,2,-1,-10,-4,-1
1537922017578612,-1,-6,-4,3,-1,-5,-1,-3
1537922017578612,0,6,5,-5,0,-1,1,1
1537922017579610,-1,-13,-12,7,-2,-2,-2,0
1537922017579610,0,5,16,4,7,9,1,-1
1537922017592575,-4,-6,-17,-1,-2,-1,0,-3
1537922017592575,-1,5,11,-2,0,2,-1,1
1537922017601551,1,-7,-19,-2,-5,-6,0,-1
1537922017601551,-1,2,-6,0,0,-1,-1,-4
1537922017616511,0,-3,14,2,1,0,1,3
1537922017616511,2,2,-6,-1,-4,-2,-1,-1
1537922017617509,0,1,7,-3,1,2,1,-3
1537922017617509,-1,-2,-6,-2,-5,-2,-3,-1
1537922017638452,-2,0,4,0,-1,-3,-2,-3
1537922017638452,-1,8,5,3,2,4,0,-1
1537922017640447,-2,12,-4,0,0,0,0,-1
1537922017640447,-1,-23,-14,-3,-1,0,0,2
1537922017652415,-3,12,9,-3,-4,-1,-2,-2
1537922017652415,-1,-12,-7,2,1,-2,-2,-2
1537922017661391,-1,11,12,2,3,1,-2,-1
1537922017661391,0,3,-12,-1,-2,0,0,2
1537922017676351,4,-1,-5,-5,-4,-3,0,2
1537922017676351,-2,8,17,3,-1,-3,1,-1
1537922017677348,2,0,11,-3,2,1,1,-1
1537922017677348,0,-2,-25,1,-4,-2,-1,-2
1537922017698292,-2,-11,7,-2,1,0,-1,-4
1537922017698292,0,-8,-8,-1,0,-5,-2,-1
1537922017700287,-2,-16,-1,0,0,3,-1,-2
1537922017700287,-5,12,-5,-6,-6,7,-1,-2
1537922017712255,-1,-36,-12,1,4,0,-1,0
1537922017712255,-2,19,8,-4,-6,-3,0,0
1537922017721232,-1,3,10,2,0,-1,0,1
1537922017721232,3,9,-9,-1,0,1,-1,-1
1537922017736191,-1,4,0,-1,-3,0,0,-1
1537922017736191,-2,-13,-10,-3,-3,-2,-3,-1
1537922017737189,-1,-1,10,-1,0,-2,1,1
1537922017737189,-1,10,6,1,2,-4,0,-2
1537922017758133,-1,4,1,-6,-3,-3,-1,-1
1537922017758133,1,-6,-3,4,4,1,0,0
1537922017760128,-2,7,1,-1,-2,-1,-2,0
1537922017760128,-1,-13,14,-1,1,2,-1,-1
1537922017772095,-1,12,-22,-4,-3,-1,1,-1
1537922017772095,0,-23,0,0,-1,1,0,-1
1537922017781072,-1,-1,-2,-5,-4,-4,-3,0
1537922017781072,1,0,-8,0,0,-2,-3,0
1537922017796031,0,21,16,4,3,2,-2,1
1537922017796031,-6,-36,-21,-5,-3,-2,-2,-2
1537922017798026,1,-10,1,2,2,0,0,0
1537922017798026,-4,5,9,-2,-2,-2,-1,0
1537922017818970,3,-13,-4,2,1,1,1,1
1537922017818970,0,43,11,2,2,-10,-1,0
1537922017819968,-3,-9,-19,-5,-6,-5,-3,-2
1537922017819968,-3,-17,0,1,3,2,1,-2
1537922017831936,-1,1,-2,-1,-2,1,0,0
1537922017831936,3,12,24,0,0,2,-1,-2
1537922017840911,0,0,-13,-1,-6,-5,-2,-1
1537922017840911,-2,5,-11,1,3,-2,0,-2
1537922017855871,-3,-3,-8,1,2,3,1,-2
1537922017855871,3,-2,1,0,-1,-1,0,1
1537922017857866,0,6,10,-2,-1,-1,1,0
1537922017857866,-1,-11,-13,-2,-5,-1,0,-1
1537922017878810,0,-9,9,2,0,-1,-2,0
1537922017878810,-1,30,10,-2,2,1,-1,-2
1537922017879808,-1,-14,-23,-3,0,0,1,-1
1537922017879808,-1,13,19,-1,-2,-2,-1,1
1537922017891775,-1,-22,-14,-4,-4,-6,0,-1
1537922017891775,2,31,-7,2,0,2,-1,1
1537922017900752,-2,-12,-13,-1,-1,2,-3,-3
1537922017900752,0,38,41,-1,0,-1,-2,-2
1537922017915711,-2,-15,28,3,-1,0,0,0
1537922017915711,-6,-29,-51,-8,-3,0,1,-2
1537922017917707,0,2,-15,-1,0,-3,1,1
1537922017917707,2,1,-9,-2,-3,-1,0,0
1537922017938650,1,16,14,6,5,2,1,-1
1537922017938650,-1,-11,16,1,-1,2,-2,0
1537922017939648,-4,9,4,-3,0,-2,-1,-2
1537922017939648,11,24,5,6,1,2,-3,2
1537922017952613,-16,-38,-16,-10,-11,-27,-6,-9
1537922017952613,9,35,23,4,3,14,0,-3
1537922017961589,-11,-66,-34,-2,9,9,7,7
1537922017961589,1,-31,-5,-1,0,-1,1,-4
1537922017976549,19,116,4,8,6,5,0,7
1537922017976549,-23,-96,-34,-24,-5,8,-3,18
1537922017977546,5,84,39,-89,-17,-4,-12,-25
1537922017977546,-19,-107,31,72,13,37,83,6
1537922017998490,-1,19,-113,-66,-7,-24,-82,-37
1537922017998490,-32,-22,84,85,1,-57,-12,60
1537922018000485,51,90,-22,-45,6,45,9,-26
1537922018000485,-32,-1,14,-51,-32,1,7,3
1537922018012453,-73,-46,127,111,64,42,3,-25
1537922018012453,41,-5,-124,-123,-30,112,115,112
1537922018021429,-14,-26,39,127,-11,-113,-127,-109
1537922018021429,14,38,-105,-114,-10,26,-54,2
1537922018036388,35,-34,65,92,10,28,-20,-51
1537922018036388,-24,14,-46,-115,-6,16,-45,51
1537922018037386,-75,-53,91,114,3,-13,115,19
1537922018037386,40,38,-19,-3,-10,19,-86,1
1537922018058330,-67,-11,98,-103,-12,-38,98,63
1537922018058330,66,55,8,127,54,29,39,-105
1537922018060325,47,5,-85,-128,-33,46,50,67
1537922018060325,-20,-42,67,108,29,-3,2,23
1537922018072293,74,41,6,26,3,-1,11,81
1537922018072293,0,13,56,46,-8,-46,-21,43
1537922018081269,-18,-11,7,8,7,-6,-30,-83
1537922018081269,-60,15,-18,-63,15,25,34,-37
1537922018104207,30,-5,-79,-82,-35,-3,-25,16
1537922018104207,-1,-6,-16,3,0,-29,-3,-56
1537922018110191,12,-16,-28,-4,4,10,-34,42
1537922018110191,0,3,15,-12,7,0,11,0
1537922018118171,-16,-8,-35,6,-15,-8,-14,-30
1537922018118171,-12,-12,15,-2,-10,-39,-29,-26
1537922018120165,-2,8,27,-16,12,33,28,39
1537922018120165,15,7,-13,8,-15,-41,-17,2
1537922018141110,7,2,-13,15,-7,-8,14,-3
1537922018141110,1,8,1,-10,27,37,-1,-21
1537922018142106,-1,-1,-13,-9,-2,3,-10,18
1537922018142106,12,10,-5,19,-5,-27,4,-6
1537922018155071,-4,-4,-31,-8,-10,6,-8,-4
1537922018155071,-15,3,9,-15,-7,4,-5,-20
1537922018162053,-8,0,-1,14,4,-7,-8,4
1537922018162053,10,2,9,6,-5,-14,2,8
1537922018179007,-2,5,3,-15,2,21,15,1
1537922018179007,-4,-3,1,0,-9,-12,-16,-13
1537922018180005,2,-8,6,9,5,6,11,12
1537922018180005,8,10,-1,-3,-3,-3,4,4
1537922018200949,-4,-6,-14,-12,-7,1,0,-3
1537922018200949,-1,-5,-1,7,-2,-6,-4,-15
1537922018202943,-2,-7,5,2,-1,-2,-6,7
1537922018202943,-1,-11,-6,-3,5,5,4,0
1537922018215909,-3,-6,-10,-2,-4,-3,-2,-5
1537922018215909,-1,-7,2,-4,-7,-8,-5,-4
1537922018221893,1,-1,3,-1,4,7,5,9
1537922018221893,2,4,2,1,0,-4,-3,0
1537922018238848,3,11,0,7,0,5,5,1
1537922018238848,-2,2,-2,-4,-4,0,-1,-6
1537922018239845,3,0,-2,-4,-1,1,-3,3
1537922018239845,1,1,-4,5,2,-5,2,-1
1537922018260789,5,-6,-7,-3,-2,2,-2,5
1537922018260789,-5,-1,2,-4,-3,-1,-3,-18
1537922018262784,2,-2,-2,2,1,-2,-2,-1
1537922018262784,7,1,2,1,-2,-2,-1,12
1537922018275749,-5,1,1,-3,1,5,1,-4
1537922018275749,-7,3,-2,-1,-3,-4,-2,1
1537922018281733,-6,2,-4,-1,0,0,0,1
1537922018281733,-2,4,-1,-7,-1,2,2,0
1537922018298687,-4,3,7,11,2,2,-3,-3
1537922018298687,-1,0,2,0,-3,-2,-1,2
1537922018299685,5,5,-1,1,-1,2,-1,8
1537922018299685,0,3,3,9,6,1,0,-1
1537922018320629,1,1,-8,-4,0,-1,-1,-1
1537922018320629,0,-1,-9,-5,-6,-4,-5,-4
1537922018322624,0,-1,5,2,-2,-1,0,0
1537922018322624,1,2,3,-2,-1,0,0,-4
1537922018335589,2,0,0,-3,-1,0,2,-2
1537922018335589,-1,-1,-2,0,-1,1,0,-1
1537922018342571,1,-1,-3,-7,-3,-2,-1,4
1537922018342571,-2,-4,-4,-1,-1,-4,1,-3
1537922018358528,0,-2,-3,-3,-1,0,-1,0
1537922018358528,0,0,2,-4,1,-1,2,-1
1537922018360522,1,-3,-3,-2,-4,-2,-2,0
1537922018360522,-1,-1,3,5,4,3,-1,-3
1537922018381467,0,-2,-3,-3,-2,-1,0,0
1537922018381467,0,-3,-3,-3,-6,-4,-3,-1
1537922018382465,-2,-8,0,3,4,4,1,1
1537922018382465,0,0,-3,3,1,0,1,0
1537922018395429,-2,0,-3,-5,-4,-3,-2,0
1537922018395429,0,11,3,-1,0,0,0,-1
1537922018402411,0,0,1,2,0,-2,-2,1
1537922018402411,1,-3,-1,-1,-3,-2,-1,-1
1537922018418368,-3,-11,-8,0,-2,0,-1,-1
1537922018418368,-3,-3,2,1,-3,-1,-1,-2
1537922018420363,1,6,3,1,1,0,-1,-1
1537922018420363,2,0,0,-4,-3,-1,-1,-1
1537922018441307,-2,0,-1,-2,-2,-2,-2,-3
1537922018441307,0,-5,-5,-2,-2,-2,-2,1
1537922018442304,-2,1,1,2,6,4,1,-1
1537922018442304,-1,-2,-2,-2,-3,-1,-1,-2
1537922018455269,0,0,1,0,1,1,1,-1
1537922018455269,0,-1,1,1,-1,-2,-1,0
1537922018462251,-2,-2,-4,-3,-1,-3,-2,-2
1537922018462251,-1,-1,0,-2,-1,-3,-1,0
1537922018478208,0,3,1,0,0,0,0,-1
1537922018478208,-1,-2,-2,-1,1,1,-3,0
1537922018480203,-1,0,-3,-1,-1,-1,0,-2
1537922018480203,-2,0,-1,-1,-3,-1,-2,-2
1537922018501146,-1,-1,-1,-3,-4,-2,-2,-2
1537922018501146,2,-2,2,3,1,0,2,5
1537922018502144,-6,-4,-3,-9,-3,-2,-4,-12
1537922018502144,-3,0,0,11,3,1,0,-1
1537922018515109,-2,0,1,3,-1,-2,-2,0
1537922018515109,-1,0,-1,1,-1,1,0,-2
1537922018522090,2,0,-1,-6,-7,-3,1,4
1537922018522090,0,-2,-1,-6,-1,-1,-2,-1
1537922018539045,0,1,0,2,3,4,0,-3
1537922018539045,0,-3,-2,-2,0,-1,1,0
1537922018540042,0,0,-3,1,-1,-1,-2,1
1537922018540042,-2,-3,-1,-4,-4,-3,-1,-1
1537922018560986,0,-1,1,2,1,1,-1,3
1537922018560986,-3,-1,0,-4,-2,-1,-2,-2
1537922018562981,-1,-1,1,2,2,0,2,1
1537922018562981,-1,-1,-1,-4,-2,-3,-1,0
1537922018574949,-1,-1,-3,-6,-6,-4,-1,0
1537922018574949,-3,-1,0,3,1,2,-1,-1
1537922018581930,-1,-1,-1,3,1,1,-1,-3
1537922018581930,-1,-1,-2,-2,-2,1,1,0
1537922018598885,0,0,3,3,3,0,0,-1
1537922018598885,1,0,-3,0,-1,-3,-3,-1
1537922018599883,1,0,-3,-3,-3,-4,0,2
1537922018599883,1,-1,-1,-2,-1,-1,-1,-1
1537922018620826,-2,-3,-3,-3,-4,-2,-1,-1
1537922018620826,-2,-1,0,0,2,1,-1,-1
1537922018622821,-1,0,2,5,0,0,-1,0
1537922018622821,-2,-3,-3,-2,-2,-2,-3,-3
1537922018634789,-1,0,-2,-4,-3,-2,0,-2
1537922018634789,0,-1,-3,-3,-6,-4,-1,-4
1537922018643766,0,-1,1,2,1,1,-1,0
1537922018643766,-1,-2,0,0,2,0,-1,0
1537922018658725,1,-3,-2,1,1,2,0,2
1537922018658725,-2,0,0,-1,-1,-2,-1,-2
1537922018659722,-2,-1,-2,-3,-2,-2,0,-2
1537922018659722,-2,-2,-1,-1,-2,-2,-1,-1
1537922018680666,0,-1,1,0,-2,-2,0,-4
1537922018680666,-2,-4,0,1,2,0,-1,4
1537922018682661,1,-1,0,1,0,0,0,-1
1537922018682661,0,0,0,4,3,0,1,1
1537922018694629,0,0,-3,-3,-2,-2,0,-3
1537922018694629,0,-2,0,-1,-3,1,1,1
1537922018703605,-2,-1,-1,-2,-3,-1,-1,1
1537922018703605,-2,1,-2,-4,-3,0,-1,-2
1537922018718565,0,0,-1,-2,-2,-2,-1,1
1537922018718565,-1,0,-1,-1,-1,0,0,-3
1537922018719563,-2,0,0,2,0,0,0,-1
1537922018719563,-1,0,0,0,-1,0,0,0
1537922018741504,-2,-2,-2,-5,0,-1,-1,-1
1537922018741504,1,0,0,3,3,3,-1,-1
1537922018742502,0,-2,-2,-2,-4,-2,-2,-2
1537922018742502,-2,-1,2,-1,3,1,0,-3
1537922018754469,-2,1,-1,0,0,-1,0,1
1537922018754469,0,-1,-1,1,0,0,-1,-2
1537922018763445,1,0,-1,-2,-2,-1,1,-1
1537922018763445,1,0,-1,-1,-2,-3,-3,0
1537922018778405,-1,-1,1,2,1,2,-1,1
1537922018778405,-2,3,0,-1,3,-2,1,-4
1537922018780400,-2,-3,0,0,1,0,-3,-2
1537922018780400,-2,-2,-1,-3,-5,-2,-3,1
1537922018801344,0,0,-3,-2,0,0,0,-6
1537922018801344,-1,-3,-2,-3,-6,-3,-2,1
1537922018802342,0,-1,-1,0,0,2,1,-2
1537922018802342,-1,0,-2,-2,0,-1,1,-2
1537922018814309,-2,-2,1,6,3,0,0,2
1537922018814309,1,-1,-2,-3,-2,-1,-1,-1
1537922018823285,0,-1,-1,-2,-1,-4,-1,-1
1537922018823285,0,-1,-2,-3,-2,-1,0,0
1537922018838246,-1,0,0,1,2,0,-1,-3
1537922018838246,-3,-2,-2,-4,-4,-3,-2,0
1537922018840240,-1,0,1,2,4,3,1,-1
1537922018840240,1,-3,-2,-1,-4,-3,1,-3
1537922018860187,0,-2,-1,0,-2,1,1,1
1537922018860187,-1,0,-2,-2,1,-1,0,0
1537922018861185,-2,-1,-4,-3,0,-3,-1,-1
1537922018861185,-1,-2,-1,0,0,-1,-2,-2
1537922018883125,-1,0,-1,0,-1,-1,0,-2
1537922018883125,-2,-1,0,0,0,-2,-2,0
1537922018884123,-1,1,-2,-2,-1,-3,0,0
1537922018884123,-1,-1,0,0,0,0,0,-2
1537922018898085,-1,-1,0,-4,-3,-2,-1,0
1537922018898085,0,0,0,0,2,0,0,-1
1537922018899083,-1,1,-3,-4,-5,-4,-1,0
1537922018899083,-1,-1,0,2,2,1,-1,-1
1537922018920027,2,0,0,-1,0,0,0,7
1537922018920027,-4,-1,-1,-1,1,0,-4,-15
1537922018921024,-1,-3,-2,0,-1,-1,-2,-2
1537922018921024,0,-1,0,0,-1,-3,-1,-5
1537922018942965,-1,-3,1,-1,0,1,0,-2
1537922018942965,1,-5,-2,-2,-2,1,1,6
1537922018943963,-2,34,3,-6,-3,-1,-5,-4
1537922018943963,2,-53,-29,-12,-2,9,6,45
1537922018957926,-1,18,-29,-95,-14,-6,-20,-33
1537922018957926,-15,8,-42,-32,-3,-1,6,-59
1537922018958923,1,-27,72,84,15,-11,-2,18
1537922018958923,3,32,-38,60,29,76,49,-62
1537922018980864,-26,-45,-42,-36,-44,-93,-33,7
1537922018980864,41,38,90,92,5,-33,-83,-5
1537922018980864,-14,-6,-20,-128,-4,87,96,-55
1537922018980864,-94,-65,73,127,44,-54,-41,-40
1537922019002806,84,27,-89,-96,-18,-25,-59,-35
1537922019002806,2,-13,93,-3,-12,3,106,89
1537922019003804,14,-24,-99,-73,-44,11,-86,-9
1537922019003804,14,23,-17,45,-33,-81,-7,33
1537922019017766,-70,21,72,11,16,-12,-25,8
1537922019017766,-115,7,-81,-40,26,-6,-43,-100
1537922019018763,59,21,-34,-33,-8,49,87,109
1537922019018763,69,39,-107,-128,-37,49,10,33
1537922019040704,0,-18,-51,-48,-72,-15,-35,21
1537922019040704,44,9,13,79,74,37,0,37
1537922019040704,7,32,20,32,85,-7,7,-59
1537922019040704,0,2,72,-18,9,12,9,-33
1537922019062646,31,-18,-69,-32,-14,-45,16,95
1537922019062646,-24,16,-100,-87,-28,30,66,-31
1537922019063643,-9,4,92,79,21,15,56,-25
1537922019063643,-4,-7,19,13,-15,-84,-102,8
1537922019077605,17,18,38,-25,-8,14,1,7
1537922019077605,11,-19,34,-15,-21,-4,-35,9
1537922019078603,-3,-20,11,21,-13,-38,-28,5
1537922019078603,9,4,-36,-53,-7,35,52,29
1537922019100544,8,1,11,81,48,60,51,-15
1537922019100544,19,-13,26,16,-8,-24,2,54
1537922019101541,-11,2,-22,-3,-6,-25,-39,-5
1537922019101541,-13,0,39,-24,-18,13,-2,-1
1537922019122485,-25,-6,7,33,24,25,1,-37
1537922019122485,20,-9,-27,6,3,-2,4,15
1537922019123483,-13,-8,-3,-25,-21,-19,-13,16
1537922019123483,-1,4,-20,-4,8,3,-10,-14
1537922019137445,0,-7,3,45,19,14,28,9
1537922019137445,7,-4,-14,-17,-12,3,2,-2
1537922019138443,-12,-11,-10,4,-4,-13,-28,-7
1537922019138443,-5,-7,-15,8,4,-6,1,-4
1537922019160384,-1,-9,19,9,8,21,17,-15
1537922019160384,-4,-22,14,-9,-15,-12,-15,-7
1537922019161382,-9,-11,-26,-19,-6,-20,-26,-9
1537922019161382,8,-21,-4,14,11,7,10,3
1537922019183323,-6,-27,35,16,12,16,16,-2
1537922019183323,3,-13,-21,-9,-5,-3,2,-5
1537922019183323,-11,5,-19,7,-8,-19,-32,5
1537922019183323,-1,32,-2,-18,-2,4,5,-23
1537922019198283,-6,21,12,20,5,7,2,-12
1537922019198283,-6,10,-13,-9,-5,-2,-10,-2
1537922019198283,-6,14,-5,0,-3,-3,6,0
1537922019198283,-9,8,5,-14,0,4,2,4
1537922019220224,-11,9,-16,-12,0,-1,-5,-7
1537922019220224,4,3,-57,-11,-2,1,1,0
1537922019221222,-6,1,63,71,7,-1,-2,-8
1537922019221222,6,2,17,-5,-4,-4,-6,9
1537922019243163,4,-2,-12,25,10,6,10,-2
1537922019243163,9,1,-8,-24,-5,-2,-2,4
1537922019243163,4,-6,-24,-21,-4,-4,-3,2
1537922019243163,2,-3,-7,0,-2,-2,0,4
1537922019259121,5,4,13,3,4,3,5,-6
1537922019259121,-1,-3,10,-7,-3,1,-7,2
1537922019260118,2,-5,-15,-10,-6,-8,-7,-1
1537922019260118,2,1,0,-5,-1,2,4,-5
1537922019280064,-2,-1,3,-3,1,5,3,3
1537922019280064,1,-1,4,7,2,-2,-2,-2
1537922019281062,1,-4,-11,-2,-5,-5,-8,2
1537922019281062,-1,1,-11,-10,-2,0,2,1
1537922019303003,-1,-1,7,9,2,2,-1,-3
1537922019303003,1,-1,6,3,-1,-2,-5,-3
1537922019304001,1,-2,-7,-4,-3,-1,3,2
1537922019304001,0,-2,-6,-6,-3,-1,-2,-2
1537922019317963,-1,2,13,3,1,-1,-2,-1
1537922019317963,-1,0,7,4,1,0,-1,1
1537922019318960,-1,-3,-29,-28,-10,-3,0,0
1537922019318960,-2,-2,10,12,5,2,-3,-2
1537922019339904,-2,0,4,15,4,1,2,2
1537922019339904,-1,-1,1,-5,-3,-1,0,-3
1537922019340902,-2,-2,-1,-3,0,-2,-2,-10
1537922019340902,-1,-3,-8,-8,-5,-3,-2,-1
1537922019362843,-2,0,1,-6,-3,1,-1,-5
1537922019362843,-1,-3,-1,-1,0,1,-4,-4
1537922019363841,1,-2,-1,3,-1,0,2,7
1537922019363841,-1,-2,-2,-3,1,1,1,-7
1537922019377803,0,1,-4,-5,-2,-2,0,2
1537922019377803,-4,-3,-1,-2,-1,1,0,4
1537922019378801,0,-1,-5,-3,0,-2,-8,-1
1537922019378801,1,-1,7,2,1,-1,1,3
1537922019400742,1,0,0,2,-2,0,0,-1
1537922019400742,0,-3,0,-1,0,-2,-1,-1
1537922019400742,0,-3,-22,-24,-7,-3,4,4
1537922019400742,-2,2,22,7,3,2,-2,-2
1537922019422683,-1,0,3,9,3,3,0,-4
1537922019422683,0,0,6,4,-2,-1,0,-1
1537922019423682,-2,-4,-2,7,0,0,0,1
1537922019423682,1,0,-10,-5,-1,-1,-1,1
1537922019437643,-1,-2,2,-2,-1,-1,3,-1
1537922019437643,1,-1,-4,-7,0,-1,-1,1
1537922019438641,0,0,1,0,1,0,0,-1
1537922019438641,-1,-1,-10,-12,-5,-2,-1,0
1537922019460582,-2,-4,-3,-1,-1,-1,-2,-1
1537922019460582,-1,0,-1,-3,1,0,-4,-4
1537922019461579,0,-2,5,2,2,0,2,-3
1537922019461579,-1,-3,-5,0,-2,-1,1,1
1537922019483520,0,-1,1,-1,1,-1,-2,0
1537922019483520,0,-1,1,1,-2,-2,-2,0
1537922019484518,-2,2,2,0,1,0,1,-1
1537922019484518,-2,-2,-4,-4,0,-1,2,-2
1537922019497483,-2,-2,-5,-1,-2,-4,-5,3
1537922019497483,-1,2,-3,-7,-3,1,-2,-2
1537922019498481,-2,3,10,12,3,-2,0,1
1537922019498481,0,-1,-9,-5,-3,-2,2,-3
1537922019520422,-1,1,8,5,0,1,0,-1
1537922019520422,-2,-4,-6,-2,-2,-1,-1,0
1537922019521419,-2,-1,-3,-8,-3,0,-1,-1
1537922019521419,0,-1,-4,7,-1,0,-5,-2
1537922019543360,0,-1,8,4,5,3,2,0
1537922019543360,0,2,4,-1,-1,-3,0,1
1537922019544358,-1,-2,-2,-4,-2,-2,-1,-1
1537922019544358,-3,0,-3,-10,-5,-2,-1,0
1537922019557323,-2,-2,-12,-7,-5,-2,-2,0
1537922019557323,0,-1,0,1,0,1,0,-1
1537922019565302,-1,-1,1,0,-1,1,0,-2
1537922019565302,0,-2,-4,-3,-3,-3,-1,2
1537922019580262,-1,-1,-2,-2,-1,-1,0,-2
1537922019580262,-2,-1,2,5,1,-1,-1,-2
1537922019581259,0,-1,3,2,0,0,0,-2
1537922019581259,0,-3,0,-2,-5,-2,-2,-1
1537922019603201,-2,2,0,-1,1,2,0,-1
1537922019603201,2,1,0,-3,-3,-4,-1,-2
1537922019604198,-2,0,4,10,2,1,-1,-2
1537922019604198,-2,-1,-3,-1,0,1,0,-1
1537922019618161,-1,-3,-1,-2,-3,-1,0,-3
1537922019618161,0,-1,-2,-5,-4,-2,-3,0
1537922019618161,-2,-1,2,-2,1,1,1,-1
1537922019618161,-1,-3,3,4,0,-2,-1,-2
1537922019640102,-1,-1,-3,-1,-2,-1,-2,-2
1537922019640102,-2,1,1,0,-2,1,-2,-2
1537922019641100,0,-3,-1,-1,-2,-1,0,0
1537922019641100,0,0,-1,-2,0,0,-2,-2
1537922019664038,0,1,-4,-3,1,1,-2,-1
1537922019664038,0,-2,1,1,-1,-2,-1,0
1537922019664038,0,0,-3,-1,-2,-1,-1,-1
1537922019664038,0,1,-2,-2,0,1,2,1
1537922019677003,1,0,6,-2,0,-1,-1,-1
1537922019677003,-2,-3,-5,2,0,-3,-1,0
1537922019684982,-3,-1,-1,-8,-1,0,1,-3
1537922019684982,0,1,0,3,-2,0,0,1
1537922019699941,1,0,1,-2,-3,0,0,0
1537922019699941,-1,-3,-3,-1,-1,0,0,-1
1537922019700939,-1,1,-1,-5,-3,-3,-2,-2
1537922019700939,-2,1,0,1,2,1,-1,-2
1537922019723878,-1,0,-1,0,2,0,0,0
1537922019723878,-1,1,-1,-1,-1,-1,0,-1
1537922019723878,0,-2,-2,2,-3,-3,-2,1
1537922019723878,0,0,-2,-1,-1,-2,-2,-2
1537922019736843,0,-1,-2,-1,-2,-3,-2,-3
1537922019736843,0,-1,0,1,2,1,1,-1
1537922019745819,1,0,-2,0,-2,0,0,-1
1537922019745819,-1,-1,1,0,0,0,0,1
1537922019760779,-5,-1,-3,0,-2,-1,0,0
1537922019760779,10,9,0,-2,-4,-2,-2,-1
1537922019760779,-5,-4,5,6,4,3,1,0
1537922019760779,8,-2,0,-2,2,1,-2,-1
1537922019783718,-18,-17,3,3,3,2,2,4
1537922019783718,-2,-2,-13,-7,-8,-6,-5,-6
1537922019784715,36,15,2,-1,-2,-1,2,3
1537922019784715,-34,-40,-1,-3,-2,-1,2,2
1537922019797681,31,33,4,7,8,5,-1,-2
1537922019797681,46,30,9,5,2,2,5,14
1537922019805659,-50,-20,-7,-1,2,1,-4,-18
1537922019805659,31,-6,-6,-2,-4,-3,-3,1
1537922019820619,-18,-28,-7,-9,-11,-8,-3,2
1537922019820619,6,31,6,2,5,8,8,29
1537922019820619,44,17,5,3,-3,-3,1,-19
1537922019820619,-79,35,-1,4,9,15,1,-18
1537922019843558,15,-54,-4,-8,2,13,13,22
1537922019843558,6,16,3,-3,-7,-28,-43,15
1537922019844556,-46,-9,-39,-14,-1,13,37,-30
1537922019844556,-33,-47,13,-50,-16,-24,-29,-26
1537922019857521,-18,53,43,-15,3,7,10,-28
1537922019857521,15,-14,-49,45,12,12,-16,-5
1537922019865500,15,-3,-68,-13,6,-4,-3,30
1537922019865500,18,23,71,28,-20,-4,14,10
1537922019880460,6,44,-86,-104,-23,18,18,-19
1537922019880460,-15,-92,-62,-10,-18,3,42,16
1537922019881457,-33,-9,35,80,-14,-54,-47,-41
1537922019881457,65,15,-96,-42,39,10,-10,16
1537922019903398,8,-31,-72,44,-2,6,13,30
1537922019903398,-18,-18,98,93,59,25,-24,-17
1537922019904396,7,38,-90,-128,-32,-5,-29,22
1537922019904396,-19,-89,-33,126,-12,0,48,-1
1537922019917361,13,-11,-59,-8,-18,-26,-9,-4
1537922019917361,-35,-1,9,-128,-116,-54,-74,-33
1537922019925340,15,-24,114,127,69,55,53,61
1537922019925340,26,28,-37,-93,-40,0,3,2
1537922019940299,-25,-21,-89,-91,-57,-50,-50,-31
1537922019940299,-13,-6,127,112,72,-1,7,31
1537922019941297,56,5,-110,-107,56,-18,-22,-19
1537922019941297,-83,35,30,60,59,40,13,-19
1537922019963239,33,0,105,-22,14,4,9,-5
1537922019963239,-15,-13,0,-128,-61,-5,13,-12
1537922019964236,32,16,95,-82,-57,-13,-2,-14
1537922019964236,51,13,-105,-10,-8,-24,-1,68
1537922019986177,-68,-21,127,117,27,24,-3,-58
1537922019986177,1,25,-117,-48,29,11,2,-5
1537922019987174,-4,-7,-106,-127,-49,-4,17,24
1537922019987174,25,-12,-65,71,17,1,3,2
1537922020000141,6,13,-18,18,26,19,19,16
1537922020000141,18,14,-64,-98,-33,-34,-19,16
1537922020001137,-23,-8,69,127,12,7,-9,-28
1537922020001137,-12,18,-45,4,-3,-10,-1,-21
1537922020023078,0,-5,-30,-62,-27,-26,-25,1
1537922020023078,-21,-17,50,-56,-26,12,16,-15
1537922020024075,-14,-6,-8,25,55,17,16,47
1537922020024075,-3,-1,38,-83,-26,-6,-27,-42
1537922020046017,33,7,-105,-26,32,10,8,61
1537922020046017,-18,8,-2,9,-10,5,12,-75
1537922020047014,-16,-7,3,9,-18,-5,-18,-1
1537922020047014,5,-4,41,-22,-13,0,13,-3
1537922020059979,-3,13,52,3,-12,1,-9,-2
1537922020059979,17,13,-40,29,51,15,14,19
1537922020060977,-11,-5,-22,49,16,8,3,-11
1537922020060977,1,11,35,7,11,1,-9,4
1537922020083916,1,9,-8,4,-24,-13,-4,-4
1537922020083916,2,0,-3,1,-1,1,4,1
1537922020083916,-4,-6,25,5,-3,6,4,-6
1537922020083916,11,5,16,-36,-13,-9,-11,5
1537922020105856,-1,4,-1,13,2,-5,-8,4
1537922020105856,0,1,6,63,29,17,23,3
1537922020106854,13,-4,-27,-43,-18,-10,-4,-2
1537922020106854,-1,0,0,-28,-19,-10,-14,-3
1537922020120816,-4,-3,30,26,17,5,5,2
1537922020120816,-10,-2,-38,10,10,2,5,-3
1537922020120816,-14,0,6,-18,-21,-5,-3,-5
1537922020120816,0,0,18,1,8,0,-7,4
1537922020143755,-5,2,-8,14,14,6,4,-6
1537922020143755,3,-1,-22,-9,-11,-3,2,5
1537922020144753,-4,4,6,-7,-8,-3,-6,0
1537922020144753,8,1,17,1,7,7,5,0
1537922020165697,1,-4,-25,-10,3,-3,0,3
1537922020165697,-4,0,-7,0,-12,-3,1,-3
1537922020166694,-3,1,32,11,4,0,0,-6
1537922020166694,0,1,-13,-7,3,-1,-1,5
1537922020180657,-4,-2,-1,-10,-5,-3,-2,-2
1537922020180657,1,2,5,10,3,2,1,-1
1537922020180657,3,0,-3,-2,-1,1,0,-3
1537922020180657,3,0,-3,-15,-5,-2,-3,-2
1537922020203595,-1,-2,-2,8,-2,-3,-6,-5
1537922020203595,7,3,-1,-1,3,1,3,2
1537922020204593,-2,-11,-66,-24,-10,-3,-4,2
1537922020204593,1,5,47,47,12,2,0,0
1537922020225537,5,6,10,8,3,0,2,-5
1537922020225537,-11,-1,-15,7,2,0,0,-5
1537922020226534,-6,-1,5,-10,-6,0,-2,-1
1537922020226534,-6,-14,-13,-20,-4,-4,-5,-4
1537922020240497,4,2,-7,-1,2,0,0,-1
1537922020240497,6,9,15,6,0,1,2,5
1537922020241495,-3,-24,6,-4,-4,-3,-2,-3
1537922020241495,2,0,-8,-11,-3,-1,-1,-3
1537922020263436,6,-1,9,8,5,-1,-1,6
1537922020263436,-8,-2,-10,-7,-4,-1,1,1
1537922020264433,-8,4,11,8,1,1,-1,-1
1537922020264433,6,8,-6,-4,3,1,0,-1
1537922020286374,-8,-13,-7,-8,-4,-2,-3,-2
1537922020286374,-3,0,-7,-3,-1,-1,1,2
1537922020286374,3,6,-2,9,3,0,0,-1
1537922020286374,2,1,16,-13,-2,-1,-2,1
1537922020300337,-4,3,4,20,-1,0,-1,-3
1537922020300337,3,-4,-8,1,3,1,1,-1
1537922020301335,-3,5,7,-2,0,-1,0,2
1537922020301335,-6,-12,-7,-27,-7,-2,-3,-2
1537922020323276,-4,-4,5,19,4,1,-1,-1
1537922020323276,4,-2,0,3,-2,-1,0,3
1537922020324274,0,4,0,-6,-5,-2,-1,1
1537922020324274,-1,2,0,21,4,0,0,-1
1537922020346215,-1,5,4,-11,1,-1,-2,-1
1537922020346215,5,-4,1,1,-1,-2,-1,2
1537922020347212,-1,2,2,-3,-4,-2,-1,-4
1537922020347212,-2,-1,-8,-6,-2,0,-1,-4
1537922020360177,-2,-4,-4,-10,-2,-3,-1,-1
1537922020360177,-2,-2,-2,6,0,-1,0,-1
1537922020361175,0,-1,2,-3,2,0,0,-1
1537922020361175,-2,-1,-3,-1,-2,-1,-1,1
1537922020383116,1,3,-10,-10,-3,-4,-1,0
1537922020383116,-2,-3,-8,-15,-6,-3,0,2
1537922020384113,0,-2,16,7,1,0,-1,-1
1537922020384113,-3,1,2,2,-1,1,-1,-2
1537922020406054,-1,-1,-40,-21,-7,-4,-4,-3
1537922020406054,0,2,22,25,10,2,1,2
1537922020407052,-1,0,0,12,0,-1,0,-2
1537922020407052,-1,-2,-5,5,-1,-1,1,-2
1537922020420017,1,3,5,-20,-4,-1,0,1
1537922020420017,-2,-6,-10,-14,-2,-2,-1,-2
1537922020428993,1,-2,-15,-5,-3,-2,-1,-1
1537922020428993,-1,4,3,-11,-1,-2,-3,-4
1537922020443953,0,-3,5,8,3,3,2,-1
1537922020443953,-2,-2,-2,-1,-4,-1,-2,3
1537922020444951,0,1,9,6,1,0,0,-3
1537922020444951,-1,-3,-7,-4,-3,-1,-3,0
1537922020465894,-1,2,5,3,-1,-1,0,-1
1537922020465894,0,-2,-1,7,1,0,-1,0
1537922020467889,1,3,-1,-10,-2,0,0,-1
1537922020467889,0,1,-5,-2,0,0,-1,0
1537922020479857,-1,0,0,5,0,-1,0,0
1537922020479857,-1,1,7,-1,-2,0,-1,-3
1537922020488833,-2,-2,-2,-2,-3,-1,1,0
1537922020488833,-1,1,3,0,3,0,-2,-4
1537922020503793,0,-1,-8,-3,-3,-3,0,4
1537922020503793,-1,-1,10,4,-1,-1,-2,-5
1537922020504790,-1,-1,-2,-6,3,3,2,0
1537922020504790,-2,-3,1,10,-2,0,-1,1
1537922020525734,-3,-4,-22,-16,2,0,-1,-2
1537922020525734,-1,3,31,10,-1,-3,-2,-1
1537922020527729,1,-2,-16,2,-3,-2,-2,0
1537922020527729,1,2,4,-4,-2,-1,2,2
1537922020539697,0,0,-3,-6,-2,-2,0,0
1537922020539697,-3,-2,-17,-11,-2,0,-1,-2
1537922020548673,-3,-1,9,0,-1,-1,-3,-1
1537922020548673,1,2,-8,-6,-3,-1,-1,-1
1537922020571611,1,-2,11,6,0,-2,-2,0
1537922020571611,-2,-3,-7,2,-1,-1,1,-2
1537922020572609,0,0,3,0,1,-1,1,0
1537922020572609,0,-4,-8,-3,-2,-1,1,0
1537922020579590,-4,0,8,6,-1,0,-2,-8
1537922020579590,0,-1,3,3,1,0,1,0
1537922020580588,0,1,-12,-11,-2,-3,-3,0
1537922020580588,-2,-4,-10,-5,-1,-1,1,-4
1537922020592555,-1,0,23,14,1,1,0,2
1537922020592555,-2,-1,-15,-10,-4,-2,-2,0
1537922020599537,-2,-2,9,20,2,1,0,-1
1537922020599537,1,1,10,-4,2,-1,2,3
1537922020614497,1,-4,-7,14,-1,-1,0,-1
1537922020614497,1,-4,-22,-10,-2,-1,1,-1
1537922020622475,2,-2,9,-8,-5,-1,-2,1
1537922020622475,1,-2,3,10,1,0,-1,0
1537922020637436,0,2,2,-4,-3,-1,0,0
1537922020637436,8,5,4,-3,-3,-2,-1,0
1537922020638433,-3,1,-4,-3,1,1,0,-1
1537922020638433,-1,0,-1,-3,-2,-1,-1,-1
1537922020652396,-2,1,0,-5,1,0,2,1
1537922020652396,1,2,-2,2,1,1,0,1
1537922020659377,1,2,-1,-4,-1,-2,0,-1
1537922020659377,0,0,-1,1,-2,-1,1,1
1537922020674337,2,0,2,6,0,0,0,2
1537922020674337,-3,0,-3,-9,-1,-2,1,1
1537922020683313,-1,0,6,5,-2,-2,-1,-8
1537922020683313,-2,1,-15,3,1,1,1,-3
1537922020698273,2,3,8,-3,-2,-2,0,1
1537922020698273,-3,-3,-5,-13,-3,-2,1,-2
1537922020698273,-6,-4,14,19,1,1,0,-2
1537922020698273,1,2,-4,-2,-1,-1,0,1
1537922020712235,-4,-3,-13,-30,-6,-3,-2,-8
1537922020712235,2,-1,7,28,3,1,-1,3
1537922020720214,1,3,-7,-11,-4,-4,0,0
1537922020720214,-1,-4,3,-1,-4,-4,-2,1
1537922020735174,2,-1,-10,-13,-4,-2,-1,-2
1537922020735174,-4,-3,1,-10,-4,-2,-3,-4
1537922020743153,-1,-1,-6,-4,-1,-1,-3,-1
1537922020743153,-1,0,5,-3,0,0,-1,-4
1537922020758113,-2,-1,1,3,1,1,2,4
1537922020758113,-1,-2,-1,3,-1,-1,-2,-3
1537922020758113,1,-2,3,3,0,0,-1,3
1537922020758113,-3,-3,-6,-3,0,-1,-2,-1
1537922020772075,-1,0,2,10,0,-3,0,0
1537922020772075,-4,-1,8,2,0,-1,-1,-2
1537922020780054,0,0,-9,-6,-2,-1,0,-1
1537922020780054,1,-2,2,0,1,0,-1,-1
1537922020795015,0,-3,-1,-2,-1,-1,-2,0
1537922020795015,-1,0,-14,-2,1,-1,-2,-1
1537922020802993,0,0,-1,-6,-3,-2,-3,-1
1537922020802993,-3,-3,23,8,-2,-3,1,-2
1537922020817953,0,2,3,8,3,2,2,-1
1537922020817953,0,0,-3,-3,-1,-1,2,-2
1537922020818951,1,-1,-4,0,0,-1,2,1
1537922020818951,-1,0,-4,-2,-1,-1,-2,-4
1537922020831916,2,-1,-6,-7,-3,-2,-1,4
1537922020831916,-7,-2,2,-1,-2,0,-2,-7
1537922020839894,-1,-2,-3,-4,-3,0,0,-1
1537922020839894,0,0,-5,-4,-2,0,0,0
1537922020854855,-1,-2,3,4,0,-1,-2,0
1537922020854855,2,0,-1,0,-2,-2,-2,1
1537922020862834,0,-1,-3,1,0,0,1,1
1537922020862834,-1,0,-1,-1,-1,-2,-1,0
1537922020877793,0,0,5,3,1,-1,-1,-2
1537922020877793,2,1,1,-1,0,-1,0,4
1537922020878791,0,1,1,-5,-1,-1,-2,-4
1537922020878791,2,-2,-5,-2,1,1,1,2
1537922020891756,-2,0,3,0,1,0,0,-5
1537922020891756,1,-2,-6,-8,-3,-1,-2,3
1537922020900732,-3,0,-5,3,3,3,1,1
1537922020900732,3,1,-4,-5,-2,-2,-1,-1
1537922020923671,0,2,0,-3,-1,-2,0,0
1537922020923671,0,-3,8,24,4,-1,0,-2
1537922020924668,1,2,2,-10,-3,-2,1,1
1537922020924668,-3,-2,1,-4,-2,1,-3,0
1537922020937633,-1,-5,-13,-1,-1,1,2,-2
1537922020937633,1,-1,2,-9,-3,0,-2,-1
1537922020938632,0,-4,-1,0,0,-3,-2,1
1537922020938632,-1,-1,-5,0,0,-1,0,0
1537922020961569,-1,1,4,3,0,-2,-2,-2
1537922020961569,-1,-2,2,-4,0,1,-1,-1
1537922020961569,-1,-2,2,3,0,-1,-2,-1
1537922020961569,-3,2,-3,1,-1,-3,-1,-2
1537922020974535,-2,-4,3,1,0,-1,-2,1
1537922020974535,0,0,2,3,-1,0,2,2
1537922020982514,-2,0,-5,-2,-2,-1,-1,-8
1537922020982514,0,-1,0,-3,-4,-1,0,-1
1537922020997474,0,-1,-15,-9,-2,-1,0,0
1537922020997474,-1,-1,6,3,1,2,1,-1
1537922021005452,0,0,17,10,4,2,-1,4
1537922021005452,0,-4,-3,16,1,-1,-1,0
1537922021012433,0,-1,10,4,-5,-3,0,-1
1537922021012433,-1,-1,-9,-8,-1,0,0,-2
1537922021020412,0,-2,-6,-7,-4,-1,-2,0
1537922021020412,-1,-1,0,-7,0,0,0,1
1537922021034375,1,1,4,-5,-2,0,-2,-1
1537922021034375,-2,-2,-14,-6,-2,-2,-1,3
1537922021042353,0,-1,10,8,3,0,3,-1
1537922021042353,-2,0,-4,-1,0,-1,-1,-1
1537922021057313,0,1,1,1,-2,0,-1,-1
1537922021057313,0,2,-1,-4,-1,-1,-3,-2
1537922021065292,-1,-1,-7,-4,-4,-2,-1,0
1537922021065292,0,-2,0,-2,-1,0,0,-1
1537922021072273,-1,0,-1,-1,0,0,-1,-2
1537922021072273,-2,0,1,-4,-1,0,0,-2
1537922021080252,0,0,1,5,-1,-2,-1,6
1537922021080252,0,-1,-5,-1,0,-1,0,-2
1537922021095212,0,-1,2,4,3,1,2,0
1537922021095212,-2,-1,-10,1,1,-2,0,-2
1537922021103191,-2,-1,10,2,0,-2,-1,-4
1537922021103191,0,-1,7,-16,-8,-3,-1,0
1537922021117153,-3,-3,-16,4,3,2,1,-2
1537922021117153,2,0,1,-1,1,-1,-1,0
1537922021125132,-4,-2,-7,-3,0,-3,-2,-9
1537922021125132,-1,0,3,2,0,-1,-1,-1
1537922021132113,1,-1,7,1,-3,-1,-1,-1
1537922021132113,0,-1,-1,-2,-3,-1,0,-3
1537922021140092,2,0,-9,-2,-2,0,1,2
1537922021140092,-1,0,0,-3,-1,1,-2,-1
1537922021155052,-3,0,-1,-2,-2,-2,2,2
1537922021155052,-3,-2,1,6,0,-2,0,-2
1537922021163031,-1,-2,3,-2,0,1,-2,0
1537922021163031,0,-1,-4,2,0,-2,1,0
1537922021176994,-1,0,3,1,-2,-3,-2,0
1537922021176994,-1,2,7,-1,-1,0,-1,-3
1537922021184972,-2,-1,-17,-14,-4,-3,0,-2
1537922021184972,0,-1,6,12,1,1,0,-1
1537922021199932,0,1,-3,7,2,1,-1,1
1537922021199932,1,0,12,1,-1,-1,-1,1
1537922021207911,-2,-2,-15,2,-1,1,-1,-1
1537922021207911,-3,0,11,1,1,1,0,-2
1537922021214892,-1,-1,-5,-4,-2,-2,-4,-2
1537922021214892,0,0,4,-1,1,-1,-1,-3
1537922021222871,0,1,-3,4,-1,-1,-1,-1
1537922021222871,-1,2,-6,-4,-1,-1,0,0
1537922021236833,-3,-3,2,-1,-1,-1,0,-2
1537922021236833,-1,-2,-8,-2,0,-1,0,0
1537922021245810,-2,-3,2,-2,-2,-2,0,-5
1537922021245810,-2,0,-5,-3,-1,-2,-1,-1
1537922021268748,2,0,5,0,0,-2,0,-1
1537922021268748,-1,-2,-5,0,-2,-2,-1,0
1537922021269745,0,-1,1,-3,-1,-1,0,1
1537922021269745,2,0,-2,0,0,0,-1,-1
1537922021274732,0,0,4,-8,-3,0,-1,-1
1537922021274732,-2,-1,0,16,1,2,1,-1
1537922021283708,0,-2,-5,-3,-1,0,0,1
1537922021283708,-1,-1,-5,-2,-1,-3,-1,-1
1537922021297671,-1,-1,-10,-11,-4,-2,-2,-1
1537922021297671,-3,0,4,12,-2,0,-2,-3
1537922021313629,0,3,16,0,3,2,2,3
1537922021313629,-2,-3,-6,3,-2,-1,-1,-2
1537922021320609,0,0,-3,1,-1,-2,-1,-2
1537922021320609,1,-2,-4,-11,-5,-2,0,-1
1537922021322604,-1,-2,-4,-1,-2,-3,-1,-1
1537922021322604,-1,0,-1,-1,0,-1,-2,0
1537922021334572,-1,-1,1,1,0,0,-1,-3
1537922021334572,-2,-1,-4,-6,-2,-2,-2,-1
1537922021343548,1,2,0,4,1,1,-2,1
1537922021343548,-3,0,-12,-6,-3,-1,0,0
1537922021357511,-2,-1,13,7,2,1,0,0
1537922021357511,-1,-2,-1,-2,-2,-2,-1,0
1537922021366487,-2,-1,-1,-3,-3,0,0,-4
1537922021366487,-1,-1,0,1,0,-1,-2,-3
1537922021381447,0,-1,-4,-2,-2,-1,-1,-1
1537922021381447,0,-1,-6,-3,-1,-1,0,2
1537922021382445,-1,-1,-7,-5,-1,-1,-1,-2
1537922021382445,1,-3,1,9,2,-1,-2,1
1537922021394413,-1,-1,3,5,2,0,1,0
1537922021394413,0,-2,4,-3,-1,0,0,-3
1537922021403388,-1,0,2,2,-2,-2,-1,2
1537922021403388,-2,0,-4,-6,-2,-1,0,1
1537922021417351,-1,-3,-5,-7,-2,-1,-2,0
1537922021417351,0,1,-1,5,1,-1,-1,1
1537922021432311,-1,-1,-5,-3,-1,1,0,-2
1537922021432311,1,0,1,-4,-1,-1,0,0
1537922021441287,-2,1,-1,-2,0,-2,0,-4
1537922021441287,0,0,-3,-3,-2,-1,0,1
1537922021442285,-2,-1,3,4,1,-1,-1,0
1537922021442285,0,-1,4,0,0,1,0,0
1537922021462231,0,-1,-3,0,-2,0,-2,2
1537922021462231,-1,0,-6,-2,0,1,0,-2
1537922021477191,-2,-3,7,-1,-3,-2,0,0
1537922021477191,0,-3,1,2,-1,-1,-2,-1
1537922021486167,-1,-1,1,-3,-1,-1,0,1
1537922021486167,-2,-1,0,-6,-4,-3,-1,-1
1537922021487164,0,0,-5,4,5,1,1,1
1537922021487164,0,1,1,2,1,0,1,1
1537922021508108,-2,0,1,-1,-2,-1,0,0
1537922021508108,-1,-1,-7,1,-1,1,0,-1
1537922021510103,1,-1,3,3,2,-2,-1,-2
1537922021510103,-1,0,0,-5,-1,1,-1,-3
1537922021522071,0,-1,2,5,-1,-1,0,-2
1537922021522071,0,-2,0,-4,1,0,0,-1
1537922021531047,-1,-1,-6,-8,-4,-1,-2,3
1537922021531047,-2,-1,1,-1,0,1,-1,0
1537922021546007,-2,-1,-4,-1,-1,-1,-1,-1
1537922021546007,-1,0,4,-2,0,0,0,0
1537922021547004,-1,-2,-2,0,2,-1,0,-3
1537922021547004,0,-1,0,-4,0,-4,0,-1
1537922021568945,-1,-2,-19,-10,-3,-1,-1,-1
1537922021568945,-2,-1,18,9,1,1,-2,-1
1537922021569943,2,0,5,3,-2,0,-2,2
1537922021569943,-2,-3,-4,0,-2,-2,-1,-3
1537922021581911,0,1,-2,3,4,2,0,1
1537922021581911,1,-2,-7,-4,-3,-3,0,0
1537922021590887,-1,3,4,-9,-3,-2,0,0
1537922021590887,-1,-3,-3,3,-1,0,-1,1
1537922021605847,-3,-2,6,11,2,1,1,-3
1537922021605847,1,0,-4,-3,0,2,0,1
1537922021607842,1,1,1,1,-3,-1,0,-1
1537922021607842,0,-2,-2,-3,0,-2,0,0
1537922021628786,-2,-1,0,-8,-1,-2,-2,0
1537922021628786,-2,-2,-1,2,-1,-1,1,-2
1537922021629783,-1,-1,-1,2,0,-1,-1,-2
1537922021629783,-1,-1,-9,-5,-3,-1,0,-2
1537922021641751,0,0,1,-3,0,0,-1,-2
1537922021641751,-2,-1,2,-3,0,-2,0,3
1537922021650727,-1,-1,-3,-1,-2,0,-1,-2
1537922021650727,-2,0,-3,-3,0,-1,-1,0
1537922021665687,3,-1,10,-2,-1,-2,-2,-2
1537922021665687,0,-1,-10,9,1,0,-1,1
1537922021667682,-2,-1,0,-6,-2,-2,0,0
1537922021667682,0,1,-6,-1,2,0,-1,-1
1537922021688626,-2,-3,1,1,0,-1,-1,-2
1537922021688626,-1,0,7,0,0,-1,0,1
1537922021694610,0,-1,0,-1,-3,-2,-1,-1
1537922021694610,0,-1,-2,3,2,1,-2,1
1537922021702588,-1,-1,-7,-4,-2,-1,-2,-6
1537922021702588,-1,-2,-4,-4,1,0,0,-1
1537922021711565,0,0,2,-3,2,-1,-1,1
1537922021711565,-1,-1,-5,-4,-5,-2,-1,0
1537922021725527,-1,-1,2,6,0,-1,1,2
1537922021725527,1,-1,-3,-4,0,-2,0,-1
1537922021727522,-2,-1,-3,2,-1,0,0,-2
1537922021727522,0,-1,0,-1,-1,-2,-2,1
1537922021747468,0,1,1,-2,-1,0,0,2
1537922021747468,-2,-1,0,-3,-2,-1,-1,-2
1537922021756445,-1,-2,-6,-3,-3,0,-2,-4
1537922021756445,0,-1,4,1,-2,0,1,0
1537922021762428,1,-1,-7,-4,-1,1,-1,2
1537922021762428,-2,1,1,5,-1,0,-2,-2
1537922021771404,-2,-2,-3,-1,-1,-2,-1,2
1537922021771404,-2,-1,6,-3,-1,0,0,-1
1537922021786364,-3,-2,-6,3,1,-2,0,-1
1537922021786364,0,1,4,-5,-1,0,-3,0
1537922021787362,-1,0,-9,-3,2,1,1,-3
1537922021787362,-3,-2,18,7,-3,-1,-1,-3
1537922021808305,-2,-2,-2,-2,1,0,-1,3
1537922021808305,-1,-1,2,-3,-3,-3,0,-2
1537922021810300,0,-2,-15,-4,-2,0,-1,0
1537922021810300,2,1,-1,-7,-3,0,-1,-5
1537922021822268,-2,0,4,5,2,2,1,1
1537922021822268,-2,0,-1,-4,0,-1,-1,-1
1537922021831244,-1,-3,1,-1,-1,-2,-1,0
1537922021831244,2,1,-8,-2,-1,-1,0,-1
1537922021846204,-2,-3,1,0,-4,-1,-1,-1
1537922021846204,2,0,-5,-4,-1,0,0,1
1537922021847202,0,-3,2,3,1,0,0,1
1537922021847202,-1,-1,0,2,0,-2,0,1
1537922021868146,0,2,1,-4,-2,-1,-1,0
1537922021868146,-2,0,8,2,1,-2,0,-3
1537922021870141,-3,-2,-10,0,-1,0,-2,0
1537922021870141,-3,0,7,-4,0,0,-3,-1
1537922021891085,2,-1,-20,-4,0,-1,-1,0
1537922021891085,0,-3,3,3,1,1,-1,5
1537922021892082,2,3,11,7,1,0,-2,-2
1537922021892082,-2,0,-6,-5,-1,1,0,-2
1537922021906045,-2,-2,6,0,1,-1,0,0
1537922021906045,-1,2,-5,-7,-4,-3,-1,-2
1537922021907043,-1,-2,4,6,1,1,0,-1
1537922021907043,-2,-1,-2,-1,-1,-1,0,1
1537922021928983,-2,0,-4,-5,-3,-2,-2,-1
1537922021928983,0,-1,-5,-2,1,1,0,-1
1537922021929981,-2,-2,-6,-6,-3,0,-1,-1
1537922021929981,-1,-2,6,1,0,-2,-3,-2
1537922021950924,0,-1,2,7,0,-1,-2,-1
1537922021950924,-1,-2,0,1,-1,-1,0,-3
1537922021952919,0,0,0,-1,0,-1,-1,-2
1537922021952919,-1,0,-3,-1,2,1,1,-1
1537922021965884,-1,0,2,-4,-4,-2,0,-1
1537922021965884,1,0,-3,-1,0,-1,-1,0
1537922021967879,1,-1,-1,-4,-3,-3,0,2
1537922021967879,-2,-2,-4,-2,-2,0,0,0
1537922021988823,-1,3,2,1,1,1,0,-2
1537922021988823,-3,0,3,-2,-1,0,-2,-4
1537922021989820,0,0,-4,7,1,-1,1,0
1537922021989820,11,2,0,0,0,0,-1,2
1537922022010764,-6,-7,-9,-5,-4,-5,-4,-6
1537922022010764,2,-5,-5,-1,-1,1,1,1
1537922022012759,-11,0,4,-6,-2,-1,0,-4
1537922022012759,-8,-6,-2,0,1,-1,-1,-5
1537922022025724,-2,-8,-4,5,4,1,2,1
1537922022025724,5,0,-3,-4,-4,-3,-3,-2
1537922022031708,-14,-4,2,2,0,0,0,0
1537922022031708,4,3,-6,-2,-4,-5,-2,-4
1537922022048663,2,-2,3,-4,-5,-4,0,20
1537922022048663,-6,2,7,13,12,9,7,37
1537922022049661,8,4,-7,-14,-10,-3,-9,-50
1537922022049661,8,6,-13,-24,-7,6,6,30
1537922022070604,-8,-7,-44,-38,-7,-12,1,-28
1537922022070604,-5,3,70,-65,-55,-33,-7,19
1537922022072600,0,-9,-60,-36,-18,-14,-7,19
1537922022072600,8,9,35,-87,-9,15,35,8
1537922022084567,-6,-21,-59,80,32,4,-33,19
1537922022084567,-4,28,95,45,66,19,-15,-41
1537922022093544,19,13,107,60,64,37,17,33
1537922022093544,-9,-34,-71,8,15,-10,-21,-53
1537922022108503,1,10,49,75,32,28,38,5
1537922022108503,13,-16,-33,82,28,-10,11,7
1537922022109501,-13,1,5,-14,-10,1,4,0
1537922022109501,24,21,-68,-74,-45,-11,-7,23
1537922022131442,-6,34,-50,-128,-122,-40,18,-12
1537922022131442,-23,-27,64,108,3,22,-28,-21
1537922022132440,17,11,95,43,7,0,2,7
1537922022132440,-12,1,-79,-29,-17,-9,-33,11
1537922022144408,17,16,104,69,69,28,45,-7
1537922022144408,20,14,-62,-65,16,9,5,4
1537922022153383,-29,-22,-77,55,22,-7,-7,-8
1537922022153383,-10,-6,-70,57,12,-1,4,0
1537922022168343,-12,-9,118,-87,-44,-17,-32,13
1537922022168343,0,-13,-120,2,-21,0,14,-4
1537922022170338,9,1,-32,-117,-15,-1,-4,-13
1537922022170338,-22,-2,55,24,1,-6,-3,-11
1537922022191282,-5,13,-106,-74,-31,-11,-10,-8
1537922022191282,14,-21,2,35,11,10,5,10
1537922022192279,-2,7,28,-71,-23,-13,-2,2
1537922022192279,15,-5,25,65,-1,-5,2,18
1537922022204247,5,-10,-52,6,18,10,-4,-21
1537922022204247,4,20,-57,-128,-27,-16,2,-4
1537922022213223,-3,-3,6,44,0,6,-1,1
1537922022213223,-8,0,60,53,41,20,11,3
1537922022228183,10,-1,-3,51,21,2,-15,3
1537922022228183,-20,-2,-5,-88,-28,-12,-6,-11
1537922022230178,2,-5,-13,32,-9,-9,-1,-3
1537922022230178,-4,-11,72,4,2,8,5,-7
1537922022251122,-2,-2,-54,4,9,-1,-5,4
1537922022251122,-4,-5,127,15,-6,-2,0,-2
1537922022252119,9,-7,-73,0,-10,-1,3,9
1537922022252119,-3,4,25,6,14,0,2,4
1537922022265085,-5,-8,-28,15,0,-1,-8,-4
1537922022265085,-2,6,26,16,6,6,4,-2
1537922022274060,-3,3,-21,-61,-15,-7,-6,-4
1537922022274060,-5,3,29,9,3,-1,-3,-10
1537922022288023,1,-2,38,21,1,3,0,0
1537922022288023,0,-3,-53,-13,-8,-6,-2,-2
1537922022290018,-2,3,-10,-10,-7,-3,-1,-3
1537922022290018,1,-2,-13,-15,-10,-6,-3,-3
1537922022318941,-1,-6,23,-7,5,1,-2,2
1537922022318941,-3,2,-33,-14,-2,-2,-1,-2
1537922022319938,0,-1,11,15,0,-2,-2,2
1537922022319938,0,1,5,-8,0,-2,1,-5
1537922022324925,0,3,5,6,4,1,0,1
1537922022324925,-3,-5,-21,13,0,-2,-1,0
1537922022333901,-14,-10,0,5,3,0,-2,-11
1537922022333901,-6,12,-16,-7,-1,-2,-2,-1
1537922022348861,21,2,16,0,1,2,1,7
1537922022348861,-2,-5,-15,0,0,3,-2,-10
1537922022349858,26,21,-2,-3,-2,-2,0,1
1537922022349858,1,7,-4,-12,-3,0,1,-1
1537922022370802,-18,-61,-4,-1,9,5,1,2
1537922022370802,-18,24,-13,-9,-9,-5,-3,-5
1537922022372797,13,-10,-3,6,4,0,1,2
1537922022372797,-55,-24,-10,-3,-5,-5,-3,-6
1537922022384765,28,24,11,11,6,0,1,2
1537922022384765,-1,12,-9,1,-3,-1,3,3
1537922022393741,-20,-13,10,3,-2,1,1,20
1537922022393741,19,29,-5,-2,-2,-3,-4,-7
1537922022408701,-12,-18,10,4,-1,1,1,7
1537922022408701,28,17,-2,-2,-4,-3,-1,9
1537922022409698,-17,8,-4,3,-1,-1,-2,-28
1537922022409698,19,-12,8,1,1,0,2,7
1537922022430642,29,38,-7,-5,-7,-6,-5,-3
1537922022430642,5,4,3,6,1,0,1,5
1537922022432637,-24,-5,17,2,4,2,0,2
1537922022432637,23,-7,-12,3,-1,-2,-1,-1
1537922022444605,-14,4,-5,-19,-8,-5,-5,-13
1537922022444605,-10,-24,-5,6,5,2,1,8
1537922022453581,-28,-14,4,12,-1,0,-2,-7
1537922022453581,8,7,-9,-4,-1,0,-1,-3
1537922022468541,-27,-4,21,-5,-3,-4,-2,0
1537922022468541,6,-8,-24,-26,-7,-3,0,7
1537922022469539,13,3,3,7,2,2,-2,-5
1537922022469539,3,2,11,6,-1,-1,0,-1
1537922022491480,-6,-3,-9,9,-1,-4,-1,4
1537922022491480,10,-4,8,-6,2,1,0,-4
1537922022492477,14,3,-13,-2,0,0,-2,2
1537922022492477,-9,-6,-9,-7,-4,-3,-3,-1
1537922022504445,4,-1,-3,-8,-1,-1,0,-5
1537922022504445,-14,-9,2,3,-2,-2,-1,-7
1537922022513421,-4,-1,-17,-9,-5,-3,-3,-2
1537922022513421,1,-5,10,-4,-2,0,-1,1
1537922022528382,-8,1,27,14,4,1,0,-2
1537922022528382,0,-3,-18,3,2,0,-2,8
1537922022530376,6,1,-5,-1,-2,-1,0,3
1537922022530376,3,-1,-13,-7,-4,-3,-2,-2
1537922022551320,-1,0,4,1,-1,1,0,-5
1537922022551320,-6,0,-10,-3,-1,0,-1,-2
1537922022552318,7,1,21,9,5,1,1,3
1537922022552318,-4,-4,1,-3,1,1,-1,-3
1537922022564285,2,3,-8,3,1,0,0,2
1537922022564285,-3,1,0,-15,-4,-4,-1,-5
1537922022573261,2,-6,-3,15,2,-1,0,2
1537922022573261,-3,-2,-7,1,2,-1,0,-2
1537922022588221,-3,-3,-13,4,0,1,0,0
1537922022588221,3,0,2,1,-1,-1,1,-6
1537922022590216,2,4,6,-21,-7,-2,-1,4
1537922022590216,-3,-2,4,24,9,4,0,-1
1537922022611160,-2,-8,-5,-6,-1,-2,-2,-1
1537922022611160,-6,-3,-3,4,1,0,-1,-5
1537922022612157,3,1,-1,-6,-2,-1,-1,2
1537922022612157,-2,-2,0,-7,-5,-2,-1,0
1537922022625122,1,-1,-7,-5,-3,-1,-1,0
1537922022625122,-1,-1,-9,6,1,0,-3,-3
1537922022633101,2,-1,7,0,0,-1,-1,-1
1537922022633101,-1,-1,2,-5,-1,-1,-2,0
1537922022647063,0,-1,-4,2,-1,1,-1,-1
1537922022647063,-1,-1,10,-2,-5,-3,-2,-1
1537922022656040,0,-4,-18,-5,-2,-3,-2,-1
1537922022656040,-1,0,5,3,0,0,-1,-5
1537922022671000,0,2,-1,3,0,0,-1,3
1537922022671000,-3,-1,0,6,0,-1,0,1
1537922022671998,-3,-1,-13,-8,-2,-1,0,1
1537922022671998,-3,1,8,-12,-3,0,-3,-2
1537922022684963,-2,-3,-6,4,-2,-1,-1,-2
1537922022684963,-1,3,9,18,3,1,0,-5
1537922022693939,-1,-1,4,1,0,-2,0,-2
1537922022693939,-2,-2,-18,-9,-3,-2,-1,1
1537922022708898,0,2,-1,-20,-4,-1,-2,-1
1537922022708898,0,-6,3,21,4,1,0,-2
1537922022709896,1,1,-10,-8,-1,-1,0,-1
1537922022709896,0,-4,15,14,0,-2,-3,-2
1537922022730840,-2,1,-1,-2,-1,-2,-1,-2
1537922022730840,-4,-1,-3,-6,-1,-2,-1,-2
1537922022732834,0,-2,-3,-2,-2,-2,-3,0
1537922022732834,-1,-3,-6,-5,-1,-3,-2,2
1537922022744803,0,1,5,2,3,2,0,-1
1537922022744803,-3,-3,-3,-8,-3,-3,-2,-1
1537922022753778,-1,-1,8,0,-1,-2,0,-2
1537922022753778,2,-2,-4,3,0,0,1,1
1537922022767741,0,-1,-2,0,0,-2,0,-1
1537922022767741,-1,-1,1,-3,-1,-1,-2,0
1537922022774722,0,2,3,0,-2,-3,0,-1
1537922022774722,-2,0,2,-1,-1,1,-1,-1
1537922022790680,-2,-2,-5,3,0,0,-1,-1
1537922022790680,0,-1,7,-2,0,2,-1,0
1537922022792675,0,-2,-13,-4,-3,-1,-2,-1
1537922022792675,-1,-1,3,1,0,-1,0,-3
1537922022816611,-1,-6,0,0,-2,-1,-1,3
1537922022816611,1,-1,-4,-6,-4,-3,-1,0
1537922022821597,-1,0,7,4,1,1,-2,0
1537922022821597,-1,1,-7,-1,2,-1,-1,-1
1537922022821597,0,0,1,-4,-1,-1,-2,-5
1537922022821597,-1,-1,-1,-2,0,0,0,-2
1537922022828578,1,-3,-3,-1,-1,1,-1,3
1537922022828578,-1,-1,0,-6,-4,-3,0,-3
1537922022842541,0,-2,0,-1,-4,-2,-2,-1
1537922022842541,0,-2,-3,-2,-1,-1,-2,0
1537922022849522,-2,2,-4,-4,0,-1,-2,-1
1537922022849522,0,-1,0,-4,-1,-2,-1,1
1537922022857501,-1,-2,9,10,1,0,-1,-1
1537922022857501,0,-3,-11,3,0,-2,0,1
1537922022866477,-2,-2,-1,-9,-3,0,-1,1
1537922022866477,-1,-2,8,7,1,-1,-3,0
1537922022880440,0,-1,-9,-3,-2,-1,-1,-3
1537922022880440,0,0,-4,-7,-2,1,-1,-4
1537922022887421,-2,0,5,9,0,-1,0,-2
1537922022887421,-3,-2,-6,-4,-1,1,0,0
1537922022902381,-1,1,4,0,1,0,0,0
1537922022902381,-4,0,-3,-3,-3,0,2,4
1537922022909362,-2,-1,5,1,2,1,2,-1
1537922022909362,-1,-1,-1,2,2,2,2,1
1537922022917341,2,2,0,4,5,2,-1,1
1537922022917341,2,1,3,-1,0,1,1,-1
1537922022926317,1,0,1,2,0,-1,0,1
1537922022926317,1,0,0,-4,-3,-3,1,0
1537922022940280,-2,2,-1,0,1,2,0,0
1537922022940280,1,1,-2,-1,-2,0,0,-1
1537922022947261,0,0,3,-1,-3,-1,0,-3
1537922022947261,0,-1,4,0,0,1,0,5
1537922022963219,0,-2,-8,-4,-2,-1,-1,-1
1537922022963219,-1,-1,3,2,-1,0,1,-1
1537922022969203,-2,-2,-5,-1,-2,0,-1,-4
1537922022969203,-1,0,-2,-9,-3,-2,-1,-2
1537922022977181,-1,1,12,4,-3,-1,1,0
1537922022977181,-2,-2,-10,-7,-3,-3,-2,-5
1537922022986157,-4,-3,-1,-2,-6,-5,-3,-1
1537922022986157,-1,-4,-11,14,2,1,1,0
1537922023000121,-4,-3,-1,-4,-1,0,-1,-1
1537922023000121,-1,0,22,16,1,-1,-3,-1
1537922023007101,1,0,-6,-5,-1,1,-3,-2
1537922023007101,-1,0,-1,-4,-5,-1,-3,-3
1537922023023059,-3,-4,-10,-2,-2,-2,-2,-2
1537922023023059,0,-2,1,-8,-1,0,-1,0
1537922023030040,-2,-4,-6,-2,-2,-2,-2,-1
1537922023030040,0,0,0,-2,-3,-2,-2,-3
1537922023037021,-2,-2,-3,-5,-1,-1,-2,-1
1537922023037021,-1,-2,-3,-3,-1,-1,-2,0
1537922023045998,-2,0,5,4,2,0,0,-2
1537922023045998,0,1,0,-2,1,-1,-4,0
1537922023059960,-1,-1,-1,0,-1,0,-1,-2
1537922023059960,-2,-2,-2,0,0,-2,-3,-2
1537922023066941,-1,-3,-1,0,-1,0,-1,-2
1537922023066941,-2,-3,-2,-4,-3,-3,-4,-3
1537922023082899,-2,0,-6,1,2,1,-1,-2
1537922023082899,-1,0,4,-2,-2,1,-2,-1
1537922023089880,-3,-2,8,3,0,-2,-3,-7
1537922023089880,-1,0,4,1,2,1,-1,0
1537922023105837,-1,-1,-1,-1,-6,-2,-1,-1
1537922023105837,-1,-1,-10,-4,-1,-1,0,-2
1537922023107832,0,0,-3,-2,2,-1,-1,2
1537922023107832,-1,-2,1,-1,-1,0,0,-1
1537922023120797,0,0,-3,-4,-2,-3,-2,-2
1537922023120797,0,0,-4,-3,-1,-2,-1,-1
1537922023126782,1,0,1,-1,-1,-3,-1,1
1537922023126782,-2,-2,-1,5,0,-1,-1,0
1537922023142738,1,-2,0,-1,2,1,0,-1
1537922023142738,-3,0,0,1,0,-2,-2,-3
1537922023149720,0,-1,1,-1,-1,0,0,3
1537922023149720,-1,0,-4,-4,-3,-3,0,-4
1537922023165677,-2,-1,3,1,1,-2,0,1
1537922023165677,0,-1,1,-1,-2,-1,0,2
1537922023167672,1,-1,-14,-4,0,-1,0,-2
1537922023167672,-3,-1,11,-3,0,-1,0,-1
1537922023180637,-4,0,1,5,0,-1,-3,-1
1537922023180637,-1,-3,-4,-1,1,0,-1,0
1537922023186621,-1,0,0,1,1,0,-1,1
1537922023186621,1,0,-4,-7,-2,-1,-1,-1
1537922023204573,1,-1,-2,-1,-1,-1,-2,-1
1537922023204573,1,0,-2,-2,-2,-2,0,0
1537922023209560,-1,-2,-2,0,-2,0,-2,-1
1537922023209560,-1,1,-2,-6,-1,-1,-2,-2
1537922023225517,1,-1,-3,5,1,-2,-2,-1
1537922023225517,-1,1,0,2,-1,-1,0,1
1537922023227512,0,1,-4,-6,-3,0,0,0
1537922023227512,1,1,3,-2,-2,1,0,1
1537922023240477,1,-1,-6,-2,-1,0,1,1
1537922023240477,0,1,1,-1,-1,1,0,-4
1537922023247458,0,1,-2,2,1,1,2,-2
1537922023247458,0,0,0,2,0,-2,0,0
1537922023262419,-1,1,6,-6,-2,-2,1,-1
1537922023262419,-1,-2,-7,6,4,1,3,3
1537922023269400,-1,1,-4,-4,-5,-1,2,0
1537922023269400,-2,-3,1,3,1,1,-1,-2
1537922023286354,0,1,6,1,-1,0,-1,-2
1537922023286354,-1,0,-1,-5,-3,-1,-2,0
1537922023287352,0,0,5,8,0,0,-1,2
1537922023287352,-1,-1,-1,1,-1,0,1,1
1537922023300317,-1,0,0,-2,-2,-1,-1,1
1537922023300317,0,-3,-5,-6,-1,-1,0,-2
1537922023307298,0,-3,-5,0,0,-1,-4,-2
1537922023307298,0,-1,-3,-1,0,-1,-1,1
1537922023323256,1,0,0,-5,-1,-2,-1,-1
1537922023323256,0,-1,-2,2,-1,-1,1,-1
1537922023329240,1,-1,0,-3,-1,-1,1,0
1537922023329240,-1,-1,2,0,-1,-1,0,-3
1537922023346195,-2,-3,-10,-2,0,0,1,3
1537922023346195,1,0,5,2,-1,0,-1,-1
1537922023347192,-1,-1,-1,0,-4,-2,-1,0
1537922023347192,0,0,-6,-2,-2,-1,-2,-1
1537922023360157,-3,-2,4,1,-2,0,0,-2
1537922023360157,-3,-2,4,-1,-3,-2,-1,-1
1537922023367138,-1,1,5,0,1,1,0,-1
1537922023367138,0,0,-5,-1,-2,0,-1,-1
1537922023383096,0,0,-6,-5,-2,-1,-1,1
1537922023383096,0,0,1,2,2,2,1,-1
1537922023390077,0,-2,5,5,0,-1,0,4
1537922023390077,0,-2,-6,-4,-1,-2,-3,-5
1537922023406034,-2,0,0,-1,0,-2,-2,-2
1537922023406034,-2,0,0,-2,0,0,-2,-2
1537922023407032,-2,-2,-4,-3,-1,-1,1,0
1537922023407032,-2,-1,-1,2,1,0,-1,0
1537922023419997,0,-1,0,-2,-1,-1,0,-1
1537922023419997,0,-1,-2,-4,-2,-3,-1,3
1537922023426978,-2,-2,-3,-1,1,0,-1,-4
1537922023426978,0,2,4,2,-1,-2,-1,2
1537922023442936,-1,0,-3,1,-2,0,0,-2
1537922023442936,-1,0,-2,-3,-3,-1,-1,-2
1537922023449917,0,0,-2,-2,-1,-1,0,-2
1537922023449917,-2,-1,-6,1,0,1,0,1
1537922023465875,0,0,3,2,0,0,1,-1
1537922023465875,-1,0,-7,-2,-2,0,-2,-1
1537922023466872,-3,0,5,-2,0,-1,-3,-3
1537922023466872,1,0,-5,-5,-2,-3,-1,2
