timestamp,emg1,emg2,emg3,emg4,emg5,emg6,emg7,emg8
1537921877306057,2,-5,12,-1,-2,0,2,5
1537921877306057,-2,-3,-16,-2,-1,-1,-3,-3
1537921877310046,1,10,15,3,1,0,1,-2
1537921877310046,-2,-11,2,-3,-2,0,2,2
1537921877310046,-1,11,-15,-4,-1,0,-5,0
1537921877310046,-1,-23,-12,0,-2,0,-1,-5
1537921877311043,2,-26,10,2,1,-2,4,1
1537921877311043,-10,-8,6,13,-1,-2,0,-1
1537921877320020,-1,-9,26,9,4,1,-1,-3
1537921877320020,-1,2,-1,-5,-1,-1,2,1
1537921877332984,3,11,-30,-12,-5,0,-2,2
1537921877332984,2,-8,-30,-9,1,2,-4,-5
1537921877339966,-2,14,42,7,1,-1,1,-3
1537921877339966,-1,-5,-38,-4,0,0,2,3
1537921877347944,-3,-3,10,0,-2,-2,-4,-2
1537921877347944,1,9,2,-7,-3,-2,0,-1
1537921877362904,-1,6,-19,-6,-3,-1,0,-2
1537921877362904,0,13,22,5,0,3,-1,0
1537921877377864,-3,-7,2,1,1,-1,1,-1
1537921877377864,1,2,-1,-2,0,-1,-1,-1
1537921877417758,-1,22,7,2,0,0,0,-5
1537921877417758,-4,5,23,-6,-2,-3,3,2
1537921877421747,0,-24,4,11,1,-1,-3,0
1537921877421747,2,7,-78,-2,-2,-2,-1,-2
1537921877422745,-2,-55,19,-4,-3,1,0,0
1537921877422745,-2,2,-20,-2,5,1,1,1
1537921877423742,3,-25,-11,0,2,-2,-1,-5
1537921877423742,3,10,31,-1,7,0,-2,-2
1537921877427732,-8,-26,-23,-3,8,-3,0,0
1537921877427732,0,19,3,5,4,-1,-4,-3
1537921877436707,-2,5,11,-4,2,0,-1,-5
1537921877436707,1,13,5,-1,0,1,0,3
1537921877450670,3,5,-5,-12,-5,1,-6,-2
1537921877450670,-3,-24,14,18,-4,0,-2,-4
1537921877459646,2,20,7,3,-4,-1,3,4
1537921877459646,0,2,13,4,-4,0,-1,1
1537921877465630,-1,1,-6,-6,-2,-1,-2,-3
1537921877465630,-2,17,-2,-2,-2,-2,-5,-5
1537921877488568,-5,-49,-15,-2,-2,-1,-2,1
1537921877488568,-3,-18,-27,-10,-4,-1,2,-1
1537921877489566,0,8,2,5,-1,-1,4,6
1537921877489566,3,0,13,-4,-4,0,-1,0
1537921877503529,2,24,7,-4,0,1,-4,-3
1537921877503529,-5,2,7,0,-1,1,1,-1
1537921877510510,1,16,10,5,-1,-2,0,0
1537921877510510,4,14,-16,-1,-3,0,2,3
1537921877526467,-3,7,0,-4,-2,-3,3,1
1537921877526467,5,-35,8,-17,-5,-2,0,1
1537921877527464,-11,13,5,30,2,-2,-4,-10
1537921877527464,-3,-22,13,-3,-2,-2,-4,-6
1537921877548408,3,6,-27,-4,-1,3,2,4
1537921877548408,-3,0,4,1,-2,-2,-2,-1
1537921877549406,6,16,-2,-8,-2,-1,1,7
1537921877549406,2,-4,4,-1,0,0,-1,10
1537921877563368,0,5,-3,-3,0,1,2,-2
1537921877563368,1,3,1,2,-1,-2,-6,2
1537921877570350,3,4,11,-3,-1,1,0,-11
1537921877570350,-2,-2,-9,1,3,0,1,-3
1537921877586307,-1,8,23,-2,-2,1,0,3
1537921877586307,-4,6,1,5,-1,-3,1,-5
1537921877587304,3,-6,-16,-7,-4,-1,1,17
1537921877587304,-4,-22,2,1,0,0,-3,-8
1537921877609246,4,-3,27,6,4,1,2,5
1537921877609246,0,5,-52,-4,-3,-1,1,2
1537921877609246,-2,20,-6,2,1,0,-2,-4
1537921877609246,1,52,23,-9,-5,-4,2,2
1537921877623208,-2,-29,1,0,-5,-5,-1,9
1537921877623208,0,-1,23,4,2,-1,0,-1
1537921877630190,1,-9,-6,-4,-1,-2,-1,-6
1537921877630190,-2,-3,-21,1,-1,-2,-5,-3
1537921877646147,1,29,5,-1,1,0,-6,-7
1537921877646147,-3,2,8,1,1,2,0,1
1537921877647145,2,-23,7,-2,-2,-1,3,14
1537921877647145,-1,-5,30,-1,0,1,4,-9
1537921877669086,-11,-5,-63,-5,-1,-1,-1,-10
1537921877669086,1,2,0,0,1,3,-8,-17
1537921877669086,0,45,25,3,-3,-2,-1,-11
1537921877669086,-3,-33,-18,-5,-4,-3,3,9
1537921877691027,-13,2,26,-4,-4,-4,3,-13
1537921877691027,1,10,10,4,4,-2,2,-5
1537921877692025,7,4,-3,-3,2,1,0,-12
1537921877692025,3,1,0,6,-2,1,-1,29
1537921877705987,8,40,-30,-2,-3,1,-5,-27
1537921877705987,-19,-32,16,3,-3,-3,-4,-35
1537921877706985,-6,-29,-29,-5,2,1,3,-11
1537921877706985,1,5,16,-2,-1,-1,-3,-12
1537921877728926,6,13,2,4,6,1,5,31
1537921877728926,13,45,10,-6,2,0,3,33
1537921877735907,-10,-81,-22,13,-4,-4,-5,4
1537921877735907,-1,4,0,-4,1,0,4,12
1537921877751865,1,-7,13,0,-1,-2,7,25
1537921877751865,1,6,5,-7,-5,-4,-10,-38
1537921877751865,0,13,-19,-11,-2,-1,0,-15
1537921877751865,-8,0,6,3,0,-1,-12,-10
1537921877765828,2,7,8,12,-4,-2,7,21
1537921877765828,2,-25,-31,-1,2,1,4,-2
1537921877766825,4,2,-8,-11,-2,0,0,9
1537921877766825,-2,8,7,9,2,1,2,-12
1537921877788766,3,2,0,-15,-4,-5,-4,-8
1537921877788766,-4,10,29,3,-1,-1,0,13
1537921877789763,2,-14,-2,0,-1,-1,-1,1
1537921877789763,2,0,-21,-13,-2,-1,2,1
1537921877811705,-3,14,-5,1,1,1,-6,-8
1537921877811705,2,-6,6,4,-1,0,2,13
1537921877811705,-3,9,15,-4,-1,-1,-2,2
1537921877811705,-2,-14,-23,-1,0,0,0,-10
1537921877826665,-3,-13,5,2,0,1,-5,-1
1537921877826665,0,-4,-4,1,-1,-1,-1,2
1537921877826665,0,12,13,-1,0,-3,0,-1
1537921877826665,2,-12,-13,-1,0,-2,-1,-1
1537921877848606,-5,-6,-1,-3,-2,-1,-2,-12
1537921877848606,-1,1,4,2,1,-1,-1,1
1537921877849603,-2,3,7,3,-1,-1,0,2
1537921877849603,1,-2,-6,-4,-2,-3,1,-1
1537921877871545,-1,-5,-2,-2,1,1,-2,-3
1537921877871545,-1,-11,1,2,-1,0,0,3
1537921877871545,-1,7,0,-1,2,1,-1,0
1537921877871545,-1,0,-2,-1,-2,-1,-2,-2
1537921877886505,-1,-9,-3,-5,0,1,-1,-6
1537921877886505,-1,-7,-4,0,-3,-1,3,6
1537921877886505,-2,6,3,1,0,-1,0,-1
1537921877886505,-1,3,-2,-2,0,1,-2,-6
1537921877908446,-1,-9,1,-1,0,-2,1,8
1537921877908446,-2,-1,1,-3,-3,-1,-3,-2
1537921877909443,0,7,3,2,0,0,-1,0
1537921877909443,-1,-4,-4,-1,-1,1,1,0
1537921877931384,1,-4,0,-1,0,-3,-2,-4
1537921877931384,1,2,1,0,-1,1,-2,0
1537921877932382,0,-9,-3,-3,-1,0,-2,-4
1537921877932382,-6,-5,-4,-2,-2,-1,-1,-1
1537921877946345,-1,0,3,1,1,0,-2,-5
1537921877946345,0,-1,-2,-1,-2,-2,0,3
1537921877947342,10,-3,4,4,-3,-1,-1,6
1537921877947342,-1,3,-3,-2,0,-1,3,0
1537921877968286,1,23,5,2,0,0,-3,-2
1537921877968286,-3,-12,-1,0,1,-1,2,-2
1537921877969284,-2,11,-2,-7,-3,-4,0,0
1537921877969284,2,-6,0,-3,-1,-1,0,1
1537921877991224,-1,-3,-1,-2,-1,-1,0,-1
1537921877991224,2,30,7,-1,1,1,0,2
1537921877992222,-7,-38,-8,1,2,0,-2,-8
1537921877992222,-4,-2,-8,-1,-1,0,1,-10
1537921878006184,-4,5,5,0,-1,0,-4,-8
1537921878006184,-1,-17,-4,-2,-2,-3,2,2
1537921878007182,-1,6,-5,-1,0,-2,1,5
1537921878007182,2,9,3,0,-1,-1,0,-2
1537921878029123,0,-15,-5,-1,0,-1,1,0
1537921878029123,-4,-3,0,0,1,-1,0,-2
1537921878029123,5,10,3,1,-3,-1,-1,-2
1537921878029123,-6,0,-3,0,-1,-1,-1,0
1537921878052062,-1,8,3,2,0,-1,0,5
1537921878052062,6,62,7,-1,-3,-1,-5,-2
1537921878053060,-3,-11,-11,-1,2,1,6,2
1537921878053060,-5,-58,-11,-2,-6,-9,-5,-15
1537921878066025,-8,-52,-10,-2,-2,-8,-2,-13
1537921878066025,3,25,14,2,4,5,4,11
1537921878067023,-4,-22,-11,-3,-3,-4,-4,-3
1537921878067023,-1,4,-10,-2,-1,4,-2,-19
1537921878088964,12,42,29,8,9,8,-2,17
1537921878088964,9,-95,-27,-23,-2,-3,9,15
1537921878089962,-15,-14,35,-39,-23,-24,-16,45
1537921878089962,-6,-7,-28,4,2,12,0,2
1537921878111902,5,-59,-47,-42,-13,2,5,17
1537921878111902,-15,38,54,-23,16,22,3,-35
1537921878112900,-1,32,66,55,-16,0,20,20
1537921878112900,20,18,-71,-70,10,-18,-20,91
1537921878125865,0,15,61,92,32,31,49,-26
1537921878125865,26,28,57,-10,-14,-26,-35,74
1537921878126863,1,-50,-93,112,44,32,56,-29
1537921878126863,23,66,116,-104,-18,3,16,11
1537921878148803,11,0,-33,67,-28,-6,-38,-27
1537921878148803,1,7,74,-49,16,-25,-19,-5
1537921878149801,-14,12,-56,-15,7,19,-24,-47
1537921878149801,-9,17,13,-54,-47,47,23,20
1537921878171742,-43,-84,-39,53,-31,-68,21,-38
1537921878171742,9,9,42,-84,11,13,47,16
1537921878172739,10,-2,-22,60,-9,-29,4,38
1537921878172739,24,-15,-87,90,31,31,28,6
1537921878186702,10,28,-5,-128,23,-18,-57,-51
1537921878186702,-67,-31,59,127,14,-14,-52,-43
1537921878186702,12,19,-8,-90,12,-15,-3,5
1537921878186702,-8,-5,-21,-55,-1,15,18,-33
1537921878208643,-65,40,115,-85,-48,21,26,-4
1537921878208643,8,-4,-98,80,20,-12,33,-3
1537921878209641,14,3,40,-78,-18,3,-18,-6
1537921878209641,27,10,7,-21,-29,-65,-13,40
1537921878231582,50,22,-24,-46,14,58,-24,67
1537921878231582,-26,-34,-90,-50,-26,-21,39,5
1537921878232579,-26,8,1,25,-23,-37,-80,-46
1537921878232579,-11,5,10,-19,14,-2,29,-35
1537921878245545,-15,5,-23,-30,28,43,72,12
1537921878245545,-3,-28,-19,76,-5,-3,-26,5
1537921878253523,24,3,51,-16,3,16,4,10
1537921878253523,-26,-12,6,34,15,-16,25,-12
1537921878268483,24,8,-6,-5,11,17,-14,46
1537921878268483,3,-9,-74,-64,-23,15,-50,-29
1537921878269481,-6,12,-33,-28,0,-21,28,11
1537921878269481,-13,-18,25,62,7,-1,-24,-27
1537921878292419,-3,-1,-2,2,-1,-10,16,8
1537921878292419,0,-1,-9,0,10,29,-10,-26
1537921878293417,9,8,3,8,20,23,4,8
1537921878293417,4,0,30,14,-15,-6,-10,8
1537921878305385,11,-10,-34,1,-15,3,2,5
1537921878305385,7,4,-9,-25,7,7,-1,17
1537921878313363,-1,8,28,-12,-7,13,24,-8
1537921878313363,-13,-8,-14,19,-4,-10,-18,-15
1537921878328323,-1,1,1,3,-1,-19,-27,-9
1537921878328323,12,-1,6,6,2,9,21,-12
1537921878329321,-16,-2,-3,-4,-9,0,-4,2
1537921878329321,0,-2,9,8,8,4,-13,-5
1537921878352260,2,1,-9,12,3,-29,-17,-4
1537921878352260,5,4,2,-20,-7,3,13,5
1537921878352260,-2,-1,-2,0,5,3,13,5
1537921878352260,-3,-4,-4,5,6,-9,-21,3
1537921878365225,0,-1,16,19,-4,-10,2,-9
1537921878365225,-2,-3,-14,-9,-16,-6,8,-2
1537921878374201,-2,2,-1,-18,5,10,-5,-3
1537921878374201,-2,-6,0,9,5,0,-2,-9
1537921878397140,-2,0,-3,10,-1,-10,-7,0
1537921878397140,5,5,-1,-14,-6,1,7,-1
1537921878398137,0,0,-4,-7,-2,-5,-4,-1
1537921878398137,-2,0,8,10,-1,-1,-3,1
1537921878411102,1,-2,-9,3,4,-6,0,-1
1537921878411102,3,1,-2,-4,-5,-3,0,4
1537921878419081,1,3,6,-6,-4,0,3,-3
1537921878419081,-3,-2,-6,4,2,2,-4,-6
1537921878434041,-3,-1,3,-2,0,-6,-5,-3
1537921878434041,2,-3,-2,2,-3,2,4,-3
1537921878436037,-3,1,10,0,1,-1,0,-1
1537921878436037,3,-2,-5,0,4,5,-1,3
1537921878456980,-1,-3,-11,1,0,-7,-4,0
1537921878456980,1,3,8,-3,-3,1,4,-1
1537921878457978,-1,-4,-6,0,0,-3,3,1
1537921878457978,-3,-1,4,0,1,-2,-4,-2
1537921878470942,2,5,8,4,-1,-1,-1,-1
1537921878470942,-2,-1,-7,-2,-3,-6,1,-1
1537921878479919,0,1,-2,-2,0,2,-1,-2
1537921878479919,1,-14,-4,4,-1,-2,-1,1
1537921878494878,1,3,3,5,-1,-2,-2,-2
1537921878494878,1,10,16,-5,0,-1,0,-1
1537921878495876,0,-2,-6,-5,-2,-3,-1,0
1537921878495876,-2,-2,2,-1,1,1,-3,-4
1537921878517817,-2,-4,-10,-1,-2,-6,0,-2
1537921878517817,-2,-2,0,-2,-3,-1,-2,-1
1537921878518814,-1,1,-6,0,-3,1,2,-1
1537921878518814,0,1,0,0,-2,-2,0,-3
1537921878530782,1,-6,7,-1,-1,1,-4,-2
1537921878530782,2,-2,-1,-1,-1,-2,0,1
1537921878539758,0,5,1,1,-3,-1,-1,-2
1537921878539758,1,2,-16,-1,0,-2,0,-1
1537921878554718,-2,0,1,0,-3,-4,-1,-2
1537921878554718,0,-6,-9,-4,-3,0,1,-1
1537921878555716,-1,-5,3,-4,-1,0,-2,0
1537921878555716,-1,-5,2,2,1,1,-4,-3
1537921878576660,-1,-3,0,-2,-2,-1,-1,-1
1537921878576660,-3,12,14,2,0,-1,0,-2
1537921878578654,-2,-15,-1,0,2,0,-1,0
1537921878578654,0,-3,-13,-1,-3,-3,-1,2
1537921878590622,-1,-7,-10,-3,0,-2,-4,-1
1537921878590622,2,-1,-7,1,-1,0,-1,0
1537921878599598,-2,13,10,-2,-1,0,-2,-1
1537921878599598,0,-2,-5,-2,-3,-1,0,-1
1537921878614558,1,1,3,-1,1,-3,-1,0
1537921878614558,1,-6,-16,-1,-1,4,-3,0
1537921878615556,0,3,2,-2,-4,-9,-1,-1
1537921878615556,-2,-2,5,-1,-1,-1,-3,-3
1537921878636500,0,6,10,7,1,-1,-1,-2
1537921878636500,-1,-2,1,0,0,-1,0,1
1537921878638495,0,-4,-4,-4,-2,-1,-4,-1
1537921878638495,-3,1,3,-3,-2,-2,-3,-1
1537921878650462,0,-1,1,4,1,-1,0,-3
1537921878650462,-1,-6,-5,-2,-1,-2,0,0
1537921878659438,1,-4,-15,-4,-1,0,0,1
1537921878659438,0,4,10,-3,-2,-3,0,-1
1537921878674398,-2,-2,-1,3,-2,0,0,0
1537921878674398,-1,-3,1,1,1,-1,-2,0
1537921878676393,1,4,1,0,0,0,-1,0
1537921878676393,-5,-4,-2,-2,0,0,-1,-1
1537921878697337,-1,-2,-9,-5,-1,-1,2,0
1537921878697337,-2,3,16,2,-2,-2,-1,-1
1537921878698334,-1,-2,-8,-4,-2,-2,0,0
1537921878698334,-1,-2,-12,-2,-1,0,-2,0
1537921878710303,1,-5,-7,-1,-1,-3,0,0
1537921878710303,-2,-2,3,-1,-3,-3,-2,-1
1537921878719279,-1,3,7,4,2,2,0,-1
1537921878719279,1,2,5,3,0,-2,-1,1
1537921878734238,0,1,-3,-4,-4,-2,-3,0
1537921878734238,-1,-20,-6,0,0,-1,1,-2
1537921878736233,0,8,6,1,0,0,0,-2
1537921878736233,-3,-8,-8,1,0,1,-2,-2
1537921878757177,2,22,10,0,-1,-2,-1,-2
1537921878757177,-1,-1,-8,-2,-2,-2,0,-1
1537921878758175,-4,-14,-4,0,-1,-1,-1,-3
1537921878758175,1,10,8,-1,-1,-1,0,0
1537921878771140,-3,-6,3,-3,0,0,-2,-1
1537921878771140,1,8,-4,-1,-2,-1,-1,0
1537921878779119,-1,0,-4,1,-2,0,0,-1
1537921878779119,1,3,6,1,-2,-1,-1,-1
1537921878794079,-1,2,-1,0,-1,1,-1,1
1537921878794079,-1,2,-2,-1,0,-4,0,0
1537921878796073,-1,0,-6,-2,-1,-1,3,-1
1537921878796073,-1,0,3,-1,0,0,1,-1
1537921878817017,-2,-8,0,-1,-1,0,-1,-1
1537921878817017,1,-5,-3,0,-2,-4,-1,1
1537921878818015,0,-4,-3,-4,1,0,-1,-2
1537921878818015,3,14,4,2,-1,0,-2,-1
1537921878830980,2,26,15,0,0,-1,1,-1
1537921878830980,-1,-4,-5,-2,-1,0,2,-1
1537921878839956,-2,3,-1,-1,-1,-2,-2,-2
1537921878839956,-4,-52,-11,-2,-1,-3,-2,0
1537921878854916,0,-6,-9,0,2,0,0,0
1537921878854916,2,23,9,2,0,0,1,-1
1537921878855913,1,3,0,0,-1,-2,0,1
1537921878855913,1,17,-1,1,-1,-1,-1,1
1537921878876857,-2,-10,2,-2,-2,0,0,-1
1537921878876857,-2,-14,-2,0,1,1,1,0
1537921878878852,1,-6,-3,-1,0,-2,-5,1
1537921878878852,1,40,13,0,-1,-1,0,1
1537921878890820,5,19,6,2,3,1,-4,-4
1537921878890820,-19,-74,-37,-12,-5,-5,1,-7
1537921878899796,-3,8,11,-3,-3,-4,4,-1
1537921878899796,-1,-7,-3,0,0,0,0,1
1537921878914756,2,16,1,0,0,-1,0,2
1537921878914756,8,24,8,5,1,1,-2,1
1537921878915753,-2,-17,-10,1,0,0,-2,-2
1537921878915753,-2,15,5,-5,-2,-2,-1,-1
1537921878936697,-1,-20,-7,-4,-3,-2,-2,1
1537921878936697,2,3,7,3,0,1,-1,0
1537921878938692,-2,-9,-3,0,-1,0,0,0
1537921878938692,-1,20,7,1,-1,1,0,-1
1537921878950660,-2,-38,-23,-1,-1,-2,-2,-1
1537921878950660,-1,11,3,-3,-3,-2,-3,-2
1537921878959636,0,2,8,-1,-3,-2,-1,-1
1537921878959636,-2,-20,-5,0,-1,-2,0,-1
1537921878974596,-6,-16,-10,-1,-2,-2,-1,-1
1537921878974596,1,2,-1,0,2,0,-2,0
1537921878975593,3,10,-2,0,1,0,-1,0
1537921878975593,1,-11,-11,0,1,0,-1,-1
1537921878996538,-6,-2,6,-6,-6,-2,1,-2
1537921878996538,1,14,6,2,1,-1,4,0
1537921878998532,0,13,8,0,2,1,-2,0
1537921878998532,0,-10,-4,0,0,0,-2,1
1537921879010500,4,45,12,1,-1,-1,-1,0
1537921879010500,3,38,-4,1,-1,1,-4,0
1537921879019476,-11,-50,-19,-8,-5,-2,2,-4
1537921879019476,-4,-13,-7,-3,-4,-3,0,-3
1537921879034436,1,10,7,0,0,0,-1,-1
1537921879034436,1,-14,0,-2,-2,-1,-2,-1
1537921879035434,8,25,5,3,2,2,-2,2
1537921879035434,1,-10,1,0,2,2,4,0
1537921879057375,14,104,28,8,5,3,-4,1
1537921879057375,-13,-64,-58,-3,-1,0,-6,-9
1537921879058373,-13,59,15,-10,-7,-4,-1,-3
1537921879058373,9,36,21,-2,1,-3,7,1
1537921879079316,-3,-21,-6,-25,-8,1,4,9
1537921879079316,1,15,-7,-50,-9,7,24,10
1537921879081311,-3,-77,40,18,-18,-26,-24,-13
1537921879081311,-12,32,-40,-15,-5,-9,-5,-9
1537921879094276,11,-28,-38,-8,-12,-23,-63,24
1537921879094276,-1,0,-5,-106,-34,31,56,5
1537921879100261,-21,-11,6,38,-23,-40,-56,-27
1537921879100261,34,-48,-15,103,56,6,17,26
1537921879117215,19,-2,-64,-33,46,68,85,47
1537921879117215,-47,-33,6,113,6,-77,-102,-78
1537921879118213,81,5,44,26,53,-2,-7,-4
1537921879118213,1,17,-18,-128,-67,29,22,-9
1537921879139156,-34,-61,84,127,-6,-2,81,8
1537921879139156,24,44,-41,-32,0,1,-29,-53
1537921879141151,1,60,-77,-107,-47,-2,3,103
1537921879141151,-41,-89,-26,127,-3,-46,16,-71
1537921879154116,-17,45,86,-84,21,9,-91,-107
1537921879154116,-43,7,-55,-58,-18,6,100,-29
1537921879161097,17,14,-7,45,14,-20,-45,46
1537921879161097,61,43,-60,-128,-30,50,-41,73
1537921879177054,-22,-48,-19,9,-35,-61,-4,-60
1537921879177054,18,-2,127,81,77,20,38,60
1537921879178052,-53,-2,-14,33,20,19,-8,-127
1537921879178052,11,10,14,43,1,-11,6,46
1537921879198996,15,-16,-48,-53,-31,-18,-10,3
1537921879198996,65,19,-11,-19,-26,-9,-49,47
1537921879200991,-28,-24,-13,-38,2,43,122,-7
1537921879200991,-36,-8,23,-11,-10,-60,-82,-43
1537921879213956,21,8,0,3,6,-12,-21,31
1537921879213956,0,-8,-13,0,4,23,22,19
1537921879220938,-9,0,0,0,3,18,20,9
1537921879220938,-26,-5,24,11,23,24,21,-9
1537921879236895,6,-3,-28,-4,-5,-5,6,3
1537921879236895,-13,0,16,24,-7,-3,-13,7
1537921879238890,6,-9,-4,-6,3,5,-4,-10
1537921879238890,2,16,24,5,9,-5,-2,-4
1537921879259833,-1,-1,-12,1,1,3,9,18
1537921879259833,-1,6,-3,-3,-10,0,-9,-3
1537921879260831,-3,4,1,-8,0,-2,-12,10
1537921879260831,6,0,3,-3,9,13,18,6
1537921879273796,-10,3,-8,4,-1,3,2,7
1537921879273796,-4,0,1,12,2,-5,-15,0
1537921879280777,11,0,-7,-7,-2,-4,-1,0
1537921879280777,-9,-5,10,9,0,-3,7,0
1537921879296735,-5,-14,-6,-9,-1,12,0,-5
1537921879296735,2,-4,2,-3,-3,-8,-13,1
1537921879298729,3,-41,-4,11,3,0,4,10
1537921879298729,-3,-15,20,-1,9,4,6,-7
1537921879319673,-6,-5,0,12,-1,-1,-1,4
1537921879319673,4,3,6,-1,0,-3,-2,4
1537921879320671,-2,20,-11,-7,-7,1,-1,3
1537921879320671,-8,10,-6,-6,4,-3,0,-2
1537921879332639,0,6,-13,-3,-5,1,1,-1
1537921879332639,-3,12,2,3,-1,-3,-3,4
1537921879341615,2,17,3,-3,-2,4,-2,-3
1537921879341615,3,13,4,-1,2,2,0,-3
1537921879356575,0,2,-3,-1,-3,-3,2,4
1537921879356575,-4,-7,-5,0,5,10,-1,-1
1537921879358570,-1,-4,0,-5,0,-3,-2,1
1537921879358570,-1,0,-5,0,-4,0,2,1
1537921879379513,-4,7,20,4,1,0,-2,-1
1537921879379513,-2,-12,-22,0,0,-6,-3,0
1537921879380511,1,-5,-3,-4,0,-1,1,-1
1537921879380511,-3,15,7,2,-5,-3,-2,-2
1537921879393476,-3,-1,-1,0,3,0,-1,-2
1537921879393476,0,1,6,3,1,-1,-3,-1
1537921879402453,0,-3,5,-2,-2,4,-1,1
1537921879402453,-2,-5,1,0,-3,-4,-1,-2
1537921879417412,-2,6,-22,-1,2,0,1,3
1537921879417412,0,-19,-3,-2,1,4,2,0
1537921879418410,0,6,-4,1,-1,-1,-2,0
1537921879418410,-1,20,10,2,-1,0,-1,-2
1537921879439354,1,-19,-3,-5,0,-2,1,-2
1537921879439354,2,-1,-3,1,0,-1,0,1
1537921879441349,-2,-3,5,-3,-4,-2,0,-1
1537921879441349,0,-1,4,1,-1,-1,-2,1
1537921879453317,0,4,-14,-2,-1,6,-1,1
1537921879453317,0,1,0,1,-1,-7,-1,-2
1537921879462293,2,16,1,-2,0,-1,-1,0
1537921879462293,-2,-41,-5,-5,-4,-4,-1,-2
1537921879477252,0,1,4,0,4,7,-1,-3
1537921879477252,-1,-4,2,-1,-2,2,-2,0
1537921879478250,1,5,-2,-4,-4,-2,0,0
1537921879478250,1,20,5,2,-2,-2,-1,0
1537921879499194,-2,-17,-1,-2,0,-3,-3,0
1537921879499194,-2,-11,-11,-3,0,1,-1,-1
1537921879501189,-2,19,19,-3,-2,-4,1,-2
1537921879501189,0,-17,-19,0,0,1,1,1
1537921879513157,-1,7,11,2,2,-4,0,2
1537921879513157,1,21,4,0,-2,-2,-2,1
1537921879522133,4,36,1,2,2,1,-4,1
1537921879522133,-2,55,7,-2,-1,0,-1,-1
1537921879537094,-6,-45,-12,-1,-1,-2,3,-1
1537921879537094,-1,1,1,-3,-2,-3,0,0
1537921879538091,0,-11,-10,2,0,-1,-2,-1
1537921879538091,2,21,5,-1,1,1,-1,-1
1537921879559034,2,17,4,-2,-1,-3,0,0
1537921879559034,-2,-5,1,-2,-3,0,-1,-3
1537921879561029,3,7,4,-1,1,-1,0,3
1537921879561029,4,0,2,2,1,3,3,6
1537921879572997,0,43,-2,4,2,0,-9,-19
1537921879572997,-3,-81,-6,-6,-6,-3,0,25
1537921879581973,-19,-98,-54,-4,-1,-1,-4,-11
1537921879581973,-25,-128,-39,-15,-10,-9,7,-8
1537921879596933,16,38,9,-4,14,20,7,29
1537921879596933,3,69,2,-100,-21,-3,44,38
1537921879597930,4,28,67,92,20,-7,-38,-15
1537921879597930,-12,31,-84,-85,-18,21,6,-18
1537921879619871,-19,-26,21,113,18,-54,-55,-97
1537921879619871,50,53,38,-92,-19,16,-71,33
1537921879620869,-57,-24,8,29,-3,20,88,-8
1537921879620869,25,-31,11,101,23,-47,-95,77
1537921879632836,-11,45,3,-68,-16,-1,-20,44
1537921879632836,-71,-59,55,127,23,60,96,-36
1537921879641813,96,-18,-37,-39,15,-80,-87,49
1537921879641813,-50,-29,-5,-46,-52,-24,41,-49
1537921879656772,40,40,25,-48,17,48,68,84
1537921879656772,-48,-14,-111,-128,-31,50,-13,23
1537921879658768,80,43,127,76,6,-23,-74,-43
1537921879658768,-44,0,-48,-35,16,4,117,127
1537921879679711,7,-35,-86,-44,-29,-7,-25,-111
1537921879679711,19,68,86,112,41,11,-4,-13
1537921879680709,-12,21,-77,-110,-5,61,25,70
1537921879680709,64,36,25,26,14,-37,-59,-35
1537921879692677,14,4,28,-42,-22,26,56,93
1537921879692677,35,-10,-67,-20,0,-3,88,8
1537921879701652,-40,16,-18,-3,2,-30,-77,-87
1537921879701652,15,21,36,-25,-5,22,-14,-20
1537921879716612,-33,-34,-12,-10,0,6,6,7
1537921879716612,3,-11,25,47,11,-26,-21,-20
1537921879718607,-9,-26,-17,-19,-21,-6,46,34
1537921879718607,-5,11,8,-11,5,5,9,-29
1537921879739551,-3,-14,7,28,2,-7,-21,-16
1537921879739551,2,-8,-17,18,-3,-52,-29,15
1537921879740549,-17,5,-11,-35,-10,32,24,19
1537921879740549,-3,6,17,14,7,14,-17,4
1537921879753514,-7,-10,4,23,5,-11,6,11
1537921879753514,1,-2,6,-13,-9,-28,-36,1
1537921879762491,-20,-16,-10,-20,-8,14,21,3
1537921879762491,3,2,23,18,4,13,0,-22
1537921879776452,-2,-13,0,3,-5,-16,-9,-8
1537921879776452,-2,-13,-6,-10,-2,-4,-11,-28
1537921879778447,-7,-9,8,5,3,4,14,-14
1537921879778447,2,-4,-5,9,0,2,1,-12
1537921879799391,-5,10,7,-9,3,9,-1,-8
1537921879799391,0,13,2,4,-2,-9,-19,-9
1537921879800389,-3,-16,-3,4,-3,0,20,1
1537921879800389,7,-7,12,-4,-5,0,-5,0
1537921879813354,-6,-4,-3,-1,2,-5,-4,2
1537921879813354,0,13,18,14,6,-4,-8,-7
1537921879822330,-3,15,-4,-7,-7,-4,8,8
1537921879822330,-2,21,-7,-5,1,8,3,-3
1537921879837290,-1,6,8,6,-5,-9,-6,0
1537921879837290,-1,4,-11,1,-1,-10,-5,-1
1537921879838288,-3,16,-6,-8,-3,0,7,1
1537921879838288,-1,-7,6,-2,1,5,-2,-1
1537921879859231,2,-15,-4,13,2,-8,0,4
1537921879859231,2,4,1,-2,-1,-4,-8,-1
1537921879861226,-2,16,21,-2,-5,-3,2,2
1537921879861226,3,18,38,0,5,2,0,-2
1537921879873194,-4,-41,-65,-6,-3,-5,2,2
1537921879873194,0,-10,-7,-3,2,1,-5,-4
1537921879882170,0,-7,-9,0,1,3,1,1
1537921879882170,1,56,37,4,-2,-2,-1,-3
1537921879897130,-3,-22,9,-5,-4,-1,-3,1
1537921879897130,-1,8,-2,-3,-3,-7,-5,-1
1537921879898127,-4,13,-6,-3,-2,-4,3,-4
1537921879898127,-2,-60,-31,-3,-1,6,6,-1
1537921879919071,-3,16,10,1,3,-1,0,0
1537921879919071,1,-7,-10,0,0,0,0,-2
1537921879921066,-2,1,9,1,-3,0,-2,0
1537921879921066,0,1,-4,4,3,6,-4,-5
1537921879933035,0,3,3,-4,-2,-3,-1,-4
1537921879933035,-1,-14,-2,-3,-5,-3,-2,0
1537921879942010,2,5,-10,-2,3,5,3,1
1537921879942010,-1,28,4,1,-4,-10,-2,-5
1537921879956970,-2,-38,3,0,-3,-4,5,5
1537921879956970,0,-7,4,1,3,4,-2,1
1537921879962954,-3,-19,13,1,2,0,2,1
1537921879962954,2,7,-57,-3,-5,-2,-1,0
1537921879979908,4,56,29,1,3,7,-4,-1
1537921879979908,-2,-47,-13,-1,-5,-8,1,-2
1537921879980906,-3,-10,-11,-5,6,3,1,-1
1537921879980906,0,-21,18,5,5,7,1,1
1537921879992874,1,5,-27,-1,-1,-12,-5,7
1537921879992874,-1,32,28,-4,-3,-3,-3,-6
1537921880001850,3,8,-8,0,-3,-1,1,2
1537921880001850,-1,2,18,-2,-3,-4,-1,0
1537921880015812,0,3,-4,1,-1,0,2,-1
1537921880015812,0,1,-22,2,1,4,-4,1
1537921880022794,-1,-3,-1,-1,-6,-7,-2,0
1537921880022794,2,-3,-1,3,6,4,0,0
1537921880039748,0,-5,9,-2,0,0,0,-3
1537921880039748,-2,10,2,1,-2,-4,-1,-1
1537921880040746,-1,-5,8,-1,0,1,0,-2
1537921880040746,-1,-8,-22,-1,-4,1,-1,2
1537921880061690,-2,16,17,-3,-4,-5,-3,-3
1537921880061690,0,3,-3,-2,-1,-5,-2,0
1537921880063685,-3,-3,-8,0,-1,0,0,0
1537921880063685,1,-1,21,3,-1,-1,0,-1
1537921880076650,0,1,-4,1,1,0,-1,-4
1537921880076650,0,-1,-5,-1,3,1,1,-1
1537921880078645,-1,-2,-11,-1,-1,-3,1,0
1537921880078645,0,11,13,-1,-2,-3,-3,-1
1537921880099589,-1,-20,9,3,3,3,1,-1
1537921880099589,-1,-2,-27,-3,-2,-3,1,0
1537921880101584,-1,1,7,3,1,1,1,0
1537921880101584,-1,0,-3,-4,-3,-1,-2,2
1537921880121531,-1,11,23,1,-1,-10,-5,0
1537921880121531,1,8,-36,-2,-1,-1,0,-1
1537921880123526,-3,-12,-1,-3,1,0,1,-1
1537921880123526,0,-28,-17,-4,-1,-1,2,-2
1537921880136490,0,7,4,-1,-1,4,0,-1
1537921880136490,1,5,18,1,0,2,-2,-1
1537921880143472,-1,3,-2,0,-2,-3,0,-1
1537921880143472,0,-1,-12,-2,-3,-5,0,1
1537921880159429,-2,-11,-6,0,1,6,0,-1
1537921880159429,-2,4,12,0,-1,-3,1,-1
1537921880160426,0,-10,-7,-3,-1,-1,-1,1
1537921880160426,-1,-2,11,1,0,0,-2,-1
1537921880182367,1,0,-10,0,-2,-6,0,-1
1537921880182367,-2,5,5,2,-1,5,1,0
1537921880183365,1,0,2,-4,-4,-2,-1,1
1537921880183365,-2,2,-4,1,4,1,0,-2
1537921880196330,0,2,-8,-3,-3,-2,-1,0
1537921880196330,-1,-4,8,0,2,2,-1,-1
1537921880203312,-1,4,2,-3,-3,-1,-1,-1
1537921880203312,-2,1,2,-1,-2,-3,-2,-1
1537921880219269,0,0,-1,0,-1,2,-1,0
1537921880219269,-2,-7,1,0,3,0,0,-1
1537921880221264,0,-5,-11,-2,-1,-8,-1,1
1537921880221264,-2,21,17,-3,-6,-3,1,0
1537921880242207,0,19,16,3,1,1,-1,1
1537921880242207,-1,-6,-12,3,0,0,0,1
1537921880243205,-3,-47,-9,-4,-1,-1,-1,-3
1537921880243205,-2,-4,-21,-1,-2,-1,0,0
1537921880256170,-1,-5,6,-1,0,1,-3,0
1537921880256170,0,6,8,-3,-3,-3,0,0
1537921880270133,2,7,2,2,0,1,1,0
1537921880270133,0,1,2,0,-2,-5,-2,-3
1537921880279109,-4,2,-9,-5,-3,4,-1,0
1537921880279109,1,7,9,1,1,-3,1,0
1537921880281104,-2,-10,-5,-3,-2,1,3,0
1537921880281104,2,-6,2,-1,-1,-2,-1,1
1537921880302047,-1,-2,-12,-2,0,-6,-3,-3
1537921880302047,0,1,-1,-6,-7,-1,-2,-1
1537921880303045,-1,12,6,5,7,3,-2,-2
1537921880303045,-1,-7,-5,0,1,3,0,-1
1537921880316010,-1,-3,1,-2,-3,1,1,-1
1537921880316010,-2,-3,8,0,-1,2,0,-1
1537921880324986,0,4,-10,-1,-5,-12,0,0
1537921880324986,-4,-4,-8,-2,3,4,-1,-2
1537921880338948,1,0,-4,1,-1,-1,1,-1
1537921880338948,-2,-8,5,0,-2,-7,-1,0
1537921880340943,0,9,3,0,-3,6,-1,-2
1537921880340943,-1,-11,-8,0,-1,-3,-3,-2
1537921880361887,0,2,2,-2,0,-3,-1,-1
1537921880361887,-3,2,-5,-1,0,-1,0,-1
1537921880362885,-1,-1,-1,-2,0,-2,-1,-2
1537921880362885,-3,1,1,-1,-3,0,-1,-1
1537921880375850,0,-10,-1,0,3,2,-2,0
1537921880375850,-1,-1,-2,-3,-3,-3,-3,0
1537921880384826,0,6,-1,-2,-1,0,-2,1
1537921880384826,-1,2,6,-1,-3,-4,1,-2
1537921880399786,1,-1,-5,2,5,4,0,-3
1537921880399786,4,1,2,-1,-3,-7,1,-1
1537921880400790,-1,10,4,0,6,10,-1,-1
1537921880400790,2,12,11,0,-2,-5,-2,1
1537921880421727,-5,-28,-19,-4,-4,2,1,-5
1537921880421727,-2,-1,-2,-1,2,3,0,4
1537921880423722,1,-1,1,0,-2,-2,-1,0
1537921880423722,-3,2,1,0,-1,-1,0,0
1537921880435690,0,7,0,1,-2,1,-4,0
1537921880435690,0,0,13,-1,-1,-1,-2,-2
1537921880444667,-2,-2,-14,0,1,1,1,-1
1537921880444667,-1,-11,-5,-1,-1,0,0,2
1537921880459627,3,6,2,1,-1,-6,-2,-1
1537921880459627,0,-2,-3,-1,-3,1,-3,-3
1537921880460624,3,4,8,1,2,0,-1,-1
1537921880460624,3,-5,-3,0,0,-1,1,-2
1537921880481568,-1,-5,-4,-3,-2,0,-1,-1
1537921880481568,1,4,0,1,2,-2,0,0
1537921880483563,2,-2,2,-3,-1,1,-3,1
1537921880483563,2,-3,-3,-2,-2,-1,-1,-1
1537921880495531,2,3,1,-1,-4,-4,0,0
1537921880495531,0,0,-3,-2,1,0,-2,-1
1537921880510491,-2,0,-1,-1,-4,-3,-1,-1
1537921880510491,-1,-2,-2,-1,-1,-5,-3,-2
1537921880519467,-20,4,3,2,3,2,-1,1
1537921880519467,3,-4,-4,-2,1,0,-1,-1
1537921880520464,10,5,-1,0,-2,-3,-1,-2
1537921880520464,9,-5,-1,-1,-2,3,0,-2
1537921880542405,6,8,4,-3,-4,-11,-2,-1
1537921880542405,-5,-2,0,0,-4,-1,-2,-1
1537921880543403,-4,-1,1,-1,2,1,2,0
1537921880543403,-6,6,-2,-1,1,-1,0,2
1537921880555371,-3,-1,-4,-2,-2,-1,-2,0
1537921880555371,-2,-3,-3,-3,-2,2,-3,0
1537921880564347,9,7,2,1,-2,-4,1,1
1537921880564347,6,-4,0,0,0,-2,-1,0
1537921880579307,6,-3,-1,-1,3,3,2,-1
1537921880579307,-2,2,0,-1,-2,-9,-2,0
1537921880581302,-14,-2,-2,0,1,8,0,-2
1537921880581302,-13,-1,-1,0,2,0,-1,1
1537921880602246,-7,1,8,1,-2,-1,-1,-1
1537921880602246,-2,-3,-10,0,-2,3,2,-1
1537921880603243,1,-4,1,-1,-4,-6,-4,-1
1537921880603243,-4,-2,-2,-2,1,4,1,-1
1537921880615211,-4,3,0,-1,-2,1,-3,0
1537921880615211,-1,-1,3,2,7,3,1,0
1537921880624187,-2,-3,-1,-1,-4,-3,-3,1
1537921880624187,3,2,1,-1,1,0,0,0
1537921880639147,5,-2,-3,-2,-2,-2,-1,-1
1537921880639147,3,1,-1,-1,2,0,1,-1
1537921880641142,2,-2,-4,-2,-4,-4,-1,-3
1537921880641142,-4,0,0,-1,-3,-1,1,-3
1537921880662086,3,-2,-1,-1,-1,-2,1,0
1537921880662086,-1,-3,-2,-2,-1,-1,2,-2
1537921880663083,0,0,0,-3,0,-1,0,-2
1537921880663083,0,1,0,1,1,0,0,-1
1537921880676048,-1,-5,-4,0,-4,-5,3,-1
1537921880676048,0,0,-2,-1,-1,0,-3,-2
1537921880684027,-6,-1,-1,0,-1,2,-2,0
1537921880684027,-6,-3,1,0,-2,-2,-2,0
1537921880698987,-6,-2,-3,0,-1,-1,0,-1
1537921880698987,-5,1,1,1,-1,-1,-1,-2
1537921880700982,-4,0,-1,-4,-4,-3,-2,-2
1537921880700982,-2,-1,-2,-2,-2,-2,0,-2
1537921880721926,3,1,0,-3,-2,3,-1,0
1537921880721926,-2,-4,0,-1,-2,3,-1,0
1537921880722923,3,-1,1,0,4,0,0,0
1537921880722923,6,0,-1,-1,-3,-2,-1,-1
1537921880735888,3,-1,1,0,-1,0,0,1
1537921880735888,0,-3,-2,0,0,1,-1,-1
1537921880744864,-3,0,0,0,2,0,1,0
1537921880744864,-4,1,0,-1,-2,2,0,0
1537921880759824,-3,-3,-4,0,2,-2,1,-1
1537921880759824,1,2,0,-3,-2,-2,-1,-1
1537921880760822,-4,-3,-2,1,-1,-3,1,-2
1537921880760822,-4,0,-1,-1,-2,-3,-1,1
1537921880783760,-3,0,-2,0,0,-2,-2,-1
1537921880783760,-4,1,0,-2,-6,-6,0,0
1537921880784757,-6,-3,-2,-1,-1,2,0,-2
1537921880784757,-4,-2,-2,-1,-1,-1,0,-2
1537921880795728,1,0,0,-1,0,-2,1,-2
1537921880795728,4,-2,-2,-2,-2,-7,-2,-2
1537921880804704,4,0,1,0,-2,0,-1,0
1537921880804704,-3,-3,0,-1,-2,-2,-3,-3
1537921880819665,8,2,0,0,-1,-2,0,1
1537921880819665,12,-1,-1,1,1,-3,-1,-2
1537921880820661,9,-3,-3,-1,-2,0,1,0
1537921880820661,9,-3,0,-1,-1,-2,-3,-2
1537921880841605,1,-3,-3,-2,-3,0,-3,-3
1537921880841605,-4,-1,1,1,-1,0,0,1
1537921880843600,-5,2,0,-1,-2,-4,0,-1
1537921880843600,-2,-1,-1,-2,-2,2,-1,-1
1537921880855568,3,-1,0,1,1,1,-1,-3
1537921880855568,-4,-1,0,-1,0,0,-1,0
1537921880864544,-3,0,-1,0,-2,-3,-1,1
1537921880864544,-3,-1,-2,-1,-2,-4,-2,2
1537921880879504,-2,1,-2,2,4,4,0,1
1537921880879504,-1,-4,-4,-2,-2,-2,0,0
1537921880880501,-1,1,0,1,1,1,-1,-2
1537921880880501,0,0,-1,-1,-3,-1,-1,-2
1537921880902443,-2,0,0,-4,-2,-7,-1,0
1537921880902443,1,1,0,0,1,13,1,-1
1537921880903440,-1,-5,-3,-1,-4,-6,-3,-2
1537921880903440,1,-2,-1,1,2,3,-1,1
1537921880915408,-2,1,1,-1,-3,-1,-2,-1
1537921880915408,0,1,-1,-1,0,-6,-3,1
1537921880924384,0,-1,-3,-2,-1,-4,-2,0
1537921880924384,1,-3,-1,-1,4,3,0,0
1537921880939344,-2,-1,-2,-3,-1,0,1,0
1537921880939344,-3,4,9,-1,-2,-3,-1,-6
1537921880941339,0,-3,-9,-1,-1,0,3,5
1537921880941339,-3,-7,-10,-2,-3,-3,-1,-2
1537921880962283,-2,6,15,-1,1,3,-2,-2
1537921880962283,3,8,-1,4,1,-1,-1,3
1537921880963280,-1,7,4,-3,0,0,-2,-1
1537921880963280,4,12,10,1,-2,0,-2,4
1537921880975249,-10,-53,-20,-6,-4,-2,1,-5
1537921880975249,-2,9,3,-3,-4,-4,1,-2
1537921880984224,-3,2,-7,-2,2,5,0,-3
1537921880984224,2,12,-6,1,2,0,3,1
1537921880999184,18,107,13,8,3,5,-7,4
1537921880999184,-16,-103,-21,-3,-2,-11,-6,-6
1537921881001179,2,102,4,-2,-3,14,8,11
1537921881001179,-11,-89,-12,-5,0,4,7,-4
1537921881022123,-23,-28,-3,-9,-4,-16,-2,-17
1537921881022123,2,39,-5,1,3,16,-10,-20
1537921881023120,-3,28,-17,-50,5,16,8,4
1537921881023120,-5,-51,8,-12,-24,-17,2,33
1537921881044064,20,87,108,-14,10,31,5,-16
1537921881044064,-53,-87,-96,-5,-8,-14,36,24
1537921881046059,-12,58,112,-17,-8,-18,-25,69
1537921881046059,12,70,-97,-48,1,11,-33,-51
1537921881059024,30,29,76,6,-9,-45,8,24
1537921881059024,-3,-12,-41,96,-2,43,20,76
1537921881066005,15,-27,-50,58,46,-16,6,-1
1537921881066005,-12,1,93,94,17,21,66,4
1537921881081963,-44,-28,-111,-75,-12,-27,-67,-6
1537921881081963,66,64,11,-43,-22,-5,-32,35
1537921881082960,5,-43,-12,-90,-33,11,89,17
1537921881082960,14,37,108,-11,37,-30,-114,74
1537921881103904,6,-72,-60,86,-26,-35,-20,-61
1537921881103904,14,19,-41,-88,21,27,54,-34
1537921881105899,23,-37,79,19,-9,-20,33,21
1537921881105899,114,33,-26,-35,-10,48,21,57
1537921881118865,-58,-13,35,-17,-6,-8,-21,-52
1537921881118865,20,24,30,47,6,7,-12,-21
1537921881125845,-25,-25,-7,18,15,46,23,32
1537921881125845,-6,-10,-33,-57,-16,-53,-36,-53
1537921881141803,8,-16,-28,-7,2,24,47,-15
1537921881141803,-10,3,18,-16,-17,-44,-58,-83
1537921881143797,1,-10,-9,5,0,9,20,-30
1537921881143797,-9,7,-2,21,-5,-25,-21,29
1537921881164741,37,0,-28,-11,2,16,13,24
1537921881164741,27,13,55,11,13,13,4,-2
1537921881165739,8,-11,-24,7,3,-3,-15,-13
1537921881165739,-26,2,-21,5,-5,14,24,-3
1537921881178704,-5,-9,4,11,11,15,16,36
1537921881178704,-48,3,17,-21,-3,-15,4,-2
1537921881185685,-24,-11,-14,9,-19,-25,-53,-46
1537921881185685,-25,2,-2,3,0,11,20,-13
1537921881201642,-23,-1,11,-3,-7,-7,2,6
1537921881201642,-14,8,20,-2,11,14,2,8
1537921881203637,-1,-1,-20,-4,-3,-4,-28,1
1537921881203637,-24,-5,4,3,1,-1,14,-29
1537921881224581,-1,-2,0,0,5,3,13,26
1537921881224581,-1,4,9,-5,-9,-12,-5,16
1537921881225578,-3,-9,-7,7,-1,-2,-18,-15
1537921881225578,-21,-2,-5,-4,4,7,18,-15
1537921881237547,5,-3,-1,-1,1,6,-5,8
1537921881237547,0,4,9,0,14,2,-1,8
1537921881246522,-15,-3,0,2,3,3,-14,-19
1537921881246522,-15,1,0,3,-10,-6,8,-5
1537921881261483,7,2,-9,-6,-5,-12,-3,21
1537921881261483,0,1,8,-2,10,9,0,-3
1537921881263478,15,-2,-11,-2,3,-6,-7,-5
1537921881263478,1,-6,-9,-2,-4,-4,4,-6
1537921881284421,15,3,-1,5,24,28,5,9
1537921881284421,-7,0,2,-7,-9,-15,1,2
1537921881285419,1,0,-2,0,-5,-7,-13,-10
1537921881285419,10,5,-2,-1,-6,-14,5,-5
1537921881298384,8,-4,-2,-6,-13,3,-1,0
1537921881298384,11,9,6,5,29,9,0,0
1537921881307361,3,-4,-8,1,-3,-3,4,3
1537921881307361,-1,3,7,2,4,20,-4,-14
1537921881322320,2,-13,-10,-4,-3,-12,4,10
1537921881322320,-12,3,-7,-4,-17,-8,0,8
1537921881323318,-5,1,-1,-1,-2,-14,-3,-3
1537921881323318,-9,-10,-9,0,-1,19,7,-1
1537921881344261,-3,2,12,1,2,2,-4,-2
1537921881344261,1,-7,-9,-2,-9,-7,0,1
1537921881346256,-4,36,1,-5,-5,-2,-7,-9
1537921881346256,-3,-2,1,-2,-7,-11,-10,-10
1537921881358224,-2,-29,-7,2,8,11,-1,9
1537921881358224,-2,-34,-7,-1,-2,-23,5,-4
1537921881367200,12,23,3,1,-4,14,7,-13
1537921881367200,16,34,6,-1,8,1,7,3
1537921881381162,-17,-60,-15,-2,-2,4,-8,-18
1537921881381162,-7,22,4,-2,-9,-8,-7,11
1537921881382160,-10,6,2,1,-8,-4,-1,2
1537921881382160,-5,61,14,3,6,2,3,-4
1537921881404101,-5,-62,-17,-3,16,12,20,12
1537921881404101,-3,15,6,-1,-2,16,1,-7
1537921881404101,-3,23,-9,1,-2,-4,-17,-2
1537921881404101,-14,-48,1,0,-4,-14,0,-3
1537921881426042,-4,44,18,-2,-8,2,11,8
1537921881426042,0,-1,-3,-1,-5,-8,-4,-2
1537921881427040,6,-12,-1,1,5,7,9,5
1537921881427040,16,-9,-5,8,3,-1,-9,3
1537921881441003,-3,-2,-18,-8,-8,-6,6,-4
1537921881441003,5,-25,3,0,-5,-6,-1,-9
1537921881442000,30,42,12,1,0,1,-6,2
1537921881442000,1,28,-5,-2,-4,-5,25,-6
1537921881463941,11,17,6,3,-2,-4,-19,5
1537921881463941,-23,-63,-14,-5,-2,8,4,-3
1537921881463941,-36,36,1,0,0,-5,-10,2
1537921881463941,-19,-45,-2,1,-1,6,5,2
1537921881486880,-86,33,-2,-1,0,-3,0,-2
1537921881486880,-49,-38,-9,-3,0,0,-4,-4
1537921881487877,-108,-12,11,-1,2,-4,6,-5
1537921881487877,-15,36,14,2,0,-1,6,20
1537921881500843,22,11,-4,4,-6,0,-8,26
1537921881500843,41,7,6,-3,0,4,-10,-24
1537921881501840,63,40,-17,-14,9,23,17,5
1537921881501840,40,-26,8,-72,-12,-1,12,-35
1537921881523782,64,-3,-36,64,-1,-2,13,63
1537921881523782,48,110,32,-30,-10,-11,-10,2
1537921881524779,-8,-112,16,66,-4,-36,-34,-80
1537921881524779,17,40,-23,-33,27,99,47,-4
1537921881546720,44,43,106,-25,-26,-89,-44,18
1537921881546720,-18,-32,-100,84,9,-7,-6,47
1537921881547719,53,37,103,-4,33,85,81,-65
1537921881547719,-22,-93,-77,126,18,-116,-21,119
1537921881561680,-6,56,56,-53,21,108,-29,-105
1537921881561680,-3,-28,5,-82,-47,-73,94,52
1537921881561680,-40,-19,-120,-111,5,73,-3,-69
1537921881561680,-9,-51,-13,-20,-104,-84,-91,-1
1537921881583622,15,28,97,34,23,35,84,-75
1537921881583622,35,12,-78,-102,0,62,64,8
1537921881584619,19,-38,65,117,49,66,-3,34
1537921881584619,60,30,-50,-75,16,14,82,87
1537921881606561,16,-23,-74,-8,-30,-27,30,-16
1537921881606561,-9,10,16,41,4,64,-88,-54
1537921881607558,103,26,7,-79,-50,-118,-47,69
1537921881607558,66,11,23,30,30,49,-7,34
1537921881621520,15,-12,4,-2,-2,-6,51,-8
1537921881621520,1,6,36,8,17,-14,-53,5
1537921881621520,-13,-36,-47,5,-11,-20,5,44
1537921881621520,-84,0,61,3,9,-12,-27,-22
1537921881643461,-62,-19,-78,-33,6,46,71,48
1537921881643461,-12,-2,23,14,2,-12,-12,-33
1537921881644459,-20,-13,-15,11,-5,-40,-37,34
1537921881644459,16,31,2,-3,-23,15,-3,-75
1537921881666400,-3,0,0,-17,29,32,-22,-9
1537921881666400,-22,7,3,31,7,-29,-5,-16
1537921881667397,-20,3,15,-7,-5,-22,-18,18
1537921881667397,-38,1,1,-5,-2,2,26,-38
1537921881681360,-27,-13,-27,4,8,22,-38,12
1537921881681360,-27,6,31,1,-22,-34,-18,15
1537921881682358,-21,-5,-33,-13,6,28,40,3
1537921881682358,-31,0,16,-5,0,4,-6,-31
1537921881703302,-20,-10,-10,7,-14,-50,-43,1
1537921881703302,12,20,8,0,10,23,19,2
1537921881704299,-17,-6,-2,-11,-14,-19,11,-12
1537921881704299,-7,9,-5,12,12,18,-7,-21
1537921881727238,6,1,8,1,-10,-18,-28,10
1537921881727238,13,0,7,3,22,20,28,-6
1537921881727238,1,-8,-10,0,-6,-3,-3,0
1537921881727238,-8,-7,9,-8,-4,-7,-15,-3
1537921881741201,9,2,-19,-6,-15,-10,2,6
1537921881741201,-16,-3,10,-4,0,-9,4,-8
1537921881742198,-13,-11,-5,5,3,4,-5,-2
1537921881742198,0,1,-1,-2,9,13,3,-10
1537921881764139,-2,1,-5,-4,-6,-16,-6,-3
1537921881764139,2,0,-3,3,4,5,2,-1
1537921881764139,-1,-3,4,-7,-12,-12,-5,10
1537921881764139,5,0,1,-1,2,6,7,-4
1537921881778102,-7,-3,-3,-2,-4,-13,-10,-4
1537921881778102,-6,3,8,-2,-8,-3,1,2
1537921881786081,-9,0,-8,-4,-4,-8,-3,4
1537921881786081,-11,6,3,0,4,8,1,-6
1537921881801040,-12,2,-3,7,13,0,-8,1
1537921881801040,-1,-1,-1,-3,1,6,7,3
1537921881802038,10,3,8,2,-2,3,5,-6
1537921881802038,17,-2,1,2,2,-5,-4,-9
1537921881823979,25,0,-2,-6,1,-2,-8,1
1537921881823979,19,-4,-1,2,5,11,2,-3
1537921881823979,10,-7,-3,-3,-5,-6,0,-3
1537921881823979,3,17,3,-5,-4,-8,-3,-5
1537921881853899,3,6,1,2,5,8,3,6
1537921881853899,3,-8,1,-4,-1,10,0,2
1537921881854896,0,-9,-5,-2,0,-16,-2,-3
1537921881854896,-4,-12,5,-2,-4,8,-1,-2
1537921881860880,-2,-11,-2,-6,6,5,-1,0
1537921881860880,-1,2,7,-3,-5,-10,-1,-3
1537921881861878,1,-4,5,0,8,15,2,-1
1537921881861878,0,-10,-4,-2,0,-2,0,-1
1537921881883819,-2,-5,-10,-2,-6,-5,-4,-1
1537921881883819,0,1,3,-2,-7,-4,-3,-2
1537921881884817,-2,-3,-5,-3,-1,-1,0,-3
1537921881884817,0,2,7,1,2,3,6,3
1537921881906758,-4,3,6,-5,-6,-11,-13,-4
1537921881906758,4,11,12,0,1,-12,-1,-5
1537921881907755,-7,-21,-17,-4,-5,7,8,4
1537921881907755,-5,-2,-5,-1,-8,0,-4,0
1537921881920720,-2,-13,-7,0,1,4,3,3
1537921881920720,-2,-6,-2,-5,-6,-8,-2,-2
1537921881921718,-1,14,-2,1,2,5,1,-5
1537921881921718,-3,-4,0,-1,-4,3,4,2
1537921881943659,2,10,11,5,4,-9,0,3
1537921881943659,-3,-7,-13,2,-1,3,-1,-1
1537921881944657,0,-4,-5,0,-8,-8,-4,-4
1537921881944657,3,-3,-3,-1,12,4,0,-1
1537921881966598,-1,17,1,-3,0,-3,-6,7
1537921881966598,4,-4,0,-3,8,11,13,13
1537921881967596,3,-2,2,-2,3,-5,-18,-14
1537921881967596,1,3,0,-1,-3,-3,0,-1
1537921881981558,-3,2,-7,3,-8,0,0,-5
1537921881981558,2,1,1,5,-13,-11,-6,2
1537921881981558,-7,0,4,4,8,6,4,2
1537921881981558,-3,10,0,1,-1,-1,-3,-3
1537921882003500,-3,-6,-1,-2,2,0,0,-6
1537921882003500,-3,3,-5,-3,-3,-2,-2,4
1537921882004498,0,7,-1,0,-4,-10,4,0
1537921882004498,-2,0,-1,2,8,8,-4,-5
1537921882026438,5,-6,-6,1,1,-2,6,2
1537921882026438,4,-1,-3,2,-1,6,-1,-6
1537921882027435,3,8,10,0,-5,-4,1,2
1537921882027435,2,1,2,0,-8,-4,-2,-4
1537921882041398,3,-4,1,4,8,7,2,3
1537921882041398,-1,-5,-10,-3,8,8,0,-5
1537921882042395,0,-2,0,-2,-1,6,0,1
1537921882042395,-2,-10,-4,2,-8,-9,-1,4
1537921882063339,-3,-10,0,-2,-2,-3,-1,-3
1537921882063339,-2,0,2,4,0,-4,-4,-4
1537921882064337,-4,3,-1,1,6,4,3,3
1537921882064337,-1,11,0,-2,-4,-6,-2,0
1537921882087275,-4,4,-1,-2,-7,-4,0,-3
1537921882087275,-2,0,-1,0,-4,-1,0,-3
1537921882087275,1,-9,2,-1,3,1,0,1
1537921882087275,-1,-13,-4,-5,0,1,-1,-3
1537921882101238,4,3,-4,-6,-11,-9,-3,-2
1537921882101238,1,6,5,-4,6,7,-1,-1
1537921882102236,2,12,7,1,-2,-2,0,-1
1537921882102236,-3,-1,-1,-5,2,-2,-1,-2
1537921882124177,-2,4,0,-2,-1,-3,-2,1
1537921882124177,-9,-4,3,-2,-3,6,-1,-3
1537921882131158,-5,-3,0,0,0,0,-2,-2
1537921882131158,-2,-2,-2,2,0,-9,3,-2
1537921882147115,-4,-10,-5,1,-12,-3,-5,-1
1537921882147115,-1,2,2,0,-10,-2,-3,-6
1537921882148113,-2,-7,-1,-6,1,-4,-2,-3
1537921882148113,2,-3,-3,-2,3,21,3,3
1537921882161078,7,0,4,-2,2,-2,1,3
1537921882161078,0,-6,0,1,1,-5,-2,-4
1537921882162075,4,-4,-5,-3,-3,11,3,1
1537921882162075,1,3,-3,-2,-3,0,-1,3
1537921882184016,-33,3,5,-1,2,0,1,-1
1537921882184016,-42,1,-5,0,-4,-6,-1,2
1537921882184016,-25,2,3,1,-7,-2,-3,-1
1537921882184016,-8,3,1,3,1,-5,1,-2
1537921882206955,11,-6,-1,-2,-5,3,-2,-5
1537921882206955,17,3,1,1,5,-5,0,-3
1537921882207953,13,-1,0,-3,-18,-10,-2,-3
1537921882207953,10,-8,-1,-1,11,15,2,-2
1537921882220918,12,-8,0,0,-1,-4,-2,-5
1537921882220918,13,-8,-1,-2,-2,3,1,0
1537921882221915,6,-1,-5,1,-3,-5,-2,-2
1537921882221915,3,-4,0,0,4,-2,1,-1
1537921882243857,5,-1,-3,2,1,1,0,0
1537921882243857,10,1,3,-2,3,-2,0,1
1537921882244854,2,-4,-2,-2,4,-2,-2,-1
1537921882244854,0,2,3,-3,-4,-5,-2,-4
1537921882266795,5,3,3,-2,-1,-1,-2,8
1537921882266795,-1,-2,-4,-2,6,1,-4,-11
1537921882267793,1,-1,-3,1,2,-9,3,11
1537921882267793,-5,0,-5,2,-1,2,-2,-11
1537921882280758,-3,-2,-3,1,-1,-1,0,3
1537921882280758,6,2,4,1,7,6,-1,2
1537921882281756,3,2,-2,-3,-4,-1,-3,-3
1537921882281756,2,-4,-1,3,-8,-10,-6,0
1537921882303697,-3,-2,-2,2,10,12,11,-5
1537921882303697,-2,10,-6,-4,-3,-5,-7,2
1537921882304694,-4,-19,-12,0,6,9,0,-5
1537921882304694,-7,-18,-8,-7,-8,-23,-1,2
1537921882326635,0,12,3,0,2,3,1,-5
1537921882326635,-2,-1,0,0,-6,20,9,11
1537921882327633,5,66,18,2,4,-16,1,-12
1537921882327633,-5,-23,-14,-5,-8,0,-11,-3
1537921882341596,-2,-55,-5,-4,3,-2,4,-4
1537921882341596,-2,-5,3,-1,-1,-4,0,2
1537921882341596,4,20,2,2,-4,0,0,8
1537921882341596,-18,-18,-4,-3,0,3,1,-8
1537921882363537,-8,-3,-4,-1,2,-10,-8,-11
1537921882363537,-3,64,7,-1,-6,14,17,-2
1537921882364535,-18,-34,-2,1,3,-9,-25,16
1537921882364535,-33,-18,1,-4,-9,22,10,1
1537921882386476,-17,0,4,-4,-3,4,-4,8
1537921882386476,8,8,1,1,-2,-12,0,-5
1537921882387473,41,126,26,8,4,4,-21,6
1537921882387473,-1,-61,-44,-2,4,-2,22,-28
1537921882401435,-12,-54,-8,-5,-17,-8,-16,1
1537921882401435,-20,33,20,2,-5,-22,-8,4
1537921882401435,-8,-2,-16,-2,7,54,29,1
1537921882401435,3,83,16,1,-5,-26,-35,-2
1537921882423377,-2,0,-3,-5,1,6,44,4
1537921882423377,19,34,-9,3,3,-60,-22,-2
1537921882424374,33,78,34,9,6,29,15,16
1537921882424374,-20,-47,-49,-8,1,5,-5,-1
1537921882447313,-42,64,-3,-4,-5,-5,-2,-4
1537921882447313,-52,-74,-3,-8,2,33,13,-16
1537921882447313,-36,25,-2,2,-6,-34,-3,-6
1537921882447313,31,77,27,10,9,3,4,18
1537921882461275,49,127,13,16,2,-10,-31,23
1537921882461275,-52,-101,-76,-20,-12,-13,-6,-50
1537921882462273,-52,70,4,-9,-5,4,0,-14
1537921882462273,-14,50,19,-2,-3,-25,-2,-1
1537921882483217,-30,-71,-19,-3,11,30,15,-9
1537921882483217,60,119,44,4,4,11,9,28
1537921882484214,36,-69,-35,-11,-7,-5,17,30
1537921882484214,47,117,12,9,7,4,-22,15
1537921882507153,76,76,-6,-19,-8,15,-23,-18
1537921882507153,1,-109,-41,-39,-14,-19,5,-4
1537921882507153,16,31,50,51,27,23,21,-50
1537921882507153,20,41,60,-41,-11,-7,0,58
1537921882520118,11,-6,-69,71,22,20,18,45
1537921882520118,36,50,7,-23,-26,-55,-30,66
1537921882529094,6,-70,48,76,8,1,-47,-11
1537921882529094,-13,21,64,-60,-33,3,37,21
1537921882544054,6,-89,-55,73,47,-17,2,81
1537921882544054,32,45,51,-90,36,109,29,4
1537921882544054,-79,-121,-100,85,-67,-110,59,-58
1537921882544054,47,46,38,71,60,93,-29,-117
1537921882566993,6,7,81,-112,-23,47,-1,61
1537921882566993,-72,-59,-123,79,-67,-118,-116,-61
1537921882567991,64,71,126,-91,3,66,88,69
1537921882567991,53,-38,56,34,-4,-3,-41,90
1537921882580956,1,-29,26,24,18,-39,-31,-125
1537921882580956,-6,34,41,9,19,25,95,82
1537921882588935,25,-10,-27,-120,-28,-47,-113,19
1537921882588935,15,-37,-67,-10,-3,6,86,46
1537921882603895,35,16,101,42,10,44,74,18
1537921882603895,-47,107,52,-18,-9,-43,-41,-31
1537921882603895,-44,94,37,123,54,61,66,36
1537921882603895,-21,32,2,-20,-9,-44,86,-79
1537921882626833,91,36,-2,-55,-20,-66,-118,68
1537921882626833,18,-73,-13,-6,16,113,127,31
1537921882627831,1,-90,-51,-31,-22,-76,-124,-95
1537921882627831,-20,-57,-37,-27,0,9,-16,24
1537921882640796,-17,-34,-33,-11,-14,27,44,7
1537921882640796,44,-20,38,41,26,-4,44,72
1537921882648775,-8,-29,-45,-51,7,-10,-82,-39
1537921882648775,-59,-42,-29,10,-2,42,7,-39
1537921882663734,-66,-2,-3,-13,-2,-86,-30,-58
1537921882663734,-2,29,-1,21,-18,22,-29,-17
1537921882664732,-33,-34,-9,-26,1,22,25,-6
1537921882664732,-17,-6,-13,9,5,-8,-9,6
1537921882687671,-27,27,-1,13,-27,-3,5,-9
1537921882687671,-1,16,3,-3,8,28,-42,-34
1537921882687671,-2,-12,-10,-17,-8,1,44,32
1537921882687671,-11,-6,12,7,-19,-41,-35,13
1537921882700636,-20,18,-4,-18,-5,22,6,-12
1537921882700636,-20,-89,-4,7,3,-8,-5,-29
1537921882708614,-8,-21,-10,-6,-9,-11,11,15
1537921882708614,-10,-7,-17,10,16,-3,-13,8
1537921882723574,-29,54,1,-9,-5,16,10,-22
1537921882723574,0,35,3,2,-9,-12,-8,-9
1537921882724572,11,26,3,1,-2,20,13,19
1537921882724572,-1,10,-1,-5,3,-26,-17,-4
1537921882746513,-7,0,-8,-1,7,2,24,2
1537921882746513,-4,1,3,7,-4,10,-22,1
1537921882747511,0,-8,-7,-13,9,9,5,10
1537921882747511,-18,-4,-9,0,-14,-14,0,-4
1537921882760476,-17,-9,1,-2,-13,-13,-6,-12
1537921882760476,11,9,5,2,31,2,-5,1
1537921882768455,38,-1,-4,-7,-3,11,9,6
1537921882768455,46,-4,-3,-3,3,24,-8,2
1537921882783414,24,6,10,3,0,-8,4,2
1537921882783414,13,4,-2,0,0,4,-2,-5
1537921882784412,-14,-2,-9,-2,-6,-8,11,2
1537921882784412,-4,-11,-1,1,-8,-19,-20,-6
1537921882807351,-4,7,-4,-6,5,13,7,1
1537921882807351,-1,46,19,7,17,9,17,8
1537921882807351,-15,-6,-5,-2,9,9,6,-4
1537921882807351,-8,1,2,5,1,0,-8,6
1537921882829292,-6,-17,-7,-5,-10,-9,-5,-8
1537921882829292,7,-11,-5,-4,-10,-19,-8,-13
1537921882830290,8,-9,-10,2,5,3,3,8
1537921882830290,0,-11,-2,-3,5,7,5,5
1537921882843254,-4,23,14,2,-4,-1,5,-5
1537921882843254,3,-3,-11,-7,-7,-4,-6,2
1537921882844252,5,-11,-4,-11,-1,3,1,7
1537921882844252,2,13,-8,-2,-1,-3,2,-2
1537921882867190,5,-17,-2,1,-1,4,1,-6
1537921882867190,17,14,5,1,-4,-4,-6,-2
1537921882867190,-3,5,2,-1,-3,-1,-2,-1
1537921882867190,-13,-10,0,0,2,-5,3,-2
1537921882889131,-14,7,2,1,4,9,3,4
1537921882889131,-34,5,5,1,-3,-7,-5,-3
1537921882890129,-27,-9,-1,1,-1,1,3,-2
1537921882890129,-19,3,0,3,-2,4,1,2
1537921882904092,-23,-23,-13,0,5,6,-1,-3
1537921882904092,-22,-1,-1,-7,-1,-11,-3,-5
1537921882904092,-20,6,5,1,6,6,3,1
1537921882904092,-2,21,3,-2,0,4,4,0
1537921882927030,13,28,3,-3,-8,-5,-2,-5
1537921882927030,14,-33,-3,-2,-4,-3,-2,-5
1537921882928028,0,7,-6,-1,-6,-4,-1,4
1537921882928028,0,0,1,0,0,0,0,2
1537921882948972,-4,2,-4,1,1,-1,-2,-1
1537921882948972,-12,15,3,1,-2,0,-4,0
1537921882950967,13,-61,0,-2,-4,-4,1,1
1537921882950967,-16,-6,-3,-2,1,-1,2,-1
1537921882962934,-65,10,3,0,-1,0,5,-2
1537921882962934,-72,12,-5,-2,-3,-2,-1,1
1537921882971911,-51,12,-9,-3,2,-1,-1,-1
1537921882971911,-13,-8,-3,-2,0,-7,-1,-2
1537921882986871,29,-3,3,-4,-5,-3,-1,2
1537921882986871,48,-3,1,7,8,10,0,1
1537921882987869,49,10,6,1,0,4,-1,2
1537921882987869,9,-8,0,-2,-2,3,0,0
1537921883009809,6,0,-2,0,0,-2,0,1
1537921883009809,8,-11,-6,1,-5,-8,-2,-1
1537921883010807,17,10,1,-1,-2,-6,-5,-1
1537921883010807,22,1,5,1,0,0,1,0
1537921883022774,26,-20,-2,-2,-4,-2,-2,-1
1537921883022774,38,5,0,-2,-3,3,-4,-3
1537921883031750,4,12,-1,4,4,-3,0,-1
1537921883031750,6,-12,-17,-4,-4,-4,3,-2
1537921883046710,15,-3,-5,-1,-3,-4,-2,1
1537921883046710,27,-16,-9,-3,0,-2,-1,1
1537921883048705,23,3,4,0,-1,0,-3,0
1537921883048705,17,8,4,-2,-2,-1,-1,-2
1537921883069649,11,-8,11,0,1,-5,0,-4
1537921883069649,5,1,-4,0,-5,-3,0,-2
1537921883070647,5,5,-3,-1,-2,2,0,-2
1537921883070647,1,5,0,-2,1,-4,-2,-1
1537921883083612,7,4,-3,-1,0,-3,0,-2
1537921883083612,4,11,7,0,2,0,0,-4
1537921883090593,2,-24,-3,-3,2,-1,0,-2
1537921883090593,9,-3,-5,-2,-2,3,-3,0
1537921883106550,0,-3,-5,-1,1,1,-1,-1
1537921883106550,-3,2,-4,0,4,4,-6,-5
1537921883108545,-2,8,-1,1,0,0,9,3
1537921883108545,-6,-1,7,-4,-4,1,-2,-2
1537921883129489,-3,1,9,1,-2,-5,1,0
1537921883129489,0,-6,-2,-6,-4,-3,0,0
1537921883130487,2,4,19,1,-3,-4,-4,0
1537921883130487,-3,-8,-33,0,4,-15,-8,-2
1537921883144449,5,2,-12,-3,-6,20,3,0
1537921883144449,-5,-27,-12,-1,-2,-6,-2,1
1537921883152428,-5,12,5,1,-3,3,-4,0
1537921883152428,-15,17,28,5,-1,-1,1,-4
1537921883166390,-15,6,-2,-5,-8,-8,-7,-4
1537921883166390,2,6,8,2,2,1,1,2
1537921883168386,-15,15,2,-1,-2,6,3,-1
1537921883168386,-19,-7,3,-2,-4,-1,-2,3
1537921883189329,-19,-37,-18,2,3,-2,-2,-3
1537921883189329,-4,12,8,2,0,2,5,0
1537921883191324,-15,11,-2,-1,1,-7,-5,-2
1537921883191324,3,26,3,3,2,2,0,-3
1537921883203292,-5,-40,-2,-3,-1,-2,-3,-6
1537921883203292,-13,-8,-10,-7,-3,-5,6,1
1537921883212268,17,-2,2,-3,-2,2,-3,-1
1537921883212268,4,-4,3,-3,0,2,3,1
1537921883227228,13,43,7,-1,0,1,-3,2
1537921883227228,3,-7,-4,5,0,-1,-4,-1
1537921883228226,7,68,4,0,-2,6,-2,2
1537921883228226,3,-77,-16,2,-1,-1,3,6
1537921883249169,-25,-71,-4,-5,2,2,12,-10
1537921883249169,-11,-3,1,1,1,-1,2,7
1537921883251164,-10,-19,-10,-6,-3,8,3,0
1537921883251164,-5,41,4,0,-1,-9,-11,-2
1537921883263132,10,47,32,5,1,3,-4,16
1537921883263132,8,-23,-39,-4,0,7,-1,-4
1537921883272108,-15,20,10,-1,-2,-9,7,-6
1537921883272108,7,0,13,0,0,6,-12,2
1537921883287068,7,-21,-4,3,-1,-5,-4,-1
1537921883287068,13,9,5,0,-4,0,-3,-2
1537921883289063,-6,-22,-11,1,-2,-3,3,-1
1537921883289063,-12,6,-13,-5,-2,1,4,-8
1537921883309009,-4,31,16,1,1,2,0,-1
1537921883309009,-9,-36,-4,-3,-3,-7,-2,-3
1537921883311004,3,-19,-9,2,4,-2,-4,-5
1537921883311004,-4,-11,8,2,3,3,4,-2
1537921883322972,4,12,-10,3,4,-2,-3,1
1537921883322972,1,27,16,3,-1,-2,-3,1
1537921883331948,0,-31,-3,2,-1,-7,-3,0
1537921883331948,1,9,2,-2,-4,2,3,-1
1537921883346908,0,14,-14,0,2,1,-4,0
1537921883346908,5,-8,1,-2,-4,-13,4,1
1537921883347906,-13,-8,7,-1,1,7,-8,0
1537921883347906,10,-8,-13,-1,-1,3,5,2
1537921883369847,-3,16,-4,-3,-4,-5,-2,-5
1537921883369847,11,16,7,3,-1,-2,-2,1
1537921883370845,-7,-8,-5,-2,-4,-3,-1,1
1537921883370845,-1,0,12,-1,-3,-2,-3,0
1537921883382812,8,0,-9,3,3,3,-1,-1
1537921883382812,-4,10,-5,-5,-1,2,-2,-7
1537921883391789,9,-4,-9,-6,-3,-5,1,-1
1537921883391789,2,-6,-2,-4,0,1,1,-2
1537921883406749,-4,-11,-1,-1,-3,-6,1,-2
1537921883406749,-5,28,13,5,0,3,-2,0
1537921883408743,10,37,2,2,-1,-3,-2,1
1537921883408743,-6,-17,-5,-4,0,-2,2,-1
1537921883429687,-6,-56,-17,-5,0,-2,-1,-1
1537921883429687,-5,-3,0,0,1,3,2,0
1537921883430685,-1,6,0,-3,-4,0,-1,1
1537921883430685,-2,18,4,3,1,2,0,-1
1537921883442652,0,8,-6,-2,0,-3,-1,0
1537921883442652,-6,1,6,-2,-3,-1,-5,-6
1537921883451628,0,-44,-8,3,-2,1,2,-1
1537921883451628,0,8,-5,1,-2,-2,1,-1
1537921883466588,0,5,-1,-4,-1,-1,-2,-1
1537921883466588,-6,-14,0,2,6,0,0,-1
1537921883468583,3,4,8,-1,1,-2,-2,1
1537921883468583,0,-5,-12,-4,-1,-2,-1,-2
1537921883489527,-1,11,8,-1,-2,0,-1,0
1537921883489527,1,49,12,3,1,1,-1,1
1537921883490524,-1,-28,-8,-1,0,2,-3,-3
1537921883490524,-4,11,-10,-4,-5,-2,0,-1
1537921883502492,-5,0,-8,-8,-9,-6,1,1
1537921883502492,-3,-9,-1,1,-2,-2,-1,0
1537921883519447,1,14,5,0,1,-2,-2,2
1537921883519447,-1,6,6,4,3,3,-4,-3
1537921883526428,0,-2,-2,-2,0,2,-2,0
1537921883526428,-1,10,0,-3,1,1,-1,-3
1537921883528423,0,-15,4,-2,2,1,-1,-2
1537921883528423,-2,-15,3,0,-2,-2,-1,-2
1537921883549366,0,8,3,-2,-1,-1,0,0
1537921883549366,-2,-21,-10,-1,0,-1,1,0
1537921883555351,4,12,3,0,-3,-1,0,-2
1537921883555351,-3,-25,-16,-4,-4,-3,-1,-1
1537921883563329,0,0,-7,5,3,3,-1,-3
1537921883563329,-5,-11,-9,-2,-1,1,-1,0
1537921883572306,1,6,5,-2,-2,-1,-1,-1
1537921883572306,5,25,10,0,-1,0,-1,2
1537921883587265,0,-18,-2,5,-1,2,0,-1
1537921883587265,-3,-28,20,-2,-4,-2,0,0
1537921883588263,-2,4,-36,-8,-1,-5,2,3
1537921883588263,0,-10,-9,-1,-3,-4,-1,1
1537921883609207,-1,17,4,0,3,-4,-1,1
1537921883609207,-2,-7,-6,1,0,-3,1,-2
1537921883611202,2,21,22,4,5,3,-4,-3
1537921883611202,-2,-22,-1,-2,-1,-1,-3,-4
1537921883623170,-2,-16,-7,-5,-4,-2,3,-2
1537921883623170,1,1,4,-3,-3,0,-1,-5
1537921883632146,-2,3,-2,1,-2,0,1,15
1537921883632146,7,10,0,3,3,0,2,4
1537921883647106,-1,3,11,3,0,-1,-1,-6
1537921883647106,-5,27,3,-2,-2,0,0,-1
1537921883648103,5,2,-15,-4,-3,-3,-3,3
1537921883648103,-6,-25,-6,-4,1,0,-1,-12
1537921883669048,-1,15,12,3,2,1,1,6
1537921883669048,-1,-18,-14,0,-4,1,-2,4
1537921883671042,-1,17,8,1,0,0,0,-3
1537921883671042,2,12,10,-2,-5,-3,-5,10
1537921883683010,-1,-5,-2,2,1,-1,-3,-4
1537921883683010,1,7,-1,-2,-1,-3,-6,-1
1537921883691986,-3,-17,-1,0,-2,-1,-2,-2
1537921883691986,-6,-8,-5,1,-3,-1,-4,-1
1537921883706946,-2,-2,-7,-2,-1,1,-2,1
1537921883706946,0,-3,0,0,3,1,-2,-4
1537921883707943,0,-13,-1,-2,3,-1,1,-5
1537921883707943,0,7,6,-2,-1,-2,1,-3
1537921883729884,4,4,0,0,-1,0,0,-3
1537921883729884,0,4,0,1,1,2,0,1
1537921883730883,-3,-10,-4,-1,-1,-2,0,-5
1537921883730883,-2,9,-1,-1,-2,-1,0,-1
1537921883742850,-1,0,-3,-2,-3,-1,0,-3
1537921883742850,2,-10,-8,-4,-3,-2,1,9
1537921883751826,-4,2,-4,-5,-3,-1,-2,-3
1537921883751826,-3,0,-3,-5,1,3,3,0
1537921883766785,0,2,4,9,1,0,0,2
1537921883766785,0,40,15,12,6,0,1,1
1537921883767783,-9,-67,-21,-3,-3,-6,4,-6
1537921883767783,2,12,8,3,6,3,1,0
1537921883789725,5,-24,8,-27,-6,-2,5,9
1537921883789725,8,-3,-14,1,-3,-1,-3,8
1537921883790722,-11,6,28,23,11,2,-3,-19
1537921883790722,0,4,2,-2,-6,-3,-3,-6
1537921883811666,-20,8,-38,2,-6,-3,-1,-11
1537921883811666,-2,-29,-12,-23,-6,-3,3,-4
1537921883813661,14,38,-6,-26,-4,1,0,20
1537921883813661,5,44,33,11,-1,2,1,15
1537921883826626,19,-12,46,6,9,7,7,29
1537921883826626,10,94,37,6,6,1,-14,16
1537921883828621,-26,-66,-96,4,-7,-3,0,-6
1537921883828621,-1,30,-31,-22,-9,-8,-4,-43
1537921883849564,12,99,79,-39,-5,-4,-12,5
1537921883849564,-24,-117,-105,45,10,12,31,-7
1537921883850562,12,16,120,-14,-15,-14,-14,43
1537921883850562,-6,-27,-103,-90,-6,13,43,-22
1537921883871506,-11,12,87,8,-33,-24,-24,76
1537921883871506,6,14,-89,-83,15,5,-2,-81
1537921883873501,11,108,55,84,16,-23,-81,26
1537921883873501,0,-8,14,113,26,7,-6,-39
1537921883886466,7,-26,9,0,45,9,25,24
1537921883886466,31,-28,64,27,37,30,59,64
1537921883893447,-33,31,-105,-51,-8,44,39,6
1537921883893447,71,48,117,-114,-35,-32,-20,17
1537921883909405,-58,-67,-49,97,-8,-44,-27,-56
1537921883909405,-5,21,-67,-14,4,9,2,10
1537921883910402,25,-7,35,-128,-4,26,62,28
1537921883910402,6,44,87,10,-47,-55,23,30
1537921883932343,24,-46,-117,71,51,48,-27,-6
1537921883932343,14,26,127,21,-14,-33,-29,11
1537921883933341,16,-41,-16,-45,-10,31,37,-17
1537921883933341,63,7,-14,81,27,-4,101,88
1537921883954284,-72,-12,-38,-50,-48,-49,-52,-58
1537921883954284,-67,-30,7,2,-22,-22,-16,11
1537921883956279,16,-3,13,-8,13,19,-21,4
1537921883956279,-33,-99,-101,-19,-13,7,-35,68
1537921883969244,12,21,39,-35,10,48,127,43
1537921883969244,27,40,9,14,6,-34,-117,-27
1537921883971239,-13,-9,-3,7,-16,-23,2,-28
1537921883971239,-24,-28,9,-9,10,4,7,-8
1537921883992183,27,30,-52,-76,-15,11,-7,-27
1537921883992183,-12,-29,80,43,11,14,40,42
1537921883993181,3,-13,-14,12,10,-19,-16,-45
1537921883993181,-27,3,-31,23,12,11,-39,-14
1537921884005149,13,7,-33,-47,10,5,-1,-73
1537921884005149,8,25,-12,-34,-21,6,13,1
1537921884014125,3,5,-24,-17,2,-6,-16,-7
1537921884014125,-25,-38,10,53,20,23,25,-3
1537921884028087,0,-24,-13,-12,-1,5,7,-27
1537921884028087,16,-3,-10,-34,-33,-36,-34,-4
1537921884037063,-23,-14,29,49,11,-1,9,-17
1537921884037063,-4,28,-28,-86,-15,15,-13,-6
1537921884052023,13,4,18,-12,-22,-26,-21,22
1537921884052023,5,-9,-2,7,-1,10,15,-7
1537921884053020,-3,9,3,8,6,6,12,-2
1537921884053020,-4,-4,-1,-9,-6,-6,-24,-18
1537921884064988,9,10,19,25,2,-1,-13,16
1537921884064988,-8,-6,-40,-1,3,5,20,-15
1537921884073964,-5,-16,-7,-4,-8,-15,0,13
1537921884073964,-9,-12,16,11,6,0,-20,-20
1537921884088924,1,15,19,18,4,1,2,9
1537921884088924,-7,12,-6,-36,-8,8,13,1
1537921884090919,5,-6,4,17,-1,-11,-6,7
1537921884090919,-2,-2,2,8,6,0,-12,-5
1537921884111863,0,5,2,-8,-3,3,1,7
1537921884111863,-2,-15,-7,-9,-2,-1,4,-16
1537921884112860,6,-6,-2,17,-2,-5,4,8
1537921884112860,-19,-4,3,-3,2,-1,-14,-46
1537921884125825,-3,8,-6,-11,-3,-2,-3,8
1537921884125825,-3,-15,2,-4,2,1,1,-5
1537921884132807,3,7,5,16,5,-1,5,1
1537921884132807,-1,2,-4,-13,-1,3,-2,9
1537921884149762,1,-5,1,-2,-3,-5,-5,8
1537921884149762,0,-4,-1,2,0,3,-1,-5
1537921884150760,-3,17,1,-11,-3,-4,-4,2
1537921884150760,-7,-29,-8,2,2,-1,-3,-1
1537921884171703,2,-19,5,10,0,-1,-5,-2
1537921884171703,-2,5,-1,0,-1,0,6,-1
1537921884173698,-2,6,-9,-3,-6,-5,-1,-6
1537921884173698,0,14,6,-5,0,0,-1,4
1537921884185666,-2,2,0,3,2,1,1,4
1537921884185666,-3,-1,-7,-5,-1,4,2,-2
1537921884194642,-1,-8,4,-1,-4,-2,-4,0
1537921884194642,0,9,1,3,1,0,-1,3
1537921884209602,-3,-4,-3,-5,-2,-1,-2,-2
1537921884209602,-2,-6,12,-4,-1,-2,0,5
1537921884210599,1,1,-19,7,3,0,-4,0
1537921884210599,1,15,3,-7,-3,-2,-2,-4
1537921884231544,4,-9,-3,-4,-2,-3,-1,-2
1537921884231544,1,1,8,0,-1,-1,-1,1
1537921884233538,-3,-7,-3,5,0,-2,1,-4
1537921884233538,1,-6,-5,-4,2,1,-3,-3
1537921884246503,1,8,-8,-3,-6,-1,-3,4
1537921884246503,-4,-1,-2,0,-3,-1,1,-8
1537921884252487,-3,2,8,3,-5,-2,-2,-1
1537921884252487,-1,2,-2,0,0,1,1,0
1537921884269442,0,1,-2,0,-1,0,0,-2
1537921884269442,1,0,13,-2,-1,-2,0,0
1537921884270440,-3,-5,-17,-2,-2,-2,1,-4
1537921884270440,2,-1,0,-1,0,0,0,2
1537921884291383,0,2,3,-2,-2,-3,-1,-1
1537921884291383,-2,5,-3,1,3,0,0,-2
1537921884293378,1,18,23,1,-1,-2,-1,1
1537921884293378,-3,-12,-17,-4,1,0,-1,-1
1537921884305346,-2,1,-8,0,1,-1,1,1
1537921884305346,0,-2,-4,0,-1,0,0,-3
1537921884314322,0,0,-4,1,1,-1,0,-2
1537921884314322,0,9,21,0,-4,-1,-1,2
1537921884329282,-1,2,9,1,0,1,-2,1
1537921884329282,0,3,-23,-4,-1,2,2,1
1537921884331277,-4,-1,5,-1,-2,0,0,-12
1537921884331277,-1,-16,-10,-1,-1,-1,0,2
1537921884352220,-2,0,4,-1,0,-3,0,0
1537921884352220,-4,-7,0,0,-2,-2,1,0
1537921884353218,1,-6,-9,0,2,-1,0,3
1537921884353218,1,4,11,0,-1,0,2,0
1537921884365186,0,4,0,-2,-2,-1,1,-2
1537921884365186,1,-3,-7,-2,0,2,2,-3
1537921884374162,2,-4,-15,0,-2,-2,2,-2
1537921884374162,-1,6,1,-2,-3,0,4,-2
1537921884389122,-1,-4,-2,-7,-5,-1,1,0
1537921884389122,-3,-6,-6,10,3,-1,2,0
1537921884391117,-1,-7,18,-1,-1,0,-1,-1
1537921884391117,-1,4,-4,2,2,0,-1,0
1537921884412061,1,9,22,-2,-2,-2,0,-1
1537921884412061,-2,-9,-36,-7,-1,-2,-3,-2
1537921884413058,-3,-3,-11,-2,-2,0,-6,-1
1537921884413058,-2,-10,-7,1,1,0,-9,1
1537921884425026,1,6,-1,1,1,-2,-9,0
1537921884425026,0,7,32,0,0,0,-9,-1
1537921884434002,2,-3,-13,0,-1,-1,-4,1
1537921884434002,-2,-21,-7,-2,-1,-2,-4,-2
1537921884448962,1,0,-4,1,2,0,-4,0
1537921884448962,-1,-6,5,1,-2,-3,-1,-3
1537921884450957,-1,0,2,-1,-2,-2,-3,-2
1537921884450957,0,5,4,-1,-3,-1,0,-2
1537921884471901,0,3,-5,3,3,1,1,-1
1537921884471901,0,0,5,-1,-1,0,1,1
1537921884472899,-1,2,0,-4,-3,-3,2,0
1537921884472899,1,8,-3,-4,-3,-2,2,1
1537921884485864,-3,-2,-9,3,2,1,4,1
1537921884485864,-2,-14,3,-2,-1,0,4,-2
1537921884494840,-1,-4,-8,1,2,2,4,0
1537921884494840,1,11,6,-1,0,-1,5,-3
1537921884509801,0,1,-8,-2,0,-3,3,-1
1537921884509801,-1,2,2,-1,-2,-2,1,-2
1537921884510797,0,1,7,2,0,1,1,2
1537921884510797,-1,-5,3,0,-2,-1,-3,1
1537921884531740,-2,-12,-16,-4,-4,0,-3,0
1537921884531740,3,25,3,1,-1,1,-5,-1
1537921884533735,-2,-48,-12,-4,-3,-1,-4,-1
1537921884533735,0,5,-4,-2,-1,0,-7,-3
1537921884545703,0,-7,6,1,0,0,-5,-1
1537921884545703,-1,1,-1,-1,0,-1,-4,-1
1537921884554679,0,13,1,-2,-1,-2,-4,1
1537921884554679,-2,-1,7,0,-1,-1,-6,-1
1537921884569639,-1,-4,-2,0,-2,-2,-1,-1
1537921884569639,-1,3,-4,-3,-1,-1,-2,-1
1537921884570637,0,16,19,0,-1,-1,-1,0
1537921884570637,0,-8,-16,2,1,-1,0,0
1537921884591581,-1,3,-2,-2,-3,-2,-2,-1
1537921884591581,-1,-2,-5,0,-1,-1,1,-2
1537921884593575,0,0,3,1,1,0,-1,-2
1537921884593575,0,1,2,-1,-1,0,0,0
1537921884605543,0,-3,-2,0,-2,1,0,-1
1537921884605543,-1,-3,1,-1,-2,-2,1,0
1537921884614520,-3,-3,-6,-2,-1,-2,-3,-3
1537921884614520,-2,6,3,0,2,1,0,-1
1537921884629479,-1,-2,0,0,1,-1,-1,0
1537921884629479,0,3,2,-3,-3,-3,-3,-1
1537921884630477,2,-15,-4,0,2,2,-1,-2
1537921884630477,-1,-5,-5,-1,-2,-2,0,-1
1537921884651421,-3,0,3,-4,-2,0,0,-1
1537921884651421,-3,-4,-1,-2,0,-1,0,1
1537921884653416,0,9,0,-2,-4,-4,-2,-2
1537921884653416,2,1,-2,2,0,0,0,0
1537921884665384,1,-3,-1,0,-2,-2,0,-1
1537921884665384,0,3,4,-1,-1,0,1,-2
1537921884674360,-1,0,-9,0,0,-1,0,0
1537921884674360,-2,-7,2,0,2,0,0,0
1537921884689320,-1,5,-1,-2,-2,-1,-2,-2
1537921884689320,-1,-4,-2,1,0,1,-1,-1
1537921884690317,-1,1,1,-4,-4,0,2,-1
1537921884690317,-1,-1,1,0,-2,-2,0,-1
1537921884712258,-3,-5,-2,1,-1,0,-3,-1
1537921884712258,0,-3,-1,-3,-1,-2,-4,0
1537921884713256,0,4,4,-2,-2,0,-6,0
1537921884713256,-1,-1,-10,-2,-1,-1,-5,-1
1537921884734199,0,0,7,-3,0,0,-2,-1
1537921884734199,-2,-2,-4,-1,0,0,-2,-2
1537921884736195,0,4,3,4,2,3,1,-2
1537921884736195,-1,-2,-1,-4,-5,-1,-2,0
1537921884749159,-1,-6,-8,1,0,1,0,0
1537921884749159,0,-4,-5,-3,-3,-3,-2,-2
1537921884751154,-1,0,1,-1,-1,-1,1,0
1537921884751154,1,1,3,2,2,1,1,-3
1537921884772098,0,2,2,1,1,2,1,-2
1537921884772098,-2,0,-4,-1,-1,0,0,0
1537921884773096,-2,-1,-2,-3,-2,-2,-2,-1
1537921884773096,-1,-4,0,-2,-4,-2,1,0
1537921884794039,0,0,-3,-1,-3,0,-1,-1
1537921884794039,0,7,1,1,0,1,1,0
1537921884796034,-1,-3,-3,1,-2,-1,1,1
1537921884796034,-1,-12,1,1,1,-2,0,-2
1537921884808999,-1,0,0,-1,4,4,2,-1
1537921884808999,-2,-7,-5,-2,-2,-4,-1,-2
1537921884810994,-2,11,5,-1,0,0,2,-4
1537921884810994,-2,5,2,1,1,-2,1,-1
1537921884831938,3,-3,-3,0,0,1,2,0
1537921884831938,0,2,1,3,1,4,1,24
1537921884832936,11,9,-22,-26,0,18,12,8
1537921884832936,14,6,63,-51,-4,11,28,23
1537921884853880,-66,-24,-37,36,-5,-23,-43,-100
1537921884853880,64,16,-16,47,21,51,40,9
1537921884855874,-80,-22,-40,-32,-26,-69,-22,-39
1537921884855874,61,33,14,-40,17,5,-31,-22
1537921884868840,7,0,-26,25,-12,-15,-52,44
1537921884868840,-29,-69,66,88,23,41,83,-33
1537921884875821,40,70,126,42,-1,-57,-102,-6
1537921884875821,-8,-39,-69,125,21,15,62,22
1537921884891779,-16,-9,-47,-50,21,37,50,34
1537921884891779,30,59,72,41,9,-4,-57,33
1537921884892777,54,44,-38,-69,-36,34,35,-8
1537921884892777,-47,-39,-85,-36,-3,-63,5,52
1537921884913722,67,0,30,87,48,17,-43,-6
1537921884913722,-34,-34,29,-92,-8,23,82,80
1537921884921698,31,-16,12,110,13,25,-27,42
1537921884921698,-40,29,13,-94,-62,-4,28,-42
1537921884928680,24,-24,-1,-40,-17,-15,17,15
1537921884928680,19,20,-71,-44,33,25,-60,-54
1537921884935662,-2,-68,-81,-128,-23,-67,23,76
1537921884935662,-10,26,111,49,-10,49,30,41
1537921884951618,-12,9,-92,103,-22,-66,-62,2
1537921884951618,23,36,34,-58,-48,10,48,-5
1537921884953613,1,-32,-39,-94,-18,-14,-13,86
1537921884953613,11,19,-74,124,48,-44,-49,-46
1537921884974557,27,46,101,-21,3,26,70,60
1537921884974557,-40,14,-28,33,-21,-39,-69,-39
1537921884975554,-12,3,-12,-42,53,64,63,-63
1537921884975554,-47,-24,28,62,50,19,-33,4
1537921884987522,-47,-10,-24,-19,-39,8,90,-88
1537921884987522,-35,-39,-64,-54,-27,-79,-5,47
1537921884996498,-2,16,-70,-76,-21,20,12,-43
1537921884996498,31,-11,25,37,11,22,60,9
1537921885011459,-104,-27,15,9,3,-86,-108,-29
1537921885011459,29,13,4,-7,-14,-4,-18,-40
1537921885013453,-27,-11,-21,2,-23,26,41,-45
1537921885013453,11,3,-16,-81,-12,-6,-16,10
1537921885034397,-4,-11,2,-39,-12,45,76,27
1537921885034397,-12,1,-37,-29,0,-8,3,4
1537921885035395,-12,18,48,70,13,-23,-37,-8
1537921885035395,1,-14,4,-33,-10,9,-12,-24
1537921885048360,47,13,-23,0,9,10,5,31
1537921885048360,-11,-12,4,-17,-3,-20,-26,-13
1537921885057336,-12,3,40,64,26,15,-5,-12
1537921885057336,4,5,3,-19,-15,0,-3,6
1537921885071298,5,0,-18,-53,-4,6,-2,5
1537921885071298,-10,-9,-13,7,4,-2,-21,-8
1537921885073294,-2,-7,15,47,8,9,22,4
1537921885073294,-6,-6,-23,-29,-14,-9,-13,-6
1537921885094238,10,-19,20,-26,-1,-3,-11,6
1537921885094238,-8,-12,-6,22,5,12,13,-3
1537921885096232,-4,-13,20,21,10,1,9,3
1537921885096232,-7,16,-12,-10,2,-3,-13,11
1537921885108200,-4,15,12,-8,4,13,-4,-34
1537921885108200,-11,-2,-5,3,-2,-2,11,5
1537921885117177,-8,2,-8,5,1,1,1,2
1537921885117177,8,8,-8,-14,-11,-6,-13,-1
1537921885132136,20,15,13,-5,4,13,13,12
1537921885132136,4,1,-6,2,2,-7,-1,3
1537921885133133,3,2,9,18,5,-6,-4,-5
1537921885133133,1,1,-6,-6,-5,3,-1,-13
1537921885154077,5,1,9,-12,-1,2,5,10
1537921885154077,-14,0,-7,3,4,-4,-3,-7
1537921885156072,-19,-8,5,15,4,3,2,4
1537921885156072,-19,1,-2,-7,-6,-1,0,-7
1537921885168040,-16,0,-5,-14,0,2,2,2
1537921885168040,-6,-7,-5,1,0,-6,-3,6
1537921885177016,15,8,4,12,1,3,6,0
1537921885177016,1,-12,-4,-4,-2,-3,-3,-6
1537921885191976,16,-7,5,-3,-1,-1,-2,2
1537921885191976,18,-6,-1,2,1,2,2,-1
1537921885192973,15,4,6,7,1,0,3,-2
1537921885192973,19,-3,-3,-6,-4,-4,-5,0
1537921885213917,7,4,3,-2,-3,1,0,3
1537921885213917,5,3,-1,4,2,0,-1,-2
1537921885215912,1,-3,-4,1,0,0,0,1
1537921885215912,5,-6,-3,-1,-3,-1,-2,-5
1537921885227880,5,0,2,-3,0,3,4,7
1537921885227880,3,2,-3,1,-1,-1,0,0
1537921885236856,-1,-7,1,5,2,-1,-2,-1
1537921885236856,24,31,1,0,-3,-1,-2,-1
1537921885251816,-19,-11,3,0,1,1,2,0
1537921885251816,38,5,-3,-3,-2,-2,1,2
1537921885252813,-21,-3,-2,2,0,1,1,-3
1537921885252813,-1,-8,1,1,-3,2,0,0
1537921885274754,38,20,-3,-4,-2,0,-2,1
1537921885274754,-6,-18,-5,-1,-3,-3,-3,-5
1537921885275752,16,1,3,0,-1,0,0,1
1537921885275752,-19,-8,-12,-7,-4,-3,-1,-5
1537921885287720,5,6,1,4,5,1,1,1
1537921885287720,-9,11,0,1,0,1,-3,-8
1537921885296696,-7,-1,7,2,-3,-1,-1,1
1537921885296696,-1,-8,3,-2,-2,0,-3,-3
1537921885311656,4,1,-3,-4,-2,-2,-2,-1
1537921885311656,-22,-7,1,1,1,0,3,1
1537921885313651,6,3,-8,-5,-1,-3,-2,0
1537921885313651,-6,-9,-3,-3,-4,0,-4,-5
1537921885334595,-9,-5,5,10,2,1,4,2
1537921885334595,7,5,-4,-1,0,-1,0,4
1537921885335593,-4,6,2,1,-1,-3,-1,-2
1537921885335593,-3,-15,-5,-1,1,-1,0,-1
1537921885347560,1,-2,-1,1,3,2,-3,0
1537921885347560,-6,-2,2,-2,-4,-2,-3,-2
1537921885356536,7,-4,-3,1,0,0,-1,-1
1537921885356536,-11,7,0,1,-1,0,0,-5
1537921885371496,-8,0,1,-4,-3,-2,-2,-1
1537921885371496,3,-1,-11,1,1,-1,-1,-1
1537921885373490,0,-2,7,-4,-3,-1,-2,-1
1537921885373490,-2,0,-6,-1,-1,-2,-1,-1
1537921885394434,-2,-4,-6,-2,1,0,-3,0
1537921885394434,-4,-2,-11,-4,0,-2,0,2
1537921885395432,-1,-2,6,3,-5,-4,-3,-4
1537921885395432,-1,2,-3,2,1,2,1,0
1537921885408397,6,1,2,-1,0,1,-2,0
1537921885408397,-5,1,6,-1,-2,-1,-1,-1
1537921885416376,-2,-5,-7,-2,1,-1,0,0
1537921885416376,4,3,3,-2,-2,-1,-4,-2
1537921885431336,-7,0,-3,-4,-3,-3,1,0
1537921885431336,1,-2,-1,-1,-1,-2,-1,2
1537921885433331,-8,-3,-4,2,-1,0,-1,-3
1537921885433331,1,8,4,0,1,0,1,0
1537921885454275,0,-1,-1,-4,-1,1,3,1
1537921885454275,-1,4,1,-2,-1,-3,4,-1
1537921885455272,-5,-6,-5,0,1,1,2,1
1537921885455272,2,3,2,0,-2,-4,0,-2
1537921885468237,0,2,-6,-3,-2,-1,-1,-2
1537921885468237,-3,-3,3,0,2,1,1,-1
1537921885477214,-1,9,0,-5,0,-1,-2,-1
1537921885477214,-3,-3,-12,-1,2,1,1,0
1537921885492173,-4,-3,3,0,-2,-1,-1,-2
1537921885492173,-5,-8,9,10,1,-1,2,0
1537921885493171,2,3,-10,-2,0,-1,0,2
1537921885493171,3,1,10,2,-2,-1,-1,0
1537921885514115,-2,-4,-1,-2,-2,0,-2,-1
1537921885514115,-1,6,-1,-2,-1,0,-1,-1
1537921885516110,1,0,-4,-3,-4,-2,-3,-1
1537921885516110,0,-3,1,-3,3,1,-2,-2
1537921885528077,1,0,-8,-2,-3,-2,0,0
1537921885528077,1,-3,6,0,-1,0,-1,1
1537921885537054,-2,-4,-1,0,-1,-1,0,0
1537921885537054,1,-2,-1,-3,-5,-3,-3,1
1537921885552014,-2,3,1,-1,1,-2,-1,-3
1537921885552014,2,0,-4,-2,-2,-1,-2,-3
1537921885553011,0,-2,-2,0,-3,-1,0,-1
1537921885553011,1,2,0,-1,-2,0,-1,0
1537921885573954,2,2,3,1,0,1,0,0
1537921885573954,-1,0,-2,-1,0,-3,-1,-2
1537921885575949,-3,-5,5,2,0,-3,-1,-2
1537921885575949,-2,-1,-9,-6,-3,-1,0,-1
1537921885598888,-2,-2,4,3,1,2,-1,0
1537921885598888,-3,-3,-2,-4,-1,-1,-1,-1
1537921885600882,-2,-2,4,1,-1,1,-1,-1
1537921885600882,0,-4,-4,-3,-1,-4,-2,0
1537921885603875,-4,-5,-7,-1,-1,-1,0,-2
1537921885603875,0,1,-4,-1,-4,-2,1,0
1537921885613848,-1,-2,-2,1,0,1,1,-1
1537921885613848,-1,2,1,-4,-3,-1,-3,-1
1537921885614845,-7,0,-3,-4,-3,-3,1,0
1537921885614845,1,-2,-1,-1,-1,-2,-1,2
1537921885615843,-8,-3,-4,2,-1,0,-1,-3
1537921885615843,1,8,4,0,1,0,1,0
1537921885618834,0,-1,-1,-4,-1,1,3,1
1537921885618834,-1,4,1,-2,-1,-3,4,-1
1537921885625816,-6,-4,6,1,1,1,-2,-1
1537921885625816,1,7,-5,-1,0,-1,-1,-1
1537921885636787,1,-9,-4,-3,-1,-2,-1,1
1537921885636787,-1,-1,-1,-1,-2,-2,3,-4
1537921885640776,2,4,2,-1,3,0,3,1
1537921885640776,-2,1,4,0,0,1,1,0
1537921885649752,-1,3,0,-2,-1,-1,3,0
1537921885649752,-1,-2,1,-1,-3,0,1,4
1537921885663715,2,-1,-4,-5,-4,-4,2,-2
1537921885663715,0,-3,-2,2,1,-3,0,-1
1537921885670696,0,-1,2,-1,-1,-2,0,-2
1537921885670696,3,1,1,1,0,0,0,-1
1537921885686654,0,1,0,-1,-5,-4,0,-1
1537921885686654,-3,-2,0,0,-2,-2,-3,0
1537921885688648,-3,-1,-6,-3,-2,-4,-3,-2
1537921885688648,-2,-1,-1,1,2,0,-1,-2
1537921885700616,-1,-2,-2,-1,-2,-1,-4,0
1537921885700616,-2,-4,1,-2,0,0,-3,-1
1537921885709592,-1,-1,2,1,-1,-1,-1,-2
1537921885709592,-2,-1,1,0,0,0,-3,-3
1537921885723555,-3,-3,-1,-1,-2,-3,-5,-4
1537921885723555,0,0,1,0,-2,-1,-4,0
1537921885730536,-1,0,0,1,-1,0,-3,-2
1537921885730536,-2,-2,-2,-2,-2,-1,-5,0
1537921885746493,-4,-1,-5,-3,-1,0,-6,-1
1537921885746493,-1,0,2,-3,-1,-1,-5,-2
1537921885752478,1,-1,-1,-2,-1,2,-7,-1
1537921885752478,-3,-2,1,8,4,0,-5,-4
1537921885760456,-1,2,2,-5,-1,-1,-6,-4
1537921885760456,-3,-4,-1,12,6,4,-2,-2
1537921885769432,-2,-2,-3,-5,-4,-2,-6,-2
1537921885769432,-6,-3,-1,-2,-4,0,-6,-2
1537921885783395,-2,0,0,0,0,0,-5,0
1537921885783395,-1,-2,-4,-7,-2,-2,-2,-2
1537921885790376,-1,0,-3,-3,-3,-3,-1,1
1537921885790376,0,0,1,-2,1,-1,-1,-1
1537921885806333,0,0,-1,-4,-1,-2,-1,0
1537921885806333,-1,0,-2,-3,-2,-1,-2,-1
1537921885813315,-1,-1,0,3,4,2,0,-2
1537921885813315,0,0,-1,-2,-3,-2,-1,1
1537921885820296,-2,-1,-1,1,-1,0,0,0
1537921885820296,-1,-2,0,-1,-3,-1,-2,-3
1537921885829272,-2,0,-1,-4,-3,-2,-4,-1
1537921885829272,-2,0,1,-2,-1,-2,0,-2
1537921885843235,1,-2,3,4,3,2,0,-2
1537921885843235,-1,0,-1,-1,-2,-1,-1,-2
1537921885850216,2,-3,-2,-2,-2,-2,-2,-1
1537921885850216,2,-2,-1,3,1,0,1,5
1537921885866173,-4,-2,-1,-1,-4,-2,-3,-1
1537921885866173,6,1,-1,-2,0,0,3,-1
1537921885873155,-12,5,-58,-74,-21,-5,-1,17
1537921885873155,16,-11,20,-16,-14,0,-5,20
1537921885880136,-13,5,40,-63,-11,10,-4,-32
1537921885880136,19,20,-17,-109,-7,-6,29,9
1537921885889112,-56,-81,82,119,-9,-35,-49,7
1537921885889112,12,8,-57,-103,-21,-15,-19,-22
1537921885903075,-43,16,-60,0,13,42,71,24
1537921885903075,-30,-27,46,98,45,-13,-86,-48
1537921885912051,49,67,-99,74,95,80,119,29
1537921885912051,49,-66,76,57,14,-46,-14,13
1537921885926014,-57,-28,-72,-50,-14,-26,-64,-4
1537921885926014,35,11,11,14,-66,-10,-50,-17
1537921885932996,32,72,-84,-16,21,11,30,11
1537921885932996,-68,-18,77,39,-38,9,35,-41
1537921885948952,35,25,-44,109,58,13,-25,24
1537921885948952,43,-11,-128,-120,-52,-31,28,25
1537921885950947,-18,4,-65,-118,-118,-43,15,3
1537921885950947,-31,2,44,87,44,5,-50,-36
1537921885963913,47,-15,-41,-72,21,19,31,15
1537921885963913,-36,27,19,-31,53,16,-23,-17
1537921885970894,60,-3,-18,-62,-15,-3,-8,-32
1537921885970894,73,36,-40,-63,-13,12,44,60
1537921885987849,1,-15,-55,-59,-70,-21,19,-54
1537921885987849,23,12,100,127,100,55,31,-10
1537921885992835,-1,-15,105,-28,-5,-14,-7,2
1537921885992835,-28,24,-37,-37,-11,3,4,-6
1537921886008792,-6,21,62,3,4,-18,-29,6
1537921886008792,-30,-7,-40,-55,-34,-2,38,28
1537921886010788,-45,-17,-25,-9,-5,-14,-34,-19
1537921886010788,-21,7,94,66,32,11,10,38
1537921886023752,8,-14,-12,-1,20,5,-15,-3
1537921886023752,-36,-26,-16,20,-10,-5,1,5
1537921886030734,-59,-8,53,70,24,1,-10,-9
1537921886030734,-28,1,-88,-55,-17,10,-7,-9
1537921886045694,-35,-21,18,-21,-25,-16,9,2
1537921886045694,-26,-6,23,33,-5,-2,7,6
1537921886060654,22,-7,-8,-19,6,-2,-21,2
1537921886060654,-2,-2,-21,-3,-1,6,12,-5
1537921886069631,25,4,42,-8,-12,-10,-1,-1
1537921886069631,34,21,-6,58,19,-1,2,9
1537921886070628,8,-47,0,-24,-3,6,-4,-2
1537921886070628,12,-4,-29,6,-3,-8,-7,-12
1537921886083592,22,1,33,44,12,14,21,7
1537921886083592,38,11,-25,-55,-27,-23,-13,0
1537921886090574,49,2,4,-15,2,-8,-13,-7
1537921886090574,27,4,-10,1,0,-2,-2,-1
1537921886106531,11,-3,-3,6,2,0,-4,0
1537921886106531,-33,2,-19,-25,-10,0,14,2
1537921886112515,-17,1,15,16,3,1,-4,0
1537921886112515,-4,1,-26,-8,12,3,-8,-3
1537921886129470,-11,3,11,17,-1,-1,6,4
1537921886129470,-22,-18,-3,-15,-8,2,6,0
1537921886130467,-8,13,25,16,7,3,-1,1
1537921886130467,-15,-9,-18,-7,-1,1,-1,-6
1537921886143433,-50,-4,-6,-5,-8,-9,-1,4
1537921886143433,-23,4,7,5,-3,1,4,-2
1537921886150415,-41,-6,-3,1,6,1,-7,-3
1537921886150415,-10,7,-14,-11,0,2,5,1
1537921886166371,13,4,6,11,-2,-2,-5,0
1537921886166371,15,-5,-7,-8,-1,-3,-1,1
1537921886173353,-2,13,5,3,-1,3,1,-4
1537921886173353,-16,-9,-13,-6,-1,-2,-2,-1
1537921886189310,4,-1,8,11,1,-4,-1,-3
1537921886189310,12,-6,-1,-4,-2,2,2,3
1537921886190307,18,-4,-4,-2,2,2,0,-1
1537921886190307,6,6,-8,-1,0,-1,0,-2
1537921886203273,15,3,-2,-1,-7,-6,-6,3
1537921886203273,0,-3,6,-3,-1,3,4,-1
1537921886212249,0,-1,15,4,0,-1,-2,-1
1537921886212249,10,-3,1,-1,1,-1,-2,-3
1537921886227209,12,-2,-2,5,-2,-1,1,0
1537921886227209,13,-4,-7,-7,-4,-2,1,2
1537921886233193,8,-1,1,2,0,-1,-3,-4
1537921886233193,5,8,1,-3,1,0,0,2
1537921886248153,6,-3,1,1,0,-1,-3,-1
1537921886248153,-6,-1,0,0,-3,0,2,1
1537921886249150,6,0,-6,-4,0,2,-4,-2
1537921886249150,7,0,-7,-12,-1,-2,1,-3
1537921886271091,9,4,0,18,4,-1,-1,-1
1537921886271091,-2,-7,-10,-4,-3,-4,1,3
1537921886272089,-3,-3,-7,-5,-4,1,0,2
1537921886272089,6,0,-3,10,-1,-1,-1,6
1537921886295027,11,-17,-2,9,5,2,0,2
1537921886295027,-15,2,-1,-2,1,0,-1,-1
1537921886296025,7,-3,-4,9,-1,-1,-1,-4
1537921886296025,-4,-6,-8,-3,0,-3,-2,-5
1537921886308990,-13,-7,-7,-8,-5,-1,-3,-4
1537921886308990,2,-5,-2,0,-1,0,0,-4
1537921886308990,8,6,-12,-7,0,-1,-2,-1
1537921886308990,1,4,12,-23,-6,-2,-3,-4
1537921886323950,-5,-8,2,25,1,-1,2,2
1537921886323950,0,-5,12,9,1,1,0,-1
1537921886329934,-3,5,-3,1,2,1,1,0
1537921886329934,3,-1,2,2,1,1,2,3
1537921886346889,4,9,-9,-16,-3,-2,0,0
1537921886346889,4,-1,-2,-1,-2,0,-2,-2
1537921886352873,-3,-6,0,-9,-3,-1,-3,0
1537921886352873,-1,-4,-15,-10,-3,-3,-2,-1
1537921886368830,-2,2,14,15,5,1,-1,-6
1537921886368830,-2,0,-4,-1,-2,-3,-2,-1
1537921886368830,-2,-2,4,4,0,-2,-1,0
1537921886368830,-2,-1,-3,-6,-2,0,1,-1
1537921886384787,-2,2,6,-7,0,-1,0,1
1537921886384787,4,1,-8,-8,-1,-1,0,-1
1537921886390771,-2,4,3,3,0,0,0,-1
1537921886390771,-2,2,-5,4,-2,-2,-2,3
1537921886406729,-1,-2,0,-8,-5,-3,3,-3
1537921886406729,-7,1,-3,1,-1,0,-1,-3
1537921886412713,-12,-13,0,-3,-1,1,1,-1
1537921886412713,-7,-1,-1,6,0,-2,-3,-2
1537921886428670,5,6,-16,-19,-1,-2,0,4
1537921886428670,-2,1,23,-7,-3,-5,-2,0
1537921886429668,3,3,-6,23,6,0,2,-1
1537921886429668,-5,1,0,5,0,-1,-2,0
1537921886444628,-3,-1,-4,-2,-1,1,1,-2
1537921886444628,5,0,-3,-12,-3,-1,-2,-3
1537921886450611,-4,-1,-3,-7,-2,0,-3,-2
1537921886450611,4,-2,6,8,1,0,-1,-3
1537921886466569,1,4,4,-8,-5,-2,-1,2
1537921886466569,1,-3,-15,-3,0,1,2,-3
1537921886472553,0,0,9,5,2,0,0,-1
1537921886472553,-5,3,-4,-3,-1,0,-2,0
1537921886496489,0,3,2,1,-2,0,-3,-1
1537921886496489,2,0,-4,2,-1,-2,-2,-1
1537921886496489,-6,-3,-2,-3,1,1,-2,-2
1537921886496489,3,-3,-2,-3,-2,0,0,1
1537921886510452,1,1,0,2,-1,-1,-2,0
1537921886510452,-4,-18,-4,1,-1,0,-2,-1
1537921886518430,3,-2,-2,-4,-4,-3,-2,0
1537921886518430,-6,-5,-7,3,0,-3,0,-4
1537921886533390,9,7,-6,-7,0,-1,0,1
1537921886533390,-1,-2,2,12,3,2,-2,0
1537921886534388,3,3,7,2,-1,-4,0,-2
1537921886534388,-3,-7,2,-3,-3,-2,-1,-1
1537921886556329,-2,-1,-7,3,2,0,-1,0
1537921886556329,-4,-3,-1,0,1,-1,0,3
1537921886556329,-11,0,-5,-6,-3,-3,-2,-2
1537921886556329,5,2,3,2,0,1,-2,-2
1537921886570293,-5,-10,-1,-6,-5,-3,-1,-3
1537921886570293,2,1,-2,-4,0,2,-1,4
1537921886578270,2,-5,1,1,0,1,-1,1
1537921886578270,-1,-1,-4,-7,0,0,2,4
1537921886593230,-4,-3,0,1,-1,-3,-2,-8
1537921886593230,1,5,-3,-2,-3,-2,0,-2
1537921886594228,-2,-2,-1,-3,0,0,0,-2
1537921886594228,3,14,2,1,0,0,0,1
1537921886616169,-3,2,2,7,2,-2,2,3
1537921886616169,-1,-1,-2,-2,-3,-1,0,0
1537921886617166,3,0,-4,-3,-2,-3,-2,-1
1537921886617166,-2,-5,-2,4,4,-1,1,-4
1537921886639108,0,-3,2,1,0,2,-2,0
1537921886639108,-3,-1,-12,-16,-3,-2,-1,-4
1537921886640105,-4,-5,7,14,0,2,1,0
1537921886640105,2,-4,1,-2,-1,0,-2,2
1537921886654067,-1,-4,-12,-11,-4,-3,-2,-2
1537921886654067,9,5,21,26,5,1,1,3
1537921886654067,-6,5,-6,-4,-4,-2,-1,1
1537921886654067,-3,-7,1,9,1,1,-1,-1
1537921886676009,2,3,-4,-8,-1,-2,-2,5
1537921886676009,-4,0,-10,-11,-4,-1,-1,3
1537921886677006,9,6,2,-7,-2,-1,-1,4
1537921886677006,-3,-6,1,6,3,3,-1,-2
1537921886698947,-1,-2,4,-3,1,0,4,4
1537921886698947,-1,0,-1,-5,-1,-4,-1,-7
1537921886699945,1,5,-1,-3,-5,-2,-1,-3
1537921886699945,2,4,-4,-5,0,-2,0,-4
1537921886713907,-3,-4,5,3,-1,0,1,-4
1537921886713907,0,-1,0,0,-2,-4,0,-1
1537921886713907,0,-2,0,-1,2,0,0,1
1537921886713907,2,1,-2,-7,-2,-3,0,-8
1537921886735848,-1,3,3,3,0,0,2,-2
1537921886735848,-2,2,-5,-1,-3,-1,-1,1
1537921886736846,-3,-3,-3,-8,-1,-1,-3,-4
1537921886736846,0,5,-1,1,-1,1,0,4
1537921886758788,1,-12,3,-3,-3,-4,-4,0
1537921886758788,-2,-3,-6,5,3,4,0,-2
1537921886759786,0,-2,-4,5,2,-1,0,2
1537921886759786,-3,2,9,1,-4,-3,-1,-4
1537921886773747,1,6,1,2,-1,2,0,0
1537921886773747,-3,3,-3,-6,-1,-1,1,-1
1537921886773747,2,-2,0,-1,1,0,-1,0
1537921886773747,-4,-8,-7,-3,-2,-2,0,2
1537921886795688,8,3,0,-1,-2,0,-1,-1
1537921886795688,-12,-4,-7,-7,-4,-3,-3,0
1537921886796686,1,1,2,4,1,0,1,-1
1537921886796686,-2,-4,-3,-2,-5,-1,0,-1
1537921886819625,7,-1,-2,5,1,-2,-2,-1
1537921886819625,-12,-9,1,2,-2,-1,1,-3
1537921886819625,5,4,2,-6,-6,-3,-2,-2
1537921886819625,1,-1,-3,-5,1,1,-2,-3
1537921886833587,-4,1,-2,3,0,-1,0,0
1537921886833587,3,8,0,1,1,-2,-3,-2
1537921886834585,-5,-5,-2,-5,-1,-2,-1,1
1537921886834585,0,0,-1,-6,-3,-3,-1,2
1537921886856526,-2,2,0,2,-1,0,-2,0
1537921886856526,6,2,-1,-2,0,-1,1,2
1537921886856526,-2,-7,-6,-2,-3,-1,1,-1
1537921886856526,1,-1,-2,0,3,3,-1,-1
1537921886879465,-2,1,7,-2,-1,-2,0,-3
1537921886879465,4,2,4,-1,0,-1,-2,4
1537921886880462,0,5,-1,-2,2,1,0,0
1537921886880462,-5,5,-4,-2,-1,-2,-1,0
1537921886893428,0,0,-2,0,-1,-2,-3,3
1537921886893428,-2,-2,1,0,0,1,-1,0
1537921886894425,1,-6,-1,-3,-4,-2,0,0
1537921886894425,2,-1,2,1,0,-1,1,-2
1537921886916366,-6,-3,-3,-5,-4,-3,1,-7
1537921886916366,3,-3,-1,3,3,1,1,-3
1537921886916366,-5,3,0,-2,0,-2,-2,-5
1537921886916366,3,-1,0,-2,-2,-4,-3,-2
1537921886939305,-2,2,1,-3,-2,0,0,-2
1537921886939305,2,-1,-2,-3,0,0,0,0
1537921886940303,-2,0,1,2,4,2,0,1
1537921886940303,1,-2,1,-4,-2,-3,-1,2
1537921886953268,6,1,-5,0,-3,1,0,1
1537921886953268,-5,0,1,3,0,1,-1,-5
1537921886954266,1,-2,1,1,0,0,0,-2
1537921886954266,-2,0,3,2,1,0,0,0
1537921886976206,1,3,2,-3,-2,-1,0,0
1537921886976206,4,-3,-2,-6,-4,-3,-2,-3
1537921886977204,1,1,-2,-1,-2,0,-1,-1
1537921886977204,-3,1,0,-1,-2,-1,-1,2
1537921886999145,-3,-2,-1,-1,1,0,-1,-2
1537921886999145,-7,-10,-2,0,1,-1,0,-1
1537921887000143,8,3,-2,0,-1,-2,-1,-2
1537921887000143,3,2,-4,-1,-1,-1,-1,2
1537921887013107,-5,-2,2,2,3,-2,0,-1
1537921887013107,2,2,2,-1,-3,-2,-3,0
1537921887014105,1,-1,-5,-2,-4,-3,-1,2
1537921887014105,-3,-7,5,3,-2,-1,1,1
1537921887036046,-6,-3,-2,-1,-1,-1,-1,-4
1537921887036046,2,4,2,4,2,1,1,0
1537921887037044,-7,-6,-2,-3,1,1,0,-1
1537921887037044,1,1,-3,2,-1,-2,0,0
1537921887058985,-1,-3,-1,-13,0,0,-1,0
1537921887058985,-5,-3,-1,9,0,-2,1,1
1537921887059983,-3,5,3,0,0,0,-2,0
1537921887059983,-5,-10,0,5,1,1,0,-2
1537921887073945,3,4,-1,-4,-3,-3,-1,3
1537921887073945,2,-2,-6,-9,-4,-3,-1,0
1537921887073945,0,-3,1,0,0,0,-1,0
1537921887073945,5,6,0,-4,-2,-2,0,3
1537921887095886,-3,-3,-4,2,-1,1,-1,3
1537921887095886,-6,-5,6,-3,1,0,0,0
1537921887096884,3,1,-5,0,-2,-1,0,1
1537921887096884,-1,2,1,-4,-1,1,-2,-5
1537921887118825,-4,-1,-3,3,-2,1,-2,-4
1537921887118825,0,2,-1,-1,-1,-1,-2,-5
1537921887119823,-2,-2,-1,-2,1,-1,0,-3
1537921887119823,-2,-1,-6,-6,-2,0,0,-3
1537921887133785,-3,-1,4,3,-1,-2,0,-2
1537921887133785,-1,-1,1,-4,-3,-2,-3,-1
1537921887133785,1,-9,-6,-6,-4,-1,-1,3
1537921887133785,-6,-2,3,14,8,3,1,-3
1537921887155726,10,-2,0,-1,0,-2,0,0
1537921887155726,-11,-2,1,-2,1,0,0,-1
1537921887156724,0,2,-5,-7,-5,-2,0,-4
1537921887156724,1,0,-2,-2,3,2,0,6
1537921887179663,0,1,2,3,-2,-1,0,-2
1537921887179663,3,-1,0,0,-1,-3,-2,4
1537921887179663,-5,0,-1,1,-2,-1,0,-1
1537921887179663,-1,3,-2,-6,-4,-1,-2,-1
1537921887193625,1,2,-7,2,0,-2,0,-2
1537921887193625,5,3,-4,-6,-1,0,1,2
1537921887194623,-5,-3,0,0,1,-1,-3,-1
1537921887194623,5,0,1,0,-1,-3,-1,-3
1537921887216564,-2,-5,3,-1,1,1,1,4
1537921887216564,0,2,-1,3,-1,-1,0,-1
1537921887216564,-1,2,0,4,0,0,0,0
1537921887216564,0,-2,-4,-6,-3,-2,-2,-2
1537921887239502,-7,0,0,5,0,-2,-2,-1
1537921887239502,3,-5,-4,-2,0,-1,0,0
1537921887239502,0,-2,6,7,-1,0,0,-3
1537921887239502,0,-4,-9,-6,-6,-3,-2,-1
1537921887252468,1,0,0,-3,1,2,-1,0
1537921887252468,1,1,2,-1,0,0,0,0
1537921887261445,-6,0,-6,-7,0,-1,-2,-2
1537921887261445,-1,-6,2,-1,-3,-1,-2,1
1537921887276404,0,1,-5,-1,-1,0,3,0
1537921887276404,4,6,0,2,-1,0,0,1
1537921887276404,-2,-9,-3,-5,0,1,-2,0
1537921887276404,0,1,-2,2,0,-1,0,-2
1537921887299342,1,-3,-5,-3,-2,-2,-2,-1
1537921887299342,-1,0,-2,1,-1,-1,0,0
1537921887300340,-1,1,5,-1,-3,-1,0,1
1537921887300340,-2,-2,1,-3,-1,-2,-1,0
1537921887313305,-3,-3,0,-3,-2,-2,-2,-2
1537921887313305,1,-3,-1,-4,-2,-2,-1,-1
1537921887321284,1,0,3,-1,-2,-2,-1,-3
1537921887321284,-2,5,-1,1,1,-1,-2,-4
1537921887336244,-3,-1,-1,-2,2,1,0,-3
1537921887336244,-2,-5,-3,-1,-1,-1,-1,-1
1537921887337241,1,-3,1,3,2,0,0,-1
1537921887337241,2,-3,1,0,-5,-2,0,3
1537921887359182,0,-2,0,-1,0,-1,2,1
1537921887359182,-1,-4,-2,-1,0,-1,0,-2
1537921887360180,9,8,-1,2,0,-1,-1,5
1537921887360180,-19,-16,-1,2,0,-1,0,-3
1537921887373145,16,17,2,-2,-2,-1,-4,-3
1537921887373145,-5,-5,-5,-6,-2,-2,0,1
1537921887381124,15,11,-24,-32,-11,-4,-3,-4
1537921887381124,-3,-7,-20,-76,-13,0,1,5
1537921887404062,14,-68,75,77,38,10,3,3
1537921887404062,14,-54,-93,-97,-24,-7,-2,3
1537921887405060,-8,6,103,51,7,-4,-7,-16
1537921887405060,37,-48,-126,-45,-3,-6,-4,2
1537921887419023,14,81,91,-101,-43,-5,-25,-4
1537921887419023,-33,9,41,127,70,33,26,0
1537921887420020,4,-22,13,27,-3,-9,9,16
1537921887420020,11,17,23,-13,2,-1,2,-1
1537921887432985,7,46,-12,-35,-12,-9,7,12
1537921887432985,50,33,-99,-57,-37,-15,-31,-10
1537921887440964,-10,29,78,51,17,14,10,7
1537921887440964,-39,15,-40,-16,-6,-3,8,1
1537921887455924,14,11,20,-6,-7,-10,-8,-2
1537921887455924,-42,-23,-27,14,0,-3,1,-4
1537921887456922,-5,0,-12,14,-8,0,-11,-12
1537921887456922,46,27,127,122,47,12,8,16
1537921887478863,-2,-3,-35,-86,-13,-5,-5,7
1537921887478863,-13,44,14,54,15,2,5,-28
1537921887479860,-30,-84,-51,-80,-23,-9,-14,-16
1537921887479860,-14,1,58,-20,-15,0,-3,-15
1537921887492825,-12,-19,-54,-12,0,6,8,-5
1537921887492825,31,13,77,-20,-12,-5,-1,14
1537921887500804,39,29,-51,-42,-3,4,3,5
1537921887500804,12,11,-19,47,7,1,4,-2
1537921887515764,-13,-16,-24,60,19,2,7,4
1537921887515764,-13,-25,54,-4,-5,-4,0,3
1537921887516762,-21,14,-32,-26,0,-3,6,-5
1537921887516762,11,3,-54,-21,2,2,-4,10
1537921887539700,-47,-21,46,60,2,2,-3,-14
1537921887539700,-13,-7,-13,29,3,-4,2,3
1537921887539700,-11,-9,-70,-57,-20,-6,-7,4
1537921887539700,-2,-16,64,29,-5,0,-6,-3
1537921887561641,13,7,-68,-16,9,2,-1,-2
1537921887561641,-8,-5,28,-29,-5,-2,-3,-1
1537921887562638,-7,7,-14,53,17,3,1,-3
1537921887562638,1,21,-44,-43,-12,-3,-5,-4
1537921887575604,10,21,-50,-27,-7,-1,5,2
1537921887575604,13,0,108,79,18,5,-3,8
1537921887576601,21,37,5,1,2,-1,2,6
1537921887576601,-20,-18,-19,-5,-11,-3,-3,-6
1537921887607518,-32,-64,-17,-17,-14,-5,-1,-10
1537921887607518,-18,13,-34,-26,11,4,-2,-5
1537921887608516,19,0,36,12,4,1,2,6
1537921887608516,-19,-6,-11,16,-1,-4,-1,-12
1537921887621481,18,5,2,27,6,2,-2,1
1537921887621481,12,15,-37,-52,-16,-7,-6,5
1537921887622479,-11,-14,20,51,15,8,2,-4
1537921887622479,2,11,19,3,-3,-4,-3,1
1537921887636441,-13,-16,6,3,-2,0,0,-2
1537921887636441,28,11,-26,-19,-10,-2,-2,0
1537921887636441,-38,14,-26,-29,-3,0,-3,-2
1537921887636441,13,-9,26,22,8,2,-3,3
1537921887659380,8,11,-1,12,2,0,0,0
1537921887659380,17,-7,-37,-30,-8,-4,-2,4
1537921887660378,-6,-44,8,52,8,-1,3,-4
1537921887660378,-7,-14,-35,-49,-12,-4,-4,-3
1537921887681321,-16,-5,-21,22,2,0,-2,-1
1537921887681321,9,1,13,6,1,3,3,1
1537921887682319,6,5,7,-39,-7,-5,-7,-3
1537921887682319,-21,-4,-8,34,6,0,2,-4
1537921887696282,13,5,18,13,3,-3,-1,2
1537921887696282,-1,-28,-27,-19,-14,-5,-4,-1
1537921887696282,21,-1,-3,-3,6,4,0,3
1537921887696282,1,-5,-2,-12,-1,-1,-3,-3
1537921887719220,4,2,-5,-11,-5,-1,-4,-1
1537921887719220,-13,-5,8,1,-4,-2,-4,-1
1537921887720217,1,8,13,-15,-6,-1,-3,1
1537921887720217,8,11,2,0,-1,1,-3,-1
1537921887742158,-6,-9,-5,-3,1,0,0,5
1537921887742158,-16,-11,14,-5,-1,-2,-3,-11
1537921887742158,6,3,-6,11,3,1,0,-3
1537921887742158,-21,-9,2,-4,-1,0,-1,1
1537921887756121,-3,5,6,5,0,0,0,-3
1537921887756121,-8,3,-12,-4,0,0,-2,-3
1537921887757118,-1,20,6,-30,-9,-5,-4,-1
1537921887757118,-2,-15,27,17,3,1,-3,0
1537921887779060,-6,1,5,-4,-2,-2,-2,1
1537921887779060,1,9,3,9,5,0,-1,2
1537921887781055,-1,-6,-17,-13,-6,-5,-1,-2
1537921887781055,11,11,-2,-8,1,3,0,-3
1537921887801998,2,-8,-6,-4,-3,-1,-3,2
1537921887801998,-7,-1,4,-3,1,2,-1,-1
1537921887802996,5,9,5,0,-2,0,-2,-1
1537921887802996,19,-1,-4,-5,-3,-1,-3,-4
1537921887814964,-7,-2,-3,2,2,2,1,-4
1537921887814964,-3,-1,-1,0,-3,-1,-2,-2
1537921887823940,-15,-4,-6,-2,1,0,-4,0
1537921887823940,-7,5,-6,-1,-3,-3,-2,-1
1537921887838900,-1,10,-6,-2,0,1,-4,-2
1537921887838900,-4,-1,2,-1,-4,-2,-2,6
1537921887840895,10,-16,-6,1,-1,-2,-3,-1
1537921887840895,-5,20,-1,-3,-1,0,0,-2
1537921887861839,-3,-12,1,-2,-2,-2,-1,1
1537921887861839,2,0,2,3,1,-1,0,-3
1537921887862836,1,-6,-2,-3,3,4,1,-2
1537921887862836,-5,2,-5,-3,0,-1,2,1
1537921887875802,6,3,-3,-11,-4,-1,1,-3
1537921887875802,2,-7,-5,21,8,5,4,1
1537921887883780,-5,8,5,11,3,-1,2,2
1537921887883780,5,-3,9,-1,1,1,3,1
1537921887899737,1,-3,-1,6,3,1,3,0
1537921887899737,-3,1,-3,-13,-3,-4,1,2
1537921887900735,-4,-6,-10,-5,-5,-1,3,-3
1537921887900735,-1,-8,1,-39,-7,-3,1,0
1537921887921679,-5,-8,11,28,6,0,5,-2
1537921887921679,22,3,11,32,8,3,4,0
1537921887923674,-43,-14,-21,-5,-1,-1,4,-3
1537921887923674,6,5,22,3,-2,-3,-1,2
1537921887935641,-8,-1,-2,-14,-2,-2,1,-1
1537921887935641,-5,-14,-6,-21,-8,-3,-4,-2
1537921887944618,13,-1,8,6,2,1,0,2
1537921887944618,-1,-7,-17,-5,-2,-1,-2,1
1537921887959578,2,2,-2,-6,-3,1,-2,-1
1537921887959578,5,6,4,-1,-3,-1,1,-1
1537921887960576,6,-3,5,-7,-2,0,-2,1
1537921887960576,-7,-4,-7,7,1,1,-2,-4
1537921887981520,9,4,-1,4,0,0,0,1
1537921887981520,-9,1,-2,-7,-2,-1,-1,-3
1537921887983514,11,1,-8,-7,-2,-3,-3,-4
1537921887983514,-1,2,-6,10,-1,0,-2,1
1537921887995483,4,7,-6,1,1,-1,-2,1
1537921887995483,-5,-9,2,-4,4,0,1,-1
1537921888004458,-5,-6,4,0,-1,-2,0,-2
1537921888004458,-8,2,-4,1,-1,-2,0,0
1537921888019418,3,-2,6,-8,-2,-2,-2,-1
1537921888019418,-11,-2,2,-14,-4,-2,-3,-1
1537921888020415,10,10,-44,13,0,1,0,1
1537921888020415,4,-4,37,31,7,1,-1,1
1537921888041359,35,2,-7,-5,0,-1,0,5
1537921888041359,-45,-1,4,-1,1,0,1,-4
1537921888043354,2,4,1,-12,-4,-2,-2,0
1537921888043354,-8,-8,-18,-15,-2,-1,0,-5
1537921888055322,3,1,3,1,-1,-1,0,-4
1537921888055322,8,0,0,1,1,1,1,0
1537921888064298,9,6,9,-7,-2,-1,1,1
1537921888064298,-3,-5,-9,-1,-2,-1,0,0
1537921888079257,-13,-9,6,0,0,1,-1,-2
1537921888079257,10,2,-9,-6,-5,-2,-3,-1
1537921888080255,-6,-1,8,-4,-2,-2,-1,-1
1537921888080255,1,-5,-6,5,-1,-3,-1,0
1537921888102196,-7,-2,-5,1,1,0,-1,-1
1537921888102196,2,6,3,-3,-2,-2,1,0
1537921888103194,2,-2,1,2,0,2,0,-1
1537921888103194,3,6,1,2,-2,-2,1,0
1537921888116159,-20,-13,-15,-12,-5,-1,-3,-1
1537921888116159,16,10,34,5,0,1,-2,0
1537921888124137,-3,-3,-13,15,11,5,1,-2
1537921888124137,4,2,-4,-12,0,-1,1,0
1537921888139098,-12,4,4,16,2,1,-2,-1
1537921888139098,7,9,-13,-13,-6,-2,-2,1
1537921888141093,-1,-20,7,-4,-4,-1,-3,0
1537921888141093,-7,1,-7,0,-4,-3,-1,-2
1537921888162036,0,-5,-4,-12,-3,-1,0,-1
1537921888162036,18,7,0,8,3,2,0,0
1537921888163034,-2,-3,1,-3,-2,-2,1,-3
1537921888163034,-3,2,-4,2,0,-2,-2,-2
1537921888175002,-6,-6,5,-2,-2,-2,0,0
1537921888175002,-3,-5,-4,8,-1,-2,2,3
1537921888183978,-2,1,5,2,-2,-2,-1,-2
1537921888183978,6,3,-1,-3,-1,1,0,-2
1537921888198937,-2,1,-1,4,1,-2,1,-2
1537921888198937,-1,-4,-8,0,-2,-2,-2,-1
1537921888200932,5,8,5,-6,-4,-1,-2,3
1537921888200932,-4,-9,-13,-16,-4,-3,0,-2
1537921888221876,1,-6,8,21,3,-1,2,-3
1537921888221876,-4,-4,-5,1,1,-1,1,-1
1537921888222874,-2,0,6,1,-1,-1,-1,1
1537921888222874,0,3,-1,-2,-2,-1,-2,-2
1537921888235839,1,6,-3,-7,0,2,-2,-5
1537921888235839,-3,-1,-8,-6,-3,-3,-2,-4
1537921888243817,1,1,9,5,0,1,-1,-1
1537921888243817,1,-4,1,1,2,2,0,0
1537921888258777,3,1,-4,-5,-2,0,0,2
1537921888258777,-4,-4,0,0,1,0,-2,-2
1537921888260772,-1,0,-1,-4,-1,0,0,-1
1537921888260772,9,2,1,0,1,0,-1,2
1537921888281716,-16,-4,-2,-4,-1,-2,-1,-2
1537921888281716,-2,5,0,0,-2,-2,-2,-2
1537921888283711,-12,-21,2,-5,-4,-2,-1,-7
1537921888283711,1,-2,-11,8,1,1,1,2
1537921888295679,7,4,-7,-8,-1,0,0,3
1537921888295679,0,-2,13,14,2,-1,-2,-2
1537921888304655,2,7,5,-3,-1,-2,-1,0
1537921888304655,-5,2,13,3,-1,-2,1,-3
1537921888319615,-4,-6,-11,8,4,2,-2,0
1537921888319615,5,4,-7,-3,1,0,0,1
1537921888320613,5,0,-4,-4,-4,-2,-1,0
1537921888320613,-19,-11,0,-5,-4,0,-1,-4
1537921888341556,6,15,2,-4,-2,2,0,2
1537921888341556,10,4,-5,-5,-4,-2,0,2
1537921888343551,-8,-12,-4,4,0,2,-2,-2
1537921888343551,4,-2,-3,-8,-6,-2,-4,0
1537921888355519,-13,1,6,4,3,2,-1,-4
1537921888355519,-2,-4,-3,0,1,0,-1,0
1537921888364495,3,7,1,-3,0,-1,-1,0
1537921888364495,2,0,-1,2,-1,-2,1,0
1537921888379455,6,1,1,-1,-1,-2,-2,-1
1537921888379455,-4,-6,-3,-3,-4,1,-1,-2
1537921888380453,-2,4,-4,0,-1,0,-2,2
1537921888380453,0,-2,2,5,6,3,0,-1
1537921888401397,4,-3,-1,1,-1,-1,1,0
1537921888401397,-6,-4,-1,-8,-1,-1,1,0
1537921888403392,-2,1,-1,-2,0,-1,1,-2
1537921888403392,-2,2,1,0,-2,-1,-2,1
1537921888415359,4,0,-1,-3,-3,-3,-2,2
1537921888415359,-4,-4,-1,-1,1,0,-1,-2
1537921888424335,-5,-1,0,-2,-3,-3,0,-1
1537921888424335,4,3,0,2,3,0,1,-4
1537921888439295,-1,-9,-2,-2,-2,-2,-1,4
1537921888439295,-3,-3,-2,-3,-5,-4,-1,-7
1537921888440293,-1,3,1,2,2,-1,-2,-5
1537921888440293,1,4,-2,-1,-2,1,0,2
1537921888462234,-2,-1,0,-6,-4,-1,-1,0
1537921888462234,-1,-2,0,2,1,1,-1,2
1537921888463231,-2,-2,-1,0,-1,-1,-1,-2
1537921888463231,-1,0,-1,2,-1,0,-3,-1
1537921888475200,1,-2,0,0,0,0,-3,-3
1537921888475200,-1,-1,0,1,1,1,1,0
1537921888484175,0,-1,-1,1,1,0,-1,0
1537921888484175,0,-5,-2,-3,-1,-1,-1,-1
1537921888498138,0,2,-2,-4,-5,-4,-3,-4
1537921888498138,-2,-1,1,4,2,3,1,1
1537921888505119,2,0,-1,-2,-2,-1,-2,2
1537921888505119,0,-2,0,-1,0,0,1,-1
1537921888522074,-4,-4,0,-1,-2,-5,-1,-6
1537921888522074,-1,-1,-1,-4,1,-1,0,-4
1537921888523071,-1,-3,0,-2,2,-1,0,2
1537921888523071,-2,-1,-3,-4,-4,-3,-1,0
1537921888544015,0,1,2,1,1,1,-1,0
1537921888544015,1,-2,-2,1,-4,0,-1,-2
1537921888546010,-1,0,0,3,-1,0,-2,0
1537921888546010,0,-1,-1,1,2,-2,0,-1
1537921888558975,2,-2,1,2,0,2,2,0
1537921888558975,-2,-4,-1,0,1,-2,-2,0
1537921888564959,2,-2,-3,0,-4,-5,2,1
1537921888564959,-1,1,2,-3,-2,0,1,-1
1537921888581914,1,2,4,4,2,1,1,-3
1537921888581914,-1,2,-2,-1,-4,0,-1,-3
1537921888582912,-1,-1,0,0,1,0,0,0
1537921888582912,-3,0,-3,-4,-1,-2,-2,-1
1537921888603855,0,-2,-2,0,2,1,1,4
1537921888603855,-1,-2,-3,-5,-4,-4,-2,1
1537921888605850,1,-1,-1,0,0,-1,1,-2
1537921888605850,-2,0,-1,-2,-2,0,-2,2
1537921888618815,0,1,-2,-3,-1,0,0,1
1537921888618815,4,-1,0,0,-1,-1,0,2
1537921888625797,-5,-6,-1,-1,-2,0,2,-1
1537921888625797,-1,3,0,-1,-4,-1,-2,-2
1537921888641754,1,-6,-1,-3,-2,-4,-1,-2
1537921888641754,9,7,-2,-2,-1,-3,-1,-4
1537921888642752,-12,-12,-1,-2,0,1,-1,6
1537921888642752,1,2,0,-5,-5,-1,1,-14
1537921888663695,-4,9,-52,-71,-22,-4,-7,5
1537921888663695,42,-17,94,12,1,2,-4,3
1537921888665690,-81,-41,-84,-50,-13,0,-4,-32
1537921888665690,49,10,51,-34,-7,17,17,21
1537921888678655,-33,-46,-105,11,-9,-23,-4,-23
1537921888678655,-31,102,80,-75,8,0,-11,0
1537921888685637,-34,19,-72,116,29,-5,-10,-3
1537921888685637,93,-18,102,37,-3,-14,-8,28
1537921888701594,-54,-1,-38,-8,-6,9,7,-7
1537921888701594,7,-7,79,24,6,-4,-9,-4
1537921888703589,96,80,-83,-67,-25,0,7,27
1537921888703589,-48,-38,-100,-77,-10,4,-3,-13
1537921888724533,47,15,127,90,8,2,20,10
1537921888724533,-13,-68,-128,-58,-10,-1,40,6
1537921888725530,60,1,72,45,-13,-12,-73,-15
1537921888725530,-52,-8,-128,-57,-2,-1,-16,-9
1537921888738495,34,-32,69,-15,-1,1,-3,-1
1537921888738495,14,-15,-29,62,-1,-17,37,7
1537921888745476,-22,-39,114,-119,-40,-13,-35,-7
1537921888745476,-51,-49,12,100,52,18,11,-34
1537921888761434,36,-6,-30,34,-8,-7,3,3
1537921888761434,-69,29,-114,-48,20,16,-4,-28
1537921888763428,68,31,109,46,34,16,41,5
1537921888763428,-5,-43,30,2,-12,-8,-10,-4
1537921888783375,44,40,-21,-74,-8,4,-2,13
1537921888783375,2,19,-21,-28,-12,-3,-21,-14
1537921888791354,-39,-3,10,18,17,4,28,7
1537921888791354,-21,3,28,-53,-14,-9,-3,5
1537921888798335,27,47,-11,17,19,5,12,10
1537921888798335,2,-5,84,-48,-31,-20,-46,5
1537921888806314,-55,-11,-53,35,13,-1,5,-23
1537921888806314,12,56,-12,-24,-8,-1,22,-9
1537921888821274,-74,18,28,22,18,4,-33,-11
1537921888821274,-64,-47,15,46,-3,5,-10,-8
1537921888823269,3,-7,-17,-18,2,7,12,17
1537921888823269,33,16,-51,-22,0,-5,10,8
1537921888844212,-50,-32,55,-28,-23,-10,-2,-3
1537921888844212,11,33,-37,104,28,21,13,-7
1537921888845210,24,-1,21,-9,7,-2,10,10
1537921888845210,15,7,4,14,4,-2,-12,7
1537921888858175,-39,-12,35,12,8,8,5,-25
1537921888858175,31,5,-21,-18,0,-5,1,11
1537921888867151,-5,-19,-26,-45,-17,-3,7,1
1537921888867151,5,18,18,33,8,0,-14,-5
1537921888882111,-3,-32,-3,-17,-8,-2,-3,2
1537921888882111,3,-27,7,-8,-9,-6,6,-4
1537921888883109,1,10,-5,-4,-3,-1,-3,-8
1537921888883109,-19,16,21,-9,-3,0,-12,7
1537921888904053,35,-35,-36,4,-3,-7,-2,9
1537921888904053,4,-6,-18,-11,-3,3,5,6
1537921888906048,18,23,8,11,3,0,-11,4
1537921888906048,-4,0,-7,-21,-17,-5,0,-11
1537921888918015,-9,18,-30,-5,10,2,3,1
1537921888918015,4,-1,54,25,6,4,-1,3
1537921888926992,-9,1,27,5,-4,-2,2,0
1537921888926992,3,3,10,19,-5,-3,4,1
1537921888948933,21,23,-7,-21,-3,4,-3,3
1537921888948933,16,-22,-14,-45,-16,-13,-8,-4
1537921888950928,-19,-15,-3,-1,6,1,6,4
1537921888950928,0,12,18,19,0,-4,-2,1
1537921888963893,18,41,-14,-3,2,-1,0,9
1537921888963893,7,2,-19,6,0,0,0,2
1537921888965888,2,1,12,-7,-7,-2,2,-2
1537921888965888,-4,-8,2,11,6,0,1,3
1537921888977856,-15,-6,-7,-2,1,0,-2,-1
1537921888977856,22,23,11,9,2,0,0,5
1537921888986831,-37,-29,-16,-1,0,0,-2,-9
1537921888986831,-11,-7,9,8,3,1,3,1
1537921889001792,13,-1,-9,-3,-1,-3,-4,-4
1537921889001792,-19,-7,-5,-4,-2,-2,-1,0
1537921889002790,10,11,-8,-4,3,3,0,-1
1537921889002790,10,14,1,0,1,-1,-2,3
1537921889023733,3,-2,17,19,4,1,0,-3
1537921889023733,-24,-16,-18,-13,-1,-1,1,-1
1537921889025728,8,12,2,7,-4,-5,-1,-5
1537921889025728,-13,8,4,1,-3,-1,0,4
1537921889037696,11,13,-1,-7,0,0,-2,0
1537921889037696,-7,-4,-7,0,3,3,1,0
1537921889046672,10,-4,-11,-7,-3,-2,0,2
1537921889046672,10,3,7,-2,1,-3,-1,-3
1537921889061632,-8,-12,-9,2,2,-2,-1,0
1537921889061632,23,10,0,1,-2,0,3,3
1537921889063626,-45,-13,-1,-2,0,0,-5,-5
1537921889063626,6,9,0,6,-1,0,-1,-1
1537921889084570,-5,-9,0,-4,-3,-1,-2,0
1537921889084570,-3,-1,-5,-1,-1,-3,-1,-2
1537921889085568,17,-4,-1,4,-2,2,2,2
1537921889085568,-9,-14,0,3,0,0,1,-1
1537921889097536,-4,-8,-4,-8,-5,-3,-4,-4
1537921889097536,4,0,1,0,0,2,0,-1
1537921889106512,13,-4,-4,-2,-2,0,1,1
1537921889106512,-6,-5,-1,0,-2,-1,-2,-7
1537921889121472,12,15,3,-3,3,1,0,3
1537921889121472,-19,1,-2,3,1,-1,-1,-5
1537921889123467,1,9,-1,-2,0,0,1,3
1537921889123467,-9,7,1,0,1,-1,-2,-6
1537921889144410,-20,-13,-1,2,3,8,14,0
1537921889144410,6,0,-2,0,-4,-11,-4,-2
1537921889145408,16,10,0,1,3,0,1,35
1537921889145408,-1,4,0,3,-4,-4,21,-19
1537921889157376,1,1,0,0,-2,-1,-31,-9
1537921889157376,6,-11,-2,0,-1,6,12,-6
1537921889166352,-3,-13,-2,-2,-1,1,8,2
1537921889166352,12,2,-4,-4,-2,-2,-2,1
1537921889181312,8,16,2,0,4,0,7,12
1537921889181312,-37,-26,-4,-1,-1,0,-5,0
1537921889183306,13,11,1,1,-1,-1,-2,-3
1537921889183306,-6,-9,2,3,4,3,-2,1
1537921889204251,-7,3,-2,-4,-3,-5,2,-4
1537921889204251,2,-5,-1,-2,-1,-3,-14,-4
1537921889205248,-7,2,-1,-1,-1,-1,0,-12
1537921889205248,-9,-8,0,0,0,-1,-3,6
1537921889218215,12,33,2,0,-1,-1,-1,0
1537921889218215,12,-4,1,0,-1,-3,4,3
1537921889227189,-4,-8,-1,-8,-4,-3,-2,-3
1537921889227189,4,-3,-5,6,2,-1,-7,1
1537921889242148,-2,-3,-14,-2,1,-4,3,0
1537921889242148,9,15,12,13,3,1,0,5
1537921889243146,-4,-7,2,12,4,-1,-2,-9
1537921889243146,10,7,22,2,-1,1,-6,5
1537921889264090,-10,-17,0,-1,-3,-3,3,-3
1537921889264090,5,4,-5,-5,1,1,0,2
1537921889266085,5,-1,-9,-10,-3,-1,-4,-6
1537921889266085,-3,-3,-5,-4,-3,0,-2,0
1537921889278053,-3,-9,-7,-7,-3,-1,0,-3
1537921889278053,8,9,-4,-5,-3,1,-1,3
1537921889287029,-1,-2,0,-3,-2,-1,-3,-4
1537921889287029,4,-5,-6,-4,-1,-1,3,2
1537921889301989,0,-5,2,-1,-1,0,-1,-5
1537921889301989,0,4,-2,-2,-1,-1,-5,-3
1537921889302986,5,-5,0,3,0,-1,1,1
1537921889302986,-9,5,-2,2,1,0,-2,-1
1537921889323930,0,-16,0,-1,0,-2,1,-1
1537921889323930,-12,-6,0,1,-1,0,2,1
1537921889325925,3,3,-1,-1,-4,-2,-2,-5
1537921889325925,-3,0,-2,-2,-1,-1,2,2
1537921889337893,0,0,2,1,2,-1,-1,0
1537921889337893,-2,-2,-1,-2,-1,-1,0,-1
1537921889346869,-3,2,1,-1,0,1,1,-2
1537921889346869,0,2,-7,-3,-3,-3,-4,1
1537921889360832,-5,-6,3,4,0,-1,-4,-1
1537921889360832,6,4,6,0,-1,-1,-1,0
1537921889367813,-3,-4,-13,2,2,1,1,-1
1537921889367813,2,-1,5,1,-1,-1,-2,-3
1537921889383770,-1,-4,-5,-4,-1,0,-1,0
1537921889383770,1,-1,-2,-1,-3,-2,1,0
1537921889385766,-1,1,3,-1,0,0,-2,-2
1537921889385766,-4,-2,-2,0,1,1,-3,-3
1537921889409702,-3,-1,0,-1,-4,-3,-1,-1
1537921889409702,5,-2,-3,-3,-2,0,-2,-4
1537921889410699,1,-2,1,2,2,1,1,1
1537921889410699,1,-2,-3,-1,0,0,-1,-1
1537921889413691,-1,-2,3,0,-1,-1,3,1
1537921889413691,3,2,-2,-1,1,-2,0,2
1537921889423664,-1,0,-2,-1,-2,-3,0,0
1537921889423664,-2,2,0,1,1,-1,-3,-1
1537921889436629,0,3,0,1,-1,0,-1,1
1537921889436629,-1,-1,-4,-3,-4,-3,-2,-2
1537921889438624,-2,2,2,3,1,0,2,-1
1537921889438624,0,-2,-2,-2,-3,-4,-2,-1
1537921889450592,-2,-1,-1,0,-1,-2,0,-2
1537921889450592,-1,-2,-4,-2,-1,-2,-4,-3
1537921889459568,-4,-1,0,-3,-6,-5,-5,-1
1537921889459568,-1,-1,1,4,1,1,-1,-2
1537921889472533,-2,-2,-1,0,-1,-1,-3,-1
1537921889472533,-1,-1,1,0,-2,0,-4,0
1537921889481509,-1,-1,-1,0,-5,0,-4,-1
1537921889481509,-1,-2,-3,-1,-1,-1,-2,0
1537921889496469,-3,-4,0,-2,-1,-1,-7,-2
1537921889496469,0,2,0,3,3,1,-3,2
1537921889502453,-2,-3,-1,-2,-2,-2,-6,-3
1537921889502453,-1,-1,0,-1,0,-2,-4,-1
1537921889510432,-2,-1,-2,0,-1,0,-3,-3
1537921889510432,-1,-2,-2,-1,-1,-1,-6,-3
1537921889519408,-3,-4,-1,-2,1,0,-4,-1
1537921889519408,-3,-1,-1,-1,-2,0,-8,-2
1537921889532373,-10,-4,-5,-4,-4,-3,22,-1
1537921889532373,-2,-1,0,-1,1,1,-14,3
1537921889541349,0,-2,-1,0,0,0,-5,-3
1537921889541349,-7,-7,-2,0,1,3,-9,-3
1537921889556309,-2,-1,0,-1,1,-2,-2,2
1537921889556309,-2,-2,0,-2,-1,2,1,-1
1537921889563290,-6,-1,2,-3,0,1,-8,-18
1537921889563290,4,1,-2,-4,-2,2,22,27
1537921889570272,1,0,-2,1,1,-1,-19,-5
1537921889570272,-4,-3,-2,0,0,1,5,-3
1537921889579248,0,-3,-2,1,1,4,-8,5
1537921889579248,0,-1,1,-1,1,0,-6,-10
1537921889593211,0,-2,0,1,1,1,0,-2
1537921889593211,-1,0,0,-1,0,-4,-8,-1
1537921889602187,-2,-1,-3,-2,-3,-3,7,0
1537921889602187,-3,-3,-3,-3,-1,-3,-5,-8
1537921889624128,3,0,0,-4,-3,-1,-4,2
1537921889624128,-5,0,0,1,4,2,2,-5
1537921889626123,-2,1,0,-1,-2,-2,1,-1
1537921889626123,-1,1,1,0,-1,-2,1,0
1537921889630112,2,-1,-1,-2,-2,0,-9,2
1537921889630112,1,-2,0,-1,-3,-1,3,-4
1537921889639088,0,-2,-1,-1,0,-2,1,-2
1537921889639088,1,2,1,-1,-1,-1,-6,6
1537921889653051,-1,1,0,-1,-2,-2,1,-7
1537921889653051,0,2,-3,1,1,0,3,2
1537921889662027,0,0,-1,0,0,-3,0,1
1537921889662027,-1,-2,-1,-2,-1,0,-2,-6
1537921889675989,-1,-3,-2,-2,-2,-2,-3,1
1537921889675989,0,-3,-1,-4,-3,-2,1,2
1537921889682971,-3,0,0,-2,0,-1,-3,0
1537921889682971,-3,-1,-1,-1,1,-1,2,2
1537921889698928,-1,0,2,1,1,2,-1,2
1537921889698928,3,-1,-26,-17,-5,-4,-3,0
1537921889700922,3,2,-17,-91,-23,7,10,5
1537921889700922,-8,7,-29,-44,-24,-4,-16,-15
1537921889712890,8,-13,-4,37,28,-4,11,12
1537921889712890,7,29,21,-101,-37,5,3,9
1537921889721867,-20,-24,-84,68,14,-25,-36,-27
1537921889721867,14,43,89,-5,1,-2,2,9
1537921889735829,12,-66,-104,104,17,23,12,-2
1537921889735829,0,31,-29,5,34,8,8,11
1537921889742811,18,0,-42,45,55,23,10,15
1537921889742811,83,-13,5,111,55,6,17,34
1537921889758768,-88,35,69,-59,-13,-9,-7,-40
1537921889758768,-23,-17,85,-2,-24,-9,15,-5
1537921889760763,44,35,-36,-128,-103,-47,-23,2
1537921889760763,-67,-66,-16,41,-25,9,30,-18
1537921889781706,-37,-23,-107,-33,-33,11,14,14
1537921889781706,54,43,18,-81,-48,-40,-66,-5
1537921889782704,-104,-82,45,86,69,4,62,-18
1537921889782704,81,43,0,89,31,34,-8,47
1537921889797664,12,-31,48,-96,32,-22,-61,-43
1537921889797664,35,0,84,127,85,31,20,-1
1537921889802651,106,82,22,-36,6,3,-6,33
1537921889802651,-67,-44,-119,-103,-53,-17,-4,-28
1537921889819605,20,40,117,103,-9,12,26,18
1537921889819605,66,-16,-80,51,-16,-2,-11,5
1537921889820603,-48,-40,-22,75,-12,5,-11,-32
1537921889820603,64,20,122,-23,-2,5,41,22
1537921889832570,70,63,54,-128,-29,-27,-44,12
1537921889832570,-35,38,-89,-76,-16,-12,25,-5
1537921889841547,-28,-13,75,72,13,11,-22,10
1537921889841547,-33,-16,-36,-30,3,-8,-8,-13
1537921889856506,-54,-68,6,-18,-8,-13,0,-10
1537921889856506,-47,-41,7,15,0,3,-1,4
1537921889862490,-51,-8,49,-2,12,13,9,1
1537921889862490,-48,-12,-2,-39,-2,-5,-30,-20
1537921889879445,15,25,1,67,18,7,37,15
1537921889879445,-20,-44,-69,-39,-20,-4,2,-5
1537921889880442,37,43,4,-76,-15,-1,-12,11
1537921889880442,12,40,92,1,11,-2,-4,-21
1537921889892410,10,18,-13,14,-15,6,15,16
1537921889892410,-10,1,-65,-32,-1,-4,-6,-18
1537921889901386,3,-10,47,67,19,9,0,-4
1537921889901386,17,3,-48,-115,-6,-3,-7,6
1537921889916347,6,28,-6,70,11,8,4,-2
1537921889916347,-32,-4,29,-12,6,1,2,2
1537921889922330,51,4,-9,-46,-34,-9,-2,-1
1537921889922330,-35,-45,-51,-1,-7,-12,-1,-13
1537921889939286,8,-7,-39,-53,-16,-3,-2,1
1537921889939286,-22,56,27,61,9,-2,-4,-7
1537921889940283,38,72,41,-35,-2,3,5,1
1537921889940283,15,8,-23,36,-2,-6,-3,2
1537921889953248,-5,-21,11,12,13,7,4,-8
1537921889953248,22,-13,27,-19,-5,-2,-6,4
1537921889962224,-17,-42,-40,-33,-5,-7,-2,-6
1537921889962224,-25,-14,29,7,-1,-5,-6,0
1537921889976187,-23,-91,57,-5,-6,-3,-4,-3
1537921889976187,2,-63,-49,-14,2,0,8,9
1537921889983168,-43,-57,11,4,-5,1,5,3
1537921889983168,-8,-25,-17,17,1,-3,-4,-5
1537921889999125,-1,48,-4,-19,-6,-3,-5,5
1537921889999125,1,21,-48,44,8,6,3,-2
1537921890001120,3,18,-9,6,0,0,4,0
1537921890001120,20,43,-12,-2,-1,-1,2,4
1537921890013088,15,25,10,23,21,5,-7,0
1537921890013088,-2,1,38,11,1,0,1,-6
1537921890022065,19,19,-21,1,-4,-1,-2,5
1537921890022065,-4,7,-6,11,1,-3,0,-7
1537921890036027,4,-9,-38,-32,-14,-3,-1,0
1537921890036027,-5,-10,11,1,1,0,0,-3
1537921890043008,-1,18,26,0,-1,-1,1,1
1537921890043008,-21,10,-2,-7,-1,2,-2,-3
1537921890058966,15,6,-16,0,-1,-4,-2,-4
1537921890058966,0,-31,31,11,6,3,5,1
1537921890060960,6,-12,-14,-1,1,-1,-4,2
1537921890060960,5,-3,2,-6,-2,-4,-7,-4
1537921890072928,10,9,-11,-1,1,-1,2,0
1537921890072928,7,-9,14,7,0,-1,2,0
1537921890081905,19,-6,-14,-15,-10,1,3,0
1537921890081905,-20,-54,-3,0,2,-3,-2,-4
1537921890095867,16,27,1,6,6,6,2,7
1537921890095867,-9,11,12,3,2,1,-1,-1
1537921890102849,-4,29,-11,-1,1,-2,4,-1
1537921890102849,9,40,3,10,-1,-3,-14,0
1537921890118806,-6,27,-6,-2,-5,-3,2,0
1537921890118806,6,26,8,-14,-4,0,-2,-1
1537921890120801,-3,7,-8,7,3,0,0,-1
1537921890120801,-3,14,-1,5,-1,0,2,1
1537921890132768,-13,-9,-13,-13,-5,-4,-2,-4
1537921890132768,-6,-6,6,0,1,-1,-1,-1
1537921890141745,-17,-18,-5,2,1,0,0,-2
1537921890141745,2,-4,-3,-8,-4,-2,0,-1
1537921890155707,-1,-1,-4,-1,1,1,-1,-2
1537921890155707,-5,-6,10,6,4,2,1,0
1537921890162688,-1,4,-4,-4,-3,-1,-1,-1
1537921890162688,5,-12,1,4,3,0,-2,-3
1537921890179643,13,-7,-6,-5,-5,-3,0,6
1537921890179643,-41,-11,1,1,-1,-1,1,-6
1537921890180641,6,-9,-5,-4,-1,0,-3,-3
1537921890180641,6,4,-2,0,-2,2,1,-2
1537921890192608,-10,-3,-4,1,-2,-2,1,2
1537921890192608,14,4,2,-3,-2,-3,-1,2
1537921890201584,-12,-10,-4,-3,-1,-2,-2,-2
1537921890201584,4,2,0,-2,-2,-1,-1,-1
1537921890215547,17,19,2,5,4,1,0,2
1537921890215547,-5,-19,0,0,-3,0,-3,-7
1537921890222528,2,5,-1,-1,-3,-2,0,1
1537921890222528,-5,-3,2,3,2,1,0,2
1537921890239483,-9,-8,-3,-3,-3,-2,-1,-2
1537921890239483,7,3,1,-4,-4,-1,-1,0
1537921890240480,-4,-4,0,1,1,-1,-1,2
1537921890240480,-1,0,-7,0,0,0,1,2
1537921890252448,-7,-9,-3,-2,-3,-3,0,-3
1537921890252448,6,2,0,0,1,-1,-3,-2
1537921890261424,2,-4,0,2,-1,1,0,0
1537921890261424,-1,4,0,-3,-2,-3,-1,-1
1537921890276384,-9,-11,-4,-2,0,-2,-2,-5
1537921890276384,6,-17,-1,-4,-3,-3,0,0
1537921890282368,-2,-16,-1,0,2,1,-1,0
1537921890282368,-2,-15,-3,0,-2,-1,-2,-1
1537921890306304,-3,-13,-1,0,2,1,0,-2
1537921890306304,5,3,-2,-4,-3,-2,0,1
1537921890308299,-5,0,1,-2,-2,0,-1,-2
1537921890308299,-2,9,-7,0,0,-2,-1,-2
1537921890320267,-1,7,-2,-5,-3,-2,-2,-2
1537921890320267,3,12,0,2,2,1,0,1
1537921890329243,-4,1,-2,-2,2,-1,-2,-2
1537921890329243,0,8,-1,0,-2,-2,-1,-2
1537921890343206,-1,-1,-3,-5,-4,-1,-2,0
1537921890343206,2,2,0,2,1,2,-1,0
1537921890350187,-1,3,0,3,4,1,0,-1
1537921890350187,-3,0,2,-1,-1,0,1,0
1537921890367142,-2,-3,-3,-1,-1,-1,0,-2
1537921890367142,1,3,1,-1,-3,-3,0,0
1537921890368139,-1,2,-3,-4,-4,-3,0,-1
1537921890368139,-1,-1,-1,-1,1,1,0,-2
1537921890389083,-4,-4,1,2,2,1,-1,0
1537921890389083,-2,0,-2,-1,-2,-1,-2,2
1537921890391078,0,-2,-4,-3,-1,-2,-1,0
1537921890391078,-1,0,2,-1,0,0,-1,-1
1537921890403046,-2,-3,-1,0,-2,-1,-2,0
1537921890403046,-1,0,0,0,1,-1,1,0
1537921890410027,-1,1,0,0,0,-1,-1,-1
1537921890410027,-1,-1,1,0,-1,-3,1,0
1537921890426982,-2,-1,-2,0,1,0,0,0
1537921890426982,1,1,-2,-1,-2,-3,-2,-1
1537921890427979,0,-3,0,0,-3,1,-1,-2
1537921890427979,1,-1,1,0,1,0,-1,-1
1537921890448923,1,0,0,-1,-1,0,-1,-1
1537921890448923,0,-2,-2,-3,-3,-3,0,0
1537921890450918,-1,-2,-2,2,3,-1,0,0
1537921890450918,0,-4,-2,-1,-3,-3,-2,-2
1537921890463883,0,-2,-1,0,-1,-1,-1,-3
1537921890463883,0,-2,-1,0,-2,-1,0,0
1537921890469867,1,0,1,1,1,3,0,-3
1537921890469867,-1,1,-2,-3,-3,0,0,-1
1537921890486822,1,-2,1,-1,-3,-1,-2,1
1537921890486822,0,-1,0,-2,-2,0,-1,0
1537921890487819,-1,-3,-2,-4,-4,-4,0,-1
1537921890487819,-1,-1,0,0,1,1,0,0
1537921890508763,-2,-3,-3,-1,1,-1,1,1
1537921890508763,0,0,-2,-4,-2,-1,-3,-1
1537921890510758,1,0,0,-2,0,-1,2,7
1537921890510758,0,0,2,1,2,1,1,-12
1537921890523723,-1,-2,-2,-4,-5,-2,-1,-2
1537921890523723,0,0,0,3,4,1,0,-3
1537921890530704,-1,0,-1,0,-3,-2,0,-2
1537921890530704,0,0,-2,-2,-1,-2,-1,2
1537921890546662,0,0,-2,0,-3,-4,-2,-1
1537921890546662,-1,-3,-1,-1,-1,0,1,-1
1537921890547659,-1,-2,-2,0,-1,-1,-1,-2
1537921890547659,0,1,0,1,-1,-1,-1,2
1537921890569600,0,-2,1,2,2,1,1,-2
1537921890569600,-1,0,0,-2,-1,-1,0,0
1537921890570598,0,2,-4,-1,-2,-2,-3,-4
1537921890570598,-3,-1,-2,-2,-1,-1,-3,1
1537921890583563,-1,-1,-3,-3,-1,-2,-2,-1
1537921890583563,-1,-1,0,3,1,0,0,0
1537921890590544,-2,-3,-1,-2,-2,-3,0,1
1537921890590544,-1,-3,0,-2,-2,-1,1,-1
1537921890614480,0,1,2,0,-1,3,1,0
1537921890614480,-1,0,-1,0,-1,-1,-1,-1
1537921890615478,2,-3,-3,-2,-3,-1,-4,-3
1537921890615478,-1,0,0,1,0,0,-3,1
1537921890629440,0,-2,-1,-1,0,-2,-1,0
1537921890629440,-1,0,-1,0,-1,-1,0,-1
1537921890630438,-1,-2,-2,2,-1,-1,-1,-1
1537921890630438,0,2,-2,-4,-2,-4,0,1
1537921890643403,-1,-2,-1,-4,0,1,0,-3
1537921890643403,-2,-2,2,2,3,1,1,-1
1537921890650385,0,-4,-1,-4,-4,-2,-1,-1
1537921890650385,-1,-3,1,3,4,3,-1,-1
1537921890666342,1,0,-2,-1,-3,-2,-2,0
1537921890666342,-1,0,-1,-2,0,-2,-2,2
1537921890668337,0,1,0,-1,-2,0,-1,-2
1537921890668337,0,-1,-1,-1,-3,-1,0,-1
1537921890689281,-2,1,-1,-2,-2,-2,0,-1
1537921890689281,2,-1,-2,-2,-3,1,0,-1
1537921890690278,2,-1,0,-2,-1,-1,-2,1
1537921890690278,2,0,0,0,-3,-1,0,0
1537921890703244,1,0,1,1,3,1,1,-1
1537921890703244,0,-1,-2,-3,-5,-3,-1,-1
1537921890710225,-4,1,0,2,2,0,1,-3
1537921890710225,1,-1,-2,-1,-1,-2,0,-3
1537921890726182,-3,-2,-1,0,-1,-2,-2,-3
1537921890726182,-3,-1,-1,-3,-2,0,-1,-3
1537921890728177,-2,-1,-1,-4,-3,-1,-2,-3
1537921890728177,-2,-1,3,3,3,2,0,0
1537921890749120,-2,-2,-1,0,-1,0,0,-1
1537921890749120,1,0,-1,1,0,-1,-2,0
1537921890751115,-1,-2,-2,-4,-4,-2,-1,1
1537921890751115,0,0,-2,0,-4,-2,-1,-1
1537921890763083,-1,1,1,0,2,0,1,0
1537921890763083,-2,-1,-3,-2,-2,-3,-2,0
1537921890778044,-3,0,-2,-2,0,-2,-2,1
1537921890778044,-3,-2,-1,-1,1,1,0,1
1537921890787019,-6,0,-1,-1,-3,0,-1,1
1537921890787019,-9,-2,2,0,2,-1,0,0
1537921890788017,-4,1,-1,-2,0,-2,1,-1
1537921890788017,-1,-2,-3,-3,-3,-4,0,-2
1537921890808960,2,-2,-2,-1,0,-1,-1,1
1537921890808960,3,1,-1,-2,-1,0,1,-1
1537921890810955,1,-1,0,1,-1,0,0,-1
1537921890810955,-3,-1,-2,-1,-1,-1,-3,-1
1537921890823920,14,-1,-1,-1,-1,-2,0,-1
1537921890823920,9,0,0,1,1,0,-3,-2
1537921890829904,7,-1,1,0,-1,-1,-2,0
1537921890829904,2,0,0,-1,-1,0,0,1
1537921890846859,-4,-2,-2,-2,-2,-1,-2,-1
1537921890846859,-3,-1,-4,-4,-5,-2,-3,-2
1537921890847857,-1,0,0,4,7,5,1,-3
1537921890847857,-3,0,0,-1,0,0,-2,0
1537921890868800,-3,1,0,0,-4,-2,-2,-1
1537921890868800,-1,-1,-1,0,1,0,0,2
1537921890870795,-4,-2,-3,-3,-4,-4,-2,-2
1537921890870795,-2,-1,-2,-3,-2,-2,-1,0
1537921890882763,-3,-1,0,1,2,2,0,-1
1537921890882763,-2,0,1,1,0,1,1,0
1537921890891739,-1,-2,-1,0,-1,-1,2,0
1537921890891739,0,-2,-2,-1,0,0,0,-1
1537921890906699,-1,-2,-3,-6,-3,-1,-2,-1
1537921890906699,-1,-3,1,1,0,-1,1,-1
1537921890907696,0,1,0,1,1,1,1,2
1537921890907696,1,0,-2,0,-3,-2,0,-1
1537921890929638,-1,0,0,-3,-3,-2,0,-1
1537921890929638,-1,-3,-1,1,3,1,1,0
1537921890930635,0,0,-3,-2,-3,-1,-1,1
1537921890930635,-1,1,-3,-2,-2,-3,-1,-1
1537921890942603,-1,1,0,3,1,0,-2,-1
1537921890942603,-1,-1,0,0,-1,-1,-2,0
1537921890951580,-1,1,0,-2,-3,-1,-2,0
1537921890951580,-2,-2,1,-2,-1,-1,0,1
1537921890966539,-1,0,-1,0,-3,-4,0,0
1537921890966539,0,-2,0,-1,-2,-2,0,-4
1537921890968534,-1,0,0,0,0,-1,-1,-1
1537921890968534,-1,-1,0,-1,-3,-1,-1,-1
1537921890989478,0,0,-1,2,4,2,-1,-2
1537921890989478,-2,-1,-3,-2,-4,-2,-1,0
1537921890990476,0,0,-2,-1,-2,-1,-2,-3
1537921890990476,-1,0,-1,-2,-2,-1,-2,-2
1537921891011420,-2,-2,0,1,2,1,0,0
1537921891011420,-2,1,-2,-3,-3,0,-2,-1
1537921891013415,-1,-3,-2,-2,-2,0,-2,-3
1537921891013415,-1,-1,1,1,1,0,2,-2
1537921891026380,-1,0,0,2,0,-1,0,0
1537921891026380,0,0,-1,1,1,1,-4,-1
1537921891028375,1,0,-1,0,-2,-1,1,2
1537921891028375,0,-2,-2,1,2,1,3,1
1537921891049318,-1,-3,0,-2,-4,-4,-7,-10
1537921891049318,-1,-2,-5,-3,-2,-2,-2,0
1537921891050316,0,-1,0,2,1,0,0,-1
1537921891050316,-1,-1,0,0,0,-1,-2,0
1537921891063281,-2,-1,-2,-1,-1,-2,1,3
1537921891063281,0,-1,-1,-1,-1,1,1,-1
1537921891072257,-1,-2,-3,-2,-2,-1,-2,-2
1537921891072257,-1,-2,-1,-2,-1,0,-1,0
1537921891086220,-1,2,-2,-2,-2,-1,2,0
1537921891086220,-1,-2,3,-1,-1,0,0,-2
1537921891087218,-2,-2,1,-1,0,-2,0,1
1537921891087218,-1,0,0,-2,-2,-1,-3,-2
1537921891108160,0,0,-3,-2,-2,-2,-2,1
1537921891108160,-1,1,-2,-1,-2,-2,-1,-1
1537921891109158,-2,0,-1,-2,-1,-1,-2,-2
1537921891109158,-1,-1,0,0,2,0,-2,-3
1537921891131099,1,-1,1,1,1,2,3,0
1537921891131099,-1,-2,-1,-1,-2,-3,-1,2
1537921891132097,0,0,-1,-3,-4,-1,-2,-4
1537921891132097,1,0,-1,1,0,-1,-3,-2
1537921891146059,-2,-4,-1,0,-1,-1,1,0
1537921891146059,0,-1,-2,-1,-1,1,2,0
1537921891147057,-2,0,0,-1,0,0,1,-3
1537921891147057,0,-3,-1,-3,-3,-2,-2,-1
1537921891168001,-1,-1,0,2,2,0,0,0
1537921891168001,-1,-1,-1,-1,-1,0,0,0
1537921891168998,0,-1,0,1,5,3,1,0
1537921891168998,2,-1,-6,-6,-4,-2,-1,1
1537921891190939,-2,0,-3,-11,-3,-2,-1,-2
1537921891190939,-1,1,4,6,1,-2,-1,-2
1537921891191937,0,1,-1,6,1,-1,-2,1
1537921891191937,-1,-1,0,-2,-2,-2,-1,-1
1537921891205899,0,-2,-2,-2,0,-2,0,-1
1537921891205899,1,-2,-1,-5,-2,-1,0,-3
1537921891206897,-1,-1,-1,-3,-1,-1,1,0
1537921891206897,0,-3,-1,-1,-1,0,0,-1
1537921891228839,0,1,-1,-1,-2,-1,-1,-1
1537921891228839,-1,-1,-1,0,1,1,-1,2
1537921891228839,-1,-1,0,-1,-2,0,-1,-2
1537921891228839,-2,0,0,1,1,1,0,-3
1537921891250779,-1,-1,-1,1,0,-1,0,0
1537921891250779,0,-1,-2,-3,-4,-3,-1,-3
1537921891251777,0,-1,-2,-3,-1,0,-3,-1
1537921891251777,0,-1,2,5,7,3,2,0
1537921891265740,1,-1,1,2,2,0,1,-1
1537921891265740,-1,-1,-2,-4,-4,-3,-2,1
1537921891266737,-4,-1,-1,-4,-4,-3,-1,-1
1537921891266737,-3,-1,0,-2,-1,1,-2,-1
1537921891288678,1,0,0,2,0,-1,-2,1
1537921891288678,-1,0,-1,-1,-2,-1,-2,-1
1537921891288678,-1,1,-1,2,1,0,-1,-1
1537921891288678,-2,0,-1,0,-4,-3,-1,-1
1537921891311616,-1,-4,0,-1,0,3,1,0
1537921891311616,0,0,-2,-4,-5,-4,-2,-5
1537921891312614,-1,-3,-1,-1,-2,0,-1,0
1537921891312614,0,0,1,3,5,3,1,-1
1537921891325579,0,0,-3,-1,-5,-3,1,0
1537921891325579,-1,-2,-1,-1,2,-1,2,1
1537921891326577,-1,0,1,-3,-3,-2,-2,-1
1537921891326577,-1,-3,-2,-5,-4,-4,-2,0
1537921891348518,-1,-1,0,0,2,0,-3,-1
1537921891348518,0,0,-1,1,0,1,0,0
1537921891349515,-2,-4,-1,0,1,0,-1,-5
1537921891349515,-2,0,-1,-4,-6,-1,-2,-1
1537921891371457,-3,-1,0,-1,0,1,-2,-3
1537921891371457,-1,0,2,3,4,0,0,-2
1537921891372455,0,0,-1,-1,-2,-3,-1,2
1537921891372455,1,1,0,0,-1,-1,-2,-1
1537921891386417,0,0,-2,-4,-6,-4,-2,0
1537921891386417,-2,-1,-1,0,0,2,-3,-2
1537921891386417,1,1,1,0,2,1,1,-1
1537921891386417,0,-2,-3,-3,-3,-3,2,0
1537921891408359,1,2,1,4,4,1,2,-4
1537921891408359,0,-1,-3,-2,-2,-3,-3,1
1537921891409356,0,-2,-3,-4,-8,-6,-2,0
1537921891409356,-2,-2,-1,3,4,3,-3,-6
1537921891431297,-3,-2,-3,-5,-10,-3,-5,0
1537921891431297,-5,-1,4,5,6,5,5,0
1537921891432295,3,3,2,-7,4,2,4,7
1537921891432295,10,6,2,11,0,-6,-3,16
1537921891446257,-4,-14,-14,-21,-14,-1,-5,-11
1537921891446257,-10,-10,-18,-35,-40,-31,-3,-25
1537921891447255,2,-4,-5,-11,23,6,4,23
1537921891447255,18,33,9,4,22,28,1,-10
1537921891468198,-14,-27,-6,37,-5,-16,-19,-7
1537921891468198,6,25,-23,-92,-50,-17,11,11
1537921891469196,-9,-13,-4,-69,-21,-10,-21,-32
1537921891469196,-6,-22,-14,42,12,61,28,4
1537921891491137,4,2,33,98,32,-73,-33,2
1537921891491137,-14,-21,20,32,64,113,57,30
1537921891492135,23,31,11,42,35,-35,-5,-13
1537921891492135,19,-14,10,76,-1,-64,-66,5
1537921891506097,4,26,13,51,-16,-27,10,11
1537921891506097,14,19,-35,1,-28,-5,19,-35
1537921891507094,-35,-50,-9,-83,-75,-39,-33,4
1537921891507094,-21,-7,-29,-128,-67,41,61,-12
1537921891528038,-9,-2,42,30,-36,-54,-88,-17
1537921891528038,-21,15,12,-32,110,7,-16,2
1537921891529036,6,16,12,102,57,66,31,8
1537921891529036,-5,-7,-1,85,19,-51,-33,-21
1537921891550977,16,17,11,-115,-34,70,40,40
1537921891550977,0,-11,42,13,-7,-18,-3,-5
1537921891551974,4,5,-34,-13,2,-7,-29,2
1537921891551974,-6,-15,9,13,-12,-7,10,-3
1537921891566934,-18,-2,-19,-46,-2,5,16,-24
1537921891566934,-32,6,-49,-54,-61,-42,-6,-20
1537921891567932,-31,-15,29,-27,-8,32,20,15
1537921891567932,16,18,30,73,60,-22,-20,27
1537921891588876,-32,6,-30,-43,36,99,70,-20
1537921891588876,-10,-34,-15,56,-5,-49,-91,-19
1537921891588876,-4,-19,-12,-25,-39,-86,-22,2
1537921891588876,4,5,10,-58,-34,48,24,6
1537921891610817,11,-24,-28,-69,10,27,-9,-14
1537921891610817,32,4,-24,12,-21,-9,8,18
1537921891611815,3,16,47,103,65,20,20,-1
1537921891611815,-10,-3,-1,37,51,22,-20,-8
1537921891625777,20,10,1,63,12,-19,-4,23
1537921891625777,2,-17,8,-26,-58,-9,12,-4
1537921891626775,1,2,-88,-96,-49,-11,-8,-13
1537921891626775,-7,-6,47,20,-4,-11,3,-7
1537921891648716,17,9,5,-14,-26,-3,11,25
1537921891648716,-28,-22,11,-3,22,15,-1,-46
1537921891648716,19,11,-11,1,35,13,6,-2
1537921891648716,-9,1,-10,18,3,-3,15,14
1537921891670658,6,-2,-3,2,-13,-15,7,3
1537921891670658,12,1,13,18,11,3,-9,15
1537921891671655,4,7,11,6,-10,11,11,1
1537921891671655,-1,0,-19,-95,-13,-5,4,-4
1537921891685618,4,3,12,88,32,-8,1,-4
1537921891685618,15,14,-7,-13,-4,2,3,18
1537921891686615,1,0,19,30,-10,15,11,-1
1537921891686615,-6,-4,-23,-33,-19,-22,0,0
1537921891708556,-1,-1,-17,-35,-7,-8,-4,-7
1537921891708556,-3,3,21,28,18,10,8,10
1537921891709553,8,2,17,22,-1,5,3,2
1537921891709553,-6,-6,-12,-13,-9,-17,-5,-9
1537921891732492,-3,-2,-7,-28,2,2,3,-1
1537921891732492,7,3,2,29,4,5,0,8
1537921891733490,-4,-3,3,3,-3,-8,-2,-4
1537921891733490,0,4,-12,-27,-9,-5,2,-3
1537921891745457,-4,-4,-1,10,9,5,1,-3
1537921891745457,3,3,6,13,4,-3,0,9
1537921891746454,-4,-1,-6,-7,-8,0,-2,-6
1537921891746454,-2,4,-3,-4,-6,-2,-2,0
1537921891768396,-3,-2,-5,-9,-7,-5,-4,0
1537921891768396,3,4,14,19,15,5,-1,4
1537921891769394,-2,-1,-4,-9,-4,0,0,0
1537921891769394,0,-1,-2,4,3,0,-2,-3
1537921891791335,1,-1,-3,-8,-1,-5,-4,-1
1537921891791335,3,1,-4,-1,-2,0,-2,6
1537921891792332,-4,-3,1,8,-6,1,1,-2
1537921891792332,-1,2,-4,-11,-7,-4,0,-1
1537921891806294,-2,-3,-2,5,4,2,1,-4
1537921891806294,2,6,2,-8,1,1,-3,0
1537921891806294,6,2,1,14,4,0,0,0
1537921891806294,-3,-1,1,-3,-3,-4,-2,-2
1537921891828236,4,4,-1,-7,4,0,2,-2
1537921891828236,-6,-11,-2,8,1,0,1,0
1537921891829234,5,9,0,-1,-1,-1,1,-3
1537921891829234,-5,-2,-7,-11,-7,-4,-2,-3
1537921891851174,-6,-5,0,5,2,3,-2,-1
1537921891851174,9,0,-1,1,-3,-4,1,0
1537921891852172,-2,-2,-2,-5,-4,-1,-3,-2
1537921891852172,4,-1,1,2,-1,0,1,1
1537921891866134,1,0,2,-3,1,0,1,-1
1537921891866134,3,4,-1,0,-2,-4,-5,4
1537921891867132,-3,-7,0,0,0,3,1,-2
1537921891867132,-1,-1,0,2,-1,0,-1,-1
1537921891890071,-1,0,-2,-3,0,-1,-2,-1
1537921891890071,1,0,-3,-4,-3,-1,-1,-1
1537921891890071,-5,-5,2,3,-1,1,0,-1
1537921891890071,-2,-2,0,0,2,-1,1,2
1537921891912012,2,-2,-2,-2,-3,-2,0,0
1537921891912012,-1,1,-1,0,-2,-1,0,0
1537921891912012,-4,0,-1,2,2,2,1,0
1537921891912012,0,2,-3,-4,-1,0,-1,-2
1537921891924977,-4,-3,-3,-2,-3,-2,0,-1
1537921891924977,-6,1,1,3,4,3,0,-2
1537921891933953,1,-2,0,-3,-5,-2,-2,-1
1537921891933953,6,-1,-3,-2,0,-1,-2,-4
1537921891948913,9,-2,0,1,2,2,1,1
1537921891948913,6,-2,-2,-1,-2,-2,-2,1
1537921891948913,0,1,-2,-2,-1,-2,0,-1
1537921891948913,-1,0,-1,-1,-3,0,0,-1
1537921891971852,-5,0,-2,-4,-3,-2,-1,-1
1537921891971852,1,1,0,2,2,-1,1,0
1537921891971852,-1,-2,-2,-4,-3,-3,-2,-1
1537921891971852,2,-4,-2,-1,-2,-1,-1,-2
1537921891984817,-4,0,1,0,-1,1,1,1
1537921891984817,-4,-1,-1,2,1,0,0,2
1537921891993793,-1,-1,1,1,-1,2,0,0
1537921891993793,-4,0,-2,-2,-2,-3,-2,1
1537921892008753,-3,-1,0,0,2,-1,-2,-1
1537921892008753,-3,-2,1,1,2,0,-1,0
1537921892008753,2,-3,-1,-4,-2,-2,-1,-2
1537921892008753,2,0,-4,-1,-3,-1,-3,-2
1537921892031692,2,-1,-1,2,2,2,1,-1
1537921892031692,3,-1,-2,-1,-5,-3,-1,0
1537921892032690,3,-2,0,-1,3,0,-1,-1
1537921892032690,3,-1,-3,-3,0,-4,-2,-1
1537921892045655,1,0,-1,-4,-5,-4,-2,-1
1537921892045655,0,-2,-1,1,0,0,0,-1
1537921892053634,-3,0,-1,-1,-2,0,1,1
1537921892053634,-3,1,4,1,3,3,2,-2
1537921892068593,2,1,-1,0,-1,-1,0,-1
1537921892068593,7,1,-3,-2,-3,-3,-1,-2
1537921892069591,2,-2,-4,-3,-4,-5,0,0
1537921892069591,2,-1,-1,-3,-1,-4,-1,0
1537921892091532,-18,-5,-3,-4,-4,-1,2,1
1537921892091532,-19,3,3,3,5,0,-2,-2
1537921892092530,-14,-1,0,3,0,1,-2,1
1537921892092530,-2,-1,2,3,1,-2,2,-1
1537921892105495,-5,-11,-23,-20,-18,-13,-5,-6
1537921892105495,2,1,-3,-21,-12,2,-3,-7
1537921892113474,8,6,1,-10,7,0,-4,6
1537921892113474,-3,3,-19,-14,6,2,-5,-12
1537921892128434,11,7,54,-50,-13,8,7,16
1537921892128434,-16,-20,-111,35,-19,-45,-13,-23
1537921892129431,3,12,95,-60,-27,1,-10,-3
1537921892129431,-37,-21,-113,-53,37,6,-15,-27
1537921892151372,43,11,95,105,72,26,-8,8
1537921892151372,-10,10,-57,-96,-10,7,10,3
1537921892152370,-7,-17,32,48,-22,-17,-5,-7
1537921892152370,-13,-32,62,13,-39,-6,33,16
1537921892165335,53,-4,-13,14,38,1,-6,0
1537921892165335,33,43,-8,102,75,32,4,11
1537921892173313,-106,-30,81,81,31,-5,3,5
1537921892173313,-62,21,6,-13,-64,-20,0,14
1537921892188273,-119,-30,53,-65,-107,-31,-16,-34
1537921892188273,-4,12,-16,62,31,30,30,23
1537921892189272,22,33,-128,-128,37,-22,-58,-42
1537921892189272,61,-4,-15,127,72,40,33,24
1537921892211212,47,19,78,-68,-41,-32,-21,-2
1537921892211212,21,-17,-42,72,-68,-17,3,-6
1537921892212209,43,-6,-64,-84,22,12,2,8
1537921892212209,20,7,-51,3,7,-1,-24,-7
1537921892234151,27,7,-128,-53,7,8,5,-6
1537921892234151,0,-19,127,-52,-21,3,-1,7
1537921892235148,14,1,-29,119,8,14,19,2
1537921892235148,16,8,-39,-123,-47,-19,-14,-16
1537921892248113,-17,-36,44,127,37,21,30,0
1537921892248113,-9,-15,-53,-25,19,-1,-9,3
1537921892249112,4,2,-11,28,8,1,17,7
1537921892249112,-19,-1,33,15,0,-5,-10,-16
1537921892272050,-12,3,32,54,24,6,8,10
1537921892272050,-22,-13,-42,-120,-48,-24,-18,-17
1537921892273047,15,2,-67,50,30,23,12,12
1537921892273047,4,0,-123,-101,-11,-7,-9,3
1537921892293991,8,22,-118,27,-12,-6,-8,6
1537921892293991,-13,-29,127,127,19,13,11,-11
1537921892294989,17,8,-71,-80,-2,6,6,9
1537921892294989,0,4,-26,24,-20,-8,-4,-4
1537921892307954,0,-4,39,-44,9,5,9,6
1537921892307954,16,14,-7,-38,15,-3,-9,2
1537921892308951,-4,-8,-31,-46,-57,-15,2,-7
1537921892308951,14,-3,73,43,36,12,2,6
1537921892331889,-3,13,-32,-55,-11,-3,-3,-6
1537921892331889,2,-1,0,-21,0,-4,-3,0
1537921892331889,-5,0,32,-17,-23,-6,0,-10
1537921892331889,11,7,29,10,3,-2,0,8
1537921892353831,-8,-3,-42,-9,-8,0,-4,-3
1537921892353831,-4,4,-40,-43,-7,-5,-3,-2
1537921892354828,1,-6,18,49,0,0,5,8
1537921892354828,-9,6,6,-14,-1,0,2,-5
1537921892368791,-7,4,-30,-5,11,0,-6,-3
1537921892368791,-2,-2,14,9,10,2,0,4
1537921892368791,-5,-3,52,-22,-16,-6,-3,-4
1537921892368791,-6,-8,26,4,7,6,1,2
1537921892399708,-10,-9,-25,14,10,0,1,-2
1537921892399708,4,10,-55,-19,8,2,-1,2
1537921892399708,-1,-6,45,11,-12,-4,0,-1
1537921892399708,1,-3,5,-22,-13,-4,0,-2
1537921892413671,-2,-5,-37,14,2,0,5,1
1537921892413671,1,3,28,-17,0,2,-5,0
1537921892414668,-5,-6,1,-1,-2,2,2,-5
1537921892414668,2,5,22,29,18,4,-1,3
1537921892428631,1,3,-1,-23,-7,-3,0,0
1537921892428631,1,-1,15,12,-8,-5,-3,-3
1537921892428631,-1,2,-6,-12,-14,-3,1,-1
1537921892428631,3,0,25,13,9,-1,-1,4
1537921892451569,0,0,-16,-5,-1,0,0,0
1537921892451569,-4,-1,-10,-11,-2,0,-2,-2
1537921892452567,0,2,5,15,7,2,-1,2
1537921892452567,2,0,-14,1,-4,-2,-1,-4
1537921892474508,-3,-3,7,7,3,1,1,3
1537921892474508,-1,1,-19,3,1,1,-2,3
1537921892474508,-2,0,4,-17,-5,-4,-1,-1
1537921892474508,-2,-1,36,41,4,0,3,0
1537921892488471,-4,3,-8,-21,-4,-2,-4,-3
1537921892488471,1,0,4,2,-1,1,0,1
1537921892489468,0,-1,1,6,2,-2,-2,-1
1537921892489468,-1,-3,-8,-16,-9,-5,-2,-1
1537921892511410,-2,0,1,-11,3,2,1,-4
1537921892511410,-2,2,-55,-5,2,0,-1,-1
1537921892512407,-1,-3,46,20,1,-2,0,-1
1537921892512407,-1,-3,-2,-11,-5,-1,0,-1
1537921892534348,2,-3,-7,11,-1,0,-2,-1
1537921892534348,-2,-2,9,0,3,1,0,-3
1537921892534348,0,-1,-13,3,2,-1,-3,-1
1537921892534348,1,-2,2,-3,-3,-1,-1,-1
1537921892548311,-6,-4,-5,-11,-9,-4,-5,-1
1537921892548311,1,-2,9,-3,-3,-2,-1,1
1537921892549308,3,1,-4,4,1,1,2,1
1537921892549308,1,-1,-6,-3,-3,-3,-2,-3
1537921892571249,0,3,-3,-4,-3,-1,-1,0
1537921892571249,0,2,12,-5,-2,-1,-3,-1
1537921892572247,-2,-3,-8,6,3,2,1,1
1537921892572247,-1,-2,-6,-5,-1,-1,-1,-1
1537921892594188,0,0,4,0,1,-1,0,-2
1537921892594188,0,1,7,-1,-6,-2,-2,0
1537921892595186,-1,-1,-1,0,2,0,0,-2
1537921892595186,1,1,-6,-1,-3,-3,-4,0
1537921892608151,-4,-2,1,1,1,-1,0,-2
1537921892608151,-3,-2,-1,-6,-7,-6,-1,0
1537921892617127,-3,0,-4,5,4,4,0,-3
1537921892617127,-2,0,1,-3,1,-2,2,2
1537921892632087,2,-2,-1,-7,-4,-1,-1,1
1537921892632087,1,1,-4,-2,-4,-1,1,1
