timestamp,emg1,emg2,emg3,emg4,emg5,emg6,emg7,emg8
1537921756736349,-4,-6,-3,-1,-1,0,-1,-3
1537921756736349,0,1,1,-2,0,1,-2,0
1537921756737347,-2,0,-2,-3,-1,2,-2,-1
1537921756737347,-2,-3,-1,-1,2,0,0,-2
1537921756738344,-1,1,1,1,-1,-3,0,4
1537921756738344,-1,1,-3,1,-1,-2,-2,1
1537921756741336,1,-3,-2,-3,-2,2,0,-2
1537921756741336,-3,-4,-3,-8,-1,-1,-4,-3
1537921756748318,1,4,1,2,2,1,0,0
1537921756748318,0,-2,0,2,-2,-1,1,-2
1537921756760286,1,0,-5,-5,0,-2,0,1
1537921756760286,-2,1,1,17,3,0,1,-2
1537921756763278,0,-1,2,-6,-5,-3,-2,-1
1537921756763278,-1,1,-3,-5,1,0,-1,3
1537921756778238,-3,-1,1,1,-1,-1,0,-2
1537921756778238,-1,-1,1,0,1,-2,-1,0
1537921756787214,-2,4,3,-2,1,1,0,-3
1537921756787214,0,0,5,-1,-1,0,1,-2
1537921756795193,-1,-2,-1,-3,-4,-4,-1,1
1537921756795193,2,1,-4,-5,-1,-2,-3,0
1537921756809155,1,0,6,7,-1,-1,-2,-5
1537921756809155,-2,-3,-6,-4,-2,-1,-1,0
1537921756819128,1,-1,-2,-3,1,0,1,1
1537921756819128,0,-4,-4,-5,-2,1,1,1
1537921756857027,1,-1,1,1,0,-2,-2,1
1537921756857027,-3,1,4,0,-2,-1,-1,0
1537921756858025,0,0,0,-1,0,-3,-1,-2
1537921756858025,0,-4,-1,-2,-1,1,0,1
1537921756862014,-2,2,-1,1,-2,0,-1,-7
1537921756862014,0,-3,-4,-2,0,1,0,0
1537921756862014,0,-4,-4,2,0,1,-1,-2
1537921756862014,1,-2,-1,-1,-1,-2,0,0
1537921756868995,2,-1,-4,-2,-1,-1,-6,3
1537921756868995,-1,-3,-4,-1,0,-1,4,-1
1537921756876974,0,3,0,-2,0,3,7,8
1537921756876974,-1,0,1,1,0,-3,-2,1
1537921756883956,-2,-3,0,0,-2,-2,-2,-7
1537921756883956,-1,-3,1,-2,0,0,-4,-3
1537921756898915,3,4,-1,-3,0,0,-3,3
1537921756898915,0,1,-1,-1,0,-3,1,2
1537921756905896,-5,-4,-2,-3,-1,-2,0,-6
1537921756905896,0,4,-1,-1,-1,-2,-1,0
1537921756914873,-3,-2,3,1,0,-3,-1,-8
1537921756914873,1,1,0,-1,0,3,4,5
1537921756928835,-1,2,0,2,-3,-1,-1,-3
1537921756928835,0,1,2,-1,0,1,0,1
1537921756937811,1,0,-2,0,-1,-1,-2,-1
1537921756937811,-2,-1,2,1,0,-4,-4,-7
1537921756943795,1,-2,-1,-4,0,1,3,2
1537921756943795,-3,-2,0,1,0,-1,0,2
1537921756958755,0,1,-1,-2,-3,-1,-3,-1
1537921756958755,-2,0,-1,-1,0,0,-3,-1
1537921756965736,0,-1,3,0,2,0,0,-1
1537921756965736,1,-1,1,-2,-1,-4,-4,-1
1537921756974712,-2,-3,3,0,-2,-1,-3,-3
1537921756974712,1,1,-3,-2,-1,0,1,-1
1537921756988675,-3,2,4,2,1,-3,-5,-8
1537921756988675,5,0,-1,-2,-2,2,1,-1
1537921756997651,0,-1,-1,0,-1,3,3,3
1537921756997651,1,1,-1,-3,-3,0,-2,-1
1537921757003635,-2,1,0,1,0,0,4,7
1537921757003635,0,-2,0,3,-4,-4,-8,-8
1537921757018595,-2,2,-1,-2,-2,-4,1,-3
1537921757018595,-2,1,0,-2,-2,-1,1,1
1537921757025576,0,-1,1,-3,-1,0,-3,4
1537921757025576,-2,-1,0,2,1,1,-2,-2
1537921757040536,0,0,1,-3,-1,1,2,0
1537921757040536,-1,-1,3,1,-1,-4,-5,-3
1537921757048515,1,2,2,-1,1,0,-5,5
1537921757048515,-1,-1,-3,-3,1,2,9,6
1537921757057491,-2,0,3,-1,-1,-3,-9,-4
1537921757057491,-1,-1,0,-3,2,3,-1,-1
1537921757063475,5,1,0,-2,0,1,0,0
1537921757063475,-3,-1,-2,-2,-3,0,-3,0
1537921757078436,-3,-1,-1,-2,-1,-2,0,2
1537921757078436,-3,1,1,-1,-3,-1,-1,-6
1537921757086414,-3,-3,0,-1,-1,-4,-4,-1
1537921757086414,-3,1,0,-2,2,2,2,0
1537921757101374,-3,-4,0,0,0,-1,-1,-7
1537921757101374,-2,0,1,1,-1,-2,-4,2
1537921757108355,-2,-1,-1,-3,-4,0,-1,-3
1537921757108355,1,-1,0,1,-1,0,1,1
1537921757117331,0,0,0,2,0,0,-3,3
1537921757117331,-4,-3,0,-1,0,0,0,-5
1537921757123315,1,2,-1,-2,3,1,5,9
1537921757123315,-4,1,2,-1,-3,-1,0,-3
1537921757138275,-1,1,-1,-3,-2,-1,0,-3
1537921757138275,-1,-3,-1,0,-6,-3,-2,1
1537921757146254,1,2,0,-1,-2,-2,1,-5
1537921757146254,-3,-1,-1,0,1,-6,-7,-6
1537921757161214,1,1,-4,-1,0,1,1,6
1537921757161214,5,9,3,3,7,7,12,11
1537921757168195,-8,-4,4,-1,-1,1,-5,-10
1537921757168195,0,0,0,-1,0,-3,-4,-1
1537921757177171,-4,0,1,-1,0,-5,-1,-10
1537921757177171,5,2,2,1,2,4,-4,-2
1537921757183155,0,-1,-2,-1,0,2,4,2
1537921757183155,-1,1,-1,0,-2,3,2,6
1537921757198115,-7,-5,0,2,2,2,-3,-6
1537921757198115,-4,-4,-2,-3,-5,-1,5,1
1537921757206094,1,-2,-1,3,-2,0,-5,-3
1537921757206094,-1,-3,0,-1,-5,-4,-2,-9
1537921757221053,-2,1,-3,0,2,6,9,1
1537921757221053,5,-2,2,-2,-1,0,-2,5
1537921757229033,-4,-3,-2,0,-1,-7,-4,-5
1537921757229033,0,1,-3,-2,1,-2,-1,1
1537921757237011,0,-6,1,0,-2,-3,-6,-5
1537921757237011,-4,-2,1,-1,-2,-1,2,-4
1537921757243993,2,0,-1,-2,-1,0,4,9
1537921757243993,3,4,6,2,2,3,1,-4
1537921757258952,-3,0,3,-2,-2,-4,-3,-1
1537921757258952,-3,0,-1,-3,-2,-4,-7,-7
1537921757265934,1,-1,-6,-2,-3,-4,-2,5
1537921757265934,-2,3,2,1,2,3,0,0
1537921757280894,1,-1,-1,0,-1,0,1,4
1537921757280894,2,0,3,3,2,0,0,4
1537921757288872,-6,-1,1,1,-3,0,-4,-10
1537921757288872,2,-4,-4,-4,-1,-4,-3,3
1537921757297848,3,0,-1,-3,-1,0,-1,0
1537921757297848,-1,4,0,-3,0,0,-3,3
1537921757311811,0,3,0,-1,4,3,5,1
1537921757311811,-3,-2,-2,-1,-4,-1,2,-4
1537921757318792,9,7,1,-1,-1,-3,3,15
1537921757318792,-5,-5,-3,4,2,-1,-2,-12
1537921757325774,2,2,3,0,-1,0,2,-1
1537921757325774,-5,-4,-1,-5,-2,2,-1,-2
1537921757340733,0,-6,-2,-1,2,-1,0,1
1537921757340733,-3,-4,-1,-5,-5,-5,-3,-4
1537921757348224,-4,-2,-1,-1,1,3,3,-4
1537921757348224,2,-2,2,2,-3,-5,-8,-3
1537921757357194,-3,-1,-3,-5,-3,2,4,0
1537921757357194,2,4,3,0,2,-6,-6,-3
1537921757372155,-3,-4,-1,-2,-2,3,4,-8
1537921757372155,4,4,1,2,1,-1,2,9
1537921757378139,0,3,2,-1,-1,-3,1,-3
1537921757378139,-5,0,-8,-1,-2,-2,-5,-5
1537921757386118,-1,-4,0,-2,-1,-5,-2,2
1537921757386118,1,2,2,0,-1,-2,2,-1
1537921757401078,1,0,-1,-1,-5,0,-8,-2
1537921757401078,-3,-2,-2,-1,-4,-5,3,-1
1537921757409056,3,0,0,-2,1,3,0,5
1537921757409056,2,-4,-1,-2,2,1,4,6
1537921757417035,-8,0,3,1,1,-3,-6,-13
1537921757417035,-3,0,1,-2,-1,0,0,1
1537921757431995,6,1,-2,0,1,0,-1,2
1537921757431995,-5,-2,-1,1,2,5,3,4
1537921757438976,0,-4,-1,-2,1,3,-1,1
1537921757438976,-1,-1,0,-2,-2,1,4,4
1537921757445958,1,0,1,0,-4,-2,-2,-2
1537921757445958,0,0,-3,-2,-4,-4,-5,-3
1537921757460917,-3,-2,-3,0,-3,-3,-5,-3
1537921757460917,2,0,-2,0,2,6,9,1
1537921757468896,3,0,2,2,-1,-2,0,8
1537921757468896,-4,-3,-2,-3,-5,-6,-3,-11
1537921757477872,0,1,-1,1,1,4,4,4
1537921757477872,3,-3,3,-1,-2,1,0,-3
1537921757491835,0,1,0,0,2,-1,-7,-2
1537921757491835,-3,-3,0,-4,-3,-4,-2,-7
1537921757498816,-2,0,-1,1,0,-2,-5,-3
1537921757498816,-3,-2,-3,1,-2,-6,-8,-5
1537921757505798,-2,0,-2,-1,-2,-1,-1,-5
1537921757505798,1,1,2,2,3,6,5,3
1537921757520757,-1,-5,2,-2,-1,-2,-4,0
1537921757520757,-2,-1,0,-1,-2,3,0,-1
1537921757528736,0,-3,2,-1,-2,-4,-4,-1
1537921757528736,-1,0,-2,0,-4,-2,-6,-8
1537921757537712,4,3,-2,0,1,5,6,4
1537921757537712,-1,-1,2,-2,3,4,-3,0
1537921757551675,-5,-3,-1,1,0,1,6,1
1537921757551675,1,-3,3,0,3,0,-3,5
1537921757558656,-1,1,0,-2,-4,-4,-4,0
1537921757558656,-2,0,-2,-1,-2,-6,-6,2
1537921757565637,-4,-2,-3,-2,-3,-2,-1,-2
1537921757565637,-1,3,2,0,3,7,7,3
1537921757580598,0,-1,1,2,-1,-3,-2,1
1537921757580598,0,-1,0,0,1,1,-3,-4
1537921757588576,1,-1,0,-1,-2,-1,3,6
1537921757588576,2,2,-2,-2,-3,-3,-7,-1
1537921757597553,-2,-3,0,-1,0,-6,0,-6
1537921757597553,-1,-2,-1,-3,-4,-1,-2,-2
1537921757611516,2,4,1,1,2,-1,-4,6
1537921757611516,3,4,-1,-1,-1,2,-3,0
1537921757618496,0,1,1,-1,2,6,9,1
1537921757618496,2,3,1,3,0,-1,0,8
1537921757626475,2,1,-2,-1,-1,-3,-4,-5
1537921757626475,-1,-5,-1,-2,-3,-4,0,0
1537921757641435,0,2,-1,-2,-1,-3,-2,-5
1537921757641435,2,-2,-4,-2,-1,0,2,5
1537921757648416,-3,0,1,-1,1,1,1,-5
1537921757648416,0,-3,1,-1,1,1,1,-2
1537921757657392,0,-1,-1,-1,-4,0,-1,-1
1537921757657392,-2,-2,1,-2,0,-1,4,4
1537921757671355,-11,-5,-2,-2,-1,2,-2,-12
1537921757671355,2,3,-4,-1,0,-3,0,6
1537921757678336,-2,-1,3,1,3,5,0,-5
1537921757678336,8,1,-2,-1,-1,0,2,13
1537921757686315,-2,0,1,-2,-3,-2,-6,-10
1537921757686315,-21,-13,0,-1,-1,-1,0,-12
1537921757701275,0,-3,0,0,-2,-7,-3,5
1537921757701275,1,-2,-5,-3,-1,1,5,-3
1537921757708257,2,2,-1,0,0,-3,-2,3
1537921757708257,-10,-7,4,1,-4,-4,-8,-16
1537921757717232,2,1,-4,-2,-1,1,6,14
1537921757717232,-8,-4,3,-2,-2,-7,-12,-20
1537921757731195,-1,-2,-1,-3,-2,-2,5,9
1537921757731195,6,0,-1,-3,0,3,3,6
1537921757738176,1,3,0,1,1,-5,-9,-3
1537921757738176,3,5,0,-1,4,10,12,7
1537921757746155,3,2,4,3,4,6,-2,4
1537921757746155,1,0,-4,-2,-2,-6,2,3
1537921757761115,-1,0,1,-2,1,1,5,-3
1537921757761115,-4,-5,-1,1,-3,-7,-17,-14
1537921757769094,-1,1,-2,-3,-3,-3,-2,1
1537921757769094,4,2,1,3,5,6,9,7
1537921757776075,-1,-2,1,0,-4,-6,-8,0
1537921757776075,0,1,0,1,1,3,1,-2
1537921757792032,0,-1,3,2,-3,0,-2,-3
1537921757792032,7,6,1,-1,-1,-3,-9,4
1537921757798016,-2,-6,-1,-2,-3,-2,1,-1
1537921757798016,-1,-1,-1,-3,-2,0,1,6
1537921757813974,-1,1,0,-2,2,3,-3,-5
1537921757813974,2,2,1,1,0,-4,2,2
1537921757820955,1,0,2,-2,0,4,4,6
1537921757820955,-5,-1,2,1,-4,-5,-6,-9
1537921757828934,-1,-4,-3,-1,1,1,7,1
1537921757828934,0,2,2,0,-1,-1,-5,1
1537921757843894,-4,0,-3,0,-2,-2,-2,-5
1537921757843894,-1,-2,0,-1,-3,-5,-5,-3
1537921757851873,1,0,-3,0,-2,-2,-2,-2
1537921757851873,2,2,1,-2,0,2,1,1
1537921757866833,3,2,1,2,3,5,2,6
1537921757866833,-1,1,1,0,3,1,2,0
1537921757867831,0,-1,0,-2,-1,-5,-2,6
1537921757867831,-4,-1,0,-3,-1,-2,-8,-5
1537921757880796,-2,-4,-2,-4,0,-2,-1,-4
1537921757880796,1,1,0,-1,-1,4,-2,1
1537921757888774,-3,-1,-2,1,0,-3,-6,-12
1537921757888774,-2,0,0,0,-2,-2,1,1
1537921757903734,-5,-5,-1,2,-1,-4,1,-6
1537921757903734,0,0,-2,0,2,4,5,5
1537921757911713,-3,0,-2,-2,-4,-8,-8,-4
1537921757911713,1,-2,-2,-2,2,3,5,0
1537921757926672,2,4,2,-1,-1,2,0,3
1537921757926672,-2,-2,0,-2,-2,-5,-3,0
1537921757927670,2,1,-3,1,-1,0,-2,-3
1537921757927670,-3,-2,0,-1,0,-2,-2,-4
1537921757940635,1,1,1,-1,-1,-3,-1,2
1537921757940635,-1,-4,-2,-1,2,10,12,7
1537921757949611,1,3,-1,-1,-1,-4,-5,-2
1537921757949611,0,-2,1,-2,1,-1,0,-1
1537921757963574,0,-1,0,-2,-2,-4,-8,-3
1537921757963574,-3,-1,-2,-1,-3,-2,-5,-6
1537921757971552,-5,-3,0,0,-2,2,7,-5
1537921757971552,1,-3,-2,2,3,2,2,2
1537921757986512,-4,-3,1,-1,-1,-1,-5,-5
1537921757986512,0,3,-2,1,-2,-4,-4,-1
1537921757987510,-1,-1,0,-2,2,3,10,10
1537921757987510,0,0,1,1,-2,-4,-9,-9
1537921758001472,3,0,2,0,-5,0,-1,-1
1537921758001472,-4,-3,-1,-3,-1,-4,-7,-7
1537921758009451,0,-5,-2,-2,-5,-2,2,5
1537921758009451,-2,1,1,-2,-1,-1,-3,-1
1537921758023414,0,0,-1,0,-1,3,0,0
1537921758023414,-1,-1,0,0,0,-5,-4,-2
1537921758031393,-2,0,-3,1,1,3,-2,-7
1537921758031393,-4,-2,-3,-2,-2,-1,-3,-5
1537921758046353,2,1,2,-1,3,2,4,5
1537921758046353,0,-1,-1,0,-4,-6,-5,-6
1537921758047350,-1,-1,-1,-1,1,2,-2,3
1537921758047350,6,0,0,0,0,0,1,8
1537921758061312,-3,2,1,-1,0,0,-3,-3
1537921758061312,-1,2,0,-2,0,1,2,-1
1537921758069291,-3,-1,0,-2,-5,-6,-12,-5
1537921758069291,0,0,0,-2,-1,5,10,-8
1537921758083254,-1,-2,3,-1,-2,-3,-6,0
1537921758083254,1,-2,-3,-1,0,2,-1,-2
1537921758091232,4,1,2,-1,0,3,2,10
1537921758091232,-4,-2,-1,-1,-4,-9,-6,-11
1537921758106193,-2,-2,-3,-1,0,-2,-1,-3
1537921758106193,-3,0,2,0,-3,-1,1,1
1537921758107190,0,0,-5,0,1,-2,-1,-2
1537921758107190,-1,1,3,1,-1,4,8,7
1537921758121153,3,5,-1,1,-1,-2,-3,-1
1537921758121153,-3,-3,0,0,-2,-1,-3,0
1537921758129132,1,1,-5,-3,1,-2,2,2
1537921758129132,0,1,0,-1,-2,-1,-4,1
1537921758143094,-3,-1,-4,0,-1,-1,-4,-7
1537921758143094,-2,0,0,-3,-2,-6,-7,-1
1537921758152070,2,2,2,-1,0,3,11,10
1537921758152070,2,3,-1,0,1,4,-1,4
1537921758167030,2,2,2,0,2,1,8,2
1537921758167030,0,0,1,0,-1,-2,-1,-1
1537921758167030,-3,-4,-3,-1,-4,-4,-6,-8
1537921758167030,-5,-3,-3,-3,-4,-5,-6,-4
1537921758180992,-3,-2,0,-3,-3,2,7,4
1537921758180992,0,0,3,2,2,-3,-4,0
1537921758188971,3,0,-2,0,-1,5,8,5
1537921758188971,-2,-1,-2,-3,-2,-2,-4,-3
1537921758203931,-1,-1,-1,-1,1,-1,-2,-3
1537921758203931,1,-1,2,-1,-2,-2,3,-4
1537921758211910,-2,0,1,-1,1,1,-6,-1
1537921758211910,1,1,0,1,2,-1,0,1
1537921758226870,0,-1,2,1,2,8,2,-2
1537921758226870,0,0,-3,0,1,-2,-1,5
1537921758226870,0,-1,3,0,-2,-6,-10,-8
1537921758226870,-3,-2,0,-1,-5,-1,0,-3
1537921758240832,-5,-2,1,-4,-3,-4,-5,-3
1537921758240832,4,-2,0,0,0,3,-2,3
1537921758248811,2,-2,0,1,0,-2,10,4
1537921758248811,2,3,2,1,3,2,-2,5
1537921758263771,-2,-2,-2,-2,-4,-10,-6,-8
1537921758263771,-3,0,-3,-2,-1,4,2,1
1537921758271750,-6,-4,0,-2,-5,-9,-11,-8
1537921758271750,-1,-1,-1,-2,1,3,2,1
1537921758285712,1,1,2,-1,-1,-2,1,7
1537921758285712,-2,0,2,0,-2,1,0,-4
1537921758293691,-2,-1,0,0,1,2,-4,-4
1537921758293691,-4,-2,2,-1,-4,-6,0,-3
1537921758300673,-2,1,-4,0,2,-3,-4,-6
1537921758300673,0,-2,-4,-2,1,-4,-4,0
1537921758309648,2,2,0,0,3,6,14,5
1537921758309648,4,0,1,-1,2,6,2,10
1537921758323611,-5,-5,-1,0,-4,-3,-6,-4
1537921758323611,-1,-1,0,-2,-2,0,0,-2
1537921758331590,0,0,-3,-2,-4,-4,-2,-9
1537921758331590,-2,-1,-5,-1,2,7,10,-3
1537921758345553,0,-2,-1,-1,1,3,5,4
1537921758345553,2,2,0,2,1,0,-2,8
1537921758354528,0,-3,1,0,1,1,-1,-1
1537921758354528,-2,-3,-1,-2,-3,-7,-10,-6
1537921758360513,-1,-3,0,-2,-2,-1,-3,-6
1537921758360513,-1,-1,-1,0,-2,5,7,2
1537921758369489,1,1,1,-1,0,2,-1,4
1537921758369489,0,-1,2,-2,-3,-4,-4,-4
1537921758383451,1,-3,-3,-1,1,-6,-5,-3
1537921758383451,1,0,0,-1,1,-2,1,-4
1537921758392428,-1,0,-2,1,-3,-1,-3,4
1537921758392428,2,1,0,1,-2,-2,1,9
1537921758406390,-1,1,0,-3,-1,2,1,2
1537921758406390,0,-1,0,-1,-1,1,0,0
1537921758415366,-3,-3,0,0,-5,0,-6,-4
1537921758415366,-3,-4,-2,-2,-1,-4,1,-4
1537921758429329,-1,-2,2,0,0,0,-6,0
1537921758429329,-3,0,0,-1,0,-1,4,-1
1537921758431324,1,-1,1,0,0,1,0,2
1537921758431324,-4,-4,-4,-3,-4,-6,-12,-7
1537921758443291,-3,-1,-3,-2,-1,4,7,-2
1537921758443291,-2,0,-3,-1,-2,-8,-17,-7
1537921758452268,-3,1,-2,-2,4,7,11,2
1537921758452268,6,4,4,3,2,3,3,7
1537921758466230,-3,-3,0,2,-1,-2,-5,-5
1537921758466230,0,-3,-1,0,-2,1,-1,-1
1537921758475206,0,-1,-2,-1,-5,-8,-4,-5
1537921758475206,-2,0,-2,-1,0,0,0,-2
1537921758490166,2,1,0,-3,1,3,3,2
1537921758490166,2,-1,1,0,1,-1,2,3
1537921758491163,-2,0,0,-1,-1,-9,-9,-6
1537921758491163,-4,1,1,-2,1,9,8,-6
1537921758503132,6,2,2,3,0,1,1,12
1537921758503132,-5,-4,-2,-2,-2,-4,-2,1
1537921758512108,-1,-2,-2,-1,1,2,-3,-4
1537921758512108,0,-2,-2,-1,-5,-5,-5,-5
1537921758526070,-3,0,-4,-3,-3,-7,-7,-1
1537921758526070,2,0,1,-2,2,9,11,5
1537921758535046,2,-1,1,0,0,4,1,7
1537921758535046,0,-3,-1,0,-3,-7,-7,-6
1537921758550006,-2,-1,-1,1,-1,2,5,0
1537921758550006,-5,-2,0,-1,-1,-2,-3,-10
1537921758551003,-1,-4,1,-2,-1,-6,-1,-1
1537921758551003,-1,0,0,-1,-1,-1,7,0
1537921758562971,-1,-2,-1,0,-1,-2,-4,-3
1537921758562971,-1,0,0,-1,-2,-7,1,-2
1537921758571947,-1,0,-1,-2,0,8,3,3
1537921758571947,-3,-1,0,-1,0,-4,-5,0
1537921758585910,-3,-4,1,-2,-4,-2,-4,-5
1537921758585910,-2,-2,0,-2,1,0,0,-5
1537921758594886,4,3,-1,0,0,3,-1,4
1537921758594886,2,-1,-2,0,-1,1,2,10
1537921758609846,-4,2,-1,-1,0,-3,-7,-2
1537921758609846,-2,-2,0,-1,-2,0,3,-2
1537921758610844,0,1,1,0,1,-4,-5,-4
1537921758610844,0,-3,0,-3,0,1,-4,-4
1537921758623809,-3,-1,0,-1,-2,1,2,-1
1537921758623809,2,-1,0,1,-1,5,-2,2
1537921758632785,-3,-4,0,-1,-3,-5,-3,-1
1537921758632785,-3,-1,0,1,1,1,-1,-7
1537921758645750,2,0,-2,-1,-1,-1,6,1
1537921758645750,1,2,0,0,-1,0,-5,0
1537921758654727,-3,-4,-1,1,-3,-1,1,-1
1537921758654727,-3,0,-2,-3,-2,-7,-11,-1
1537921758669686,0,0,1,-1,2,5,3,2
1537921758669686,0,2,1,1,-1,2,1,7
1537921758671681,-2,-1,-2,-2,-1,-5,-1,-5
1537921758671681,2,-1,-5,-3,0,1,2,-3
1537921758683649,6,2,2,1,3,4,5,7
1537921758683649,-2,-4,1,-1,0,-3,-2,-10
1537921758692625,0,3,1,0,1,0,1,4
1537921758692625,-3,0,-1,1,-4,-5,-5,-9
1537921758705590,0,-1,-3,-2,0,0,-1,0
1537921758705590,1,0,-1,0,-3,1,1,4
1537921758714567,-2,0,0,-1,-3,-4,-9,-10
1537921758714567,-3,-5,-2,-1,0,2,7,7
1537921758729527,0,-1,1,0,0,-4,-5,-5
1537921758729527,-1,0,-3,-2,-2,-2,-7,-3
1537921758731522,-2,-3,-1,-1,0,-1,0,-2
1537921758731522,-2,-2,5,1,3,2,-1,0
1537921758743490,1,-2,-2,1,-1,-1,1,2
1537921758743490,-1,-2,-3,-3,-2,-4,-1,-4
1537921758752465,-1,-4,-2,-3,-3,-2,-3,-2
1537921758752465,1,4,1,0,2,9,10,9
1537921758766428,-4,0,-1,1,-2,-1,-4,-1
1537921758766428,-2,-1,-1,0,1,-3,-1,-5
1537921758774407,-2,-4,-1,-1,-3,-2,3,4
1537921758774407,0,-1,1,1,-3,-5,-8,-5
1537921758789367,-6,-4,-2,-3,-3,0,4,-4
1537921758789367,3,4,4,1,3,9,6,10
1537921758791361,0,-2,-3,0,1,-2,-3,-1
1537921758791361,0,-1,1,-2,-3,3,3,2
1537921758803329,-2,0,0,0,-3,-8,-7,-8
1537921758803329,-3,-4,-1,-2,-3,-6,-7,-5
1537921758812305,3,3,-2,-3,1,5,11,3
1537921758812305,2,-1,2,-1,-1,2,1,7
1537921758826268,0,2,1,-3,-2,-3,-4,1
1537921758826268,0,-2,-2,-2,-1,0,3,3
1537921758835244,-3,-1,1,1,2,3,-6,-3
1537921758835244,-3,-2,-5,-2,-3,-6,-4,-4
1537921758850204,0,1,0,1,2,11,13,11
1537921758850204,0,-3,2,-1,-3,-7,-14,-4
1537921758851201,-3,-3,-1,-2,-2,1,8,-2
1537921758851201,2,1,3,1,-1,0,-5,-2
1537921758863170,-3,-4,-1,-1,-4,-4,-3,-4
1537921758863170,-3,1,-3,-1,-3,-3,-5,-3
1537921758872146,2,0,0,-1,-1,2,0,1
1537921758872146,0,-5,-1,-2,-2,-1,2,-1
1537921758886108,-3,0,-1,-2,-2,-3,-5,-5
1537921758886108,2,-4,-2,-1,1,-2,3,0
1537921758895084,-2,3,1,-1,-3,-2,-4,-3
1537921758895084,-3,-4,-2,-2,-1,-3,-6,-4
1537921758910044,0,1,0,-1,-2,2,0,-2
1537921758910044,2,-1,1,3,2,5,12,8
1537921758911042,-2,-2,1,1,-1,-5,-5,-3
1537921758911042,2,4,0,0,0,-3,0,0
1537921758924007,-3,-3,2,-1,-1,0,-8,-7
1537921758924007,-5,-1,-2,-4,-3,-3,7,-4
1537921758931985,4,0,2,0,0,2,-7,2
1537921758931985,-3,0,-3,-1,2,-2,-4,-3
1537921758945949,-1,0,-1,2,-2,-4,1,2
1537921758945949,0,1,2,-2,1,-3,-4,2
1537921758954924,-5,-4,0,-1,-1,-1,-2,-1
1537921758954924,-2,-4,0,0,-4,-4,-3,-4
1537921758969884,1,1,0,-1,1,2,0,-3
1537921758969884,3,0,-1,1,2,4,0,6
1537921758970881,-7,-6,-1,-1,-3,-11,-21,-17
1537921758970881,-3,1,2,1,3,7,23,-1
1537921758983847,4,0,3,1,-2,-4,-12,7
1537921758983847,-1,-1,-2,-1,-1,-1,2,-6
1537921758992822,3,2,1,-1,0,1,4,3
1537921758992822,-2,-1,1,0,2,-2,-5,-2
1537921759005788,-1,-2,-3,-4,1,-2,0,-6
1537921759005788,-2,2,0,1,0,4,0,-1
1537921759014764,2,3,-1,-1,-1,1,3,5
1537921759014764,0,1,-2,0,-2,0,-2,-3
1537921759029724,0,1,0,0,1,-3,4,0
1537921759029724,0,0,0,-1,-1,-2,-4,2
1537921759031719,-4,-4,0,-1,0,2,8,-1
1537921759031719,1,1,1,-2,-1,-2,-6,4
1537921759043686,-1,-1,-2,-1,-1,-2,-1,-2
1537921759043686,-2,-2,-1,-2,-4,-3,-3,-2
1537921759052663,0,3,-3,-1,1,3,3,0
1537921759052663,-3,-2,0,-4,-2,-4,-5,-1
1537921759065628,0,-1,-2,1,1,6,2,4
1537921759065628,-4,-1,0,1,-1,-6,-7,-5
1537921759074604,2,-1,-4,-1,1,2,8,3
1537921759074604,1,0,2,-2,-1,-2,-2,-1
1537921759089564,-3,-2,-1,-2,-2,-2,4,-3
1537921759089564,-1,-1,1,0,-2,-2,-3,-2
1537921759091559,-3,-5,-3,-2,-2,-2,-10,-7
1537921759091559,0,0,1,1,3,4,8,4
1537921759103527,0,0,4,1,1,1,-3,5
1537921759103527,-1,-1,-7,-2,-2,-2,1,-4
1537921759112503,2,2,-1,0,-2,0,-1,2
1537921759112503,0,-1,-1,-3,-1,-1,-5,-6
1537921759125468,0,-1,-3,-1,0,1,4,-2
1537921759125468,0,3,2,1,2,3,-2,5
1537921759134444,1,1,4,2,1,0,2,4
1537921759134444,-5,0,-2,2,-2,-5,-6,-5
1537921759149404,0,-3,-2,-2,-4,-4,-4,-5
1537921759149404,-2,-6,-1,-1,1,-1,-4,-7
1537921759151399,-5,-1,-2,-1,-3,-2,-4,-5
1537921759151399,4,2,1,0,2,3,1,2
1537921759163367,-2,1,0,0,-1,-2,6,8
1537921759163367,1,0,-1,-3,-1,-3,-2,1
1537921759172342,0,-1,-1,-2,-1,-2,1,-1
1537921759172342,0,-2,0,0,-2,-2,-1,0
1537921759186305,-3,-2,-1,0,-1,-1,-4,-5
1537921759186305,-1,-3,-2,-2,1,-1,1,0
1537921759195282,2,0,-1,-2,0,1,1,2
1537921759195282,-1,-3,-5,-1,-2,-1,-1,-1
1537921759209244,1,1,-1,-1,3,0,-1,0
1537921759209244,-1,0,0,0,-1,-1,-3,-2
1537921759216225,1,-1,0,0,-3,-3,-1,-3
1537921759216225,1,0,-1,-1,-1,3,1,2
1537921759223206,1,-1,3,-1,0,2,3,0
1537921759223206,-2,0,-1,-2,-2,-2,-1,2
1537921759232182,-1,-1,-1,-2,1,0,1,-2
1537921759232182,1,-1,0,-1,-3,-5,-4,-2
1537921759246145,0,-1,0,-1,-2,-1,-7,-2
1537921759246145,1,-3,-1,0,0,1,7,-1
1537921759255121,-1,2,2,0,0,4,-3,4
1537921759255121,-3,-1,-1,-3,-2,0,2,-2
1537921759269084,1,2,-2,-3,0,-3,-5,-1
1537921759269084,-1,-1,0,-2,-3,-2,-3,-2
1537921759276065,-2,0,-1,-2,-1,0,-1,1
1537921759276065,1,-1,-3,1,0,1,-5,0
1537921759283047,-2,0,2,-1,-2,-1,1,0
1537921759283047,-1,-3,-1,0,-2,1,-2,0
1537921759292023,-2,-1,-2,-2,-1,-1,3,0
1537921759292023,-1,-2,-1,-2,-1,-1,1,0
1537921759305985,-1,-2,0,1,-2,0,1,0
1537921759305985,-1,0,-1,-2,1,0,-2,2
1537921759314962,1,-2,1,1,-3,-4,0,2
1537921759314962,0,-3,3,0,-4,-6,-8,-6
1537921759328924,-1,1,-4,-2,2,4,1,2
1537921759328924,-2,0,2,0,-3,-5,-2,0
1537921759335905,-3,-2,-2,-4,-2,-2,-8,-9
1537921759335905,2,5,-1,0,1,0,8,9
1537921759351863,-1,-3,0,-1,0,0,-7,-6
1537921759351863,3,5,-4,1,3,7,12,8
1537921759353858,0,-4,3,0,-4,-5,-4,-2
1537921759353858,-5,1,1,-1,-2,-2,-5,-7
1537921759365825,1,1,-5,1,-4,-4,-2,5
1537921759365825,0,1,0,-1,-2,-1,-2,-5
1537921759374802,-2,-4,1,-1,1,2,-3,0
1537921759374802,0,0,-1,-3,-1,-3,3,0
1537921759388764,-1,-2,2,1,-2,0,1,2
1537921759388764,-1,-5,1,0,-2,-1,-5,-2
1537921759395746,1,0,-2,0,1,-2,1,-1
1537921759395746,-3,0,2,0,-2,-2,-1,-2
1537921759412700,-3,-1,1,-2,-2,0,-2,-6
1537921759412700,0,-1,-1,-2,0,-3,1,0
1537921759413698,-1,-1,1,0,1,-4,1,0
1537921759413698,-1,-1,-1,0,0,0,-7,-3
1537921759426663,-2,-4,-2,-1,-3,-5,4,-1
1537921759426663,-2,0,0,-2,1,2,-1,-4
1537921759433644,1,1,-1,-1,2,5,7,4
1537921759433644,0,2,-1,1,2,2,-2,2
1537921759449602,-2,1,-3,-1,-1,-6,-1,-4
1537921759449602,-1,-1,-3,0,-4,-4,-12,-11
1537921759455586,-2,-1,0,-2,-3,-2,4,-1
1537921759455586,-2,-2,2,-1,-1,0,-1,1
1537921759472541,-1,-3,2,-3,-2,-1,1,2
1537921759472541,-6,-2,0,-1,0,-3,-4,-6
1537921759473538,2,1,-3,1,-1,-2,-7,-6
1537921759473538,0,0,0,-2,0,3,7,6
1537921759486503,0,0,-1,-1,0,2,-3,-3
1537921759486503,-2,-1,1,0,-2,-2,-2,-1
1537921759493484,-2,0,-1,0,-3,0,-2,1
1537921759493484,-1,-3,-2,-2,-2,-3,-5,-2
1537921759509441,1,0,-3,-2,2,1,0,1
1537921759509441,1,-1,-1,1,2,4,6,6
1537921759516423,2,1,-1,-1,1,2,3,-3
1537921759516423,1,2,2,1,1,4,0,5
1537921759532380,-5,-4,1,-3,-2,-6,-4,-7
1537921759532380,1,-1,-2,-1,-1,-1,-3,-2
1537921759533378,-3,-2,-1,-2,-1,-1,-1,0
1537921759533378,-1,-3,-1,1,-2,2,-1,-2
1537921759546343,-1,0,2,3,0,2,-2,-2
1537921759546343,-2,-2,0,-3,-1,-5,-2,-4
1537921759553325,-2,-2,1,0,-1,-1,0,-4
1537921759553325,-1,2,-3,-1,-2,-1,-7,-2
1537921759569282,1,-1,0,-1,-1,1,10,4
1537921759569282,4,0,2,2,-1,1,-2,6
1537921759576263,-2,1,2,-2,-1,-5,-2,-7
1537921759576263,-1,0,0,-3,2,0,-2,-1
1537921759592221,0,0,-1,-1,-3,-4,-4,-1
1537921759592221,-4,1,-3,-1,-3,-3,3,-2
1537921759594215,3,1,0,0,2,2,5,6
1537921759594215,1,0,0,-1,0,-3,0,-2
1537921759606183,-1,-3,-4,-2,-2,-5,-7,-4
1537921759606183,-2,-1,-2,-3,0,4,2,2
1537921759613164,-1,-1,-1,-1,-2,-2,-6,2
1537921759613164,1,-2,1,0,-1,2,6,2
1537921759629122,-2,-2,-1,1,-2,-1,-1,-7
1537921759629122,-1,3,1,-1,1,4,1,4
1537921759636103,-1,-2,-2,-2,-2,-5,-4,-1
1537921759636103,0,0,-1,0,0,0,-1,-2
1537921759652060,2,0,0,-2,-1,-3,0,0
1537921759652060,2,-5,-1,-1,-1,0,1,0
1537921759654055,-2,1,3,0,1,5,3,3
1537921759654055,0,-1,0,-1,-1,-6,-5,-2
1537921759667020,3,2,-1,1,0,0,1,-2
1537921759667020,2,-2,-2,0,-2,-2,-1,4
1537921759673004,4,0,-2,0,-3,-3,-8,1
1537921759673004,-5,-4,0,-2,-2,-2,10,-6
1537921759688962,0,3,-1,0,3,8,-3,5
1537921759688962,-1,0,1,-1,0,1,3,-1
1537921759695944,-3,-1,1,-1,-3,-4,-5,-4
1537921759695944,-1,-1,-3,-2,-4,-6,-5,-3
1537921759711900,-6,-1,0,-3,0,-1,-2,0
1537921759711900,2,3,2,2,-1,5,6,5
1537921759713896,1,-2,-1,-2,1,1,0,5
1537921759713896,2,2,1,1,0,3,0,-3
1537921759726860,-4,-3,1,-1,-1,-4,0,-3
1537921759726860,-2,-3,-2,0,0,-6,-4,-4
1537921759733842,-1,4,0,0,-1,-1,-1,1
1537921759733842,0,0,2,-2,-4,-1,-3,2
1537921759748802,-2,0,1,-1,1,1,-1,-1
1537921759748802,0,-1,1,0,-3,-5,-7,-8
1537921759757778,-3,-1,-1,-3,0,-3,5,-5
1537921759757778,5,2,0,0,0,2,-1,8
1537921759772737,-6,-3,1,-2,-3,-5,0,2
1537921759772737,3,6,0,0,1,5,4,1
1537921759773735,-1,-2,0,-1,0,2,-5,-4
1537921759773735,-4,0,-2,-1,-2,-4,0,-5
1537921759786700,0,-2,-1,-1,0,1,1,0
1537921759786700,-3,-2,-1,0,-3,-2,-8,-4
1537921759793681,0,0,0,-2,-1,-1,0,0
1537921759793681,-1,-4,-1,-2,1,1,-1,-3
1537921759808642,2,2,-1,0,0,3,6,10
1537921759808642,-2,-2,-1,1,1,0,0,0
1537921759815623,0,-2,2,2,-1,-4,-2,-1
1537921759815623,0,-2,-3,-2,-3,-2,-3,-3
1537921759832578,-2,-3,-1,1,-2,0,-3,-4
1537921759832578,-1,-2,1,-2,-2,-3,-3,-5
1537921759833575,-1,2,-2,-1,-2,-2,-3,2
1537921759833575,1,0,2,-1,3,4,5,4
1537921759845543,2,3,2,1,3,1,2,-1
1537921759845543,-1,-1,-1,-4,-2,-2,0,1
1537921759854519,-5,-5,1,-1,-4,-3,-8,-6
1537921759854519,-3,-1,-3,-2,-1,0,5,-2
1537921759869479,6,2,0,-1,0,0,2,7
1537921759869479,-4,-5,-1,1,2,2,-1,-8
1537921759875463,2,4,-2,0,-1,-3,-1,-1
1537921759875463,-1,-1,0,1,0,-4,-4,2
1537921759892419,-4,-1,-1,-3,-3,-1,-3,-8
1537921759892419,1,0,0,-4,0,-3,-1,0
1537921759893416,-1,-4,-2,0,1,-2,-1,3
1537921759893416,-2,-2,3,1,-2,1,-2,-1
1537921759906380,1,0,1,3,-2,-2,-2,-3
1537921759906380,-2,0,-2,0,-2,-3,-1,3
1537921759915357,-2,-3,-2,-4,-3,-1,0,-3
1537921759915357,0,1,2,-2,1,1,-1,-3
1537921759929319,1,2,1,1,-2,-4,-3,-3
1537921759929319,-1,-1,1,-1,-3,-2,-4,-4
1537921759936301,0,-1,-2,0,0,3,9,6
1537921759936301,-2,1,-2,-2,-1,-5,-2,-3
1537921759952259,3,3,2,1,2,3,-4,-2
1537921759952259,1,4,0,0,-1,2,2,1
1537921759954253,-4,-1,-1,-4,-5,-6,-3,-5
1537921759954253,6,8,1,1,2,3,2,6
1537921759966221,8,-9,-12,-8,-2,2,6,2
1537921759966221,17,2,0,-2,4,4,5,14
1537921759975197,-16,-5,7,6,-6,-14,-18,-32
1537921759975197,3,3,11,4,4,0,-4,9
1537921759989160,-2,-10,-16,-5,-9,-7,6,1
1537921759989160,-12,-24,-42,-27,-15,-8,-13,-7
1537921759996141,21,22,19,2,11,8,10,39
1537921759996141,-8,7,27,18,2,3,-3,-20
1537921760012098,-12,-12,-6,0,1,-2,-9,-21
1537921760012098,-12,-12,-20,-14,-5,-9,-2,14
1537921760014093,3,-3,4,5,1,7,3,4
1537921760014093,0,19,7,3,3,-2,-1,-11
1537921760026061,-6,7,45,15,0,-7,-9,14
1537921760026061,-11,-7,5,16,8,12,-1,-30
1537921760035037,11,-5,-44,-24,-6,-12,8,33
1537921760035037,-14,-15,7,-3,-9,-5,-16,-37
1537921760048999,-5,4,11,3,1,0,0,-10
1537921760048999,12,5,-4,1,3,1,-3,-8
1537921760055981,9,3,-11,-10,-3,5,9,8
1537921760055981,1,5,-1,-10,-11,-2,7,2
1537921760071938,-13,-6,15,12,11,11,4,-7
1537921760071938,-23,-40,-45,-17,-19,-22,-5,-10
1537921760073933,-54,-59,-57,-29,-9,15,25,7
1537921760073933,5,15,12,-3,7,6,7,42
1537921760085901,-25,35,48,20,10,11,-14,-41
1537921760085901,21,17,50,29,11,2,15,22
1537921760094877,-8,-23,-7,6,-6,-1,-15,-39
1537921760094877,10,21,13,6,9,-10,-9,7
1537921760108839,-12,-13,-7,0,-12,-6,-4,-11
1537921760108839,10,2,-30,-15,-4,12,5,-3
1537921760115821,-6,23,34,6,0,-14,-2,4
1537921760115821,4,3,19,22,14,13,-3,-7
1537921760131778,29,-17,-38,-15,-9,-10,-1,4
1537921760131778,-2,-15,-22,-23,-11,-6,1,30
1537921760138760,13,20,1,-5,4,8,4,13
1537921760138760,-10,-14,-13,-8,-5,-5,-5,-14
1537921760145741,-6,3,-2,1,1,0,2,2
1537921760145741,-16,-7,16,9,-1,-3,2,22
1537921760154716,28,42,27,13,10,8,-2,-7
1537921760154716,-28,-13,-6,-2,-5,2,3,12
1537921760168680,15,-9,-17,-11,-1,0,11,5
1537921760168680,-3,19,24,9,4,5,2,-9
1537921760175660,5,7,18,12,2,-6,-16,-27
1537921760175660,-14,-25,-28,-10,-9,-3,2,2
1537921760191617,7,1,-15,-14,-8,-2,10,40
1537921760191617,-1,13,24,9,9,4,-4,-10
1537921760198599,-8,-10,-1,4,-4,-5,-6,-4
1537921760198599,6,-18,-29,-17,-12,-6,6,-3
1537921760205580,-6,-3,-1,-10,0,1,-3,4
1537921760205580,10,13,13,8,0,-6,-6,-2
1537921760214556,-4,-10,-2,2,-3,1,-4,-7
1537921760214556,8,-2,-8,-1,-2,1,8,4
1537921760229516,9,9,1,-4,-1,-2,-11,-11
1537921760229516,-5,-3,3,2,1,-3,8,6
1537921760235500,1,2,4,0,2,2,-1,-1
1537921760235500,1,-5,-4,-2,-4,-5,-2,-2
1537921760251458,-1,0,-2,-1,1,0,-3,-3
1537921760251458,-1,5,0,1,-3,2,-3,-14
1537921760258439,-5,-1,3,-1,-4,-3,-2,0
1537921760258439,3,-2,-4,-1,1,-1,1,1
1537921760274396,-4,-2,-6,-3,0,-2,-1,1
1537921760274396,-2,6,3,0,-2,-2,-5,-5
1537921760276391,1,0,5,3,4,0,2,-8
1537921760276391,1,-6,-6,-4,-1,0,-3,-4
1537921760289357,4,1,-2,-2,-4,-1,1,-2
1537921760289357,-6,0,4,1,2,1,-3,-5
1537921760296338,1,-4,-1,0,-1,0,-3,3
1537921760296338,5,1,-4,-3,0,-3,-3,-6
1537921760311299,-5,-4,-1,-2,-4,-4,-4,-3
1537921760311299,2,3,3,-1,2,-3,2,1
1537921760318280,-2,-4,-4,-1,-1,-1,1,-1
1537921760318280,2,-2,-3,-1,-2,-3,2,10
1537921760335234,6,2,0,-3,2,3,1,1
1537921760335234,0,2,-1,-1,0,2,-1,3
1537921760336232,0,0,1,0,-3,-5,-4,-2
1537921760336232,-1,-1,0,-2,-1,-2,-2,-2
1537921760349197,-4,-5,-1,-2,2,-3,1,3
1537921760349197,-1,2,2,-1,-1,-3,-2,-4
1537921760356178,-4,-1,-1,-1,-1,1,0,-3
1537921760356178,2,-1,0,0,-1,2,-2,-2
1537921760372136,0,-4,-4,-3,-1,0,-4,2
1537921760372136,2,1,3,0,0,-1,-1,-2
1537921760378120,-1,-2,-1,-2,1,2,0,4
1537921760378120,-2,4,1,-1,-3,-2,-2,-4
1537921760395075,-4,-2,0,0,-1,1,-2,-2
1537921760395075,2,1,0,-1,-2,-1,-2,-3
1537921760396072,1,0,-1,1,-1,0,2,-1
1537921760396072,-1,0,1,-2,0,-1,-1,-4
1537921760409036,-1,2,-2,-1,0,0,2,2
1537921760409036,-3,1,-1,-2,-3,0,-1,-2
1537921760416018,0,0,-2,0,-2,0,1,-1
1537921760416018,4,-2,0,-1,-1,0,1,2
1537921760431975,-1,-2,-1,-2,-3,-1,-1,2
1537921760431975,3,-3,2,-1,1,0,-1,-2
1537921760437959,1,-2,0,0,2,-2,-3,-2
1537921760437959,-2,1,0,0,-2,-1,-1,-3
1537921760454914,-1,-1,-1,-2,0,0,1,1
1537921760454914,-2,-1,0,-1,-1,0,-1,-3
1537921760455911,-3,0,2,8,0,2,-1,-2
1537921760455911,0,1,0,-12,3,1,-2,-3
1537921760468877,3,3,-1,-6,-3,0,0,1
1537921760468877,-1,-3,-8,7,0,1,-1,0
1537921760475858,-1,-5,-3,-12,-5,-4,0,4
1537921760475858,-2,-5,-2,9,-6,-4,0,-1
1537921760491815,-3,-3,-2,5,0,-2,-2,-1
1537921760491815,-4,4,8,-1,1,-2,-3,-2
1537921760498797,2,3,-3,-3,2,1,1,-1
1537921760498797,-1,-1,-1,-3,3,-1,-2,-3
1537921760514754,-2,-1,4,-6,-4,-1,-2,-1
1537921760514754,1,5,5,7,1,-2,1,-2
1537921760515752,-2,-5,2,0,-1,-1,-3,-2
1537921760515752,-2,-4,-5,2,-3,1,0,1
1537921760528717,0,0,-8,-8,2,-2,3,0
1537921760528717,-4,-5,-2,-7,-4,-1,0,0
1537921760537693,0,3,6,23,-1,-1,-1,0
1537921760537693,0,3,1,-14,-5,0,0,3
1537921760551656,-4,-1,4,0,-2,0,2,0
1537921760551656,1,-1,-2,3,4,-1,-3,-5
1537921760558637,-4,-5,-2,-7,0,-2,-1,-3
1537921760558637,-2,-1,-3,-4,-9,1,-1,-1
1537921760574594,-3,-2,-2,-1,1,-1,1,0
1537921760574594,-2,-2,-1,-5,1,0,-1,1
1537921760576589,-1,2,2,5,2,0,-2,-3
1537921760576589,0,-1,3,2,0,-1,-1,-3
1537921760588557,3,3,-2,-1,-2,2,-2,-3
1537921760588557,-1,2,0,1,1,1,1,0
1537921760597533,-3,-3,-4,-11,-6,-2,0,1
1537921760597533,0,-3,-1,-1,0,-2,-2,1
1537921760611495,0,2,-2,5,1,1,-1,1
1537921760611495,1,-3,-4,-8,0,-2,-1,-3
1537921760618477,1,-1,5,3,0,2,-3,1
1537921760618477,0,3,6,6,-1,-5,-1,-1
1537921760634434,-2,-3,1,8,-2,-4,0,0
1537921760634434,-2,-3,-7,-1,-2,0,-1,0
1537921760636429,-1,1,-1,-4,-3,-3,3,3
1537921760636429,-1,-3,-2,2,6,-1,-2,-1
1537921760648397,-2,-1,1,2,-6,-3,-2,-2
1537921760648397,0,2,1,2,-1,1,-1,-2
1537921760657373,0,-1,-3,-24,-6,0,0,0
1537921760657373,-3,-1,0,4,2,0,1,-2
1537921760671335,-1,1,1,2,2,-4,-1,-1
1537921760671335,1,-2,-6,5,-2,0,-1,0
1537921760678317,-4,1,3,3,5,0,-2,-2
1537921760678317,1,2,1,-2,-4,-2,1,-1
1537921760695273,-1,-3,-2,-2,-2,-2,1,-2
1537921760695273,1,-1,4,5,2,-2,-1,0
1537921760696270,1,-2,-4,1,-3,-1,0,1
1537921760696270,-2,0,-2,-15,3,1,-1,-2
1537921760708237,1,0,-2,4,-5,1,-3,-2
1537921760708237,-2,-3,0,-3,-8,-1,-3,-2
1537921760717214,-1,0,-2,-1,7,-4,0,-3
1537921760717214,1,0,7,20,2,1,-1,0
1537921760731176,0,1,2,-1,6,0,2,4
1537921760731176,-1,0,-2,7,-3,-1,1,0
1537921760738157,1,-2,-4,-16,-9,0,-1,0
1537921760738157,-5,-1,-12,-22,-1,-2,1,-5
1537921760755112,-2,-2,9,11,-6,0,-1,-3
1537921760755112,1,3,7,-6,3,2,0,-1
1537921760756110,3,-2,-5,8,0,-1,2,1
1537921760756110,0,-5,-8,1,-3,0,0,0
1537921760768078,4,8,15,6,-6,2,1,3
1537921760768078,-4,1,8,15,7,0,1,-2
1537921760777054,-8,-10,-6,-3,3,-1,-4,-8
1537921760777054,6,1,-18,-17,-8,1,9,35
1537921760792014,-9,0,10,-5,-4,-12,-20,-25
1537921760792014,14,11,5,8,14,8,6,10
1537921760797997,-14,-10,-8,-4,-1,-3,9,16
1537921760797997,-2,4,13,10,20,5,-4,-7
1537921760814952,-1,-4,-11,21,92,8,4,-12
1537921760814952,5,13,15,-42,113,1,3,27
1537921760815949,39,30,16,8,57,-17,-14,2
1537921760815949,-13,-52,-30,-18,-53,-15,-11,-1
1537921760837890,-18,-30,-33,-50,-125,6,16,0
1537921760837890,7,-38,-40,-10,-128,-25,18,31
1537921760838888,2,-6,-1,13,-96,-68,-13,-30
1537921760838888,-2,82,42,32,84,-55,-2,26
1537921760852850,6,12,44,41,118,12,-21,-38
1537921760852850,32,51,30,-2,127,41,17,48
1537921760858834,-5,16,37,1,-87,127,-11,-22
1537921760858834,-35,-107,-10,24,-127,120,-22,-64
1537921760873794,-31,-116,-114,-25,-128,-91,5,36
1537921760873794,-111,-128,-122,2,82,-109,21,39
1537921760874792,-102,-128,35,-1,101,-96,-23,-45
1537921760874792,-113,53,105,-32,88,-23,-4,-47
1537921760896733,-123,116,123,-84,28,29,-6,-40
1537921760896733,85,113,-66,-7,43,32,3,-38
1537921760897731,110,95,-128,-1,127,0,21,37
1537921760897731,127,-110,-128,52,124,0,11,30
1537921760912691,127,-125,-125,73,-63,-5,2,23
1537921760912691,25,-69,-107,-12,-128,24,-12,0
1537921760918674,-24,-41,-59,-22,80,47,-8,-34
1537921760918674,-45,8,53,-43,108,-15,-11,-24
1537921760933634,-107,-15,-40,-13,127,8,13,17
1537921760933634,-113,-48,-26,11,16,5,-7,-9
1537921760934632,-17,3,-61,4,-36,47,3,34
1537921760934632,25,10,-41,-3,-52,2,17,15
1537921760956573,48,32,-4,4,24,-9,-6,13
1537921760956573,-1,-13,61,13,-26,-16,-29,-75
1537921760957571,-25,-1,16,3,-11,-48,16,49
1537921760957571,-36,7,-1,1,-26,-87,5,27
1537921760972531,-2,8,11,4,-29,-63,-4,2
1537921760972531,-15,10,39,6,-21,-49,-10,-16
1537921760978515,-22,1,35,-3,-32,-35,-4,-11
1537921760978515,-5,0,0,3,-17,18,4,7
1537921760994472,10,4,-8,22,8,55,-3,6
1537921760994472,-8,-2,41,-22,-5,42,-12,-19
1537921760994472,3,-6,15,-6,-4,21,10,11
1537921760994472,-5,3,-14,1,-21,14,-4,-5
1537921761016413,17,10,13,-2,11,19,3,6
1537921761016413,1,8,25,8,8,8,-5,-11
1537921761017410,4,-8,8,5,-14,-5,2,-6
1537921761017410,3,1,-5,-3,-14,1,0,0
1537921761032370,-6,0,4,-3,10,3,-1,-4
1537921761032370,9,-2,17,1,1,-6,3,8
1537921761038354,-5,-5,-3,-4,-9,-7,-2,-8
1537921761038354,3,1,-7,1,-12,0,-1,-2
1537921761053314,5,7,9,11,11,-2,-1,2
1537921761053314,1,-6,-4,-22,-8,1,0,-1
1537921761061293,-8,-3,6,3,-4,-1,0,0
1537921761061293,1,10,0,8,-2,0,2,0
1537921761076253,7,-5,1,-5,1,4,2,1
1537921761076253,-2,3,-2,8,0,4,-1,6
1537921761077250,-3,-2,2,-3,-1,1,0,-6
1537921761077250,0,3,2,-13,-7,-6,-4,1
1537921761092210,3,-1,-9,4,3,1,6,1
1537921761092210,-5,-2,8,-5,-1,0,-3,-5
1537921761098194,-1,2,1,3,-2,-3,1,1
1537921761098194,-2,-2,-6,9,-3,-1,-3,-1
1537921761113155,-9,-2,1,0,1,2,3,-2
1537921761113155,2,3,9,5,0,3,-1,3
1537921761121135,-3,-6,0,7,-2,-3,0,1
1537921761121135,2,-3,-7,-6,-3,-1,-1,-5
1537921761136093,0,1,-3,-12,3,-1,-2,-3
1537921761136093,-1,-4,0,-1,-3,-2,1,-1
1537921761137091,-1,-2,0,0,-3,1,-1,-2
1537921761137091,0,0,-2,-2,0,2,-2,-4
1537921761152050,0,-2,4,0,0,-1,-3,-1
1537921761152050,0,-1,-3,-1,-2,-2,-1,-2
1537921761158035,-5,-1,0,-2,1,-2,-2,-1
1537921761158035,8,2,-1,3,-1,0,3,6
1537921761172994,-3,0,1,-5,0,1,0,-2
1537921761172994,-1,-1,2,3,-1,1,-2,-4
1537921761180973,-1,1,-1,0,-2,1,1,2
1537921761180973,0,-3,-3,-6,-2,1,-2,-4
1537921761196930,-1,2,3,-5,-2,-1,1,-1
1537921761196930,-1,-1,-1,2,0,1,-2,-3
1537921761196930,0,-2,-1,7,-2,-4,-3,-6
1537921761196930,-2,-1,-3,-15,-4,1,2,0
1537921761211892,-3,0,0,-1,2,1,-1,5
1537921761211892,5,-7,-1,1,1,-3,-5,0
1537921761218871,-2,-61,4,-1,0,-1,0,-6
1537921761218871,-4,2,-2,1,-6,-3,-1,-4
1537921761233832,-5,50,-4,5,1,0,-1,-4
1537921761233832,-4,32,3,-8,-2,0,2,-1
1537921761240813,1,20,-1,-3,-1,0,-1,6
1537921761240813,0,-14,-3,-2,-5,-3,-1,0
1537921761256770,1,-16,6,4,4,-1,0,-1
1537921761256770,2,-7,-4,4,-1,2,-3,-1
1537921761257768,-2,-2,-1,-8,-1,3,-1,-2
1537921761257768,1,-3,0,5,0,1,-2,-1
1537921761272728,-2,-4,-2,-12,-7,-2,-3,-4
1537921761272728,-1,-7,1,12,0,-3,-1,0
1537921761278712,0,6,3,0,0,-3,-1,3
1537921761278712,0,6,-3,-1,2,0,1,-1
1537921761293672,2,-8,-3,-7,-2,-1,0,1
1537921761293672,-3,-9,0,-10,-2,2,-3,-2
1537921761300653,-3,12,-1,2,-2,-2,1,-1
1537921761300653,-1,5,1,2,1,2,-1,1
1537921761316610,0,-9,2,-1,-2,-2,-1,-5
1537921761316610,-3,-6,-2,0,1,-1,-2,2
1537921761317608,-2,7,-3,0,-2,-2,-1,0
1537921761317608,1,3,2,3,-2,0,-1,-1
1537921761332568,-1,-9,-3,0,-1,0,-1,3
1537921761332568,-2,0,2,6,0,-3,-3,-8
1537921761338552,-1,4,0,-11,-3,0,-3,-2
1537921761338552,-1,-4,-2,2,2,-2,-1,0
1537921761353512,4,-1,-5,-10,-5,-1,0,1
1537921761353512,-4,-7,-9,-2,1,0,1,-5
1537921761360493,1,0,2,-2,0,-1,0,1
1537921761360493,-1,-3,0,3,-8,-1,-1,2
1537921761376451,-2,3,0,10,3,-2,-1,0
1537921761376451,-2,-1,-1,2,0,-1,3,2
1537921761377448,0,1,-1,-1,0,1,0,-3
1537921761377448,-2,-2,-2,-7,-1,-1,-2,0
1537921761392408,-2,-2,-1,-7,0,-1,-2,-3
1537921761392408,-2,-2,-2,-3,-3,-4,-1,2
1537921761398392,0,2,-3,1,-4,-1,0,-1
1537921761398392,1,3,3,8,1,0,0,-1
1537921761413352,-1,-5,3,-5,-3,-2,0,-2
1537921761413352,-1,-2,-1,-8,-2,1,1,1
1537921761421330,2,2,0,12,-1,-2,-4,-1
1537921761421330,-3,-2,-1,-4,2,0,-1,-3
1537921761436290,2,1,3,2,2,3,0,0
1537921761436290,0,-2,1,8,1,-2,0,-1
1537921761437288,-1,0,-4,-17,-2,6,-2,0
1537921761437288,-2,-4,0,-5,-8,4,0,2
1537921761452248,-1,-4,-2,-1,2,1,-1,1
1537921761452248,1,5,2,-6,-7,-9,-3,0
1537921761458232,-3,1,-8,-6,2,-11,0,-2
1537921761458232,-2,-4,6,8,7,-6,-1,-7
1537921761473192,3,3,14,17,-4,-4,1,2
1537921761473192,-2,-10,0,5,4,2,1,4
1537921761481170,1,-15,-2,10,-1,1,-2,-1
1537921761481170,2,-2,-15,-22,-1,1,-1,-2
1537921761496131,-1,1,11,-9,7,4,-2,-9
1537921761496131,1,-8,1,9,7,5,1,1
1537921761497128,-5,-3,-7,7,-12,-4,2,2
1537921761497128,0,13,-8,14,9,0,-1,-1
1537921761511091,1,26,-4,-35,-22,-6,-4,4
1537921761511091,-3,34,40,47,18,5,-2,-13
1537921761518072,9,0,-1,25,7,-1,3,10
1537921761518072,-14,-32,-37,-58,-22,0,2,10
1537921761533032,2,-8,4,31,-4,97,-1,-4
1537921761533032,6,-8,-17,-20,4,113,5,16
1537921761541011,-4,15,28,-47,1,-85,-7,-22
1537921761541011,12,-11,9,47,-15,-108,3,11
1537921761556968,-15,-26,-21,-21,23,-128,-7,1
1537921761556968,2,-9,-16,15,0,-116,0,13
1537921761556968,-24,-8,-3,11,15,19,12,-16
1537921761556968,-8,19,13,-21,-5,39,-11,-10
1537921761570931,-30,-17,-15,-10,-22,61,33,31
1537921761570931,-16,27,52,-21,27,51,-13,-30
1537921761577912,-3,-4,-3,31,11,30,-8,0
1537921761577912,-24,-55,-26,-24,-8,20,-7,-38
1537921761593869,3,1,-6,53,7,45,-18,3
1537921761593869,24,-5,-51,-13,1,93,28,55
1537921761600851,8,18,-1,-52,-34,125,5,81
1537921761600851,18,61,51,-43,15,-38,-30,-38
1537921761616808,13,6,30,95,13,-113,4,-46
1537921761616808,-31,7,-102,8,-11,-128,49,38
1537921761617806,88,44,-110,34,24,-128,8,90
1537921761617806,-9,-113,-56,-15,-32,-5,5,-19
1537921761630771,-21,-127,98,-21,-48,59,-12,33
1537921761630771,4,-30,63,-19,-103,85,-30,-52
1537921761638749,-54,83,-47,-25,22,41,-4,-38
1537921761638749,-34,124,102,-17,105,93,2,-42
1537921761653709,-46,-59,68,-33,127,-39,63,-54
1537921761653709,-83,-128,127,34,-81,-90,57,7
1537921761660691,-128,-128,-75,28,-128,-85,-10,48
1537921761660691,-50,-62,-128,0,79,80,-65,-6
1537921761676648,-1,-29,-128,-31,107,127,-128,-48
1537921761676648,-82,-46,-128,-28,70,66,-83,-21
1537921761677646,-95,-2,-77,-11,-95,-65,-48,-43
1537921761677646,-22,-5,-110,49,-128,-88,37,35
1537921761690611,87,31,-108,-37,-128,-6,63,71
1537921761690611,127,38,-58,-1,-69,-31,16,-20
1537921761698589,127,3,13,11,-25,16,19,-45
1537921761698589,107,-12,12,18,-25,16,32,19
1537921761713549,40,12,-20,-12,-13,-6,30,13
1537921761713549,-91,47,-2,-1,16,-12,-11,-1
1537921761720531,-128,-10,55,-16,51,37,10,-6
1537921761720531,-128,5,24,19,24,1,21,34
1537921761736488,-100,30,0,-3,-16,-34,-12,-2
1537921761736488,-50,15,3,0,19,-9,-5,3
1537921761737486,-29,-7,41,0,38,34,10,-21
1537921761737486,4,-7,6,-12,2,-11,-4,-2
1537921761750451,-18,21,3,15,-17,-18,-8,-2
1537921761750451,-8,-5,9,2,28,6,-5,-6
1537921761758430,29,-13,22,2,23,15,3,-16
1537921761758430,14,-4,11,-5,-7,-4,-2,16
1537921761773390,-26,2,-5,-13,-9,-11,-6,-8
1537921761773390,12,-3,-7,-6,11,4,-2,-3
1537921761781368,32,-2,18,12,13,8,-1,-12
1537921761781368,1,2,10,3,-7,-6,0,4
1537921761796329,-15,5,-2,-9,-10,-1,0,0
1537921761796329,21,3,-6,-1,6,-1,-1,-1
1537921761797327,10,-6,9,-2,9,6,-2,-7
1537921761797327,-6,-9,3,8,-4,0,1,5
1537921761811289,-1,9,-9,-11,2,-5,-4,-3
1537921761811289,9,3,4,-5,0,-1,-8,-1
1537921761818270,-3,-8,16,2,8,6,1,-8
1537921761818270,-2,-5,-1,-5,-2,-1,4,1
1537921761833229,5,6,-8,10,-4,-7,-1,1
1537921761833229,-1,-4,2,5,0,-4,-3,-3
1537921761841208,2,-2,6,-3,3,6,0,-3
1537921761841208,7,7,5,2,-1,-1,0,1
1537921761856168,-5,-1,-7,-6,-7,-3,-2,-1
1537921761856168,-2,-1,0,-6,-1,-1,-3,-4
1537921761857166,5,2,4,-8,4,5,2,-3
1537921761857166,2,-3,-4,13,-3,0,1,1
1537921761871128,-8,-1,4,2,-5,-3,-1,0
1537921761871128,-2,2,-7,-7,-1,1,2,0
1537921761878110,4,-5,3,15,3,2,-1,-4
1537921761878110,1,-3,1,-12,-3,-3,1,1
1537921761893069,-4,0,-2,-3,-9,-2,-1,0
1537921761893069,0,-4,-10,-22,0,-1,-3,-3
1537921761901048,1,-1,5,9,-1,2,-2,1
1537921761901048,-4,-4,-3,3,0,-2,0,2
1537921761917006,-2,5,12,17,5,0,1,-2
1537921761917006,3,1,-1,-7,-6,-4,1,0
1537921761917006,-3,-2,12,20,6,1,0,-2
1537921761917006,-2,-2,-1,3,-8,-4,1,2
1537921761930968,-3,1,-7,-6,-1,-2,-3,1
1537921761930968,-1,2,7,-10,1,2,-5,-7
1537921761937950,1,-13,-13,-11,-9,0,1,1
1537921761937950,-3,-7,-5,5,4,-3,-3,4
1537921761952910,-3,-7,-24,-28,6,-1,-3,0
1537921761952910,-1,14,39,14,-7,4,-2,-9
1537921761960888,5,7,-1,-15,-1,2,0,-4
1537921761960888,-2,-2,1,12,5,2,2,1
1537921761975848,3,3,-2,-12,-11,-1,-1,-4
1537921761975848,-3,-17,-23,-10,9,-2,5,18
1537921761983827,0,-1,-11,-17,-26,-1,0,-7
1537921761983827,-2,-2,20,4,11,-7,-9,-12
1537921761990809,8,19,-12,9,15,8,5,3
1537921761990809,-6,10,54,48,5,-3,-10,-18
1537921761998787,-16,-38,-27,-13,-12,-27,-18,-21
1537921761998787,-3,-18,-39,-28,0,11,21,33
1537921762013747,0,5,8,1,-9,3,-17,-43
1537921762013747,-13,2,-8,-35,-8,4,13,17
1537921762020728,33,25,56,32,35,1,-13,46
1537921762020728,13,6,4,-18,-40,-21,-16,-55
1537921762035688,-26,-45,-32,6,4,3,3,-5
1537921762035688,56,50,13,66,26,15,1,39
1537921762043667,-49,-71,-27,-38,-1,17,11,-40
1537921762043667,70,93,6,13,32,6,14,97
1537921762058627,-4,-17,37,30,-22,-27,-42,-56
1537921762058627,-17,-31,-74,-105,-64,-15,-10,-34
1537921762059624,9,29,28,33,36,-16,-14,-49
1537921762059624,-38,-49,27,78,40,30,58,-26
1537921762073587,52,93,19,-39,-19,40,22,121
1537921762073587,-5,4,36,51,-12,-27,-28,-92
1537921762080568,-12,6,14,-25,-18,-11,-8,47
1537921762080568,-41,-53,-48,-10,3,-3,-13,-49
1537921762095528,-91,-40,-7,33,38,-8,-4,-18
1537921762095528,-24,8,-28,-1,-10,14,14,17
1537921762104504,50,23,15,-39,-14,7,2,15
1537921762104504,-67,-7,8,-4,-83,-17,-20,-15
1537921762110488,-98,-6,-13,-1,-86,3,15,-2
1537921762110488,-82,-8,0,-15,101,45,62,17
1537921762118467,62,24,-3,0,68,0,53,-15
1537921762118467,127,5,26,9,50,-21,-37,13
1537921762133427,127,-24,-25,-15,-4,9,-82,3
1537921762133427,80,-27,-16,-13,-36,-29,-83,-1
1537921762140408,57,7,-16,4,-10,-15,-35,-2
1537921762140408,-2,-11,0,-9,-21,-9,-1,-2
1537921762156366,-21,4,14,7,-6,-7,38,17
1537921762156366,-62,-6,-4,8,8,16,28,16
1537921762164345,-88,4,-10,4,-7,17,18,3
1537921762164345,-71,12,0,-10,-9,11,19,3
1537921762179305,2,32,6,0,18,-7,15,16
1537921762179305,-14,-10,5,1,3,0,8,-11
1537921762179305,-21,-1,-8,2,-24,-5,0,2
1537921762179305,-17,1,-1,-13,-9,3,-6,-4
1537921762193268,-3,-4,9,1,27,1,11,-10
1537921762193268,19,-2,-6,13,-2,-11,0,14
1537921762201246,-8,-8,-9,-18,-17,5,4,7
1537921762201246,-7,7,-2,-6,9,6,-14,-12
1537921762216206,0,-5,13,2,12,-6,10,-9
1537921762216206,15,-3,-11,-3,-14,-10,-5,5
1537921762224184,-29,-8,-4,15,-1,5,-6,-12
1537921762224184,10,3,9,2,3,3,3,8
1537921762239145,-1,-6,-11,-19,-4,-10,1,-11
1537921762239145,4,-2,-2,-4,-3,-4,-3,0
1537921762240142,-8,2,1,2,2,6,-1,3
1537921762240142,1,5,4,3,3,0,-3,0
1537921762253107,0,-6,-1,-2,-2,-5,1,-4
1537921762253107,1,-6,-6,-8,0,0,2,-1
1537921762261086,-7,2,6,8,-1,4,-2,2
1537921762261086,4,3,-1,-1,-6,1,-5,1
1537921762276046,-9,-7,0,-1,1,-5,3,-8
1537921762276046,4,2,3,-5,2,0,-3,4
1537921762284024,-2,-7,-10,-1,-9,-1,-3,-3
1537921762284024,-1,2,5,1,1,-2,-2,1
1537921762298984,-6,0,1,3,3,2,4,0
1537921762298984,2,-3,2,-3,-2,-7,1,0
1537921762299982,-2,-4,-17,0,-6,0,-8,-2
1537921762299982,-1,0,6,-35,-1,2,-1,-1
1537921762312947,0,0,9,22,2,-1,6,-2
1537921762312947,-1,0,3,33,-1,0,-3,3
1537921762320926,-6,1,8,5,-2,1,0,-3
1537921762320926,-2,2,-10,-7,-1,-1,0,-1
1537921762335886,0,-4,-7,-15,2,-4,-3,-5
1537921762335886,1,-1,7,-12,-3,-2,-2,-3
1537921762343864,-1,1,3,14,-2,-2,2,5
1537921762343864,-1,-1,-4,3,2,1,-2,1
1537921762358824,-2,-2,0,-2,0,-4,-1,0
1537921762358824,1,-2,-12,-14,-5,0,-2,0
1537921762359822,1,1,2,1,4,2,-5,-4
1537921762359822,2,5,5,2,-5,1,0,-3
1537921762373784,-6,-5,-2,5,6,1,3,-4
1537921762373784,1,2,-3,5,1,-1,3,2
1537921762380766,-1,2,-3,-13,-11,-3,0,-1
1537921762380766,-1,-6,-2,-4,0,-1,-1,3
1537921762395727,3,-3,0,-17,-2,0,-1,-1
1537921762395727,2,3,7,6,8,0,1,-3
1537921762403705,-3,-3,12,32,-15,-2,2,0
1537921762403705,-3,-3,-8,14,7,0,-1,3
1537921762418664,-3,-4,-7,-9,1,-4,-1,2
1537921762418664,-1,-2,-4,-6,0,1,-1,-4
1537921762419662,-1,0,-1,-16,2,0,-1,-5
1537921762419662,0,0,4,0,-4,0,-2,-1
1537921762433625,0,-2,-1,7,0,-2,-1,-1
1537921762433625,-3,-1,1,-8,-5,-4,-5,1
1537921762440606,1,-2,-4,2,1,1,0,-1
1537921762440606,-2,-3,-1,-5,-4,-1,-2,-1
1537921762455566,0,3,-1,-1,2,-2,1,-2
1537921762455566,0,1,0,1,-5,-3,-2,1
1537921762464542,-3,1,-4,-10,3,0,-1,2
1537921762464542,2,-2,-1,5,-4,3,-1,-2
1537921762479502,0,8,2,3,-2,-4,-4,-2
1537921762479502,-4,-4,-3,-4,-4,-3,-1,0
1537921762479502,0,-3,-4,-1,4,-3,0,1
1537921762479502,-1,-8,-2,-5,-2,-4,0,-2
1537921762493465,-3,-3,4,5,-2,-1,-5,-9
1537921762493465,0,-3,-1,-2,-3,3,1,1
1537921762500446,0,0,-1,-5,3,2,-4,-4
1537921762500446,-1,-2,-1,1,0,2,2,3
1537921762515406,2,2,0,-2,-2,1,1,4
1537921762515406,-2,-1,-3,1,-1,1,-1,-3
1537921762524382,-1,1,0,-1,-2,87,1,-2
1537921762524382,-1,3,-1,-1,-1,4,0,-2
1537921762539342,-3,-3,1,1,0,-53,-1,-1
1537921762539342,1,0,-5,-8,1,-57,0,-1
1537921762539342,-1,-1,-6,-3,3,-56,-1,-4
1537921762539342,-2,2,5,-9,-5,8,-1,-4
1537921762553305,-1,0,5,13,0,30,2,6
1537921762553305,-2,-2,0,8,3,16,2,3
1537921762561283,0,-1,-3,-4,-2,0,-2,2
1537921762561283,-1,0,-3,-3,2,5,-2,-5
1537921762576243,-1,-3,-3,-6,0,2,-2,-1
1537921762576243,1,1,3,-2,-1,12,0,2
1537921762584222,-1,-1,0,-2,1,-3,1,-1
1537921762584222,0,-4,0,1,-3,-11,-2,-4
1537921762599182,1,0,-2,-3,-3,4,1,-3
1537921762599182,0,-1,-2,0,-1,8,-2,-2
1537921762600180,1,0,0,-4,0,-5,-1,1
1537921762600180,-2,-1,-1,-1,-1,-11,-3,1
1537921762613145,-1,-1,-1,1,2,6,0,-4
1537921762613145,1,-3,-1,-4,-1,7,0,0
1537921762621123,-3,1,0,-2,-2,-12,0,-5
1537921762621123,1,3,2,1,2,1,-1,0
1537921762636084,-2,-3,-4,3,0,6,-2,0
1537921762636084,3,1,1,-1,-2,3,1,2
1537921762644062,-3,1,2,2,-1,-7,0,3
1537921762644062,-1,0,-4,0,-2,1,-2,0
1537921762659022,-1,0,-1,-3,-2,3,2,-2
1537921762659022,-2,-2,2,0,-2,0,-2,-3
1537921762660019,2,-1,1,-1,0,-3,2,-2
1537921762660019,2,0,0,2,0,-2,-1,-2
1537921762672984,1,-1,0,-4,-1,-1,-2,0
1537921762672984,-2,-1,-4,-5,-2,-1,2,1
1537921762680963,-1,-4,1,4,0,-2,0,-1
1537921762680963,-2,-4,0,-2,-2,-5,1,3
1537921762695923,3,-3,-2,-2,0,1,0,-2
1537921762695923,-3,-2,0,0,-2,2,-2,0
1537921762703902,-3,-4,-1,0,-1,-2,-4,-4
1537921762703902,-3,0,-1,4,-1,-5,-2,-3
1537921762718862,1,2,-3,-12,-1,1,0,2
1537921762718862,-2,-1,1,0,0,3,-3,-3
1537921762719859,-2,-2,-1,-6,-5,-7,-1,0
1537921762719859,-2,1,2,6,0,-1,1,-1
1537921762733822,-1,2,-2,3,-2,-2,-2,0
1537921762733822,-4,1,-1,-2,-1,-1,-1,3
1537921762740804,1,-1,0,0,-1,0,-4,0
1537921762740804,1,1,0,1,0,-2,0,2
1537921762755764,0,-1,1,-11,1,3,3,-1
1537921762755764,2,-2,2,2,-3,-4,-1,0
1537921762763742,-2,0,-2,0,-1,-2,1,1
1537921762763742,1,-1,-3,1,-1,1,-3,-2
1537921762778702,-1,0,1,1,0,-2,-1,1
1537921762778702,-1,1,0,-2,1,2,-2,-4
1537921762779700,-1,-1,0,-1,1,0,1,-1
1537921762779700,0,-2,-2,-2,1,-2,-1,-2
1537921762793662,-1,1,0,5,-5,1,0,-2
1537921762793662,0,-2,-3,-3,-2,-2,-4,4
1537921762800644,0,-1,2,0,3,4,1,-7
1537921762800644,0,-2,0,-4,0,-1,-1,1
1537921762815604,2,-2,1,2,-2,-1,-1,1
1537921762815604,-4,1,1,2,-2,0,-4,-6
1537921762823582,3,1,-4,-1,-1,-2,-2,4
1537921762823582,-4,-2,-3,-4,-2,0,-1,-1
1537921762839539,-3,0,3,1,2,-1,-4,-4
1537921762839539,0,1,-1,-5,-1,-1,0,-2
1537921762839539,-2,-4,-3,2,2,-1,2,-1
1537921762839539,-2,0,0,-2,0,0,-1,-3
1537921762853502,-2,-1,-1,2,-2,-3,0,1
1537921762853502,-1,-2,-2,-4,0,-2,-2,0
1537921762861482,1,-1,-1,2,-3,1,-1,1
1537921762861482,2,0,1,0,1,-1,0,1
1537921762875445,-2,-1,0,0,-2,1,-1,-2
1537921762875445,0,-1,-1,-9,-3,-2,1,0
1537921762884420,-1,0,-3,-2,-3,-1,-1,-1
1537921762884420,-1,-3,-2,0,-2,0,0,-3
1537921762899379,0,-1,1,4,3,-1,-2,-2
1537921762899379,-4,-2,-3,2,0,0,1,0
1537921762899379,-2,0,1,5,-1,-1,-1,1
1537921762899379,-2,-1,1,-11,0,-1,0,1
1537921762913342,1,-1,3,-1,0,-1,2,2
1537921762913342,2,-2,-2,2,-2,-2,-1,-2
1537921762921321,-2,0,-1,-1,-1,0,-2,-1
1537921762921321,-2,1,-1,0,-1,1,-1,0
1537921762936281,-1,-1,-2,-3,0,-2,-3,-1
1537921762936281,2,0,-1,-1,2,0,2,1
1537921762944259,0,-1,-1,-4,-2,1,0,1
1537921762944259,2,-1,1,6,-2,-1,-4,-3
1537921762958222,-5,-3,-2,-3,-1,1,1,1
1537921762958222,0,1,1,5,-1,0,-1,0
1537921762966201,-3,1,-1,-3,-2,-3,1,-1
1537921762966201,-1,-3,-2,-1,-1,-1,1,1
1537921762973182,-3,1,1,5,0,-1,-1,0
1537921762973182,-1,-4,-4,1,0,-2,-1,-1
1537921762981161,-2,-2,3,-5,-1,-1,-2,1
1537921762981161,-1,-3,0,0,-2,-1,0,-1
1537921762996121,3,-3,-1,1,-2,0,-3,1
1537921762996121,2,2,1,-3,2,2,2,3
1537921763004100,-3,-5,-1,0,0,0,-2,-2
1537921763004100,2,3,-1,-1,-1,0,-1,2
1537921763018063,-3,0,0,-1,0,0,-3,-9
1537921763018063,-1,-1,1,-1,-1,-2,0,-1
1537921763027038,0,0,-1,-2,0,-1,-1,-2
1537921763027038,-1,1,0,4,0,-1,-2,1
1537921763033022,-1,-4,-1,-5,-2,1,0,3
1537921763033022,-1,1,1,-1,-1,2,-1,-2
1537921763041998,0,0,1,-1,-1,-1,0,0
1537921763041998,-3,-2,0,-3,-2,0,-3,-1
1537921763055961,0,2,-1,-1,0,-3,1,-3
1537921763055961,-2,-1,1,2,-2,0,-2,-3
1537921763063939,-1,-1,-2,-4,-2,-2,-1,2
1537921763063939,0,-3,-2,11,2,0,2,-2
1537921763077902,2,1,2,-18,-2,-1,0,1
1537921763077902,-4,-2,3,3,-2,-1,0,-2
1537921763086878,1,-1,1,3,-4,2,0,3
1537921763086878,-2,-2,1,2,0,0,-4,-3
1537921763093859,-3,-1,-1,1,-1,-3,-1,1
1537921763093859,-3,-4,-8,-18,0,-4,-2,-1
1537921763101838,-2,1,-8,-4,-2,1,-1,-5
1537921763101838,-1,1,12,14,-1,-2,1,-1
1537921763115801,2,-1,-1,1,0,-2,2,3
1537921763115801,-1,7,-12,-16,7,5,-2,-6
1537921763131758,-6,0,17,33,0,-2,2,-10
1537921763131758,4,1,-2,-21,-9,3,6,12
1537921763138740,-3,-7,-12,-35,7,-4,-10,-11
1537921763138740,-3,-11,-13,33,2,0,6,0
1537921763146718,10,15,4,-14,-13,3,0,19
1537921763146718,-4,8,7,1,5,-3,1,-15
1537921763161678,9,-5,-16,-7,-8,-7,-4,10
1537921763161678,-5,-5,5,-27,10,6,1,0
1537921763162676,5,7,18,27,10,9,0,-5
1537921763162676,15,28,31,32,0,3,11,13
1537921763175641,20,21,37,16,9,-6,-5,3
1537921763175641,-12,-60,-54,-7,-27,-12,2,7
1537921763183620,-4,-18,-62,-36,-7,-6,4,1
1537921763183620,-5,-4,-7,-22,3,5,-10,-13
1537921763198579,15,35,-9,-30,6,8,21,33
1537921763198579,-12,23,81,49,2,-6,-25,-32
1537921763206558,-24,-23,3,1,-7,-7,-15,-23
1537921763206558,20,-20,-46,-7,-5,-15,-15,23
1537921763221518,-14,1,-19,3,7,19,11,-23
1537921763221518,63,59,33,-2,7,16,23,77
1537921763222516,11,23,57,-8,-7,-10,-20,-31
1537921763222516,-23,-22,-43,-15,11,-4,2,-6
1537921763235481,-20,-57,-30,27,-8,-15,-14,-11
1537921763235481,-11,9,-11,-14,-4,-4,2,-15
1537921763244457,21,4,-15,72,13,5,-10,-6
1537921763244457,-14,8,15,-15,-15,-4,-9,6
1537921763258419,16,-18,-6,-23,-18,-48,-50,-27
1537921763258419,-9,49,9,24,17,24,41,-19
1537921763267396,17,2,21,-38,9,31,25,40
1537921763267396,-7,-13,1,-33,-4,-7,-24,-48
1537921763280361,-13,4,36,63,7,11,6,-3
1537921763280361,-15,-16,6,-1,-13,-25,-32,-24
1537921763289337,-5,-5,-26,-16,-1,-9,10,7
1537921763289337,-17,-19,-13,-4,-7,4,16,18
1537921763296318,21,2,-29,-18,-16,7,17,29
1537921763296318,10,12,26,-3,9,1,-14,-9
1537921763304297,-2,-23,-28,1,13,-2,15,35
1537921763304297,-9,-3,-4,6,6,0,-6,-1
1537921763318261,0,27,23,-3,-9,3,2,-12
1537921763318261,-3,-27,-18,-6,-2,0,-2,-5
1537921763327237,-19,7,11,17,2,2,-2,-6
1537921763327237,18,19,7,-11,2,-1,-3,-2
1537921763341198,-13,-10,17,-2,-6,6,1,-17
1537921763341198,-16,-6,-19,3,-4,1,8,4
1537921763350174,-3,-4,10,-6,-6,-14,-12,-6
1537921763350174,8,3,2,3,2,2,10,4
1537921763356159,-12,-8,0,-2,6,8,4,-8
1537921763356159,-1,-15,-13,2,-5,-5,-8,2
1537921763365134,-1,5,-5,-7,-4,-5,0,7
1537921763365134,-6,-3,3,6,-2,1,0,-11
1537921763378100,-2,7,1,-4,3,2,-2,10
1537921763378100,-5,-8,7,-2,0,-5,-9,-7
1537921763387075,0,2,-2,6,-1,-2,5,-3
1537921763387075,-1,1,6,9,-4,3,2,5
1537921763401038,-5,0,-4,-6,-1,1,0,5
1537921763401038,4,-11,-21,-20,-2,-3,-3,-3
1537921763410014,-3,-3,1,-13,-2,-1,-2,-9
1537921763410014,6,7,9,14,3,2,2,2
1537921763415998,-11,-6,1,0,1,-1,1,-2
1537921763415998,3,-4,-5,-2,-4,-1,0,7
1537921763424974,0,3,5,4,-6,-4,-4,-5
1537921763424974,-2,-1,1,-8,-6,0,0,-1
1537921763437940,1,2,3,7,4,0,2,4
1537921763437940,-2,-3,-1,3,2,-2,-3,-3
1537921763446916,-6,3,-5,-1,-2,-3,-2,-5
1537921763446916,-1,-3,9,6,3,-2,0,-2
1537921763460878,-5,-4,-21,-17,-4,2,0,-3
1537921763460878,2,-1,17,21,5,-1,-3,2
1537921763469854,-1,-3,-12,-19,-9,-2,1,-4
1537921763469854,1,2,2,17,-1,0,1,-1
1537921763475838,-4,1,6,-3,3,3,0,4
1537921763475838,-2,-3,-11,-6,2,-3,2,-2
1537921763484814,-1,-1,0,-15,1,-1,-3,-3
1537921763484814,2,0,1,3,-2,-2,3,0
1537921763498777,-1,0,5,13,2,-1,-2,-3
1537921763498777,0,0,-6,3,-2,-1,1,2
1537921763507753,-4,-4,-1,-11,-4,3,-1,1
1537921763507753,4,1,2,-4,0,3,-1,1
1537921763520718,-3,0,1,5,3,0,0,-3
1537921763520718,-1,-1,-2,-10,-3,0,0,-3
1537921763529695,1,-3,4,-8,-4,-4,0,1
1537921763529695,-2,-1,-2,8,-1,-1,-1,-1
1537921763535678,1,-1,5,12,2,0,2,4
1537921763535678,-1,1,1,1,-4,0,0,3
1537921763544655,-4,-1,-7,-6,1,1,-2,-5
1537921763544655,0,-1,-8,-16,0,-3,-3,-2
1537921763558617,1,2,8,12,3,-1,0,-3
1537921763558617,0,-2,-2,-4,-2,-2,-3,3
1537921763567593,-2,-2,-3,-6,-2,-3,-3,-5
1537921763567593,-2,-2,-2,-2,-1,1,2,1
1537921763582553,2,3,-8,-4,-2,1,0,-2
1537921763582553,-1,0,1,8,-2,0,-1,-1
1537921763583551,2,3,7,11,1,1,0,0
1537921763583551,0,5,2,-11,0,-1,-1,0
1537921763595519,-2,-7,-5,6,-4,0,-1,0
1537921763595519,-4,-6,-7,-12,-4,-5,1,0
1537921763604495,0,2,0,0,0,2,-2,-2
1537921763604495,1,0,-4,3,1,0,-1,0
1537921763618458,0,1,0,-24,-1,-1,-1,-3
1537921763618458,-2,1,16,7,-6,-4,0,-1
1537921763627434,0,-4,-8,11,4,-2,0,4
1537921763627434,-1,-4,-1,3,1,0,-1,1
1537921763642394,2,-1,-5,4,4,1,1,-1
1537921763642394,-3,-5,-5,-23,-7,1,-3,-2
1537921763643391,-1,3,2,2,3,-1,-2,-6
1537921763643391,2,-1,6,-4,-3,-4,0,-1
1537921763655359,0,2,5,17,-3,-1,1,1
1537921763655359,1,-1,-6,-23,0,1,-3,-3
1537921763664335,2,-2,-1,29,4,1,1,2
1537921763664335,-8,2,0,-2,0,-1,-4,-3
1537921763678298,3,5,3,-5,-5,-3,-1,0
1537921763678298,-6,-14,-37,-37,6,-1,-5,-7
1537921763687274,-3,6,28,14,1,0,-3,-8
1537921763687274,6,-3,-1,0,-27,-3,1,11
1537921763702234,-8,-3,-6,10,9,2,5,-3
1537921763702234,9,1,-4,-23,-2,-2,0,11
1537921763703232,-9,-3,-11,7,11,-2,-6,-11
1537921763703232,-2,-1,12,20,-22,-23,-19,-25
1537921763716196,-5,6,13,-17,9,10,16,-5
1537921763716196,5,-9,-3,26,12,11,12,28
1537921763725172,-23,-26,-23,-25,-8,-5,-4,-5
1537921763725172,12,23,18,18,20,10,28,26
1537921763738137,-17,-22,4,6,-11,0,-17,-9
1537921763738137,10,4,-21,-32,-20,-18,4,3
1537921763747113,-22,6,18,-2,-10,2,-30,-75
1537921763747113,-17,-25,0,3,26,34,61,7
1537921763762074,30,9,1,23,10,6,-2,111
1537921763762074,-2,-14,-3,10,-7,-23,-23,-25
1537921763764068,-25,10,-15,-15,-6,6,8,-15
1537921763764068,27,44,27,-14,-2,-2,-13,-13
1537921763776036,6,-1,20,25,-2,-4,0,-7
1537921763776036,-34,-11,-25,-19,-3,-4,-10,1
1537921763785012,24,-18,-2,25,-11,-38,-50,-16
1537921763785012,2,29,-25,-25,10,12,23,14
1537921763797977,-10,3,21,-16,-7,13,-8,-25
1537921763797977,14,9,40,59,4,-7,-11,-13
1537921763806953,-11,-15,-7,-15,-3,3,18,7
1537921763806953,4,-19,-8,5,4,-7,-8,11
1537921763821913,-15,-5,-23,-25,-14,-12,-7,-23
1537921763821913,-13,7,4,-7,1,-1,-7,-11
1537921763823908,17,-8,8,-12,6,9,0,3
1537921763823908,-1,5,5,14,4,15,12,16
1537921763835876,8,-6,-7,-9,-1,-2,11,20
1537921763835876,3,0,-3,20,11,14,16,-9
1537921763844853,9,16,-10,-8,3,-1,9,36
1537921763844853,-22,-29,-36,-28,-20,-21,-31,-29
1537921763858816,-1,15,11,-9,3,-8,-11,-32
1537921763858816,10,19,32,24,5,8,24,16
1537921763866794,13,4,-1,-14,-7,8,2,16
1537921763866794,-9,-12,-1,11,6,-4,-18,-13
1537921763881754,-3,-3,-13,3,-6,-4,6,-10
1537921763881754,-2,1,-4,11,2,-4,-9,-5
1537921763888735,5,1,2,-19,0,-1,13,24
1537921763888735,-7,-2,0,-6,-4,1,-3,-8
1537921763895717,2,-1,-9,-13,1,-9,-4,0
1537921763895717,0,-7,2,5,-8,-1,-2,-8
1537921763904692,7,7,-1,5,2,5,10,14
1537921763904692,0,-2,14,10,4,-3,-8,3
1537921763918655,1,-7,-15,-8,-13,-4,-1,-9
1537921763918655,-3,-1,-11,-25,1,4,3,2
1537921763927631,9,9,11,19,3,6,6,2
1537921763927631,1,-5,0,5,-2,-8,-11,-3
1537921763941594,-2,-4,-9,-4,1,0,1,-6
1537921763941594,1,0,7,-5,-5,2,-1,-2
1537921763948575,3,12,3,12,4,-1,3,7
1537921763948575,-4,-8,-9,-12,-4,-5,-8,-8
1537921763955557,0,-1,-3,4,3,2,-1,-5
1537921763955557,1,4,7,3,1,2,0,2
1537921763964532,-4,-6,-3,-4,-1,-4,1,-6
1537921763964532,-1,0,-4,-10,-6,-3,-3,-2
1537921763978495,-5,-4,1,1,4,0,-1,-4
1537921763978495,-2,2,-1,0,1,3,-2,0
1537921763987471,-2,-5,-5,-8,-3,-1,-2,4
1537921763987471,3,-3,2,-1,-4,-2,-3,-5
1537921764001434,-2,-4,-3,2,0,1,0,-1
1537921764001434,0,-1,-8,-7,-1,1,0,-2
1537921764008415,-1,-2,10,11,1,0,2,2
1537921764008415,2,3,2,2,-3,-2,0,8
1537921764015396,-3,-1,-6,3,0,-3,-1,-1
1537921764015396,-2,-3,-2,-10,-3,2,0,-2
1537921764024373,-3,-5,-9,-14,-3,-2,0,0
1537921764024373,0,0,3,8,4,2,-3,0
1537921764038335,2,1,-4,10,0,-1,0,1
1537921764038335,-2,-3,-3,-15,-2,1,1,-2
1537921764047311,1,2,5,1,-2,-2,4,0
1537921764047311,-2,-5,3,2,-1,-3,-3,-5
1537921764061274,-1,1,-4,-7,-1,-2,-1,-1
1537921764061274,-1,-1,3,14,-2,1,0,0
1537921764068256,0,0,-1,-3,0,-1,-1,1
1537921764068256,-1,-4,-5,-3,-4,-2,0,-1
1537921764084213,0,-1,4,2,2,-1,-1,-4
1537921764084213,-2,4,4,0,-1,-1,0,1
1537921764086208,0,0,-5,-6,-5,-1,1,-2
1537921764086208,-2,0,-4,-5,-1,-2,-4,-1
1537921764098175,0,-1,-2,-5,-1,-1,2,1
1537921764098175,1,-2,6,10,1,0,0,-1
1537921764107151,-2,0,-2,4,1,0,1,4
1537921764107151,-2,-2,-4,-2,1,2,-2,0
1537921764121114,-5,2,0,3,2,-1,2,-3
1537921764121114,3,-3,-2,-12,-3,-3,-2,-2
1537921764128096,2,-2,1,9,-1,-2,-3,0
1537921764128096,1,-1,-1,-23,-5,-3,1,0
1537921764145051,-1,-1,-1,9,-3,1,-2,2
1537921764145051,0,-2,0,15,3,-2,1,2
1537921764146048,-1,-4,-3,-18,-2,-3,0,1
1537921764146048,1,-2,1,-5,0,0,0,0
1537921764158015,1,-1,5,10,-1,1,4,-3
1537921764158015,-3,-1,-8,-14,-5,-1,-3,0
1537921764166992,0,0,2,8,3,-1,1,-3
1537921764166992,-4,-2,0,8,-1,-2,-3,1
1537921764181951,-3,1,1,-10,-5,-2,-2,-3
1537921764181951,-1,-3,-1,1,1,1,-1,3
1537921764187935,-3,1,-2,-5,0,-1,-1,-1
1537921764187935,1,1,0,-2,0,0,2,-1
1537921764205887,1,-2,1,-3,2,1,-2,0
1537921764205887,1,0,-3,-2,-3,-1,-2,-2
1537921764206885,-4,-1,-1,2,-1,-2,-2,0
1537921764206885,0,0,2,6,-2,-1,1,3
1537921764217855,-1,-1,-2,-5,-2,0,-1,0
1537921764217855,-1,1,1,-1,-2,-2,-2,0
1537921764226831,-1,-1,0,0,3,1,-2,-1
1537921764226831,-2,-2,-8,6,2,0,-1,-1
1537921764241791,0,1,3,-4,0,-2,0,-2
1537921764241791,-1,-1,-2,-5,-4,-1,1,-1
1537921764248772,-2,-4,-1,10,-1,0,-1,0
1537921764248772,-2,1,-1,-12,0,1,-1,-2
1537921764264729,-2,1,1,5,-1,-2,-1,0
1537921764264729,-2,-1,0,1,1,-1,-1,0
1537921764265727,1,0,-3,-5,0,-2,2,0
1537921764265727,0,-4,2,4,-2,-2,-3,-3
1537921764278693,1,0,-1,-10,0,-2,-2,-1
1537921764278693,0,0,2,3,0,-1,-1,0
1537921764287668,-1,-2,0,0,1,2,-2,-4
1537921764287668,-1,0,1,2,0,-2,2,-1
1537921764301631,0,-1,-2,0,-1,0,-4,-1
1537921764301631,-2,3,-4,-1,0,-1,-1,-1
1537921764308612,-1,-1,-1,-3,-1,0,0,-3
1537921764308612,0,-4,2,3,0,-3,0,0
1537921764324570,0,-2,-1,3,0,-1,-3,-2
1537921764324570,-3,1,-1,-1,0,1,1,1
1537921764326565,0,-3,0,-5,-3,-2,-2,-2
1537921764326565,-1,-1,2,4,2,0,-3,-2
1537921764338533,-3,-1,-1,-7,-4,0,-1,-1
1537921764338533,-1,-3,2,8,2,-1,-1,-2
1537921764347509,-2,2,3,-4,-3,-2,-2,1
1537921764347509,-3,-1,-2,1,0,0,-2,0
1537921764361472,1,-1,-4,-8,-4,-1,-1,-2
1537921764361472,1,0,-1,7,0,-2,-1,0
1537921764368453,-1,2,1,-7,0,1,1,-3
1537921764368453,0,-4,-2,-7,-2,0,-2,0
1537921764384410,-2,0,1,3,1,-1,0,0
1537921764384410,-1,1,3,1,-3,0,-2,-4
1537921764386405,2,-1,-4,2,-1,0,2,-2
1537921764386405,0,3,-1,-5,1,-1,-2,-2
1537921764398373,1,0,0,2,-1,1,2,0
1537921764398373,-1,-3,-3,2,1,2,-1,3
1537921764407349,-2,-3,0,-4,-3,-1,0,1
1537921764407349,-1,-3,-1,-3,-3,-1,-1,-2
1537921764421311,-1,-1,-4,-2,-1,-1,-2,-3
1537921764421311,-1,1,0,-11,-1,0,-1,0
1537921764428293,0,1,3,10,3,0,3,0
1537921764428293,-2,-1,3,11,-5,-1,-1,-3
1537921764444250,-2,-1,-3,-3,2,-1,-2,0
1537921764444250,2,-2,-3,-6,0,0,0,-4
1537921764446245,0,-4,-4,-7,-1,-3,-2,2
1537921764446245,-1,0,0,0,1,-1,-1,-3
1537921764458212,-1,-3,1,12,1,0,1,-2
1537921764458212,-2,-1,-1,-5,-6,-4,1,-1
1537921764467188,0,-2,1,-5,6,0,-1,0
1537921764467188,-1,0,-2,-2,0,-2,0,0
1537921764481151,-2,-2,-6,-7,-1,0,0,1
1537921764481151,-2,-1,6,6,1,0,2,-2
1537921764488132,-2,1,6,14,-2,-2,-2,2
1537921764488132,-1,-4,-2,-1,1,-3,0,-2
1537921764505087,1,2,0,-6,-4,1,-1,-3
1537921764505087,-2,-1,-4,-4,-2,-2,-2,1
1537921764506084,0,-1,-4,-10,-2,1,-2,0
1537921764506084,-1,2,2,6,-2,-1,1,-2
1537921764518052,-2,-4,-1,-15,-2,-1,0,1
1537921764518052,1,2,3,17,3,0,0,0
1537921764527028,-2,0,3,2,-3,-1,-1,0
1537921764527028,-2,-2,-2,-9,1,2,-1,1
1537921764541988,0,0,5,7,0,-1,0,0
1537921764541988,-1,0,-2,-4,-1,0,0,-1
1537921764547972,0,0,-4,-10,-1,-1,-1,-1
1537921764547972,-1,-2,-5,2,-4,-1,-1,-1
1537921764564927,-1,2,0,-3,0,-2,-2,-1
1537921764564927,-4,-2,1,11,4,1,2,0
1537921764565925,0,0,8,-5,-3,2,0,0
1537921764565925,-3,-2,1,5,-1,-3,2,0
1537921764577893,0,0,-3,-5,2,1,-1,1
1537921764577893,-2,-2,-1,0,-2,-2,-1,0
1537921764586868,0,0,3,5,3,-2,-3,-1
1537921764586868,1,2,1,-6,-2,-1,1,0
1537921764601829,-1,0,2,0,-2,-2,-1,-2
1537921764601829,-1,0,-7,-11,-1,1,-4,0
1537921764608810,-2,-1,-1,4,2,1,-2,-3
1537921764608810,0,1,5,0,-2,1,-2,0
1537921764624767,0,-2,-6,-8,-3,-2,-2,-2
1537921764624767,2,1,6,11,-2,-2,1,-2
1537921764625765,-3,0,-4,-3,0,1,1,0
1537921764625765,-2,-4,-2,-15,-5,0,-2,-1
1537921764638730,1,1,4,21,1,1,-1,4
1537921764638730,0,-6,-13,-23,0,-2,-2,0
1537921764647706,-1,0,2,1,2,-1,-1,-6
1537921764647706,-1,1,1,2,0,0,1,-3
1537921764661669,-2,1,-19,-52,-9,-4,-1,3
1537921764661669,0,1,28,34,4,2,-2,-4
1537921764668650,-2,6,10,29,-2,-4,3,2
1537921764668650,-3,-4,-7,7,6,-1,-1,2
1537921764684607,-2,0,1,18,5,2,-1,-5
1537921764684607,0,-9,-56,-101,-27,1,-4,-7
1537921764686602,3,5,30,50,-2,-3,-2,-5
1537921764686602,1,0,0,-4,-11,0,-4,-4
1537921764698570,0,-6,-43,-69,12,-1,-2,-5
1537921764698570,-2,11,85,88,5,-4,6,10
1537921764707546,-3,-4,-50,-84,-1,-2,2,11
1537921764707546,-6,-11,-3,28,55,6,-14,-33
1537921764721509,6,27,99,97,-5,-1,6,11
1537921764721509,0,-2,-55,-111,-92,-6,9,22
1537921764728490,-1,-11,-55,-47,21,-5,-3,8
1537921764728490,-5,-7,-16,39,29,-2,2,7
1537921764743450,-11,-16,-46,13,-11,-6,-18,-45
1537921764743450,-1,16,41,-23,5,5,-7,-17
1537921764752426,7,-4,-15,24,-4,3,0,3
1537921764752426,-10,-29,-62,-93,-7,4,3,-2
1537921764758410,7,18,111,107,26,4,2,8
1537921764758410,-11,-4,-68,-40,-65,-8,2,12
1537921764767386,5,10,4,103,73,-3,-9,-12
1537921764767386,-3,9,-37,-25,39,4,-5,-23
1537921764781349,6,-8,-10,87,-7,-10,-21,10
1537921764781349,-15,-13,-106,-48,27,13,46,28
1537921764788331,42,-4,-112,-73,12,21,8,64
1537921764788331,9,28,-119,-50,-55,-15,-6,-12
1537921764804288,-4,-30,-82,-128,-51,-16,-23,-25
1537921764804288,2,5,36,127,14,-15,-18,-6
1537921764811269,-3,-10,100,-27,-64,55,9,-21
1537921764811269,6,-45,127,89,18,31,-37,-21
1537921764818251,-2,-78,-123,-15,0,24,17,-24
1537921764818251,15,-63,-106,23,39,-24,9,34
1537921764827227,-26,-11,-42,-4,14,-94,-19,-44
1537921764827227,-22,96,86,17,14,-52,9,0
1537921764841189,7,127,-13,-128,-9,-8,-4,22
1537921764841189,-13,104,-11,41,-8,-6,-46,-64
1537921764848170,-1,72,-128,76,-10,40,36,24
1537921764848170,16,24,-128,-7,-28,46,62,64
1537921764864128,-5,-15,-101,78,15,17,6,24
1537921764864128,13,-46,-113,-14,30,13,-4,-2
1537921764871109,-9,-54,29,-69,-35,10,-11,-9
1537921764871109,-5,-67,-51,-2,-19,4,-14,-1
1537921764878091,-11,-25,10,-10,-7,25,20,2
1537921764878091,3,-15,47,64,19,13,-13,-3
1537921764887066,-14,-13,42,1,53,-38,-6,-27
1537921764887066,13,-2,-18,-72,15,-40,14,50
1537921764902027,7,-13,-44,17,39,-37,4,10
1537921764902027,-11,8,96,22,13,-18,-12,-17
1537921764908010,-1,3,14,51,-30,-3,-4,-7
1537921764908010,-3,-3,2,-17,-48,12,-7,-6
1537921764923967,-5,-6,-18,-99,-86,7,-5,-3
1537921764923967,3,2,25,0,-58,19,4,-13
1537921764930949,-1,9,31,10,-50,19,12,18
1537921764930949,3,12,69,86,-1,2,-9,-4
1537921764937930,-8,-10,20,19,45,-6,-6,-4
1537921764937930,4,-8,-20,-16,47,9,10,7
1537921764946906,-4,-3,-9,-75,15,-2,-9,0
1537921764946906,0,-7,-32,-45,4,-5,-7,-10
1537921764961866,2,2,23,5,11,-2,3,3
1537921764961866,-3,3,28,-9,17,4,8,4
1537921764967850,-2,-2,-13,1,2,-5,-9,6
1537921764967850,-3,-4,-16,-10,-5,-5,-8,-13
1537921764983807,4,9,38,52,3,3,18,16
1537921764983807,-1,0,14,-23,2,2,-6,-3
1537921764990789,-7,-4,-18,-15,-2,-1,-8,-10
1537921764990789,3,3,9,24,-6,-4,1,-7
1537921765006746,-2,-4,3,-18,-1,2,2,8
1537921765006746,-1,-3,-18,-13,11,-7,-2,-1
1537921765008741,-2,-2,15,13,-16,0,-2,-10
1537921765008741,-1,5,33,31,7,5,8,6
1537921765021706,-1,-2,-6,10,1,-2,-2,-3
1537921765021706,-2,-4,-8,-31,1,-5,-1,-2
1537921765028688,-2,-2,-3,-4,0,0,0,-4
1537921765028688,0,-3,-12,-25,-8,-2,-3,0
1537921765043648,-3,5,26,34,4,-3,-4,-7
1537921765043648,1,-5,-18,-26,3,0,-1,3
1537921765050629,0,0,-5,-5,-5,1,-4,0
1537921765050629,-2,4,18,20,3,1,-4,-6
1537921765074565,-2,-4,0,6,2,1,-1,-4
1537921765074565,-1,2,7,2,-2,-1,1,3
1537921765076560,-1,-5,-13,-16,-4,-4,0,-1
1537921765076560,2,-3,-21,-65,-5,-2,-2,-4
1537921765081546,-3,3,18,46,2,-1,-2,-2
1537921765081546,1,2,6,18,6,2,2,6
1537921765088528,-1,-3,-4,-8,2,-1,-4,-3
1537921765088528,-1,-4,-2,13,-2,2,1,1
1537921765104485,-2,-2,-7,-25,-1,0,-1,-4
1537921765104485,0,-1,1,-12,7,-2,-4,-6
1537921765110469,0,6,27,48,-12,-4,3,2
1537921765110469,-1,-5,-9,5,9,0,0,3
1537921765127424,0,2,-4,-21,-6,0,-3,-3
1537921765127424,-2,-5,-21,-19,4,-3,-4,-3
1537921765128421,0,1,12,-8,-8,-1,0,-1
1537921765128421,-3,-2,3,19,-2,-1,-2,0
1537921765141386,-2,-1,4,-4,2,0,-2,-1
1537921765141386,0,2,5,7,0,1,3,1
1537921765148368,0,-3,-15,-18,5,1,1,-1
1537921765148368,1,0,-1,2,-8,-2,0,-3
1537921765164325,-2,-4,-7,-7,-2,-5,-1,0
1537921765164325,2,1,7,-4,-8,1,0,2
1537921765171306,-3,-2,3,7,7,-3,-3,0
1537921765171306,-1,2,2,3,-4,0,0,-2
1537921765187264,1,0,-6,-12,1,-2,-2,-1
1537921765187264,-1,-2,-9,-27,-3,-1,-2,-1
1537921765188261,0,1,12,40,3,0,-2,-2
1537921765188261,0,-2,-3,19,3,0,0,4
1537921765201226,0,0,8,4,1,-2,0,0
1537921765201226,-2,-1,0,-6,-6,0,1,0
1537921765208208,-3,-3,-14,-43,1,-1,-1,-2
1537921765208208,2,0,-9,5,2,0,-1,-2
1537921765224165,-2,2,12,20,-8,0,-3,0
1537921765224165,0,3,5,15,1,-5,0,-1
1537921765231146,-1,-5,-9,-6,1,-1,0,0
1537921765231146,0,5,21,19,-7,-2,0,-2
1537921765247104,-6,-7,-30,-39,-1,1,1,-3
1537921765247104,0,9,10,-11,-4,3,-1,-4
1537921765249099,0,-6,-4,1,-6,0,-1,0
1537921765249099,-3,-5,5,-12,-5,-2,-1,2
1537921765261066,2,-2,8,71,11,-1,0,4
1537921765261066,-6,-10,-43,-86,-7,-3,-6,0
1537921765270043,3,11,22,63,11,0,-1,-23
1537921765270043,-5,-15,-7,-9,-3,4,4,15
1537921765284005,5,2,1,20,12,-3,-9,0
1537921765284005,2,-6,14,19,5,-3,5,-3
1537921765290986,11,7,-2,-45,-15,2,0,26
1537921765290986,-16,-16,-42,-47,-12,-20,-11,-43
1537921765306944,-3,5,-32,-77,-22,28,41,18
1537921765306944,34,16,63,108,18,7,-8,60
1537921765308938,-38,-24,-15,-50,5,-3,-6,-51
1537921765308938,-15,27,45,62,38,1,-15,-40
1537921765320906,23,-4,-45,-66,-23,-13,-7,-17
1537921765320906,-18,-41,12,101,-59,-17,-15,10
1537921765329883,-20,14,21,36,20,-11,-18,-3
1537921765329883,33,9,-71,-124,13,28,52,44
1537921765343845,-5,24,34,97,-1,-14,-56,0
1537921765343845,18,17,26,15,26,3,50,1
1537921765350826,30,13,-6,22,-17,32,22,54
1537921765350826,-13,-41,-41,-98,-7,-11,-14,-6
1537921765366784,0,17,6,37,25,11,20,17
1537921765366784,8,8,30,18,8,-13,-32,-13
1537921765368779,-23,2,-29,-51,-1,-22,-20,-50
1537921765368779,-19,-5,33,25,-41,-1,-9,-9
1537921765380746,19,5,27,14,2,3,18,18
1537921765380746,-12,-5,-17,8,-9,-3,-21,-36
1537921765389723,3,-21,-36,-12,23,5,24,20
1537921765389723,7,8,-11,35,-29,3,0,20
1537921765403685,-6,-10,49,-4,14,-14,-19,-15
1537921765403685,-18,3,-34,-97,-13,2,11,-16
1537921765410667,14,3,-11,1,-11,7,-12,-1
1537921765410667,12,-2,31,60,13,-8,-11,11
1537921765427621,-23,-14,-11,-30,-1,-3,1,-7
1537921765427621,-2,2,-19,-87,16,11,20,-1
1537921765428619,0,0,1,59,-13,-5,1,-7
1537921765428619,0,5,32,60,-20,2,13,1
1537921765440586,7,3,4,19,41,9,7,36
1537921765440586,-11,-5,-27,-41,-11,-3,-14,-21
1537921765449563,-3,-11,-4,-24,-16,-14,-12,0
1537921765449563,-12,6,-12,-28,2,-6,-12,-21
1537921765464522,-2,8,12,-37,-27,-6,0,-12
1537921765464522,4,-4,5,47,4,2,0,7
1537921765470507,-5,-3,14,19,24,-4,1,8
1537921765470507,8,9,8,18,16,4,4,10
1537921765487461,-8,-17,-12,-15,-19,-2,-2,-12
1537921765487461,-2,3,-16,-20,-8,0,0,10
1537921765488459,3,-1,15,12,-3,5,9,-9
1537921765488459,-2,-4,-2,-41,9,-3,-4,-3
1537921765500426,-1,-8,-10,27,-6,-6,1,-6
1537921765500426,0,-1,0,6,1,-6,-3,-1
1537921765509402,2,0,6,-11,2,1,8,8
1537921765509402,5,6,3,12,-2,3,-5,3
1537921765524362,-4,-7,-9,-15,-4,-4,-4,-12
1537921765524362,-4,0,4,19,10,9,4,-4
1537921765530346,3,1,-6,-24,-7,-4,-3,3
1537921765530346,1,1,0,-2,1,-3,-6,3
1537921765547301,-4,1,6,17,-4,1,0,-11
1537921765547301,-2,0,-3,-1,12,2,0,5
1537921765548298,1,-3,-14,-20,-15,-1,1,6
1537921765548298,-3,0,17,19,6,-3,2,-5
1537921765561264,0,-2,-4,-1,5,-1,3,0
1537921765561264,-2,2,2,-6,-4,1,-3,-2
1537921765569242,0,0,10,5,4,0,-2,4
1537921765569242,-2,-4,-25,-25,-3,3,-1,-4
1537921765584202,1,2,21,21,-7,-3,-3,-3
1537921765584202,-1,-2,-4,8,2,0,1,-2
1537921765591183,-1,4,5,4,1,0,-5,-4
1537921765591183,0,-3,-6,-4,0,0,-2,2
1537921765607141,3,-4,-15,-27,-2,-1,-1,-1
1537921765607141,-1,0,2,5,-3,-1,-2,-4
1537921765608139,1,3,6,4,5,-1,0,5
1537921765608139,-1,-3,-11,-4,1,1,0,-1
1537921765621104,-3,-3,5,-1,-1,0,-3,-5
1537921765621104,-3,-1,4,-11,-3,-3,0,1
1537921765630081,2,-3,-6,12,2,0,-1,-1
1537921765630081,2,2,9,3,1,-1,2,3
1537921765644043,-3,-3,-3,4,3,-1,-2,-3
1537921765644043,1,1,-2,0,0,1,2,3
1537921765651024,-3,-1,-6,-26,-8,-3,-4,-1
1537921765651024,1,-1,7,33,1,0,0,-2
1537921765666981,-2,-2,-15,-20,1,2,0,0
1537921765666981,0,0,12,15,0,-1,-2,-2
1537921765668977,1,3,-3,-6,2,1,2,0
1537921765668977,0,4,4,4,0,0,-1,-1
1537921765688923,-1,-1,-6,-9,-5,0,-1,0
1537921765688923,-2,-4,-7,0,-1,-2,-2,1
1537921765689921,1,-1,1,-5,-2,1,-1,0
1537921765689921,0,-1,2,4,-3,-1,0,0
1537921765704881,-1,0,4,-3,0,1,-2,0
1537921765704881,-3,-4,-7,-5,4,0,-1,-4
1537921765710865,1,-4,7,19,-2,-4,1,1
1537921765710865,-1,-1,-16,-17,-3,-1,-2,4
1537921765725825,2,-1,10,-3,-3,-2,-1,-4
1537921765725825,0,1,3,15,1,3,-1,-1
1537921765733803,1,2,1,6,4,2,1,-1
1537921765733803,-1,-4,-1,1,-3,-2,-1,0
1537921765748763,-1,-1,-11,-32,2,1,0,-4
1537921765748763,-1,0,8,20,-10,-2,-2,1
1537921765749760,-2,-3,3,4,-2,-2,3,3
1537921765749760,-2,-3,-4,-2,2,0,-5,0
1537921765764720,-1,-1,-6,-3,-1,-1,0,0
1537921765764720,0,-1,-3,-19,-1,0,0,-3
1537921765770704,0,1,2,-2,-1,-1,1,2
1537921765770704,-2,-1,0,-3,-1,1,0,-1
1537921765785665,-3,-2,2,3,0,0,0,0
1537921765785665,1,3,0,10,4,2,1,3
1537921765793643,-6,-7,2,3,-4,-5,-6,-7
1537921765793643,0,1,2,-2,0,-5,-1,-1
1537921765808603,-2,-2,-4,0,-4,1,1,3
1537921765808603,0,-1,-4,-8,-6,1,3,0
1537921765809601,0,-1,-1,-4,2,0,-2,-1
1537921765809601,3,-2,2,1,1,-1,-3,-2
1537921765824560,-4,1,-3,1,-1,-2,-2,-3
1537921765824560,-2,-2,-1,3,-1,0,0,-2
1537921765830544,1,2,0,-2,-1,0,-2,-3
1537921765830544,-1,-1,-1,6,0,1,-1,0
1537921765845505,0,1,2,4,-3,0,0,1
1537921765845505,0,1,-3,-9,1,-2,-2,2
1537921765861462,0,10,0,-2,2,2,-2,-1
1537921765861462,-4,2,1,3,-3,-2,-1,-2
1537921765868443,1,2,3,9,1,-2,0,-1
1537921765868443,-2,-4,-6,-10,-2,-2,-1,3
1537921765869440,2,-3,3,2,1,4,0,-10
1537921765869440,0,-6,2,0,1,-2,1,-3
1537921765884400,-4,-14,-1,-1,-2,2,2,-2
1537921765884400,0,-4,-2,-2,0,-2,-4,0
1537921765890384,0,0,0,-2,-2,-2,1,7
1537921765890384,1,5,-1,1,-1,-3,-3,0
1537921765905344,-1,1,-3,1,2,0,-4,2
1537921765905344,0,1,-2,-1,0,1,3,0
1537921765913323,0,4,2,-2,2,1,-2,-2
1537921765913323,-3,1,0,0,-1,-2,2,1
1537921765929281,1,1,2,1,1,-1,-2,2
1537921765929281,0,-2,1,-2,0,-2,-3,-1
1537921765929281,1,-3,-3,-4,0,0,-2,2
1537921765929281,-2,0,0,0,0,1,0,-4
1537921765944240,2,2,-1,0,-1,-2,-4,0
1537921765944240,3,0,-1,-3,-2,-6,-2,0
1537921765951222,-5,-1,1,-1,-2,-3,-2,-6
1537921765951222,2,0,-1,-2,-1,1,1,2
1537921765966182,-6,-1,-1,0,1,2,-2,1
1537921765966182,-3,1,-2,-1,1,3,0,-4
1537921765973163,3,-3,-3,0,-2,-2,1,7
1537921765973163,-2,0,0,-1,-4,-4,-4,1
1537921765989121,-2,-1,1,1,2,2,2,-2
1537921765989121,0,0,-1,-2,-4,-2,-5,0
1537921765990118,-1,1,-1,-1,2,2,7,-2
1537921765990118,-1,-1,0,-1,-1,-1,4,0
1537921766005078,5,-1,-2,0,-3,-4,2,6
1537921766005078,-3,-2,-1,-2,-3,-1,-2,-3
1537921766011062,-2,-3,1,-3,-1,-2,-5,1
1537921766011062,-3,-5,-3,0,-1,-2,-1,-3
1537921766026021,3,3,0,-1,1,1,3,5
1537921766026021,-5,-5,0,-1,-2,-4,-4,-9
1537921766033003,6,1,-3,0,-1,-2,-3,0
1537921766033003,-8,-5,-1,-1,4,1,-2,-5
1537921766048960,-3,-2,1,0,-1,0,4,2
1537921766048960,3,1,0,0,-1,-2,-3,-1
1537921766049958,-3,-2,1,1,0,1,-1,1
1537921766049958,-2,-2,-1,-2,-5,-3,-1,2
1537921766064918,0,1,-2,-1,0,-1,0,-2
1537921766064918,1,-1,-1,0,0,-2,2,6
1537921766070901,-8,-4,1,-1,-1,-3,0,-6
1537921766070901,5,1,-3,-3,-2,3,-1,8
1537921766085862,-6,-2,1,-1,-2,-5,-7,-10
1537921766085862,3,3,0,0,2,3,8,3
1537921766092843,2,0,-5,-3,-3,-1,0,5
1537921766092843,4,3,2,0,3,2,1,-5
1537921766108800,-4,-2,2,1,-3,-2,-4,-13
1537921766108800,-2,-5,-4,1,0,2,-2,6
1537921766109797,-3,-2,0,-2,-3,0,-7,-4
1537921766109797,7,4,2,-2,-3,0,7,3
1537921766124757,0,0,-2,0,0,4,1,2
1537921766124757,-3,-3,1,-2,0,-6,-4,-2
1537921766130741,-2,0,-1,0,0,0,1,-7
1537921766130741,-3,-6,-3,2,-2,-3,-7,-2
1537921766145702,4,1,0,-2,2,0,-2,1
1537921766145702,-5,-1,2,-1,-4,0,-2,-6
1537921766153680,3,0,-1,-4,-1,0,-1,5
1537921766153680,-8,-3,0,0,0,0,4,-6
1537921766168640,2,-3,-3,0,-3,-3,-1,0
1537921766168640,-3,1,-1,1,1,2,-1,-2
1537921766169638,1,1,3,0,-3,0,-3,-7
1537921766169638,-2,-2,0,-2,-2,-1,-2,-3
1537921766184598,1,0,-3,-1,-1,-1,-5,0
1537921766184598,2,0,0,0,-1,-1,-3,-2
1537921766190581,-3,-1,3,2,1,4,6,-1
1537921766190581,1,-1,2,-4,0,-2,-5,0
1537921766205541,-3,-3,-3,-2,-3,-1,2,1
1537921766205541,-3,-1,-2,-2,-1,-3,-4,-4
1537921766213520,-1,-3,-2,-1,-3,-4,-2,3
1537921766213520,-1,-2,-2,3,2,-1,-3,-1
1537921766228480,-3,-1,1,-2,-1,-2,-1,-1
1537921766228480,1,0,-2,-5,-3,-1,2,5
1537921766229477,1,-1,-3,0,-1,-2,-1,-1
1537921766229477,0,-3,-1,-2,-3,0,-1,-1
1537921766244437,3,3,1,0,-4,-2,-4,0
1537921766244437,-4,-2,-1,1,1,1,3,-2
1537921766250421,-1,0,0,-1,1,-3,-3,-3
1537921766250421,1,1,-1,-3,-3,1,-2,2
1537921766265382,-6,1,0,-7,-8,-1,0,-2
1537921766265382,0,-1,1,3,2,0,-1,-2
1537921766273360,0,1,-4,-4,0,0,-2,0
1537921766273360,0,0,-3,4,3,-2,0,-2
1537921766289317,0,-5,2,7,1,-1,-2,-1
1537921766289317,-2,2,4,4,-1,0,2,1
1537921766289317,-3,-2,-1,3,-1,-2,0,0
1537921766289317,-2,1,-1,-2,-5,-1,0,0
1537921766304277,0,3,0,-7,1,-3,-2,-1
1537921766304277,-1,-3,-9,-27,-6,-1,-2,-3
1537921766311259,1,-1,2,26,4,1,1,0
1537921766311259,2,4,4,-6,0,1,-3,1
1537921766326219,-4,-3,1,10,-4,0,3,5
1537921766326219,-3,-5,-4,-2,3,0,-1,-3
1537921766333200,2,-2,-6,-23,-5,-1,0,-1
1537921766333200,-2,-5,-2,6,-2,-2,-3,-4
1537921766349157,1,1,0,8,4,-2,-1,-3
1537921766349157,1,0,3,1,-4,-2,0,2
1537921766350155,-1,0,-1,-2,-2,-1,0,4
1537921766350155,-3,-3,-6,-2,3,-1,-2,-1
1537921766363120,2,1,0,-5,4,3,-1,-4
1537921766363120,-2,3,7,19,4,1,-2,1
1537921766371099,-3,-1,5,1,-8,-2,0,3
1537921766371099,-3,-2,-3,-7,-8,0,-4,0
1537921766386059,0,-3,-5,-7,2,5,0,-4
1537921766386059,-1,-2,-1,-1,-4,8,-2,-3
1537921766393040,-2,-3,1,2,6,2,0,-2
1537921766393040,1,3,1,0,2,-7,4,0
1537921766408997,-3,-3,-5,10,-1,-15,-4,-4
1537921766408997,3,0,-8,-16,-1,-8,3,-2
1537921766409995,-3,-2,-1,-4,-6,-1,-3,2
1537921766409995,-1,-1,4,10,-1,2,0,0
1537921766424955,-1,-1,0,-2,3,6,-2,2
1537921766424955,3,0,4,12,0,2,0,0
1537921766430939,0,0,-6,-5,1,0,-1,-1
1537921766430939,-3,-2,3,2,-2,-1,-2,-4
1537921766445899,-2,3,1,3,1,-1,-1,0
1537921766445899,-3,-2,-5,-6,-5,-4,-2,-1
1537921766452880,2,0,-3,-13,1,-1,-2,-4
1537921766452880,2,0,0,4,3,2,-1,-1
1537921766468838,-2,-2,0,4,-1,-2,2,-2
1537921766468838,-2,-2,-2,-2,0,-1,1,1
1537921766469836,-2,1,-1,0,-2,-2,-2,2
1537921766469836,1,1,-2,-4,0,0,-1,-2
1537921766484795,1,0,-2,-15,-7,2,-2,-1
1537921766484795,-2,1,3,15,2,-2,-2,-1
1537921766490779,-3,1,4,11,0,-1,0,-1
1537921766490779,0,-1,-4,4,-1,1,0,5
1537921766505739,-3,-3,0,-21,-6,4,-3,-5
1537921766505739,0,-2,-3,-9,2,-4,0,3
1537921766513718,1,3,3,0,-2,-5,0,-4
1537921766513718,-2,-4,-3,1,-7,-5,-1,0
1537921766528678,0,-1,-3,1,0,-1,-1,0
1537921766528678,1,1,-2,-3,-3,2,0,0
1537921766529675,0,0,2,13,7,2,-4,-3
1537921766529675,-1,-1,0,-10,-3,-1,-1,-1
1537921766544635,0,0,2,-3,-4,-2,-3,0
1537921766544635,-1,-3,2,4,0,-1,0,-2
1537921766550619,0,-4,-4,-4,-3,-2,0,3
1537921766550619,-2,0,-1,-6,-2,-2,-1,-5
1537921766565579,-1,0,0,2,4,-1,2,-2
1537921766565579,1,1,-1,-4,1,2,-1,-4
1537921766573558,-1,-2,-3,-2,-2,-1,-3,1
1537921766573558,-2,-2,0,-2,-1,0,3,1
1537921766588517,-2,0,-1,0,-2,0,-2,-1
1537921766588517,-1,2,-1,1,-4,0,-3,0
1537921766589515,1,2,1,-1,-4,-1,1,0
1537921766589515,-3,-4,-4,-5,1,2,0,-1
1537921766604475,0,1,1,2,-1,0,1,1
1537921766604475,0,-2,1,-1,-2,0,-4,-4
1537921766610459,-2,-3,-2,11,-1,0,-2,-1
1537921766610459,0,-1,0,-13,0,0,-3,-1
1537921766625419,-1,-3,-4,-12,-1,-1,-1,-1
1537921766625419,-2,1,3,14,-6,-2,-1,3
1537921766633398,-3,-1,2,-5,-1,1,2,-1
1537921766633398,-3,0,-2,10,1,-1,-2,-2
1537921766649355,-1,-2,-4,0,2,0,-2,1
1537921766649355,-2,0,0,-21,0,-1,-2,-3
1537921766649355,0,-4,-4,5,3,0,1,-4
1537921766649355,1,3,7,6,0,-4,-1,1
1537921766664315,-1,-3,-2,3,-1,-2,0,0
1537921766664315,3,-1,-2,5,3,1,0,1
1537921766671296,2,1,-1,-14,-3,0,-2,0
1537921766671296,0,-1,1,-2,2,-3,0,-1
1537921766686256,1,0,4,9,0,0,2,2
1537921766686256,-2,1,-2,-2,-2,3,2,-1
1537921766693238,0,-2,-2,-6,-4,-1,-2,1
1537921766693238,-1,-1,-1,-1,-1,-3,-2,-2
1537921766708198,0,-2,0,0,0,1,1,-3
1537921766708198,-1,-2,0,2,0,-2,1,-4
1537921766715683,-4,0,-2,-2,3,-1,0,-1
1537921766715683,1,-3,-2,4,0,1,0,1
1537921766724661,-2,1,1,2,2,-3,0,-1
1537921766724661,0,-1,-2,-3,-6,0,-1,2
1537921766730645,-1,-4,-2,1,-1,-2,0,-1
1537921766730645,0,-1,1,-13,-2,0,1,-2
1537921766745605,1,-3,-1,14,-1,-2,-3,-2
1537921766745605,-3,-3,-1,-15,0,-1,1,2
1537921766753583,-2,1,0,0,-3,0,1,-1
1537921766753583,0,0,-5,6,-2,1,0,2
1537921766768544,0,1,3,-1,-1,0,-1,-1
1537921766768544,1,0,0,5,1,-1,0,-2
1537921766776522,-1,-3,3,-10,-3,-1,-2,-5
1537921766776522,0,0,-2,6,-2,-2,-1,-3
1537921766783503,2,0,1,-9,-3,1,-2,2
1537921766783503,0,-2,-3,2,3,-2,-1,1
1537921766790485,0,-2,1,1,2,-3,1,0
1537921766790485,1,-1,-1,-2,-2,-2,0,-1
1537921766805445,-3,-1,-3,-2,0,-1,-2,1
1537921766805445,-1,-2,5,5,-1,0,0,-3
1537921766813423,0,-2,-1,-3,3,0,-2,-1
1537921766813423,-2,-2,-1,-3,-1,-2,-1,1
1537921766828384,-2,0,1,0,-1,-4,1,-1
1537921766828384,-2,-1,0,0,2,0,-1,0
1537921766836362,0,0,0,16,1,2,0,-2
1537921766836362,-2,-3,3,-10,1,1,-4,-1
1537921766851322,0,1,-3,-3,-3,0,-1,2
1537921766851322,1,2,-3,-8,-2,-3,-3,0
1537921766852320,1,0,3,4,-2,-1,-2,-1
1537921766852320,-2,1,-2,1,2,0,-2,-2
1537921766866282,-1,-2,0,4,-3,0,-2,-1
1537921766866282,-3,-2,-1,-7,-1,-2,2,0
1537921766873264,-3,-1,-2,-3,0,-1,1,4
1537921766873264,-3,2,-1,2,2,-3,-2,-1
1537921766888224,-3,-2,4,7,-8,-2,-4,-5
1537921766888224,1,-1,-1,-1,4,1,-1,-4
1537921766896203,-3,0,-1,-7,-6,-2,0,2
1537921766896203,-1,-4,-1,1,1,-3,0,-2
1537921766911163,0,-1,-2,-5,1,-1,0,-1
1537921766911163,-3,1,1,0,-7,0,-1,0
1537921766912160,0,4,3,-2,4,-1,-3,-2
1537921766912160,-1,-2,-2,-2,-2,1,0,0
1537921766927120,3,-1,-4,-4,1,-1,0,0
1537921766927120,-1,-2,0,5,2,-1,-2,-2
1537921766933105,2,-2,-3,-5,-3,-1,-1,-1
1537921766933105,-1,0,-1,-4,-3,-1,0,1
1537921766948064,-3,1,1,0,0,-1,-2,-2
1537921766948064,0,2,3,-1,1,1,0,-1
1537921766956042,-1,-3,1,12,-2,-1,1,-6
1537921766956042,0,-3,-5,-21,-4,-1,2,-1
1537921766972000,-2,-1,-2,-10,-3,-3,3,5
1537921766972000,-2,-1,-5,13,-3,-2,-3,3
1537921766972997,2,0,5,15,0,1,-2,-3
1537921766972997,2,18,28,36,6,7,1,-10
1537921766985963,-1,-2,-6,-7,2,-3,1,0
1537921766985963,-6,-19,-31,-36,-8,-5,1,6
1537921766992944,-3,4,-10,-11,-11,-1,-4,2
1537921766992944,1,7,17,20,8,3,-3,0
1537921767016880,1,1,4,-5,7,1,0,-6
1537921767016880,-2,-14,-13,4,-3,-4,-2,2
1537921767017877,-8,-8,-10,4,-2,-4,-4,-5
1537921767017877,4,3,-8,-26,-3,-1,0,4
1537921767031840,1,9,19,10,1,4,-3,-5
1537921767031840,5,8,14,22,4,2,-1,-4
1537921767031840,-7,-5,-2,-15,8,5,5,-8
1537921767031840,-1,0,2,29,-2,-2,-3,-4
1537921767045803,-2,-11,-26,-50,-12,-11,-2,8
1537921767045803,1,-18,-18,-37,-14,-1,4,6
1537921767053781,0,-2,-6,-1,4,0,0,17
1537921767053781,-12,-6,-2,11,1,-15,-22,-18
1537921767068741,-12,-5,-6,9,-21,-42,-47,-40
1537921767068741,7,15,9,-22,18,49,60,28
1537921767076720,48,27,43,75,15,32,18,51
1537921767076720,-17,-12,-13,-44,11,-39,-36,-45
1537921767091680,4,7,2,-26,17,16,1,-7
1537921767091680,21,12,-15,-24,-25,27,59,73
1537921767092678,0,-15,-12,-15,-18,-14,-51,-31
1537921767092678,-6,1,3,33,16,3,26,20
1537921767105643,-17,-2,21,0,-9,-9,-13,-18
1537921767105643,2,8,2,14,7,-31,-41,-18
1537921767113621,-19,-26,-14,-20,-29,-39,-63,-33
1537921767113621,1,-13,-15,-10,-35,21,53,7
1537921767128582,27,22,13,73,56,64,68,74
1537921767128582,-2,3,26,-88,42,6,-10,-19
1537921767136560,1,-15,-38,-40,-60,-30,1,26
1537921767136560,-29,-13,-30,-21,-16,-34,-53,-32
1537921767151520,22,18,6,65,-10,26,48,12
1537921767151520,-7,10,26,-1,7,6,-30,-21
1537921767152517,-3,10,21,3,42,2,12,-19
1537921767152517,9,-5,-17,-26,-20,0,7,25
1537921767165483,4,-15,-22,6,-16,-14,0,27
1537921767165483,-16,-4,-1,61,5,-10,-15,-20
1537921767173461,-15,6,12,-16,15,19,4,-35
1537921767173461,19,14,13,-33,2,16,24,16
1537921767188421,-7,-10,8,20,-4,-15,-14,-3
1537921767188421,-10,-15,-7,12,-7,-9,-4,-11
1537921767196401,-4,-3,-10,-21,2,-3,9,2
1537921767196401,6,0,9,11,-17,17,22,15
1537921767211360,-17,-12,-1,-29,23,-3,-28,-24
1537921767211360,-5,-3,-1,14,-19,-17,-10,-20
1537921767212357,-13,11,10,29,11,10,3,3
1537921767212357,33,25,4,4,19,5,16,16
1537921767225322,-10,-10,-9,-30,-16,5,0,-10
1537921767225322,-2,2,1,18,-9,-3,8,11
1537921767233301,10,10,2,3,30,8,6,5
1537921767233301,-6,-10,-6,0,-6,-14,-29,-11
1537921767248261,-10,-8,-10,-33,-27,-9,-1,-4
1537921767248261,-3,-8,-8,11,-3,-6,-2,-6
1537921767256240,2,4,3,-10,-6,0,7,5
1537921767256240,-5,-2,4,7,6,9,-1,-5
1537921767271200,4,6,5,11,11,2,-1,-1
1537921767271200,-1,-1,6,7,2,-6,-12,-4
1537921767272198,-3,-4,-4,-4,-9,-6,8,-2
1537921767272198,-3,-2,2,-5,9,9,-1,4
1537921767294139,-2,1,1,-5,-9,-2,-7,-4
1537921767294139,1,5,-1,-5,-2,-6,-9,-9
1537921767295136,-1,-7,-8,3,-5,5,16,5
1537921767295136,2,-1,2,-20,6,6,-1,8
1537921767308101,-2,-4,-8,-7,-2,-8,-9,-4
1537921767308101,-3,0,-2,9,-3,-3,-1,-8
1537921767316080,1,0,0,9,4,3,8,5
1537921767316080,-5,-5,0,7,2,0,-7,-1
1537921767331040,0,1,-2,-9,-1,-7,-4,-7
1537921767331040,1,2,0,3,-1,3,-1,0
1537921767332037,-2,-2,1,-3,-4,0,-2,1
1537921767332037,-3,0,2,-2,-3,-4,-6,-5
1537921767346000,2,0,-3,-3,1,1,4,0
1537921767346000,2,-2,3,10,1,-3,-2,-2
1537921767352981,-1,-2,-2,-13,-4,-2,2,1
1537921767352981,-2,-2,-3,5,0,1,0,-4
1537921767367941,1,-2,0,-1,1,1,0,-2
1537921767367941,1,1,1,-4,-2,-4,-5,-2
1537921767376917,-3,1,-1,-4,-4,-2,0,-1
1537921767376917,-4,-5,-3,9,0,-1,0,-1
1537921767391877,2,-2,-3,-4,-1,-2,-5,-3
1537921767391877,0,1,0,10,5,-2,-1,0
1537921767391877,-2,-4,0,-2,-15,-2,4,-1
1537921767391877,-1,-2,-1,-37,0,-1,-2,2
1537921767405840,-1,0,1,9,-7,-2,-3,1
1537921767405840,-4,-4,-3,-7,4,-2,-3,-4
1537921767412821,2,0,1,11,5,1,3,3
1537921767412821,-2,-3,2,18,-2,-1,0,0
1537921767428779,-3,-1,-2,-9,-2,0,-2,-1
1537921767428779,3,-1,-2,2,-4,1,-2,0
1537921767436757,0,-4,-2,-3,1,-1,1,-2
1537921767436757,0,-2,-3,-6,-3,-2,0,-2
1537921767451717,-2,-2,1,2,2,-1,0,-2
1537921767451717,-2,2,-3,1,0,-1,-3,-1
1537921767451717,-3,1,-1,-8,4,-3,1,-3
1537921767451717,1,-1,2,8,0,0,1,3
1537921767465680,-2,-2,1,3,1,-2,4,-1
1537921767465680,0,-2,-4,-6,-3,0,-2,-1
1537921767473659,3,1,1,-6,-2,-2,0,1
1537921767473659,-2,-1,1,9,1,-2,-1,0
1537921767488618,0,-1,-3,-2,1,-1,-2,-2
1537921767488618,-1,1,1,6,-2,1,1,-3
1537921767496597,-3,0,-1,-24,0,0,-2,-2
1537921767496597,0,1,-3,25,-1,0,1,0
1537921767511557,1,-2,3,-21,-6,-5,-2,-4
1537921767511557,-3,-3,1,-9,-2,-2,1,1
1537921767512555,0,-1,-2,14,0,1,-2,3
1537921767512555,-1,1,1,13,3,0,-3,2
1537921767525520,-1,0,1,0,1,-2,1,0
1537921767525520,2,1,-5,-15,-6,-2,-1,-1
1537921767533499,-1,-4,4,3,-1,0,0,0
1537921767533499,0,0,-5,-6,0,-3,0,-2
1537921767548459,-1,1,-1,7,-1,2,1,0
1537921767548459,-4,-3,2,-3,1,1,-1,-3
1537921767556437,-1,-1,-4,-11,-4,-1,1,1
1537921767556437,-2,-1,0,1,1,1,-4,0
1537921767571397,-1,-2,-1,5,0,-3,1,1
1537921767571397,1,0,3,0,0,-1,0,0
1537921767572395,-4,-2,-5,0,-6,1,0,-2
1537921767572395,0,-3,1,4,1,0,-2,-3
1537921767585360,-2,2,-2,-31,-4,1,-5,-2
1537921767585360,0,-2,-2,19,0,-1,1,-2
1537921767593339,3,5,7,6,8,-2,0,4
1537921767593339,-3,-5,-6,-8,1,-3,3,2
1537921767608299,-3,-3,-6,-1,-13,-1,-2,3
1537921767608299,-2,-4,-2,-3,0,-1,-3,-1
1537921767616277,-2,-1,3,-2,3,3,-1,-4
1537921767616277,-1,0,0,8,4,2,0,-4
1537921767631237,3,3,2,-4,2,1,3,5
1537921767631237,-2,-4,-4,1,-9,-2,-1,0
1537921767639216,1,-1,-3,-5,1,0,-1,-3
1537921767639216,1,4,4,-5,-1,-2,-2,-1
1537921767646197,0,1,5,9,-6,-1,-2,-3
1537921767646197,4,5,4,-10,-1,-1,0,-1
1537921767653178,0,-6,-5,4,-7,-6,4,8
1537921767653178,-3,-4,-12,-18,2,4,-2,1
1537921767668139,1,1,-1,8,10,-2,-3,4
1537921767668139,-1,6,5,9,-1,0,-1,-6
1537921767676117,-1,3,12,-1,0,3,-4,-12
1537921767676117,1,-6,-5,-44,-12,-2,2,7
1537921767691077,-1,-7,-10,3,3,-2,0,2
1537921767691077,0,6,5,-6,14,3,1,-3
1537921767699056,0,4,-5,27,4,-3,1,3
1537921767699056,-8,-11,3,23,-15,0,-1,-5
1537921767706037,-1,3,5,-4,14,-1,-4,-10
1537921767706037,5,-12,-20,-24,-2,-4,0,12
1537921767713019,4,-1,-3,55,-11,-1,-4,2
1537921767713019,0,11,16,-53,8,-1,-3,-11
1537921767727979,-2,10,22,-10,-19,-3,-10,-16
1537921767727979,-2,0,6,23,11,-1,3,-2
1537921767735957,12,-19,-33,-19,-6,-7,-4,23
1537921767735957,-25,-15,-10,23,-3,-4,2,-3
1537921767750917,8,6,2,8,2,5,2,3
1537921767750917,3,12,10,-26,-31,-1,-10,-12
1537921767758896,-4,7,24,54,31,-12,-17,-26
1537921767758896,-13,-13,-17,-36,-4,-1,17,0
1537921767765878,9,-14,-19,0,21,38,40,40
1537921767765878,12,1,-7,-5,-12,-22,-23,13
1537921767772859,7,19,-5,15,-7,8,8,6
1537921767772859,14,30,45,26,23,8,-24,-34
1537921767787819,5,-8,1,-39,-25,-42,-26,-13
1537921767787819,-43,-61,-52,-4,-17,2,12,-3
1537921767796795,-2,33,-5,-31,10,23,31,10
1537921767796795,16,3,3,13,9,7,13,39
1537921767810757,-9,23,37,17,13,22,11,-8
1537921767810757,6,4,17,42,39,-14,-33,-2
1537921767818736,-32,-32,-12,-27,-36,-30,-18,-24
1537921767818736,-10,1,-17,55,27,5,-13,-24
1537921767833696,-1,-12,-11,-68,-27,-15,-6,11
1537921767833696,0,10,-6,5,0,4,6,-5
1537921767834694,-9,-17,7,-6,30,-2,-3,-1
1537921767834694,13,2,-12,0,-39,-4,4,16
1537921767848656,-6,-11,-12,7,-13,-4,-7,1
1537921767848656,1,7,1,-44,6,8,7,-13
1537921767856635,9,10,7,35,0,10,0,3
1537921767856635,1,-5,13,-20,-3,-12,-17,-12
1537921767870598,-12,-12,0,29,6,-5,-2,-24
1537921767870598,14,14,5,8,0,20,25,37
1537921767878577,0,-2,4,-18,-10,-11,-27,-16
1537921767878577,-15,-8,2,9,-2,-2,7,-10
1537921767893536,-3,-3,-5,-15,-1,8,-1,11
1537921767893536,12,10,3,4,5,-2,8,-7
1537921767894533,-4,-11,-3,-10,-2,10,6,6
1537921767894533,2,4,6,-1,-5,-12,-18,-2
1537921767908496,3,7,-11,24,1,-9,3,0
1537921767908496,-10,1,4,-13,-6,1,-3,-4
1537921767916475,-4,-13,-11,-44,-17,-10,-1,-4
1537921767916475,6,7,-3,14,14,0,7,6
1537921767930438,2,-3,-5,29,8,3,0,2
1537921767930438,-4,-6,4,14,-4,-7,-7,-6
1537921767939413,3,3,3,-28,-11,1,2,6
1537921767939413,3,-6,-8,-9,-8,0,-8,1
1537921767954374,0,4,9,17,10,0,-1,-2
1537921767954374,1,0,4,-16,1,5,5,6
1537921767954374,-2,-6,-2,9,1,4,7,1
1537921767954374,1,-8,-12,5,-9,-1,1,0
1537921767968337,-3,-1,-6,-12,-2,-4,-9,-6
1537921767968337,-1,-3,0,13,4,0,2,-6
1537921767976315,3,10,10,-6,-17,6,3,4
1537921767976315,0,1,-1,-6,12,2,1,3
1537921767990277,-3,-1,-5,1,-2,-2,-4,-3
1537921767990277,-1,-2,2,1,-3,-1,6,4
1537921767999254,-2,-1,3,2,5,1,-7,-8
1537921767999254,3,1,0,-4,-8,-2,8,5
1537921768014214,-2,-2,-2,-3,3,0,-5,-3
1537921768014214,-6,-1,-3,-5,-7,0,-2,-5
1537921768014214,3,-2,-8,14,7,-2,-1,1
1537921768014214,0,4,5,-27,-8,0,-2,1
1537921768028177,1,0,3,17,8,2,3,3
1537921768028177,0,-3,0,6,1,-2,-2,1
1537921768036155,-3,0,0,-7,-5,0,3,0
1537921768036155,1,-1,-9,2,-1,1,0,0
1537921768051115,2,3,12,-10,0,-3,-1,-2
1537921768051115,-1,-1,0,-3,-3,-2,0,-1
1537921768059094,1,-1,-16,11,8,1,-3,0
1537921768059094,-1,-2,7,-15,-2,2,0,-2
1537921768074054,-2,-3,-4,-7,-7,-2,0,0
1537921768074054,0,-5,-1,4,-5,0,-2,-1
1537921768075051,2,1,1,-10,4,-1,1,-2
1537921768075051,1,-1,0,9,-4,-4,0,-1
1537921768088016,-1,-2,-5,6,2,1,0,-2
1537921768088016,-1,-3,-7,-18,0,-2,-2,-3
1537921768096993,-2,-1,12,11,1,-2,-1,0
1537921768096993,-3,0,-8,9,-4,1,0,0
1537921768110955,1,3,8,0,11,-1,1,0
1537921768110955,-2,0,-4,-5,-27,-4,0,3
1537921768119931,-2,-4,-5,-3,8,-2,-2,-4
1537921768119931,-1,-5,-2,-18,-3,1,-1,-1
1537921768132896,2,0,-8,-7,-1,3,-3,-4
1537921768132896,-2,1,10,4,1,-1,-1,-3
1537921768141872,0,5,3,0,0,-3,-1,-2
1537921768141872,1,0,-8,17,5,-2,2,3
1537921768147857,-4,-5,1,-15,-4,-5,-1,-2
1537921768147857,0,4,5,5,4,4,0,0
1537921768156833,1,-2,-9,-20,-7,-3,0,4
1537921768156833,0,4,14,20,9,2,-3,-1
1537921768170795,-2,-5,-3,12,-7,-2,-1,-5
1537921768170795,-1,-6,-2,3,1,-3,-2,-1
1537921768179771,-3,-1,-7,-11,-1,1,0,2
1537921768179771,-1,2,2,2,-1,2,-3,-3
1537921768193734,-3,1,-4,-12,-8,1,0,0
1537921768193734,-3,1,6,11,5,0,1,-3
1537921768201713,-1,1,0,2,3,-2,-1,-1
1537921768201713,0,-4,-2,-9,-6,-2,-2,1
1537921768208694,2,4,-2,6,2,3,2,0
1537921768208694,1,-5,-5,-12,1,-3,-1,0
1537921768217670,-4,-3,-3,-10,0,1,0,1
1537921768217670,-2,0,3,5,8,-1,0,2
1537921768230635,2,3,3,-12,-8,-4,0,1
1537921768230635,-2,-2,-10,20,-1,-1,-1,-5
1537921768239611,-2,-1,14,4,0,0,-2,-3
1537921768239611,-1,-3,-20,-28,-6,-1,1,3
1537921768253574,-1,-3,15,41,5,0,-2,-2
1537921768253574,0,5,0,-21,-5,-2,0,3
1537921768262550,-1,-2,-2,-6,-8,-2,0,-3
1537921768262550,-1,-6,-8,-7,11,2,0,2
1537921768268534,-2,0,-2,6,4,2,-1,-3
1537921768268534,-2,-1,-1,-9,3,-3,-3,-3
1537921768277510,1,2,16,10,-16,-1,0,2
1537921768277510,2,3,1,-12,-5,-3,4,3
1537921768290475,-2,-3,-12,-4,-4,-3,-2,1
1537921768290475,-3,-2,0,14,11,1,0,-1
1537921768299451,-2,-3,-2,-63,6,5,-2,-9
1537921768299451,3,4,31,65,0,0,0,-2
1537921768313414,-10,-12,-20,-19,-29,-10,1,8
1537921768313414,-7,-8,-14,22,22,1,-2,-1
1537921768322390,5,6,-13,-38,-18,-1,-1,-2
1537921768322390,-3,6,23,2,15,3,-3,-10
1537921768328374,7,-3,-2,-10,21,5,3,2
1537921768328374,0,-5,-19,12,-15,-4,0,1
1537921768337350,-3,-5,-6,3,-31,-4,-2,-2
1537921768337350,-1,13,4,-19,9,0,-10,-6
1537921768350315,0,-4,24,26,-14,-22,-18,-3
1537921768350315,-10,-6,-9,4,4,-12,-5,-20
1537921768359291,19,5,-22,17,17,36,33,34
1537921768359291,-3,-16,-52,-58,-31,9,14,14
1537921768373254,-21,-8,34,-5,31,-26,-68,-55
1537921768373254,25,-5,-50,-54,-19,19,56,35
1537921768382230,-3,26,98,127,50,19,-2,21
1537921768382230,-14,-25,0,-32,-73,-18,-6,-15
1537921768388214,46,46,-28,-18,9,3,7,14
1537921768388214,-15,-18,30,-12,-1,-27,-42,-40
1537921768397190,-2,-20,-55,-36,-24,-29,-22,-15
1537921768397190,9,22,-11,-16,35,35,45,27
1537921768411152,-2,-1,23,14,5,5,-4,38
1537921768411152,5,6,10,2,-23,1,22,-11
1537921768420128,9,3,-4,4,34,27,22,22
1537921768420128,0,-2,-34,-30,-9,-17,-42,-28
1537921768433094,-1,-1,30,23,-11,1,21,5
1537921768433094,7,11,9,25,1,6,-6,19
1537921768442070,-37,-22,13,-26,12,-28,-26,-47
1537921768442070,8,7,13,33,-16,-7,-5,-2
1537921768448054,-9,-2,-17,3,12,18,17,-2
1537921768448054,-7,-14,7,16,-16,-5,-6,-17
1537921768457030,-1,-11,-12,-20,-7,-21,-7,2
1537921768457030,-3,0,2,10,2,-8,2,5
1537921768470993,8,1,-12,-15,-12,34,37,9
1537921768470993,5,22,32,-12,20,14,-3,3
1537921768479969,-4,-2,-5,4,-15,-23,-19,-16
1537921768479969,2,-17,-5,19,20,2,7,18
1537921768492934,-19,-18,-32,-38,-16,-10,-8,-11
1537921768492934,-6,8,7,5,4,-1,-7,-6
1537921768501910,6,11,8,19,11,12,6,4
1537921768501910,-8,-11,5,5,-18,-18,-9,-8
1537921768507894,-9,-4,-2,12,-8,-9,-11,-5
1537921768507894,-4,-1,-13,-8,3,-2,7,1
1537921768516870,10,2,-23,-25,0,13,22,21
1537921768516870,2,3,35,15,6,2,-18,-16
1537921768530832,-1,1,-15,12,8,11,21,8
1537921768530832,5,1,1,-9,0,-2,-15,14
1537921768539809,-11,-7,-4,1,-13,-17,-12,-18
1537921768539809,-4,-5,-14,-4,6,0,9,0
1537921768552774,-3,-3,1,-12,-1,-2,-12,-9
1537921768552774,1,0,13,3,-2,-6,-6,-1
1537921768561750,2,-2,-15,-7,-8,0,4,4
1537921768561750,-6,2,5,6,5,7,-1,-1
1537921768568731,6,0,4,-1,0,-5,3,0
1537921768568731,3,0,-35,-10,12,13,12,5
1537921768576710,2,1,28,-4,-14,0,-2,1
1537921768576710,-3,3,9,22,1,-9,-9,-1
1537921768590672,-5,-4,-1,3,0,-6,-6,-7
1537921768590672,-4,-2,-12,7,-1,1,1,1
1537921768599649,0,0,-4,-22,-2,2,-4,-7
1537921768599649,1,8,22,10,9,-3,1,1
1537921768613611,0,0,-10,6,-4,-2,1,0
1537921768613611,-3,-7,6,0,-5,2,-7,5
1537921768622587,-1,2,-2,11,1,-2,-1,-2
1537921768622587,0,-3,-9,-4,3,1,2,4
1537921768628571,-3,-2,0,-10,1,4,3,2
1537921768628571,-1,2,10,3,2,-2,-4,-1
1537921768637548,-2,0,1,3,-3,-2,-3,0
1537921768637548,-1,1,-2,-8,-1,2,3,-3
1537921768650513,1,0,-2,2,0,-1,-2,0
1537921768650513,-3,-4,8,2,-1,-2,-4,-5
1537921768659489,0,-1,-12,-5,-2,1,2,0
1537921768659489,0,-5,-18,1,-2,2,-3,1
1537921768673452,2,3,35,6,0,0,0,-1
1537921768673452,-3,1,3,7,-2,-2,3,4
1537921768680433,-2,-1,-5,3,5,0,2,0
1537921768680433,0,-1,-6,-7,1,-1,0,-1
1537921768688411,-2,-4,-11,-8,0,-1,-3,-5
1537921768688411,1,2,-2,-2,-2,-1,-2,-1
1537921768697388,1,2,8,0,-8,-1,0,2
1537921768697388,-2,-1,-7,-3,1,-2,2,-1
1537921768710353,0,1,3,2,2,1,-2,0
1537921768710353,-1,0,4,0,-3,0,-1,1
1537921768719329,-2,-4,-6,-8,-3,-2,0,-1
1537921768719329,0,-3,1,6,-1,-2,-2,0
1537921768734289,-1,1,-5,-13,-2,2,2,2
1537921768734289,-4,2,0,2,7,-4,-4,-7
1537921768740273,0,0,9,-1,-8,1,-1,-1
1537921768740273,-1,-4,5,5,-3,-4,0,0
1537921768757227,0,0,-9,-10,3,0,3,-2
1537921768757227,-1,-2,-4,9,2,-3,-2,2
1537921768758225,0,2,-7,-15,2,-2,1,2
1537921768758225,0,4,19,9,-8,0,2,2
1537921768771190,-4,-4,-12,1,-1,-1,-2,0
1537921768771190,0,0,0,-11,2,1,-1,-3
1537921768779169,-3,-3,-10,3,-1,-3,-2,-2
1537921768779169,2,3,-5,-42,-8,-3,1,-6
1537921768794129,-3,-2,-5,-17,1,-5,-1,-4
1537921768794129,-2,-10,0,22,-1,0,1,-1
1537921768801110,0,6,22,41,13,0,0,5
1537921768801110,2,-2,-13,2,9,3,1,7
1537921768817067,0,1,4,-5,-10,-3,-2,-2
1537921768817067,-1,3,-10,-33,-7,-3,-2,-3
1537921768819062,0,-2,0,0,-17,2,-3,-7
1537921768819062,-1,-1,1,29,13,3,2,-2
1537921768831030,0,-2,3,2,-2,-1,2,4
1537921768831030,-1,0,-11,10,-8,1,1,3
1537921768840006,-3,-2,10,-2,7,1,-4,-3
1537921768840006,0,6,11,-18,-8,0,-2,-2
1537921768853969,0,1,-2,18,7,1,0,1
1537921768853969,-1,-1,11,-3,5,2,-1,-4
1537921768860951,-3,-6,-13,-5,5,-2,-1,-2
1537921768860951,-6,-12,-14,-18,-46,-7,-3,0
1537921768876908,4,2,-4,5,18,0,0,1
1537921768876908,-2,2,1,4,18,2,3,6
1537921768878903,2,2,1,0,11,3,-1,-2
1537921768878903,0,-2,1,6,7,0,-2,-2
1537921768890870,-3,6,-12,-47,-12,-2,-4,-7
1537921768890870,0,-7,-5,-5,-36,-5,-1,2
1537921768899847,-4,-4,6,35,22,0,1,0
1537921768899847,0,4,4,-17,-6,0,-4,1
1537921768913809,-1,-2,5,2,2,2,-1,0
1537921768913809,1,5,19,21,14,3,-5,-2
1537921768920791,0,-4,-12,-10,-13,-7,0,-3
1537921768920791,-3,-5,-1,21,17,0,0,-3
1537921768936748,2,-2,-17,-17,-8,2,3,3
1537921768936748,-1,-3,24,20,-4,-2,-1,-2
1537921768938743,-2,-2,-22,-5,21,5,-2,0
1537921768938743,2,9,40,6,-23,-1,-1,1
1537921768950711,-4,-5,4,38,2,-5,-1,1
1537921768950711,2,-1,-18,-41,-12,-1,-3,-2
1537921768959687,3,3,-5,-18,-5,0,-3,-5
1537921768959687,2,2,-22,-21,32,5,-1,-8
1537921768973649,-3,-1,54,86,-6,-4,0,1
1537921768973649,-3,-3,-20,12,2,0,1,7
1537921768980631,1,-4,-24,-25,5,-2,-2,-4
1537921768980631,1,7,13,8,-22,1,-1,0
1537921768997586,-1,-2,-6,-62,-4,2,-5,-2
1537921768997586,-1,0,22,72,15,-2,1,0
1537921768998583,-4,-2,-2,-7,0,3,1,3
1537921768998583,0,-5,-22,-3,13,4,-2,-2
1537921769010551,-2,1,24,52,-1,8,-1,-2
1537921769010551,0,-2,-10,-34,0,5,0,1
1537921769019527,-2,3,-1,-77,-16,1,-5,-4
1537921769019527,-3,-21,-120,-35,-22,-8,3,-1
1537921769033489,0,11,88,18,-34,-24,-2,-6
1537921769033489,-2,2,-8,38,60,-17,3,6
1537921769040471,-3,-8,-28,-11,7,-20,-2,5
1537921769040471,0,10,69,62,18,2,0,6
1537921769057425,-1,-11,-59,-4,20,12,1,1
1537921769057425,-3,-11,-39,-56,5,4,-2,-5
1537921769058423,3,7,41,23,72,-1,2,1
1537921769058423,-3,-4,-14,-59,23,3,0,1
1537921769070390,0,-15,-108,-98,-43,-4,-3,-5
1537921769070390,1,17,114,85,-92,4,-2,-10
1537921769079367,2,6,48,92,-86,10,12,20
1537921769079367,-4,-10,-24,-69,-119,-7,-3,2
1537921769094326,3,6,-35,-43,-45,1,-1,-7
1537921769094326,-1,-10,19,-3,-10,-2,-4,-2
1537921769100311,-5,-21,-46,2,33,-2,-2,-3
1537921769100311,2,12,47,53,61,-2,0,0
1537921769117265,-1,-3,-74,-126,46,1,-2,-1
1537921769117265,0,11,-28,-66,-16,0,-6,-14
1537921769118263,6,26,117,81,62,2,1,1
1537921769118263,-6,-16,-7,108,40,-7,8,23
1537921769130231,-5,-8,-49,-48,13,-4,-7,-5
1537921769130231,2,18,14,12,-22,2,-5,-21
1537921769139207,5,1,59,78,-18,-2,4,16
1537921769139207,-7,-16,-66,-88,9,-9,-2,-3
1537921769154167,-3,-6,21,-21,-10,1,7,2
1537921769154167,-2,-5,-43,-40,-31,7,-1,-2
1537921769161148,4,13,42,-4,-41,1,0,-12
1537921769161148,-1,0,48,114,66,3,-2,0
1537921769177105,-4,-16,40,93,29,-3,4,12
1537921769177105,-1,9,-58,-128,-27,-5,-2,12
1537921769179100,2,2,-72,-128,-17,2,-17,-44
1537921769179100,10,19,73,96,6,5,0,8
1537921769191068,-8,-13,26,71,10,-10,-1,14
1537921769191068,-15,-33,-57,-44,25,-26,-22,-6
1537921769200044,-2,-30,-22,-99,-19,2,11,-6
1537921769200044,15,0,8,-126,-42,20,7,-2
1537921769214007,21,39,59,93,41,34,9,8
1537921769214007,6,38,28,84,37,4,16,28
1537921769220988,-13,20,-44,-63,-8,-17,-24,-23
1537921769220988,-23,-6,-47,47,8,15,9,-9
1537921769236945,15,12,26,-90,-28,76,14,14
1537921769236945,13,5,78,127,23,125,3,10
1537921769238940,-47,-30,-32,-5,19,127,11,4
1537921769238940,-93,-3,0,-116,-51,50,37,-8
1537921769250907,-126,7,22,87,12,-102,108,-9
1537921769250907,-128,-7,-15,-109,17,-127,124,2
1537921769259884,-90,-3,-55,-26,-17,-128,-85,23
1537921769259884,-120,2,40,62,0,-80,-121,-19
1537921769273846,-48,-2,-8,19,-9,-9,-128,27
1537921769273846,-93,1,-14,-81,-3,13,-81,-35
1537921769280828,8,-7,-12,14,-27,67,4,6
1537921769280828,73,-3,-48,-48,1,45,-56,-3
1537921769296785,97,5,85,90,4,55,25,8
1537921769296785,127,-29,-51,-29,-3,26,-113,9
1537921769298780,119,8,-11,-21,12,-8,-90,-38
1537921769298780,127,15,13,43,52,25,-92,15
1537921769310748,113,-10,-23,-58,26,0,-84,-42
1537921769310748,127,-13,27,127,25,1,-8,7
1537921769319724,72,-8,-21,-7,-8,-39,34,8
1537921769319724,-85,-9,-21,-86,-43,-61,66,-11
1537921769333686,-126,6,18,-23,-26,-3,38,5
1537921769333686,-128,4,-15,-95,-24,24,50,7
1537921769340668,-128,18,55,100,16,9,75,13
1537921769340668,-104,-10,-7,16,-7,9,81,12
1537921769356625,-89,-19,-42,-47,-10,8,41,-1
1537921769356625,-58,0,-10,-30,3,-14,27,-18
1537921769358620,-30,16,42,54,-6,5,33,15
1537921769358620,2,-3,6,-9,10,13,18,7
1537921769370588,-10,3,-9,13,-6,-13,4,-15
1537921769370588,12,-1,10,6,-7,-11,-6,-1
1537921769379565,-18,-12,-12,-6,-4,3,0,-3
1537921769379565,12,4,-5,-46,-17,-5,7,-4
1537921769393527,17,-3,-32,-20,-4,-6,-19,-6
1537921769393527,6,9,57,96,33,-1,-7,7
1537921769400508,-10,-10,-25,-21,-3,3,-2,3
1537921769400508,17,11,11,-2,0,-4,-9,-3
1537921769417463,4,-5,-6,-12,-6,-4,-4,0
1537921769417463,3,-8,-15,-6,-1,0,-2,-3
1537921769418462,-7,4,2,5,0,3,-5,4
1537921769418462,16,-1,4,-5,-4,-6,2,-5
1537921769439404,5,-5,-13,-30,-5,1,-4,-3
1537921769439404,-2,-2,-2,-8,-2,-3,-4,-2
1537921769441399,3,3,4,33,5,2,-7,3
1537921769441399,7,-2,-7,-9,-2,-2,4,-2
1537921769454364,0,1,10,-16,-1,-1,-2,-4
1537921769454364,-2,-2,8,18,5,-1,-4,1
1537921769460348,-2,1,-3,-19,-7,1,5,1
1537921769460348,-1,-12,-12,11,8,-1,3,-2
1537921769476305,-1,0,27,38,-4,1,-5,2
1537921769476305,4,1,-12,-26,-4,-1,-3,-1
1537921769483287,-2,9,2,5,-4,2,-1,-1
1537921769483287,4,20,5,7,2,1,0,-3
1537921769490268,0,-5,-5,-9,-3,-5,-4,-1
1537921769490268,4,2,-6,-17,-6,3,-1,2
1537921769499244,-5,2,2,20,3,-2,-1,-3
1537921769499244,-2,-4,-3,-6,-8,-4,-1,1
1537921769514204,1,3,0,6,5,-3,-1,-3
1537921769514204,-1,-11,-2,9,2,-2,1,3
1537921769521185,-5,-9,-9,-23,-1,-1,-2,0
1537921769521185,3,-2,-10,-13,-2,0,0,0
1537921769536145,0,0,9,-18,-7,-2,-1,-2
1537921769536145,-2,0,12,59,9,2,-2,1
1537921769543127,-1,-4,-7,-9,-1,-2,1,-1
1537921769543127,2,-3,2,3,-2,-1,-2,-3
1537921769551105,-1,-2,-12,-5,3,1,-1,-3
1537921769551105,1,0,-11,-61,-9,-5,-6,-3
1537921769560081,-1,-4,21,49,1,-1,-3,-1
1537921769560081,-2,-1,4,32,0,-3,5,2
1537921769574044,-2,2,-9,-6,-4,0,-2,0
1537921769574044,0,0,-2,-14,-3,-2,-2,-1
1537921769581025,1,-1,-15,-26,-6,-1,-2,-1
1537921769581025,0,0,12,-22,5,0,-5,-6
1537921769595986,2,1,11,51,14,1,3,3
1537921769595986,-3,-3,-2,-1,-2,-1,-1,0
1537921769602967,-1,-1,-12,-21,-3,2,-2,2
1537921769602967,3,0,16,6,-2,0,-4,0
1537921769610945,-2,-1,-3,8,0,1,1,1
1537921769610945,-2,-2,-4,2,1,1,-3,0
1537921769619921,-5,-6,-11,-27,-11,0,-1,-2
1537921769619921,3,-1,-7,0,6,0,-5,-3
1537921769633884,0,0,4,-4,0,0,-1,0
1537921769633884,-3,0,7,23,-1,-2,6,3
1537921769640865,-2,-4,-3,-13,0,-1,-2,-2
1537921769640865,-1,-1,-1,9,-1,2,1,-2
1537921769656823,1,-2,-16,-25,-5,-3,-3,-2
1537921769656823,-2,-1,-5,-5,-3,-2,-1,-1
1537921769662807,1,3,6,-7,0,1,2,1
1537921769662807,-1,-3,-2,20,2,-2,-1,0
1537921769679761,-1,2,3,13,-2,0,-3,-3
1537921769679761,-2,-2,1,-1,-5,0,0,3
1537921769680759,-2,-4,-6,-18,0,-1,0,-1
1537921769680759,3,-2,-8,-3,1,1,-4,-4
1537921769693724,-1,0,5,-16,-3,-1,0,0
1537921769693724,-2,-3,6,16,0,-1,1,-1
1537921769700705,1,3,8,18,2,2,0,1
1537921769700705,-2,-2,-9,-9,-5,-2,-2,0
1537921769716662,-2,-4,-22,-18,-2,-3,-2,-4
1537921769716662,1,0,6,-20,1,3,-1,-2
1537921769723644,1,3,4,30,7,1,2,0
1537921769723644,-2,1,14,7,-3,0,3,1
1537921769739601,-2,-1,-1,7,2,-1,0,-1
1537921769739601,0,0,-12,-19,-6,-4,-2,1
1537921769740599,-3,-3,-3,-13,-4,-2,-2,-1
1537921769740599,-4,1,6,4,2,1,1,-1
1537921769753564,-2,0,1,-2,-1,-1,-1,-1
1537921769753564,0,-1,-12,-13,-2,0,0,0
1537921769762540,0,-1,-9,8,-1,-3,-1,0
1537921769762540,-1,4,31,-20,-4,0,-2,-3
1537921769776502,0,0,15,76,3,-1,2,2
1537921769776502,1,2,-2,5,9,1,0,2
1537921769783484,-4,-5,-14,-3,-4,-2,-1,-1
1537921769783484,0,-2,-11,-34,-5,-4,-3,-3
1537921769799441,-1,0,-8,-25,-9,0,1,-3
1537921769799441,-3,0,2,1,-5,3,-2,-2
1537921769801436,1,-1,4,-8,3,1,-1,-1
1537921769801436,0,-3,-2,2,-4,-1,0,1
1537921769813404,-2,0,3,-1,3,0,1,0
1537921769813404,2,-3,-10,10,1,-1,1,1
1537921769820385,-1,0,1,-25,-5,-2,-3,-2
1537921769820385,-2,-3,1,30,-2,-2,0,2
1537921769836343,0,0,4,2,0,1,-1,1
1537921769836343,-4,1,12,-18,0,-1,-3,-2
1537921769843324,1,3,7,33,3,0,0,0
1537921769843324,1,1,-12,-7,1,1,0,0
1537921769859281,-1,-5,-10,-42,-3,-1,-4,-4
1537921769859281,1,0,7,48,-3,-2,-1,-3
1537921769861276,-3,-2,3,-14,-2,-3,0,2
1537921769861276,0,5,0,9,2,0,-3,-3
1537921769874241,1,-3,-15,-23,-2,0,2,0
1537921769874241,0,-1,-8,-47,-6,-1,-5,-4
1537921769881223,-3,-2,11,32,2,-2,1,0
1537921769881223,-2,0,5,-1,0,1,1,-1
1537921769896183,-1,-2,-2,17,-1,0,1,-1
1537921769896183,0,0,-7,-4,-1,-1,1,1
1537921769903164,0,1,-2,-6,-1,2,-4,-1
1537921769903164,-1,-1,-12,-22,3,-5,-5,-1
1537921769919122,-1,3,18,10,-12,-2,-4,2
1537921769919122,-1,5,20,26,6,0,2,3
1537921769921116,0,-5,-11,-7,3,-1,0,-2
1537921769921116,0,-3,-7,-6,1,2,-1,-1
1537921769934082,-1,-3,-22,-46,-5,-2,-2,-2
1537921769934082,1,3,3,20,4,0,-2,-4
1537921769948044,0,1,4,-4,-4,0,1,1
1537921769948044,-1,-3,7,30,2,0,-1,-2
1537921769956023,-1,6,26,40,6,-3,2,1
1537921769956023,-2,-4,-19,-42,-5,-3,-3,-2
1537921769963004,0,-7,-35,-46,-9,-2,-1,-3
1537921769963004,1,-1,22,28,-6,-4,-1,-4
1537921769979959,-4,0,-2,5,2,1,0,0
1537921769979959,-2,2,11,-22,0,-1,-1,-5
1537921769980957,3,-4,8,51,-1,1,1,0
1537921769980957,-6,-6,-18,0,6,-1,0,2
1537921769993922,-1,-1,-16,-18,-13,-1,-2,0
1537921769993922,1,2,-31,-69,-12,-3,-4,-2
1537921770000903,0,3,45,41,-9,0,-2,-6
1537921770000903,-10,-8,10,42,16,0,9,11
1537921770016860,4,1,-34,-7,19,3,-3,-1
1537921770016860,1,1,27,-14,-13,-3,-3,-3
1537921770024839,2,15,0,-58,-10,-4,-15,-25
1537921770024839,8,-9,-3,35,-12,-7,15,10
1537921770039799,-21,-36,-38,-34,4,-11,2,10
1537921770039799,-3,11,-35,13,18,11,7,-10
1537921770040797,21,22,36,-77,-11,28,2,18
1537921770040797,-4,7,86,88,10,-30,-21,-20
1537921770052764,-12,-46,-64,41,5,-4,18,-13
1537921770052764,1,-1,-55,-23,-3,32,47,33
1537921770061741,16,38,34,-46,-2,15,-13,32
1537921770061741,6,17,71,29,-9,3,-11,-18
1537921770076700,-6,8,78,59,11,-26,-11,-2
1537921770076700,-22,-27,-32,3,12,-50,-42,-42
1537921770083682,-14,-18,-75,-65,-18,3,36,-2
1537921770083682,17,1,-80,-128,-29,21,-1,11
1537921770099639,9,10,-2,-98,-11,3,-21,-18
1537921770099639,11,12,82,120,31,19,12,20
1537921770100637,-19,-29,-27,-6,11,-28,-2,11
1537921770100637,-15,-12,-86,-100,-20,-17,-10,-28
1537921770113602,16,35,63,74,5,28,15,16
1537921770113602,3,-9,10,-6,1,1,-7,6
1537921770122578,-11,-27,11,88,-17,-16,1,5
1537921770122578,-9,-2,-25,-17,30,6,8,3
1537921770136540,-9,-6,-42,-87,-29,-21,-37,-35
1537921770136540,13,36,2,-96,2,24,3,-32
1537921770143522,33,17,84,100,6,12,25,72
1537921770143522,-33,-40,-31,70,31,3,12,18
1537921770159479,2,8,-18,-38,6,2,-3,4
1537921770159479,-12,-11,2,-24,-27,-27,-29,-27
1537921770161474,-7,-4,-51,-121,-10,-5,-9,-50
1537921770161474,20,36,31,-25,-9,10,-1,5
1537921770173442,-4,-1,97,127,37,-1,9,16
1537921770173442,-6,-11,-21,-30,-4,-12,-7,0
1537921770182418,-12,-17,-51,-76,-20,-12,14,-14
1537921770182418,11,12,-7,-33,7,29,14,25
1537921770196380,20,33,49,51,9,37,-5,6
1537921770196380,6,-2,30,35,8,0,11,6
1537921770203361,-1,-11,-7,32,24,-11,-15,12
1537921770203361,-25,-24,-35,-14,-40,-39,-10,-29
1537921770219319,-4,-9,-41,-53,-3,1,13,4
1537921770219319,-2,3,4,39,6,3,-7,4
1537921770221313,-9,-1,27,20,6,-7,-15,-27
1537921770221313,7,0,-24,0,-1,1,1,10
1537921770233281,6,2,12,-78,-7,6,-3,-8
1537921770233281,1,4,49,112,4,2,12,24
1537921770242258,-9,-7,-16,-12,17,-4,-4,-18
1537921770242258,5,5,8,-19,-17,5,-4,7
1537921770256220,-11,-10,-9,2,-4,-25,-19,-14
1537921770256220,-3,-4,-20,-60,-14,2,-6,-19
1537921770263201,29,26,22,42,24,39,45,65
1537921770263201,-3,-4,16,1,8,3,-26,-13
1537921770279159,1,-2,-26,-11,-12,-11,10,-3
1537921770279159,-4,-8,-18,-62,-24,-11,1,22
1537921770281154,-1,4,26,54,10,4,-27,-35
1537921770281154,-5,-7,-2,-22,3,-3,6,-6
1537921770293122,8,12,17,25,5,-3,1,1
1537921770293122,-5,-17,-19,37,-4,-4,7,6
1537921770302098,-13,-10,-39,-40,-12,-6,-5,-7
1537921770302098,8,14,24,-1,1,1,-2,4
1537921770316060,-5,-3,-14,-40,-18,-5,-1,-8
1537921770316060,0,0,0,-17,5,4,4,6
1537921770323042,-1,4,11,19,0,-9,-13,-10
1537921770323042,-4,0,12,29,7,0,-1,-4
1537921770339996,-2,-10,-20,-25,-12,-1,4,8
1537921770339996,0,-2,-8,-28,-2,4,1,0
1537921770340994,-4,6,15,49,13,-5,-7,-1
1537921770340994,1,1,17,-11,-12,-9,0,-18
1537921770352962,3,-1,-16,7,0,11,13,23
1537921770352962,1,-5,-11,-17,6,0,-11,8
1537921770361938,-14,-9,-11,-16,-12,-17,-26,-42
1537921770361938,6,5,-3,-7,6,9,27,25
1537921770375901,11,10,6,12,4,20,8,26
1537921770375901,-3,-2,11,10,-8,-9,-15,-20
1537921770382882,-3,-4,-8,5,2,-4,-3,-1
1537921770382882,-5,-2,0,-2,-4,-16,-14,-12
1537921770399837,-4,-3,-12,-17,-3,-3,4,-10
1537921770399837,7,3,-8,-37,-11,12,9,14
1537921770400834,-1,-4,19,-3,0,-3,-1,-4
1537921770400834,-1,-7,-9,57,18,-4,-1,3
1537921770412802,-4,0,4,11,5,-4,-1,-4
1537921770412802,1,-1,-3,4,2,-5,-1,1
1537921770421778,-2,0,-7,-21,-9,1,1,-3
1537921770421778,3,2,8,-12,-2,5,-4,-3
1537921770436738,-5,-11,-11,-7,-6,-5,-1,-1
1537921770436738,-1,2,-8,-14,-7,-2,0,-2
1537921770442721,2,0,5,15,2,6,3,4
1537921770442721,-2,2,6,2,-1,2,-1,2
1537921770458679,0,-1,-5,-12,-1,-5,-4,-4
1537921770458679,-3,-3,8,14,-2,-6,1,-4
1537921770465660,-4,-3,-19,-23,-1,4,5,3
1537921770465660,2,3,6,-15,0,3,-1,0
1537921770473639,-2,2,14,47,7,-5,-5,-8
1537921770473639,-2,0,10,1,-2,-3,5,3
1537921770481618,-1,-1,-9,-8,-1,-3,1,1
1537921770481618,0,1,-2,-2,-3,2,-1,-1
1537921770496578,-3,-5,-14,-13,-3,-1,-1,1
1537921770496578,1,-3,-5,-7,-2,-2,-1,-4
1537921770503559,-3,-1,-1,3,1,1,1,1
1537921770503559,2,0,-6,-10,0,2,-1,-1
1537921770518519,0,1,11,-4,-5,-3,-4,0
1537921770518519,-4,0,4,36,3,0,1,1
1537921770525501,1,-2,-6,-22,-3,-2,0,-1
1537921770525501,-1,-8,-24,-21,-7,-2,0,1
1537921770541458,1,3,16,0,6,1,-1,-2
1537921770541458,-1,2,12,10,1,-3,-2,0
1537921770542455,-1,-4,-8,21,1,1,1,0
1537921770542455,0,2,7,-3,1,0,-2,1
1537921770557416,-3,-6,-15,-11,-2,-3,-1,-1
1537921770557416,1,-1,-4,-17,-6,-1,2,1
1537921770563400,1,0,6,-20,-2,0,1,-2
1537921770563400,2,0,4,37,7,2,-1,-3
1537921770578360,-2,-1,1,3,1,-3,0,0
1537921770578360,-2,3,13,34,11,2,-2,-2
1537921770585341,-1,-3,-5,2,-5,-4,1,2
1537921770585341,0,1,-2,-13,-3,-2,2,-2
1537921770601298,-1,-2,-3,-21,-7,-1,-1,-3
1537921770601298,-1,-3,-12,-9,-1,-1,-3,-1
1537921770602296,1,-2,0,-7,-1,-1,-1,-2
1537921770602296,-3,0,-2,-19,-6,-2,-2,-1
1537921770617256,-1,-3,0,-11,-1,-1,-3,-3
1537921770617256,-3,3,18,58,8,0,1,-1
1537921770623239,0,-2,-10,-3,1,-2,-1,2
1537921770623239,1,4,25,22,2,1,0,2
1537921770638200,1,-3,-22,-42,-6,-2,-1,-1
1537921770638200,-2,-4,-12,-12,-7,-1,-2,-1
1537921770646178,-3,2,12,24,2,-1,-3,-3
1537921770646178,-2,-9,-9,-5,1,-1,0,3
1537921770661138,-4,0,4,8,-2,-1,-1,-1
1537921770661138,3,0,-1,-12,0,-2,0,-1
1537921770662136,-3,3,-1,-5,-4,0,-1,-5
1537921770662136,1,1,-15,-21,-6,0,-1,-1
1537921770677096,-2,-3,16,9,3,-4,-1,1
1537921770677096,0,-1,-8,-2,-16,-3,0,5
1537921770683080,-1,-3,-16,-16,2,1,-1,0
1537921770683080,-3,2,24,2,-1,-3,-2,-5
1537921770698039,-2,2,-1,16,2,-1,0,1
1537921770698039,-3,-3,-4,30,7,-2,0,-2
1537921770706018,1,-1,11,1,-3,0,-1,-1
1537921770706018,1,-1,-14,2,1,1,-3,1
1537921770720978,-1,-3,-14,-28,-3,1,1,0
1537921770720978,-3,-2,4,-25,-8,0,-3,-4
1537921770721975,-2,-2,4,13,1,-4,-2,2
1537921770721975,-1,-1,0,1,5,1,2,-1
1537921770736935,3,1,1,8,0,-2,0,-1
1537921770736935,2,0,-6,-20,2,-1,-2,0
1537921770742919,3,4,6,-19,-2,2,-1,-3
1537921770742919,-1,0,6,25,0,-1,-3,2
1537921770757879,-3,-10,-13,-14,3,-2,3,2
1537921770757879,1,1,-4,12,-3,0,-1,-2
1537921770765858,-2,3,7,3,0,-1,0,0
1537921770765858,3,2,3,11,-1,-2,-3,-3
1537921770781815,0,1,2,1,-4,-1,-3,-3
1537921770781815,-2,-2,-3,-12,1,-3,-1,-3
1537921770781815,-4,-6,-24,-48,-5,-2,-3,-2
1537921770781815,0,5,33,53,0,0,0,-2
1537921770796775,-1,6,1,32,11,3,1,5
1537921770796775,2,0,17,-24,-3,-1,-3,-3
1537921770802759,-2,-2,-6,23,-1,-1,2,-1
1537921770802759,-3,-7,-22,-47,-3,0,0,-4
1537921770817719,-1,-2,1,4,-5,-4,-2,-2
1537921770817719,0,-1,-7,-6,2,0,-3,1
1537921770825698,2,-2,-12,-45,-2,-2,-2,-2
1537921770825698,0,1,3,4,-7,-3,-1,0
1537921770841655,2,7,24,69,5,7,6,-2
1537921770841655,-4,-4,-2,-31,3,-4,2,1
1537921770841655,-1,4,21,63,0,-4,0,2
1537921770841655,-1,-6,-25,-40,1,-2,0,1
1537921770856615,-1,-1,0,-15,-10,-2,-3,-1
1537921770856615,1,-3,-20,-21,-4,0,-4,-1
1537921770863597,0,1,15,27,7,5,-1,-2
1537921770863597,-3,-2,-6,-25,-3,-1,-2,-1
1537921770878557,-1,-2,-7,-10,-1,-2,-2,-4
1537921770878557,1,0,4,30,1,1,1,6
1537921770885538,-2,-2,-5,-12,2,-4,-1,2
1537921770885538,2,1,1,4,-5,1,0,2
1537921770901495,0,1,3,-22,0,-1,-3,-1
1537921770901495,-3,2,0,-3,1,1,-1,-4
1537921770902493,0,3,15,-2,2,-1,0,-5
1537921770902493,-1,-5,-5,28,-3,-2,5,5
1537921770917453,-2,-4,-15,-26,-2,-1,0,3
1537921770917453,0,0,6,9,-3,0,0,-2
1537921770923437,-5,-4,-9,-9,-7,-1,-5,-1
1537921770923437,4,6,3,-10,5,1,1,-1
1537921770938397,-2,-3,4,0,-5,-1,-2,-4
1537921770938397,-1,2,-4,2,0,1,1,0
1537921770945378,1,1,0,-3,1,-1,-4,1
1537921770945378,-2,-5,2,4,0,-2,-4,-2
1537921770961336,-2,-3,-6,-6,0,-1,2,2
1537921770961336,0,-2,-2,-1,-8,-1,2,0
1537921770962333,0,0,1,5,-1,1,3,0
1537921770962333,-4,-3,1,-2,0,-1,-2,-2
1537921770977293,0,2,5,7,2,-1,-2,-1
1537921770977293,-1,-4,-2,-3,5,0,2,-2
1537921770983277,0,-4,-5,1,-1,0,-1,3
1537921770983277,0,3,-4,-6,0,0,-1,-4
1537921770998237,-1,-2,-2,-10,-1,-1,-4,-3
1537921770998237,-1,1,3,4,-2,-1,0,0
1537921771005219,1,1,-1,0,-3,0,0,0
1537921771005219,0,-5,-4,-1,1,0,-1,-2
1537921771021176,0,3,3,-5,-2,1,-3,-2
1537921771021176,-3,-1,4,9,2,-4,1,0
1537921771022174,0,-3,-10,-1,0,2,-1,0
1537921771022174,-3,0,0,-30,-5,-1,-4,-2
1537921771037134,2,2,9,39,2,2,-2,1
1537921771037134,1,3,3,1,8,4,2,1
1537921771043117,-1,2,-1,-1,-2,-2,2,-1
1537921771043117,-2,0,-1,-3,-3,-3,1,-2
1537921771058078,-2,-5,-9,-20,-6,-1,0,-1
1537921771058078,0,-3,-2,-3,-1,-2,-4,-2
1537921771066056,-1,-3,4,1,2,0,-2,1
1537921771066056,2,-2,-5,-10,1,-1,-2,-1
1537921771081016,1,2,2,5,2,0,-1,0
1537921771081016,1,-2,-1,6,-7,-4,0,0
1537921771082013,-2,3,6,-2,1,1,1,-1
1537921771082013,-3,-4,-13,-10,-2,-1,-1,0
1537921771096973,0,2,11,12,1,1,-2,-2
1537921771096973,-4,-1,-4,23,4,-1,-3,-2
1537921771102957,1,2,-1,8,-2,-1,1,2
1537921771102957,-2,-3,-5,-24,-4,-1,0,0
1537921771117917,-3,-1,6,3,-3,-3,-1,-2
1537921771117917,2,0,-2,-5,0,0,0,0
1537921771125896,-1,0,6,4,-3,-2,-6,-4
1537921771125896,1,-3,-1,11,1,-1,1,0
1537921771140856,-3,-1,-13,-29,-5,-1,-2,-2
1537921771140856,2,-4,-3,-11,-1,0,2,5
1537921771141853,-6,0,4,5,1,-3,-4,-13
1537921771141853,2,1,1,7,0,-1,1,5
1537921771156813,-5,-4,-4,2,-3,-1,-1,-9
1537921771156813,-3,-1,0,1,-1,-2,-3,-3
1537921771162797,4,-2,-6,-7,0,0,4,7
1537921771162797,0,3,4,9,0,0,1,1
1537921771179752,-12,-11,-3,-2,1,0,1,-1
1537921771179752,-1,0,0,-7,-3,-2,-6,-16
1537921771185736,-2,2,0,5,-2,-2,1,12
1537921771185736,1,2,5,11,-2,2,-4,-12
1537921771201693,1,-1,-2,-2,-3,-1,1,2
1537921771201693,2,-5,-5,-16,-1,-1,0,-1
1537921771201693,2,9,4,7,6,4,-2,0
1537921771201693,-4,-6,3,8,1,-3,2,4
1537921771216654,3,1,-4,-6,-10,-2,0,1
1537921771216654,-3,4,-1,0,4,-1,-1,2
1537921771223634,5,-4,-2,-6,-3,-2,1,-2
1537921771223634,0,2,-5,2,4,4,3,2
1537921771238594,4,1,-2,-13,0,2,-4,-4
1537921771238594,-2,-1,7,10,-3,-3,3,2
1537921771245576,0,1,-5,-1,2,2,1,1
1537921771245576,-8,-5,5,9,-1,-3,-4,-2
1537921771261533,-2,4,-4,-10,-3,-2,-2,0
1537921771261533,-1,0,0,-2,-5,-4,-5,-1
1537921771262531,-2,-6,-5,-4,-1,1,3,-1
1537921771262531,4,9,13,7,6,2,1,1
1537921771277490,-2,-5,-3,-2,-3,-4,-2,1
1537921771277490,1,3,2,-2,3,3,-3,-1
1537921771283474,0,-2,-2,-4,-7,-2,-1,3
1537921771283474,-10,1,0,0,-1,0,-2,-6
1537921771298434,13,7,3,5,1,-1,-1,2
1537921771298434,-7,-8,-4,-2,0,0,1,-1
1537921771305416,-2,-1,-3,-7,-4,-2,-4,-3
1537921771305416,1,-5,-1,2,-2,-2,0,0
1537921771321373,0,1,0,3,4,1,2,3
1537921771321373,-1,1,6,0,-2,12,-3,-2
1537921771322370,7,-2,-3,-1,0,59,-4,-11
1537921771322370,2,7,2,3,0,11,3,2
1537921771337330,10,3,-4,-7,-2,-4,-2,1
1537921771337330,9,3,1,4,3,-42,6,3
1537921771343314,44,-2,0,2,-2,-57,-1,3
1537921771343314,118,-3,2,4,0,-18,-2,-18
1537921771358274,122,11,19,11,-8,7,15,29
1537921771358274,83,23,47,15,-26,63,50,90
1537921771365256,-70,35,54,30,-20,55,-6,26
1537921771365256,-124,92,-9,-2,3,52,-11,17
1537921771380216,-128,36,-36,-19,14,56,-40,-90
1537921771380216,-74,65,-59,-33,19,-10,-51,-80
1537921771388194,80,112,-38,-26,13,-60,1,-15
1537921771388194,116,125,-6,-7,3,-113,16,-4
1537921771397171,127,-83,-13,-8,5,-128,-12,-20
1537921771397171,127,-111,-22,-7,25,-103,24,58
1537921771403155,81,-128,-30,-22,3,-39,-41,-83
1537921771403155,-2,-128,-25,-16,5,59,4,18
1537921771418115,-65,75,12,8,-1,82,11,12
1537921771418115,-76,79,14,4,-25,91,-18,-79
1537921771426093,0,86,12,10,1,47,55,110
1537921771426093,-56,101,8,4,-11,10,-23,-42
1537921771441053,-7,118,22,33,10,44,45,81
1537921771441053,12,88,9,-4,-20,5,-22,-16
1537921771448035,2,22,10,2,-13,-25,-29,-29
1537921771448035,-6,-71,10,9,-16,-15,-27,-44
1537921771457011,-80,-128,-2,-4,-5,-6,7,-27
1537921771457011,-67,42,3,1,16,8,26,-29
1537921771462995,-43,23,-19,0,-5,-27,-26,75
1537921771462995,-128,15,-85,12,-1,14,22,28
1537921771477955,-113,40,-10,27,-26,30,42,51
1537921771477955,-46,-46,90,28,-16,9,-21,-33
1537921771485933,31,-100,127,1,18,14,-1,-45
1537921771485933,127,-78,127,-23,4,-59,-49,56
1537921771500893,127,-26,105,-39,21,-19,-5,40
1537921771500893,125,-1,95,-24,7,-22,-42,-72
1537921771507874,86,-58,-93,-20,2,-21,-28,46
1537921771507874,105,-128,-126,-21,12,21,41,-48
1537921771523832,127,-24,-128,-6,13,-18,-46,-83
1537921771523832,105,-72,-27,-19,-9,-4,37,-33
1537921771524829,35,-32,3,1,12,37,20,22
1537921771524829,-47,5,-97,-4,-12,15,13,-63
1537921771537795,-49,29,-79,3,-2,-6,-13,-29
1537921771537795,-128,11,-128,4,-7,-7,0,44
1537921771545773,-128,49,-64,9,-15,9,0,-99
1537921771545773,-83,95,61,8,-11,28,18,79
1537921771560733,-116,27,125,5,-30,-48,-78,-108
1537921771560733,12,34,35,2,26,41,86,127
1537921771567715,-94,30,78,3,-28,-45,-17,-58
1537921771567715,-57,-50,72,13,5,28,26,36
1537921771583672,32,45,36,-3,-10,0,18,12
1537921771583672,-52,-12,20,3,8,-5,-19,-13
1537921771584670,-114,-1,12,5,0,22,12,-50
1537921771584670,-65,46,0,0,-3,-28,-43,-7
1537921771598632,-29,9,2,1,9,9,38,-32
1537921771598632,40,-19,-8,0,-3,-10,-40,-8
1537921771605613,118,39,-32,-11,11,21,37,46
1537921771605613,69,-4,26,3,-6,-34,-51,-63
1537921771620573,19,-2,-22,1,16,33,56,112
1537921771620573,-31,10,-3,0,-7,-10,-18,-10
1537921771628552,-29,-24,-12,-2,0,-1,5,30
1537921771628552,5,24,2,1,3,9,12,-16
1537921771637528,-11,-2,-4,-4,-3,-2,-9,-1
1537921771637528,-22,-36,-8,0,2,2,4,-1
1537921771643512,5,11,-2,2,1,-5,3,15
1537921771643512,11,3,-2,0,1,7,13,7
1537921771658472,3,-16,3,1,-4,-5,-7,3
1537921771658472,-2,-4,-7,-2,-5,-7,-6,0
1537921771665454,-4,-6,1,0,-2,-1,-7,-11
1537921771665454,7,15,1,-2,0,6,6,7
1537921771674430,-1,-30,-4,-6,-4,-11,-9,6
1537921771674430,-1,2,-2,-1,0,-3,-4,-14
1537921771688392,-3,4,0,-3,1,5,3,-4
1537921771688392,6,-7,-2,4,3,-3,4,8
1537921771697368,6,-8,4,0,1,-1,-3,-7
1537921771697368,1,-4,-7,5,-1,-1,1,4
1537921771703352,1,-6,1,-4,0,0,3,-5
1537921771703352,-4,1,0,-15,-3,-1,-1,-5
1537921771718312,-4,-22,6,10,-2,-2,-6,-2
1537921771718312,-1,1,3,13,-3,1,1,5
1537921771725293,-4,5,-3,-4,1,-2,1,-5
1537921771725293,-1,15,7,28,18,0,-4,-9
1537921771734269,3,1,-26,-61,-29,-3,0,7
1537921771734269,-4,-9,-1,-16,2,-5,0,6
1537921771748232,3,0,1,-4,-2,-3,1,-5
1537921771748232,1,-8,1,7,4,1,5,1
1537921771757208,-7,-10,8,35,-2,-1,-9,-15
1537921771757208,1,13,8,0,9,3,4,11
1537921771763192,-1,-3,5,4,0,-4,-4,-7
1537921771763192,4,-1,-1,2,1,1,2,1
1537921771778152,-3,-9,4,16,5,-3,-4,-4
1537921771778152,-3,-3,-12,-18,-10,-5,-7,-9
1537921771786131,0,0,-3,-11,2,5,4,3
1537921771786131,1,-2,2,-1,-5,-1,4,6
1537921771794109,-1,1,9,18,5,-2,-3,0
1537921771794109,-2,-2,9,23,0,0,-2,-4
1537921771808072,-1,-3,-18,-26,12,1,-2,-6
1537921771808072,2,-7,-27,-54,-33,-3,0,3
1537921771817048,2,3,5,-7,-1,-3,-2,6
1537921771817048,0,1,-5,12,5,-2,-1,4
1537921771823032,-1,-4,7,5,1,1,-6,-3
1537921771823032,-1,8,14,17,1,2,-2,-5
1537921771837992,0,1,1,-1,7,0,-2,-2
1537921771837992,0,-1,-3,-10,-2,-1,1,0
1537921771845971,-3,-5,-1,11,-14,-6,-2,-2
1537921771845971,0,-4,-6,-9,7,2,0,-1
1537921771854947,-5,-6,5,3,-5,-2,-2,1
1537921771854947,-2,-2,-2,0,3,1,-1,-3
1537921771867912,0,3,-1,-5,-5,-1,4,3
1537921771867912,2,1,5,8,-3,-2,-4,0
1537921771876888,-2,-3,-5,-2,2,-2,0,-2
1537921771876888,-4,-5,-7,-17,0,-2,-2,-2
1537921771891848,-2,-1,2,3,7,0,-1,-4
1537921771891848,-1,-7,3,4,18,-3,2,-2
1537921771897832,3,7,2,12,76,2,0,2
1537921771897832,-3,2,-1,-3,77,0,-2,0
1537921771914786,-4,5,13,-10,86,-1,0,-2
1537921771914786,-1,-2,-9,-12,107,-3,2,1
1537921771915784,0,-3,-10,-12,105,-2,0,2
1537921771915784,-1,-4,7,8,127,-3,-2,1
1537921771927752,3,7,12,19,113,5,2,3
1537921771927752,-5,-9,-2,-1,-91,25,-4,-7
1537921771936737,-5,-5,-8,-7,-121,106,-5,-10
1537921771936737,-1,0,-7,-1,-128,64,-1,-7
1537921771942712,-5,-6,-11,-3,-128,-51,-2,-7
1537921771942712,-1,-4,-5,-6,-110,-111,-5,-3
1537921771957672,-3,-4,-6,-3,-111,-128,-5,-4
1537921771957672,0,1,-6,-6,-36,-75,0,-3
1537921771965651,10,10,-1,2,79,27,2,1
1537921771965651,15,11,12,4,127,28,-21,-12
1537921771980611,4,-6,9,-5,127,43,-2,-7
1537921771980611,-5,2,4,-4,103,27,-2,-10
1537921771988590,11,5,3,3,42,11,-7,5
1537921771988590,1,4,-1,5,38,25,2,3
1537921771997566,-22,-22,2,-6,28,5,-14,-45
1537921771997566,-9,3,4,-3,-7,-20,-14,-14
1537921772003550,-4,-5,4,7,-25,6,-4,-7
1537921772003550,-12,2,3,4,-3,4,4,8
1537921772018510,-1,4,-1,0,-7,6,8,16
1537921772018510,25,0,4,2,-12,-13,-20,-14
1537921772025491,-35,-19,-4,-4,-32,-10,-7,14
1537921772025491,14,27,-1,4,-7,14,45,93
1537921772040451,-26,-16,-2,-3,-7,-8,-1,-25
1537921772040451,50,51,5,7,-12,-4,-12,-9
1537921772048430,-59,-60,-4,0,-4,5,3,-2
1537921772048430,57,16,-7,2,2,36,-13,-69
1537921772055411,-54,-53,3,-11,-7,-63,9,80
1537921772055411,-67,-41,7,1,-6,6,-26,-94
1537921772063392,33,6,-3,11,6,63,41,5
1537921772063392,-73,-73,0,-10,-8,-30,-31,-44
1537921772078350,64,4,-13,0,1,20,27,-27
1537921772078350,-20,-28,-4,-8,-1,-6,9,21
1537921772085332,-6,-10,5,-3,-18,-32,-39,-85
1537921772085332,-30,7,0,1,12,29,-17,-71
1537921772100291,16,-11,6,5,-5,-18,-8,46
1537921772100291,11,76,-8,2,-2,15,51,71
1537921772109267,-42,-38,6,5,-5,15,-37,-96
1537921772109267,-4,4,-2,3,-2,-26,40,46
1537921772115251,19,54,7,-12,-22,-28,-23,37
1537921772115251,-11,-36,-2,6,9,24,18,72
1537921772123229,-20,1,-5,-5,-12,13,-20,-65
1537921772123229,-23,-44,-6,3,-2,-13,67,115
1537921772138189,-28,-4,8,13,16,23,-19,-107
1537921772138189,11,14,1,1,5,23,18,-60
1537921772145171,-37,-10,2,-10,-10,-20,-17,-1
1537921772145171,-102,-38,-2,-7,-2,-3,-42,-60
1537921772161128,-25,-34,3,1,8,19,79,110
1537921772161128,-14,7,0,-7,-28,-56,-56,-47
1537921772169107,-35,-55,-6,2,9,2,6,-16
1537921772169107,83,27,-1,5,-15,-27,-25,30
1537921772176089,-12,23,-16,-20,3,22,21,17
1537921772176089,14,-3,-5,-1,5,34,29,43
